Data from test_V78500241_2903.txt Node
Date: Fri Mar 25 14:53:55 CST 2022
User: usil
Spectrometer: V785-0024
Trigger mode: 0
Integration Time (sec): 4.000000E-1
Scans to average: 1
Nonlinearity correction enabled: false
Boxcar width: 0
Storing dark spectrum: false
XAxis mode: Wavelengths
Number of Pixels in Spectrum: 1024
>>>>>Begin Spectral Data<<<<<
801.071	22025
801.214	22032
801.356	21835
801.499	21622
801.641	21443
801.783	21393
801.926	21424
802.068	21466
802.211	21325
802.353	21332
802.496	20925
802.638	20918
802.78	20880
802.923	20807
803.065	20777
803.208	20796
803.35	20826
803.492	20777
803.635	20963
803.777	20785
803.919	20823
804.061	21169
804.204	20937
804.346	20648
804.488	20674
804.63	20792
804.773	20720
804.915	20735
805.057	20781
805.199	20689
805.341	20689
805.483	20762
805.626	20743
805.768	20636
805.91	20678
806.052	20739
806.194	20697
806.336	20880
806.478	20606
806.62	20606
806.762	20720
806.904	20861
807.046	21135
807.188	21112
807.33	21039
807.472	21100
807.614	20963
807.756	20883
807.898	20720
808.04	20674
808.182	20777
808.324	20777
808.465	20849
808.607	21184
808.749	21264
808.891	21131
809.033	21260
809.174	21165
809.316	20998
809.458	20979
809.6	20990
809.741	21142
809.883	21302
810.025	21249
810.166	21256
810.308	21199
810.45	21127
810.591	21108
810.733	20979
810.875	20861
811.016	20785
811.158	20769
811.299	20944
811.441	20975
811.582	21036
811.724	20842
811.865	20880
812.007	20910
812.148	20891
812.29	20868
812.431	20933
812.573	21119
812.714	21230
812.855	21332
812.997	21401
813.138	21568
813.279	21504
813.421	21294
813.562	21473
813.703	21180
813.845	21013
813.986	20720
814.127	20579
814.268	20446
814.41	20556
814.551	20275
814.692	20454
814.833	20309
814.974	20343
815.115	20412
815.256	20370
815.397	20282
815.539	20381
815.68	20168
815.821	20100
815.962	20149
816.103	20054
816.244	19986
816.385	19902
816.526	19799
816.666	19700
816.807	19601
816.948	19685
817.089	19635
817.23	19556
817.371	19468
817.512	19411
817.653	19487
817.793	19407
817.934	19472
818.075	19480
818.216	19449
818.356	19480
818.497	19324
818.638	19194
818.778	19228
818.919	19225
819.06	19213
819.2	19331
819.341	19453
819.481	19381
819.622	19616
819.762	19738
819.903	19620
820.043	19521
820.184	19605
820.324	19354
820.465	19575
820.605	19510
820.746	19480
820.886	19373
821.026	19464
821.167	19426
821.307	19556
821.447	19419
821.588	19194
821.728	19187
821.868	18993
822.008	18920
822.149	18863
822.289	18802
822.429	18722
822.569	18582
822.709	18597
822.849	18521
822.99	18357
823.13	18418
823.27	18372
823.41	18197
823.55	18053
823.69	18228
823.83	18190
823.97	18194
824.11	17977
824.25	18091
824.389	17969
824.529	18038
824.669	17923
824.809	18049
824.949	18102
825.089	17939
825.228	17878
825.368	17798
825.508	17748
825.648	17764
825.787	17748
825.927	17794
826.067	17767
826.206	17676
826.346	17657
826.485	17775
826.625	17619
826.765	17760
826.904	17634
827.044	17490
827.183	17379
827.323	17353
827.462	17467
827.601	17421
827.741	17334
827.88	17474
828.02	17372
828.159	17326
828.298	17478
828.437	17558
828.577	17315
828.716	17512
828.855	17364
828.994	17227
829.134	17155
829.273	17143
829.412	17083
829.551	17083
829.69	17056
829.829	17147
829.968	17277
830.107	17288
830.246	17159
830.385	17189
830.524	17083
830.663	16953
830.802	16900
830.941	16767
831.08	16786
831.219	16854
831.357	16809
831.496	17022
831.635	16653
831.774	16771
831.913	16706
832.051	16626
832.19	16588
832.329	16596
832.467	16451
832.606	16386
832.744	16402
832.883	16466
833.022	16405
833.16	16436
833.299	16500
833.437	16481
833.576	16470
833.714	16489
833.852	16558
833.991	16451
834.129	16615
834.267	16558
834.406	16603
834.544	16512
834.682	16493
834.821	16580
834.959	16691
835.097	16558
835.235	16523
835.373	16535
835.511	16588
835.65	16470
835.788	16398
835.926	16333
836.064	16234
836.202	16272
836.34	16508
836.478	16535
836.615	16382
836.753	16508
836.891	16512
837.029	16443
837.167	16386
837.305	16238
837.443	16261
837.58	16284
837.718	16428
837.856	16398
837.993	16265
838.131	16348
838.269	16238
838.406	16291
838.544	16139
838.681	16036
838.819	16013
838.956	15922
839.094	15812
839.231	15816
839.369	15979
839.506	16135
839.643	16040
839.781	15854
839.918	15869
840.055	15873
840.193	15713
840.33	15781
840.467	15785
840.604	15861
840.742	16078
840.879	15622
841.016	15743
841.153	15713
841.29	15968
841.427	15892
841.564	15861
841.701	15945
841.838	15739
841.975	15747
842.112	15709
842.249	15694
842.385	15644
842.522	15816
842.659	15698
842.796	15648
842.933	15564
843.069	15526
843.206	15591
843.343	15694
843.479	15641
843.616	15739
843.752	15477
843.889	15389
844.025	15576
844.162	15348
844.298	15545
844.435	15405
844.571	15389
844.708	15564
844.844	15648
844.98	15538
845.117	15500
845.253	15351
845.389	15321
845.525	15313
845.661	15367
845.798	15203
845.934	15199
846.07	15127
846.206	15211
846.342	15355
846.478	15283
846.614	15028
846.75	14941
846.886	14982
847.022	15138
847.158	15070
847.294	14914
847.429	15123
847.565	15043
847.701	15150
847.837	14743
847.972	14705
848.108	14754
848.244	14830
848.379	14648
848.515	14568
848.65	14556
848.786	14552
848.921	14659
849.057	14743
849.192	14651
849.328	14587
849.463	14575
849.598	14541
849.734	14507
849.869	14419
850.004	14423
850.14	14442
850.275	14294
850.41	14355
850.545	14415
850.68	14294
850.815	14324
850.95	14298
851.085	14571
851.22	14336
851.355	14320
851.49	14343
851.625	14225
851.76	14282
851.895	14256
852.03	14221
852.165	14320
852.299	14309
852.434	14389
852.569	14438
852.703	14393
852.838	14396
852.973	14450
853.107	14400
853.242	14374
853.376	14252
853.511	14145
853.645	14218
853.78	14393
853.914	14183
854.048	14248
854.183	14225
854.317	14168
854.451	14358
854.585	14145
854.72	14172
854.854	14214
854.988	14183
855.122	14210
855.256	14088
855.39	14161
855.524	14248
855.658	14199
855.792	14183
855.926	14267
856.06	14275
856.194	14355
856.327	14172
856.461	14202
856.595	14157
856.729	14145
856.862	14339
856.996	14271
857.13	14199
857.263	14336
857.397	14263
857.53	14256
857.664	14301
857.797	14221
857.931	14385
858.064	14267
858.197	14351
858.331	14233
858.464	14123
858.597	14164
858.731	14248
858.864	14138
858.997	14210
859.13	14237
859.263	14187
859.396	14278
859.529	14176
859.662	14084
859.795	14157
859.928	14320
860.061	14438
860.194	14423
860.327	14210
860.46	14199
860.592	14317
860.725	14343
860.858	14381
860.99	14278
861.123	14142
861.256	14107
861.388	14191
861.521	14788
861.653	14176
861.786	13974
861.918	14103
862.05	13993
862.183	14206
862.315	14111
862.447	14263
862.58	14145
862.712	14065
862.844	13902
862.976	14096
863.108	14077
863.24	14336
863.372	13883
863.504	13936
863.636	14031
863.768	14020
863.9	13982
864.032	13898
864.164	13902
864.296	14043
864.428	14149
864.559	14130
864.691	14084
864.823	14031
864.954	14043
865.086	13993
865.217	13925
865.349	13811
865.48	13982
865.612	14020
865.743	14153
865.875	13925
866.006	13997
866.137	14001
866.269	13989
866.4	14008
866.531	13963
866.662	13921
866.793	13883
866.924	13959
867.055	13944
867.186	13864
867.317	13868
867.448	13879
867.579	13883
867.71	13841
867.841	13875
867.972	14008
868.103	14001
868.233	14065
868.364	13944
868.495	13982
868.625	14153
868.756	14256
868.886	14172
869.017	14244
869.147	14389
869.278	14206
869.408	14218
869.539	14172
869.669	14252
869.799	14252
869.929	14396
870.06	14286
870.19	14488
870.32	14571
870.45	14549
870.58	14640
870.71	14811
870.84	14651
870.97	14590
871.1	14606
871.23	14864
871.36	14830
871.489	14579
871.619	14804
871.749	14800
871.879	14804
872.008	14929
872.138	14754
872.267	14880
872.397	14735
872.526	14610
872.656	14625
872.785	14674
872.915	14895
873.044	14929
873.173	14891
873.303	14910
873.432	14929
873.561	14853
873.69	14971
873.819	14807
873.948	14887
874.077	14960
874.206	14724
874.335	14693
874.464	15043
874.593	15138
874.722	15062
874.851	15211
874.979	15180
875.108	15332
875.237	15070
875.365	15165
875.494	15127
875.623	15336
875.751	15161
875.88	15256
876.008	15401
876.136	15367
876.265	15599
876.393	15789
876.521	15698
876.65	15774
876.778	15599
876.906	15576
877.034	15523
877.162	15580
877.29	15424
877.418	15641
877.546	15667
877.674	15523
877.802	15561
877.93	15599
878.058	15568
878.185	15511
878.313	15443
878.441	15568
878.568	15363
878.696	15530
878.824	15644
878.951	15732
879.079	15800
879.206	15888
879.333	15778
879.461	15622
879.588	15728
879.715	15709
879.842	15972
879.97	15724
880.097	15469
880.224	15435
880.351	15587
880.478	15473
880.605	15466
880.732	15393
880.859	15679
880.986	15439
881.112	15469
881.239	15382
881.366	15176
881.493	15211
881.619	15097
881.746	15077
881.872	15024
881.999	15001
882.125	15081
882.252	15119
882.378	15184
882.505	15199
882.631	15127
882.757	14918
882.883	14956
883.01	14914
883.136	14971
883.262	14754
883.388	14788
883.514	14960
883.64	15013
883.766	14880
883.892	14826
884.018	14864
884.143	14956
884.269	15051
884.395	14693
884.52	14571
884.646	14678
884.772	14594
884.897	14610
885.023	14670
885.148	14659
885.274	14834
885.399	14777
885.524	14670
885.65	14613
885.775	14712
885.9	14587
886.025	14826
886.15	14667
886.275	14579
886.4	14556
886.525	14705
886.65	14549
886.775	14632
886.9	14724
887.025	14845
887.149	14727
887.274	14552
887.399	14518
887.523	14427
887.648	14446
887.773	14389
887.897	14644
888.021	14549
888.146	14438
888.27	14594
888.395	14583
888.519	14579
888.643	14625
888.767	14518
888.891	14473
889.015	14282
889.139	14423
889.263	14374
889.387	14408
889.511	14587
889.635	14526
889.759	14366
889.883	14377
890.006	14355
890.13	14514
890.254	14358
890.377	14278
890.501	14199
890.624	14161
890.748	14248
890.871	14149
890.995	14069
891.118	14008
891.241	14039
891.364	14020
891.488	14210
891.611	14001
891.734	14008
891.857	14202
891.98	14115
892.103	14263
892.226	14126
892.349	13989
892.471	13925
892.594	14001
892.717	14020
892.839	14031
892.962	14088
893.085	14111
893.207	14065
893.33	13982
893.452	13963
893.575	14176
893.697	13879
893.819	14233
893.941	14309
894.064	14180
894.186	14092
894.308	14084
894.43	14286
894.552	14313
894.674	14210
894.796	14096
894.918	14126
895.04	14027
895.161	14214
895.283	14202
895.405	14077
895.526	14176
895.648	14164
895.769	14191
895.891	14233
896.012	14309
896.134	14301
896.255	14328
896.376	14229
896.498	14161
896.619	14339
896.74	14259
896.861	14374
896.982	14583
897.103	14663
897.224	14571
897.345	14423
897.466	14431
897.587	14549
897.708	14686
897.828	14545
897.949	14484
898.07	14358
898.19	14457
898.311	14556
898.431	14552
898.552	14560
898.672	14743
898.792	14731
898.913	14560
899.033	14598
899.153	14476
899.273	14385
899.393	14434
899.513	14400
899.633	14358
899.753	14476
899.873	14400
899.993	14526
900.113	14450
900.232	14450
900.352	14389
900.472	14396
900.591	14202
900.711	14275
900.83	14317
900.95	14446
901.069	14358
901.189	14259
901.308	14020
901.427	13890
901.546	14005
901.665	14024
901.784	13978
901.904	13959
902.023	13677
902.141	13685
902.26	13575
902.379	13636
902.498	13525
902.617	13430
902.735	13719
902.854	13521
902.973	13499
903.091	13168
903.21	13187
903.328	13396
903.446	13194
903.565	13129
903.683	13213
903.801	13072
903.919	13110
904.038	13122
904.156	12970
904.274	13080
904.392	12909
904.51	12962
904.627	12985
904.745	13084
904.863	12920
904.981	12741
905.098	12681
905.216	12597
905.334	12662
905.451	12623
905.569	12650
905.686	12673
905.803	12608
905.921	12460
906.038	12563
906.155	12407
906.272	12315
906.389	12357
906.506	12190
906.623	12197
906.74	12254
906.857	12144
906.974	12087
907.091	12296
907.208	12342
907.324	12232
907.441	12114
907.557	11939
907.674	11958
907.79	11912
907.907	11935
908.023	12068
908.139	11969
908.256	11882
908.372	11946
908.488	11885
908.604	11794
908.72	11649
908.836	11733
908.952	11718
909.068	11710
909.184	11813
909.3	11699
909.415	11790
909.531	11821
909.647	11505
909.762	11509
909.878	11516
909.993	11497
910.108	11486
910.224	11440
910.339	11520
910.454	11364
910.57	11368
910.685	11220
910.8	11570
910.915	11459
911.03	11414
911.145	11261
911.259	11151
911.374	11216
911.489	11136
911.604	11086
911.718	10968
911.833	10999
911.947	10862
912.062	10755
912.176	10908
912.291	10995
912.405	10908
912.519	11094
912.633	11094
912.748	11056
912.862	10991
912.976	10904
913.09	10710
913.204	10805
913.318	10839
913.431	10984
913.545	10904
913.659	10968
913.772	10835
913.886	10778
914	10725
914.113	10816
914.226	10850
914.34	10828
914.453	10653
914.566	10881
914.68	10702
914.793	10714
914.906	10470
915.019	10371
915.132	10413
915.245	10504
915.358	10523
915.47	10470
915.583	10466
915.696	10573
915.809	10611
915.921	10702
916.034	10470
916.146	10516
916.259	10402
916.371	10535
916.483	10440
916.595	10337
916.708	10394
916.82	10413
916.932	10462
917.044	10394
917.156	10390
917.268	10329
917.38	10280
917.491	10246
917.603	10265
917.715	10348
917.826	10375
917.938	10276
918.049	10204
918.161	10314
918.272	10466
918.384	10443
918.495	10360
918.606	10147
918.717	10090
918.828	10192
918.939	10223
919.05	10112
919.161	10188
919.272	9956
919.383	10097
919.494	10249
919.604	10421
919.715	10204
919.826	10124
919.936	10207
920.047	10223
920.157	10215
920.267	10398
920.378	10173
920.488	10196
920.598	10424
920.708	10558
920.818	10367
920.928	10424
921.038	10577
921.148	10565
921.258	10257
921.368	10162
921.477	10120
921.587	9953
921.697	9941
921.806	10036
921.916	9934
922.025	9819
922.134	9800
922.244	9709
922.353	9736
922.462	9606
922.571	9622
922.68	9424
922.789	9408
922.898	9336
923.007	9374
923.116	9473
923.224	9496
923.333	9469
923.442	9393
923.55	9329
923.659	9275
923.767	9378
923.876	9279
923.984	9370
924.092	9294
924.201	9306
924.309	9408
924.417	9302
924.525	9272
924.633	9230
924.741	10223
924.849	9100
924.956	9214
925.064	9043
925.172	9070
925.279	9062
925.387	9161
925.494	9161
925.602	9313
925.709	9188
925.816	9047
925.924	9085
926.031	9154
926.138	9108
926.245	9192
926.352	8990
926.459	9135
926.566	9123
926.673	9070
926.779	8975
926.886	8967
926.993	8861
927.099	8819
927.206	8758
927.312	8807
927.419	8891
927.525	8819
927.631	8887
927.737	8716
927.843	8754
927.95	8636
928.056	8701
928.162	8758
928.267	8811
928.373	9370
928.479	8826
928.585	8598
928.69	8727
928.796	8804
928.901	8625
929.007	8454
929.112	8621
929.218	8587
929.323	8556
929.428	8640
929.533	8697
929.638	8476
929.743	8571
929.848	8560
929.953	8492
930.058	8457
930.163	8252
930.267	8294
930.372	8434
930.477	8282
930.581	8632
930.685	8404
930.79	8279
930.894	8271
930.998	8240
931.103	8381
931.207	8035
931.311	7947
931.415	7944
931.519	7655
931.623	7719
