Data from test_V78500241_3410.txt Node
Date: Fri Mar 25 14:57:27 CST 2022
User: usil
Spectrometer: V785-0024
Trigger mode: 0
Integration Time (sec): 4.000000E-1
Scans to average: 1
Nonlinearity correction enabled: false
Boxcar width: 0
Storing dark spectrum: false
XAxis mode: Wavelengths
Number of Pixels in Spectrum: 1024
>>>>>Begin Spectral Data<<<<<
801.071	21899
801.214	21736
801.356	21629
801.499	21393
801.641	21363
801.783	21275
801.926	21313
802.068	21294
802.211	21066
802.353	21039
802.496	20887
802.638	20758
802.78	20796
802.923	20564
803.065	20537
803.208	20621
803.35	20629
803.492	20788
803.635	20731
803.777	20602
803.919	20758
804.061	21017
804.204	20518
804.346	20560
804.488	20454
804.63	20606
804.773	20457
804.915	20465
805.057	20609
805.199	20431
805.341	20564
805.483	20632
805.626	20613
805.768	20522
805.91	20545
806.052	20484
806.194	20590
806.336	20678
806.478	20492
806.62	20412
806.762	20537
806.904	20785
807.046	20857
807.188	20785
807.33	20849
807.472	20746
807.614	20777
807.756	20811
807.898	20495
808.04	20568
808.182	20495
808.324	20575
808.465	20579
808.607	20682
808.749	20982
808.891	20960
809.033	20990
809.174	20929
809.316	20796
809.458	20815
809.6	20868
809.741	20830
809.883	20982
810.025	21108
810.166	20971
810.308	20990
810.45	20823
810.591	20735
810.733	20640
810.875	20785
811.016	20644
811.158	20575
811.299	20636
811.441	20823
811.582	20712
811.724	20533
811.865	20590
812.007	20541
812.148	20587
812.29	20587
812.431	20952
812.573	20921
812.714	21001
812.855	21001
812.997	21279
813.138	21344
813.279	21294
813.421	21123
813.562	21032
813.703	20849
813.845	20792
813.986	20499
814.127	20294
814.268	20176
814.41	20229
814.551	20183
814.692	20221
814.833	20005
814.974	20161
815.115	20050
815.256	19974
815.397	20031
815.539	20012
815.68	19868
815.821	19765
815.962	19814
816.103	19860
816.244	19746
816.385	19616
816.526	19662
816.666	19422
816.807	19396
816.948	19388
817.089	19426
817.23	19285
817.371	19373
817.512	19419
817.653	19285
817.793	19225
817.934	19278
818.075	19331
818.216	19285
818.356	19202
818.497	19133
818.638	19050
818.778	18909
818.919	19050
819.06	18981
819.2	19213
819.341	19198
819.481	19247
819.622	19320
819.762	19468
819.903	19445
820.043	19377
820.184	19217
820.324	19316
820.465	19362
820.605	19240
820.746	19289
820.886	19053
821.026	19156
821.167	19217
821.307	19255
821.447	19274
821.588	19069
821.728	18981
821.868	18905
822.008	18681
822.149	18589
822.289	18650
822.429	18372
822.569	18437
822.709	18471
822.849	18273
822.99	18125
823.13	18041
823.27	18235
823.41	18068
823.55	17908
823.69	17920
823.83	18022
823.97	17965
824.11	17737
824.25	17699
824.389	17893
824.529	17840
824.669	17737
824.809	17824
824.949	17855
825.089	17885
825.228	17756
825.368	17543
825.508	17615
825.648	17581
825.787	17600
825.927	17775
826.067	17482
826.206	17471
826.346	17573
826.485	17535
826.625	17570
826.765	17604
826.904	17562
827.044	17364
827.183	17360
827.323	17349
827.462	17364
827.601	17273
827.741	17212
827.88	17277
828.02	17056
828.159	17212
828.298	17277
828.437	17326
828.577	17200
828.716	17383
828.855	17162
828.994	16991
829.134	17086
829.273	17105
829.412	17029
829.551	16987
829.69	17090
829.829	17045
829.968	17128
830.107	17056
830.246	17029
830.385	16961
830.524	16919
830.663	16965
830.802	16816
830.941	16691
831.08	16634
831.219	16717
831.357	16713
831.496	16866
831.635	16535
831.774	16599
831.913	16592
832.051	16451
832.19	16394
832.329	16531
832.467	16421
832.606	16287
832.744	16287
832.883	16360
833.022	16284
833.16	16386
833.299	16440
833.437	16367
833.576	16363
833.714	16394
833.852	16451
833.991	16333
834.129	16451
834.267	16432
834.406	16440
834.544	16466
834.682	16405
834.821	16443
834.959	16489
835.097	16329
835.235	16588
835.373	16424
835.511	16554
835.65	16394
835.788	16428
835.926	16299
836.064	16196
836.202	16226
836.34	16337
836.478	16508
836.615	16367
836.753	16344
836.891	16421
837.029	16268
837.167	16291
837.305	16299
837.443	16268
837.58	16211
837.718	16295
837.856	16131
837.993	16162
838.131	16162
838.269	16093
838.406	16204
838.544	16059
838.681	15934
838.819	15888
838.956	15762
839.094	15732
839.231	15800
839.369	15941
839.506	16207
839.643	15960
839.781	15755
839.918	15675
840.055	15888
840.193	15778
840.33	15789
840.467	15698
840.604	15755
840.742	16063
840.879	15603
841.016	15690
841.153	15724
841.29	15937
841.427	15827
841.564	15808
841.701	15755
841.838	15835
841.975	15599
842.112	15739
842.249	15603
842.385	15466
842.522	15793
842.659	15557
842.796	15549
842.933	15466
843.069	15477
843.206	15481
843.343	15606
843.479	15614
843.616	15557
843.752	15477
843.889	15329
844.025	15572
844.162	15302
844.298	15462
844.435	15397
844.571	15329
844.708	15298
844.844	15553
844.98	15515
845.117	15447
845.253	15329
845.389	15188
845.525	15283
845.661	15272
845.798	15085
845.934	15203
846.07	14998
846.206	15268
846.342	15184
846.478	15207
846.614	15005
846.75	14944
846.886	14910
847.022	14982
847.158	14948
847.294	14952
847.429	15066
847.565	14891
847.701	15123
847.837	14693
847.972	14560
848.108	14724
848.244	14625
848.379	14571
848.515	14549
848.65	14442
848.786	14514
848.921	14621
849.057	14659
849.192	14682
849.328	14602
849.463	14484
849.598	14556
849.734	14415
849.869	14415
850.004	14423
850.14	14419
850.275	14347
850.41	14191
850.545	14259
850.68	14218
850.815	14248
850.95	14286
851.085	14434
851.22	14393
851.355	14286
851.49	14180
851.625	14191
851.76	14282
851.895	14172
852.03	14157
852.165	14320
852.299	14271
852.434	14294
852.569	14278
852.703	14309
852.838	14385
852.973	14389
853.107	14450
853.242	14294
853.376	14221
853.511	14005
853.645	14088
853.78	14290
853.914	14191
854.048	14020
854.183	14119
854.317	14142
854.451	14267
854.585	14168
854.72	14069
854.854	14244
854.988	14065
855.122	14081
855.256	13997
855.39	14115
855.524	14176
855.658	14252
855.792	14271
855.926	14176
856.06	14088
856.194	14339
856.327	14092
856.461	14180
856.595	14130
856.729	14115
856.862	14233
856.996	14229
857.13	14157
857.263	14233
857.397	14309
857.53	14130
857.664	14221
857.797	14199
857.931	14336
858.064	14142
858.197	14240
858.331	14206
858.464	14195
858.597	14016
858.731	14100
858.864	14145
858.997	14183
859.13	14233
859.263	14271
859.396	14233
859.529	14172
859.662	14088
859.795	14088
859.928	14161
860.061	14366
860.194	14362
860.327	14202
860.46	14164
860.592	14248
860.725	14351
860.858	14282
860.99	14054
861.123	14096
861.256	14096
861.388	14157
861.521	14918
861.653	14119
861.786	14020
861.918	14005
862.05	14096
862.183	14164
862.315	14069
862.447	14187
862.58	14016
862.712	13940
862.844	13883
862.976	14069
863.108	14027
863.24	14351
863.372	13936
863.504	13940
863.636	13833
863.768	13974
863.9	13936
864.032	13947
864.164	13868
864.296	13921
864.428	14046
864.559	14016
864.691	14096
864.823	13993
864.954	13928
865.086	14027
865.217	13951
865.349	13765
865.48	13951
865.612	14001
865.743	14054
865.875	13864
866.006	13917
866.137	13917
866.269	13917
866.4	13906
866.531	13982
866.662	13830
866.793	13898
866.924	13875
867.055	13928
867.186	13875
867.317	13871
867.448	13807
867.579	13963
867.71	13814
867.841	13818
867.972	13894
868.103	13875
868.233	13940
868.364	13852
868.495	14016
868.625	14084
868.756	14298
868.886	14157
869.017	14244
869.147	14328
869.278	14278
869.408	14240
869.539	14168
869.669	14271
869.799	14199
869.929	14248
870.06	14317
870.19	14511
870.32	14454
870.45	14537
870.58	14579
870.71	14594
870.84	14629
870.97	14587
871.1	14465
871.23	14724
871.36	14815
871.489	14651
871.619	14823
871.749	14804
871.879	14823
872.008	14887
872.138	14838
872.267	14785
872.397	14670
872.526	14583
872.656	14511
872.785	14659
872.915	14785
873.044	14880
873.173	14826
873.303	14788
873.432	14937
873.561	14838
873.69	14853
873.819	14880
873.948	14956
874.077	14853
874.206	14819
874.335	14689
874.464	14914
874.593	15135
874.722	15108
874.851	15176
874.979	15180
875.108	15233
875.237	15089
875.365	15192
875.494	15161
875.623	15237
875.751	15142
875.88	15142
876.008	15287
876.136	15408
876.265	15507
876.393	15667
876.521	15637
876.65	15671
876.778	15595
876.906	15496
877.034	15462
877.162	15599
877.29	15523
877.418	15549
877.546	15526
877.674	15523
877.802	15644
877.93	15584
878.058	15492
878.185	15549
878.313	15458
878.441	15625
878.568	15351
878.696	15412
878.824	15618
878.951	15595
879.079	15587
879.206	15861
879.333	15759
879.461	15641
879.588	15705
879.715	15724
879.842	15915
879.97	15656
880.097	15363
880.224	15431
880.351	15439
880.478	15389
880.605	15355
880.732	15344
880.859	15648
880.986	15428
881.112	15466
881.239	15367
881.366	15283
881.493	15150
881.619	15001
881.746	15043
881.872	15020
881.999	15039
882.125	15032
882.252	15165
882.378	15077
882.505	15173
882.631	15047
882.757	14857
882.883	15039
883.01	14845
883.136	14868
883.262	14705
883.388	14781
883.514	14937
883.64	14990
883.766	14811
883.892	14655
884.018	14750
884.143	14929
884.269	14967
884.395	14644
884.52	14598
884.646	14644
884.772	14514
884.897	14480
885.023	14613
885.148	14667
885.274	14777
885.399	14708
885.524	14644
885.65	14651
885.775	14594
885.9	14587
886.025	14769
886.15	14613
886.275	14587
886.4	14499
886.525	14564
886.65	14526
886.775	14526
886.9	14651
887.025	14769
887.149	14530
887.274	14465
887.399	14412
887.523	14412
887.648	14465
887.773	14339
887.897	14503
888.021	14533
888.146	14336
888.27	14560
888.395	14632
888.519	14488
888.643	14469
888.767	14503
888.891	14339
889.015	14168
889.139	14332
889.263	14301
889.387	14374
889.511	14526
889.635	14469
889.759	14275
889.883	14218
890.006	14343
890.13	14454
890.254	14259
890.377	14180
890.501	14221
890.624	14115
890.748	14103
890.871	13974
890.995	13921
891.118	13879
891.241	13947
891.364	14016
891.488	14031
891.611	13890
891.734	13940
891.857	14134
891.98	13986
892.103	14130
892.226	14065
892.349	14046
892.471	13890
892.594	13963
892.717	14024
892.839	13928
892.962	14077
893.085	14031
893.207	13989
893.33	13913
893.452	13860
893.575	14100
893.697	13902
893.819	14259
893.941	14206
894.064	14092
894.186	14031
894.308	13940
894.43	14115
894.552	14259
894.674	14134
894.796	13936
894.918	14012
895.04	14008
895.161	14134
895.283	14088
895.405	14103
895.526	14077
895.648	14115
895.769	14145
895.891	14123
896.012	14218
896.134	14123
896.255	14214
896.376	14088
896.498	14176
896.619	14168
896.74	14267
896.861	14252
896.982	14446
897.103	14682
897.224	14503
897.345	14450
897.466	14385
897.587	14492
897.708	14518
897.828	14503
897.949	14339
898.07	14355
898.19	14450
898.311	14640
898.431	14446
898.552	14431
898.672	14564
898.792	14625
898.913	14476
899.033	14438
899.153	14461
899.273	14256
899.393	14298
899.513	14396
899.633	14328
899.753	14328
899.873	14294
899.993	14469
900.113	14355
900.232	14442
900.352	14404
900.472	14317
900.591	14252
900.711	14282
900.83	14301
900.95	14324
901.069	14434
901.189	14176
901.308	13963
901.427	13856
901.546	13913
901.665	13993
901.784	13841
901.904	13776
902.023	13677
902.141	13544
902.26	13438
902.379	13575
902.498	13464
902.617	13430
902.735	13499
902.854	13567
902.973	13422
903.091	13263
903.21	13278
903.328	13209
903.446	13095
903.565	13091
903.683	13053
903.801	12890
903.919	13000
904.038	13046
904.156	12844
904.274	12973
904.392	12905
904.51	12814
904.627	12802
904.745	13000
904.863	12962
904.981	12741
905.098	12525
905.216	12601
905.334	12509
905.451	12654
905.569	12467
905.686	12593
905.803	12517
905.921	12380
906.038	12475
906.155	12445
906.272	12308
906.389	12323
906.506	12117
906.623	12133
906.74	12060
906.857	12030
906.974	12041
907.091	12254
907.208	12277
907.324	12235
907.441	12190
907.557	11859
907.674	11904
907.79	11802
907.907	11973
908.023	11954
908.139	11931
908.256	11859
908.372	11832
908.488	11824
908.604	11771
908.72	11638
908.836	11653
908.952	11619
909.068	11710
909.184	11821
909.3	11623
909.415	11714
909.531	11676
909.647	11471
909.762	11474
909.878	11402
909.993	11395
910.108	11429
910.224	11440
910.339	11410
910.454	11387
910.57	11258
910.685	11212
910.8	11581
910.915	11353
911.03	11280
911.145	11162
911.259	11174
911.374	11140
911.489	11140
911.604	10942
911.718	10938
911.833	10915
911.947	10828
912.062	10721
912.176	10923
912.291	10900
912.405	10885
912.519	11083
912.633	11075
912.748	10953
912.862	10930
912.976	10786
913.09	10744
913.204	10702
913.318	10748
913.431	10889
913.545	10904
913.659	10850
913.772	10694
913.886	10744
914	10584
914.113	10763
914.226	10717
914.34	10755
914.453	10607
914.566	10698
914.68	10664
914.793	10493
914.906	10421
915.019	10352
915.132	10333
915.245	10379
915.358	10402
915.47	10424
915.583	10474
915.696	10455
915.809	10611
915.921	10565
916.034	10337
916.146	10333
916.259	10409
916.371	10462
916.483	10417
916.595	10329
916.708	10344
916.82	10371
916.932	10413
917.044	10348
917.156	10287
917.268	10287
917.38	10238
917.491	10188
917.603	10215
917.715	10367
917.826	10409
917.938	10287
918.049	10097
918.161	10367
918.272	10428
918.384	10402
918.495	10291
918.606	10120
918.717	10093
918.828	10090
918.939	10200
919.05	10112
919.161	10071
919.272	9934
919.383	10044
919.494	10147
919.604	10322
919.715	10071
919.826	10051
919.936	10086
920.047	10276
920.157	10223
920.267	10367
920.378	10173
920.488	10139
920.598	10375
920.708	10451
920.818	10390
920.928	10295
921.038	10504
921.148	10535
921.258	10169
921.368	10055
921.477	9991
921.587	9956
921.697	9880
921.806	10055
921.916	9842
922.025	9740
922.134	9709
922.244	9656
922.353	9663
922.462	9599
922.571	9458
922.68	9454
922.789	9416
922.898	9340
923.007	9272
923.116	9462
923.224	9401
923.333	9397
923.442	9298
923.55	9287
923.659	9256
923.767	9336
923.876	9272
923.984	9348
924.092	9176
924.201	9279
924.309	9264
924.417	9287
924.525	9150
924.633	9275
924.741	10173
924.849	9081
924.956	9230
925.064	9157
925.172	8906
925.279	8994
925.387	9112
925.494	9074
925.602	9142
925.709	9123
925.816	9024
925.924	9043
926.031	9097
926.138	9028
926.245	9062
926.352	8986
926.459	9020
926.566	9222
926.673	8975
926.779	8941
926.886	8948
926.993	8872
927.099	8746
927.206	8655
927.312	8678
927.419	8807
927.525	8792
927.631	8842
927.737	8686
927.843	8678
927.95	8518
928.056	8636
928.162	8686
928.267	8735
928.373	9294
928.479	8769
928.585	8549
928.69	8670
928.796	8750
928.901	8522
929.007	8370
929.112	8617
929.218	8541
929.323	8465
929.428	8469
929.533	8621
929.638	8415
929.743	8454
929.848	8537
929.953	8438
930.058	8355
930.163	8172
930.267	8263
930.372	8374
930.477	8195
930.581	8488
930.685	8309
930.79	8176
930.894	8202
930.998	8229
931.103	8343
931.207	8020
931.311	7917
931.415	7826
931.519	7689
931.623	7700
