Data from test_V78500241_943.txt Node
Date: Fri Mar 25 14:40:17 CST 2022
User: usil
Spectrometer: V785-0024
Trigger mode: 0
Integration Time (sec): 4.000000E-1
Scans to average: 1
Nonlinearity correction enabled: false
Boxcar width: 0
Storing dark spectrum: false
XAxis mode: Wavelengths
Number of Pixels in Spectrum: 1024
>>>>>Begin Spectral Data<<<<<
801.071	24319
801.214	24053
801.356	23874
801.499	24007
801.641	23752
801.783	23627
801.926	23710
802.068	23562
802.211	23478
802.353	23334
802.496	23250
802.638	23170
802.78	23170
802.923	23109
803.065	22911
803.208	23166
803.35	23056
803.492	23136
803.635	23136
803.777	23048
803.919	23166
804.061	23459
804.204	23121
804.346	22991
804.488	22904
804.63	23029
804.773	22752
804.915	23075
805.057	23292
805.199	22968
805.341	22995
805.483	23136
805.626	23067
805.768	22942
805.91	23086
806.052	23037
806.194	22930
806.336	23280
806.478	23273
806.62	23086
806.762	23307
806.904	23482
807.046	23737
807.188	23710
807.33	23630
807.472	23912
807.614	23859
807.756	23969
807.898	23958
808.04	24011
808.182	24346
808.324	24677
808.465	24867
808.607	25274
808.749	25822
808.891	26024
809.033	26126
809.174	25856
809.316	25362
809.458	25183
809.6	24730
809.741	24517
809.883	24251
810.025	24228
810.166	24003
810.308	24053
810.45	24114
810.591	23931
810.733	23562
810.875	23448
811.016	23341
811.158	23334
811.299	23463
811.441	23566
811.582	23547
811.724	23379
811.865	23273
812.007	23391
812.148	23353
812.29	23330
812.431	23490
812.573	23672
812.714	23627
812.855	23756
812.997	23832
813.138	24110
813.279	23942
813.421	23699
813.562	23840
813.703	23596
813.845	23528
813.986	23166
814.127	22991
814.268	22854
814.41	22885
814.551	22793
814.692	22778
814.833	22637
814.974	22767
815.115	22748
815.256	22565
815.397	22527
815.539	22679
815.68	22531
815.821	22493
815.962	22596
816.103	22322
816.244	22379
816.385	22200
816.526	22230
816.666	22105
816.807	22029
816.948	22055
817.089	22169
817.23	21949
817.371	21972
817.512	21846
817.653	21915
817.793	21926
817.934	21941
818.075	21892
818.216	21846
818.356	21679
818.497	21701
818.638	21466
818.778	21534
818.919	21603
819.06	21682
819.2	21724
819.341	21732
819.481	21762
819.622	21941
819.762	22097
819.903	21941
820.043	21956
820.184	21827
820.324	21880
820.465	21926
820.605	21838
820.746	21915
820.886	21629
821.026	21804
821.167	21705
821.307	21766
821.447	21778
821.588	21675
821.728	21629
821.868	21507
822.008	21192
822.149	21249
822.289	21173
822.429	20883
822.569	20891
822.709	20838
822.849	20758
822.99	20762
823.13	20651
823.27	20693
823.41	20492
823.55	20442
823.69	20419
823.83	20507
823.97	20560
824.11	20309
824.25	20278
824.389	20218
824.529	20305
824.669	20229
824.809	20370
824.949	20431
825.089	20355
825.228	20271
825.368	20100
825.508	20005
825.648	19963
825.787	20157
825.927	20073
826.067	19913
826.206	19951
826.346	20115
826.485	19982
826.625	20054
826.765	20092
826.904	20073
827.044	19830
827.183	19803
827.323	19750
827.462	19715
827.601	19708
827.741	19674
827.88	19795
828.02	19563
828.159	19586
828.298	19765
828.437	19791
828.577	19632
828.716	19719
828.855	19670
828.994	19506
829.134	19460
829.273	19453
829.412	19464
829.551	19362
829.69	19381
829.829	19373
829.968	19430
830.107	19384
830.246	19343
830.385	19293
830.524	19358
830.663	19225
830.802	19008
830.941	19088
831.08	19023
831.219	19046
831.357	19019
831.496	19213
831.635	18932
831.774	18993
831.913	18973
832.051	18875
832.19	18768
832.329	18787
832.467	18738
832.606	18665
832.744	18757
832.883	18711
833.022	18589
833.16	18753
833.299	18791
833.437	18856
833.576	18757
833.714	18897
833.852	18848
833.991	18935
834.129	18977
834.267	19027
834.406	18890
834.544	18932
834.682	18821
834.821	18825
834.959	19004
835.097	18795
835.235	18669
835.373	18753
835.511	18837
835.65	18726
835.788	18635
835.926	18456
836.064	18353
836.202	18414
836.34	18627
836.478	18703
836.615	18604
836.753	18616
836.891	18555
837.029	18722
837.167	18635
837.305	18490
837.443	18384
837.58	18475
837.718	18547
837.856	18441
837.993	18380
838.131	18384
838.269	18281
838.406	18365
838.544	18391
838.681	18136
838.819	18011
838.956	17863
839.094	18011
839.231	17988
839.369	18133
839.506	18266
839.643	18350
839.781	17882
839.918	17954
840.055	17889
840.193	17950
840.33	17893
840.467	17939
840.604	17935
840.742	18163
840.879	17889
841.016	17908
841.153	17745
841.29	17958
841.427	17973
841.564	18011
841.701	17965
841.838	17863
841.975	17687
842.112	17874
842.249	17676
842.385	17786
842.522	17863
842.659	17687
842.796	17646
842.933	17729
843.069	17604
843.206	17615
843.343	17699
843.479	17627
843.616	17752
843.752	17509
843.889	17448
844.025	17581
844.162	17482
844.298	17566
844.435	17524
844.571	17482
844.708	17623
844.844	17824
844.98	17722
845.117	17767
845.253	17764
845.389	17931
845.525	18270
845.661	18707
845.798	19453
845.934	20046
846.07	20187
846.206	20267
846.342	19818
846.478	19069
846.614	18277
846.75	17722
846.886	17463
847.022	17459
847.158	17326
847.294	17018
847.429	17235
847.565	17037
847.701	17288
847.837	16782
847.972	16820
848.108	16835
848.244	16923
848.379	16710
848.515	16668
848.65	16615
848.786	16569
848.921	16656
849.057	16588
849.192	16771
849.328	16660
849.463	16615
849.598	16474
849.734	16497
849.869	16447
850.004	16352
850.14	16462
850.275	16375
850.41	16348
850.545	16284
850.68	16272
850.815	16379
850.95	16329
851.085	16489
851.22	16409
851.355	16367
851.49	16417
851.625	16253
851.76	16261
851.895	16211
852.03	16230
852.165	16295
852.299	16413
852.434	16424
852.569	16329
852.703	16284
852.838	16344
852.973	16474
853.107	16466
853.242	16363
853.376	16181
853.511	16067
853.645	16188
853.78	16341
853.914	16169
854.048	16234
854.183	16238
854.317	16253
854.451	16428
854.585	16246
854.72	16166
854.854	16284
854.988	16116
855.122	16135
855.256	16040
855.39	16173
855.524	16200
855.658	16291
855.792	16173
855.926	16185
856.06	16158
856.194	16341
856.327	16181
856.461	16139
856.595	16097
856.729	16082
856.862	16360
856.996	16185
857.13	16329
857.263	16272
857.397	16265
857.53	16291
857.664	16234
857.797	16257
857.931	16333
858.064	16253
858.197	16234
858.331	16139
858.464	16169
858.597	16051
858.731	16120
858.864	16173
858.997	16150
859.13	16093
859.263	16082
859.396	16322
859.529	16116
859.662	16086
859.795	16192
859.928	16204
860.061	16219
860.194	16344
860.327	16211
860.46	16074
860.592	16352
860.725	16215
860.858	16181
860.99	16177
861.123	16074
861.256	15979
861.388	16135
861.521	16733
861.653	16029
861.786	15895
861.918	16017
862.05	16150
862.183	16032
862.315	16128
862.447	16109
862.58	16116
862.712	15838
862.844	15892
862.976	15937
863.108	15941
863.24	16306
863.372	15888
863.504	15922
863.636	15854
863.768	15907
863.9	15953
864.032	15835
864.164	15846
864.296	15876
864.428	15960
864.559	15968
864.691	15949
864.823	15865
864.954	15918
865.086	15842
865.217	15918
865.349	15762
865.48	15854
865.612	15850
865.743	15854
865.875	15873
866.006	15812
866.137	15873
866.269	15835
866.4	15941
866.531	15899
866.662	15774
866.793	15728
866.924	15743
867.055	15835
867.186	15755
867.317	15797
867.448	15701
867.579	15819
867.71	15804
867.841	15755
867.972	15789
868.103	15785
868.233	15812
868.364	15804
868.495	15869
868.625	16036
868.756	16101
868.886	15911
869.017	16071
869.147	16112
869.278	16246
869.408	16150
869.539	16006
869.669	16116
869.799	16181
869.929	16139
870.06	16124
870.19	16432
870.32	16337
870.45	16443
870.58	16485
870.71	16561
870.84	16504
870.97	16474
871.1	16447
871.23	16645
871.36	16683
871.489	16580
871.619	16725
871.749	16607
871.879	16634
872.008	16721
872.138	16672
872.267	16687
872.397	16535
872.526	16413
872.656	16440
872.785	16516
872.915	16611
873.044	16835
873.173	16691
873.303	16733
873.432	16733
873.561	16774
873.69	16778
873.819	16691
873.948	16812
874.077	16748
874.206	16672
874.335	16790
874.464	16919
874.593	17010
874.722	17029
874.851	17151
874.979	17128
875.108	17071
875.237	17029
875.365	16961
875.494	16972
875.623	17105
875.751	17060
875.88	17124
876.008	17174
876.136	17269
876.265	17474
876.393	17566
876.521	17520
876.65	17676
876.778	17505
876.906	17448
877.034	17379
877.162	17516
877.29	17486
877.418	17471
877.546	17558
877.674	17672
877.802	17600
877.93	17668
878.058	17524
878.185	17444
878.313	17570
878.441	17665
878.568	17528
878.696	17790
878.824	17965
878.951	18163
879.079	18277
879.206	18642
879.333	18673
879.461	18916
879.588	18981
879.715	19118
879.842	19061
879.97	18715
880.097	18251
880.224	17965
880.351	17969
880.478	17866
880.605	17813
880.732	17676
880.859	17973
880.986	17718
881.112	17676
881.239	17600
881.366	17402
881.493	17353
881.619	17414
881.746	17330
881.872	17288
881.999	17299
882.125	17246
882.252	17471
882.378	17356
882.505	17486
882.631	17265
882.757	17193
882.883	17231
883.01	17174
883.136	17113
883.262	16946
883.388	17022
883.514	17064
883.64	17200
883.766	17064
883.892	16984
884.018	16972
884.143	17064
884.269	17208
884.395	16843
884.52	16835
884.646	16820
884.772	16694
884.897	16797
885.023	16805
885.148	16900
885.274	16900
885.399	16877
885.524	16782
885.65	16782
885.775	16805
885.9	16824
886.025	16919
886.15	16733
886.275	16634
886.4	16569
886.525	16626
886.65	16611
886.775	16596
886.9	16797
887.025	16854
887.149	16607
887.274	16447
887.399	16405
887.523	16341
887.648	16375
887.773	16291
887.897	16573
888.021	16390
888.146	16333
888.27	16531
888.395	16519
888.519	16447
888.643	16360
888.767	16504
888.891	16162
889.015	16280
889.139	16223
889.263	16097
889.387	16268
889.511	16367
889.635	16284
889.759	16150
889.883	16082
890.006	16147
890.13	16360
890.254	16116
890.377	16109
890.501	15884
890.624	15854
890.748	15907
890.871	15895
890.995	15819
891.118	15690
891.241	15766
891.364	15808
891.488	16048
891.611	15629
891.734	15739
891.857	15846
891.98	15804
892.103	15865
892.226	15724
892.349	15755
892.471	15595
892.594	15789
892.717	15755
892.839	15656
892.962	15816
893.085	15747
893.207	15709
893.33	15637
893.452	15595
893.575	15766
893.697	15701
893.819	15793
893.941	15869
894.064	15831
894.186	15679
894.308	15644
894.43	15819
894.552	15884
894.674	15842
894.796	15671
894.918	15728
895.04	15724
895.161	15941
895.283	15808
895.405	15709
895.526	15755
895.648	15857
895.769	15778
895.891	15751
896.012	16017
896.134	15945
896.255	15930
896.376	15789
896.498	15861
896.619	15861
896.74	15785
896.861	15827
896.982	16185
897.103	16356
897.224	16086
897.345	16025
897.466	16040
897.587	16135
897.708	16166
897.828	16082
897.949	16017
898.07	15907
898.19	16055
898.311	16185
898.431	16063
898.552	16143
898.672	16173
898.792	16306
898.913	16299
899.033	16131
899.153	16071
899.273	15903
899.393	15983
899.513	16078
899.633	15918
899.753	16032
899.873	15911
899.993	15998
900.113	15960
900.232	16109
900.352	15960
900.472	15781
900.591	15778
900.711	15880
900.83	15861
900.95	15972
901.069	15926
901.189	15831
901.308	15595
901.427	15447
901.546	15523
901.665	15485
901.784	15477
901.904	15336
902.023	15294
902.141	15127
902.26	14979
902.379	15119
902.498	15097
902.617	15036
902.735	15074
902.854	14994
902.973	14891
903.091	14701
903.21	14750
903.328	14651
903.446	14560
903.565	14610
903.683	14564
903.801	14381
903.919	14499
904.038	14526
904.156	14343
904.274	14309
904.392	14286
904.51	14294
904.627	14419
904.745	14415
904.863	14400
904.981	14073
905.098	14073
905.216	13940
905.334	14103
905.451	13963
905.569	13921
905.686	14088
905.803	14043
905.921	13845
906.038	13898
906.155	13795
906.272	13628
906.389	13700
906.506	13540
906.623	13624
906.74	13491
906.857	13339
906.974	13441
907.091	13636
907.208	13731
907.324	13540
907.441	13499
907.557	13293
907.674	13308
907.79	13209
907.907	13312
908.023	13335
908.139	13194
908.256	13274
908.372	13221
908.488	13141
908.604	13126
908.72	12939
908.836	12947
908.952	12947
909.068	12932
909.184	13091
909.3	12970
909.415	13050
909.531	13053
909.647	12726
909.762	12707
909.878	12776
909.993	12711
910.108	12768
910.224	12696
910.339	12681
910.454	12696
910.57	12669
910.685	12513
910.8	12738
910.915	12757
911.03	12639
911.145	12467
911.259	12422
911.374	12486
911.489	12372
911.604	12262
911.718	12175
911.833	12140
911.947	12030
912.062	11996
912.176	12159
912.291	12133
912.405	12140
912.519	12437
912.633	12300
912.748	12232
912.862	12098
912.976	12045
913.09	11939
913.204	11923
913.318	12060
913.431	12098
913.545	12053
913.659	12110
913.772	12019
913.886	11889
914	11836
914.113	11920
914.226	11988
914.34	11889
914.453	11832
914.566	12011
914.68	11874
914.793	11840
914.906	11577
915.019	11566
915.132	11600
915.245	11619
915.358	11699
915.47	11573
915.583	11600
915.696	11627
915.809	11878
915.921	11775
916.034	11562
916.146	11619
916.259	11570
916.371	11672
916.483	11729
916.595	11482
916.708	11551
916.82	11512
916.932	11581
917.044	11589
917.156	11551
917.268	11440
917.38	11455
917.491	11349
917.603	11440
917.715	11573
917.826	11600
917.938	11356
918.049	11254
918.161	11535
918.272	11570
918.384	11611
918.495	11376
918.606	11387
918.717	11201
918.828	11212
918.939	11315
919.05	11162
919.161	11303
919.272	11037
919.383	11204
919.494	11311
919.604	11444
919.715	11265
919.826	11204
919.936	11242
920.047	11410
920.157	11322
920.267	11474
920.378	11307
920.488	11326
920.598	11474
920.708	11657
920.818	11383
920.928	11364
921.038	11581
921.148	11566
921.258	11345
921.368	11159
921.477	11086
921.587	11071
921.697	11060
921.806	11033
921.916	10984
922.025	10839
922.134	10790
922.244	10729
922.353	10767
922.462	10675
922.571	10649
922.68	10516
922.789	10424
922.898	10561
923.007	10508
923.116	10424
923.224	10424
923.333	10440
923.442	10284
923.55	10303
923.659	10360
923.767	10424
923.876	10280
923.984	10333
924.092	10249
924.201	10367
924.309	10230
924.417	10306
924.525	10257
924.633	10207
924.741	10976
924.849	10021
924.956	10204
925.064	10063
925.172	9987
925.279	10021
925.387	10120
925.494	10063
925.602	10207
925.709	10135
925.816	9968
925.924	10013
926.031	10105
926.138	10074
926.245	10109
926.352	9972
926.459	10086
926.566	10196
926.673	9960
926.779	9922
926.886	9838
926.993	9736
927.099	9713
927.206	9660
927.312	9732
927.419	9778
927.525	9732
927.631	9759
927.737	9625
927.843	9648
927.95	9420
928.056	9625
928.162	9614
928.267	9641
928.373	10093
928.479	9701
928.585	9466
928.69	9538
928.796	9603
928.901	9507
929.007	9306
929.112	9519
929.218	9477
929.323	9424
929.428	9424
929.533	9568
929.638	9408
929.743	9348
929.848	9469
929.953	9382
930.058	9294
930.163	9165
930.267	9188
930.372	9321
930.477	9104
930.581	9313
930.685	9169
930.79	9150
930.894	9192
930.998	9051
931.103	9176
931.207	8868
931.311	8838
931.415	8746
931.519	8598
931.623	8564
