Data from test_V78500241_1439.txt Node
Date: Fri Mar 25 14:43:44 CST 2022
User: usil
Spectrometer: V785-0024
Trigger mode: 0
Integration Time (sec): 4.000000E-1
Scans to average: 1
Nonlinearity correction enabled: false
Boxcar width: 0
Storing dark spectrum: false
XAxis mode: Wavelengths
Number of Pixels in Spectrum: 1024
>>>>>Begin Spectral Data<<<<<
801.071	22455
801.214	22360
801.356	22090
801.499	21972
801.641	21827
801.783	21876
801.926	21854
802.068	21682
802.211	21698
802.353	21679
802.496	21351
802.638	21279
802.78	21252
802.923	21176
803.065	21058
803.208	21066
803.35	21157
803.492	21176
803.635	21226
803.777	21089
803.919	21195
804.061	21583
804.204	21279
804.346	21138
804.488	20990
804.63	21173
804.773	20982
804.915	21142
805.057	21161
805.199	21066
805.341	21237
805.483	21317
805.626	21116
805.768	21112
805.91	21077
806.052	21119
806.194	20910
806.336	21249
806.478	21173
806.62	20994
806.762	21089
806.904	21351
807.046	21549
807.188	21363
807.33	21370
807.472	21504
807.614	21359
807.756	21408
807.898	21367
808.04	21180
808.182	21203
808.324	21252
808.465	21329
808.607	21587
808.749	21641
808.891	21778
809.033	21899
809.174	21736
809.316	21545
809.458	21637
809.6	21530
809.741	21553
809.883	21572
810.025	21732
810.166	21667
810.308	21629
810.45	21648
810.591	21523
810.733	21401
810.875	21294
811.016	21188
811.158	21184
811.299	21256
811.441	21435
811.582	21473
811.724	21298
811.865	21176
812.007	21199
812.148	21218
812.29	21317
812.431	21272
812.573	21507
812.714	21690
812.855	21762
812.997	21781
813.138	21983
813.279	21812
813.421	21918
813.562	21622
813.703	21454
813.845	21344
813.986	21051
814.127	21036
814.268	20872
814.41	20838
814.551	20788
814.692	20785
814.833	20819
814.974	20625
815.115	20781
815.256	20644
815.397	20689
815.539	20621
815.68	20393
815.821	20476
815.962	20537
816.103	20537
816.244	20370
816.385	20412
816.526	20355
816.666	19963
816.807	19989
816.948	20134
817.089	20138
817.23	20039
817.371	19925
817.512	19898
817.653	19974
817.793	19906
817.934	20020
818.075	19974
818.216	20046
818.356	19887
818.497	19727
818.638	19620
818.778	19662
818.919	19776
819.06	19575
819.2	19750
819.341	19833
819.481	19913
819.622	19947
819.762	20119
819.903	20035
820.043	19963
820.184	19902
820.324	19989
820.465	20008
820.605	19902
820.746	19898
820.886	19635
821.026	19921
821.167	20001
821.307	19947
821.447	19803
821.588	19647
821.728	19761
821.868	19438
822.008	19457
822.149	19282
822.289	19282
822.429	19053
822.569	19027
822.709	18928
822.849	18700
822.99	18658
823.13	18844
823.27	18779
823.41	18658
823.55	18536
823.69	18703
823.83	18658
823.97	18513
824.11	18391
824.25	18376
824.389	18513
824.529	18365
824.669	18304
824.809	18346
824.949	18582
825.089	18464
825.228	18361
825.368	18235
825.508	18205
825.648	18243
825.787	18205
825.927	18251
826.067	18159
826.206	18095
826.346	18133
826.485	18205
826.625	18251
826.765	18194
826.904	18220
827.044	17916
827.183	17851
827.323	17836
827.462	17942
827.601	17927
827.741	17786
827.88	17737
828.02	17604
828.159	17939
828.298	17832
828.437	17882
828.577	17737
828.716	17984
828.855	17874
828.994	17642
829.134	17589
829.273	17642
829.412	17493
829.551	17554
829.69	17615
829.829	17630
829.968	17771
830.107	17619
830.246	17661
830.385	17562
830.524	17493
830.663	17318
830.802	17356
830.941	17231
831.08	17109
831.219	17341
831.357	17254
831.496	17406
831.635	17208
831.774	17067
831.913	17166
832.051	17003
832.19	16968
832.329	16999
832.467	16995
832.606	16862
832.744	16927
832.883	16938
833.022	16919
833.16	17003
833.299	16999
833.437	16976
833.576	16938
833.714	16984
833.852	17033
833.991	16919
834.129	17006
834.267	17025
834.406	16980
834.544	16938
834.682	16968
834.821	16953
834.959	17109
835.097	16911
835.235	17075
835.373	17033
835.511	16968
835.65	16915
835.788	16786
835.926	16641
836.064	16691
836.202	16740
836.34	16885
836.478	16835
836.615	16908
836.753	16847
836.891	16991
837.029	16934
837.167	16809
837.305	16820
837.443	16733
837.58	16649
837.718	16729
837.856	16733
837.993	16580
838.131	16717
838.269	16702
838.406	16596
838.544	16615
838.681	16394
838.819	16367
838.956	16325
839.094	16325
839.231	16295
839.369	16428
839.506	16637
839.643	16558
839.781	16265
839.918	16204
840.055	16280
840.193	16234
840.33	16238
840.467	16226
840.604	16230
840.742	16538
840.879	16090
841.016	16093
841.153	16154
841.29	16329
841.427	16257
841.564	16371
841.701	16223
841.838	16169
841.975	16219
842.112	16090
842.249	16074
842.385	16074
842.522	16215
842.659	16055
842.796	16101
842.933	15949
843.069	15972
843.206	15987
843.343	16154
843.479	16169
843.616	16124
843.752	15880
843.889	15876
844.025	16051
844.162	15747
844.298	15918
844.435	15812
844.571	15766
844.708	15956
844.844	16010
844.98	16021
845.117	15922
845.253	15682
845.389	15766
845.525	15892
845.661	15751
845.798	15846
845.934	15930
846.07	15937
846.206	15892
846.342	15972
846.478	15895
846.614	15542
846.75	15359
846.886	15439
847.022	15424
847.158	15458
847.294	15424
847.429	15473
847.565	15321
847.701	15561
847.837	15093
847.972	15154
848.108	15260
848.244	15138
848.379	15138
848.515	14956
848.65	15089
848.786	14921
848.921	14994
849.057	15100
849.192	15150
849.328	15093
849.463	15077
849.598	14971
849.734	14948
849.869	14769
850.004	14765
850.14	14785
850.275	14769
850.41	14670
850.545	14724
850.68	14697
850.815	14769
850.95	14708
851.085	14845
851.22	14876
851.355	14765
851.49	14785
851.625	14712
851.76	14667
851.895	14617
852.03	14648
852.165	14727
852.299	14804
852.434	14788
852.569	14731
852.703	14785
852.838	14792
852.973	14963
853.107	14815
853.242	14785
853.376	14629
853.511	14526
853.645	14617
853.78	14701
853.914	14636
854.048	14590
854.183	14545
854.317	14571
854.451	14838
854.585	14632
854.72	14560
854.854	14571
854.988	14526
855.122	14560
855.256	14427
855.39	14674
855.524	14720
855.658	14564
855.792	14613
855.926	14735
856.06	14701
856.194	14621
856.327	14560
856.461	14587
856.595	14625
856.729	14632
856.862	14613
856.996	14667
857.13	14674
857.263	14804
857.397	14800
857.53	14579
857.664	14667
857.797	14670
857.931	14731
858.064	14682
858.197	14765
858.331	14575
858.464	14575
858.597	14511
858.731	14636
858.864	14571
858.997	14530
859.13	14621
859.263	14648
859.396	14697
859.529	14613
859.662	14518
859.795	14575
859.928	14587
860.061	14830
860.194	14792
860.327	14708
860.46	14590
860.592	14743
860.725	14762
860.858	14731
860.99	14571
861.123	14629
861.256	14511
861.388	14648
861.521	15313
861.653	14514
861.786	14419
861.918	14461
862.05	14575
862.183	14575
862.315	14625
862.447	14705
862.58	14549
862.712	14389
862.844	14362
862.976	14374
863.108	14484
863.24	14765
863.372	14301
863.504	14374
863.636	14374
863.768	14385
863.9	14351
864.032	14377
864.164	14267
864.296	14522
864.428	14518
864.559	14438
864.691	14469
864.823	14492
864.954	14476
865.086	14442
865.217	14396
865.349	14339
865.48	14336
865.612	14450
865.743	14484
865.875	14389
866.006	14328
866.137	14294
866.269	14385
866.4	14290
866.531	14404
866.662	14248
866.793	14252
866.924	14298
867.055	14358
867.186	14370
867.317	14305
867.448	14298
867.579	14324
867.71	14358
867.841	14332
867.972	14343
868.103	14305
868.233	14358
868.364	14480
868.495	14454
868.625	14549
868.756	14678
868.886	14533
869.017	14625
869.147	14689
869.278	14750
869.408	14655
869.539	14625
869.669	14663
869.799	14739
869.929	14743
870.06	14712
870.19	14979
870.32	14971
870.45	14872
870.58	14979
870.71	15135
870.84	15051
870.97	14994
871.1	14971
871.23	15146
871.36	15203
871.489	15043
871.619	15081
871.749	15150
871.879	15260
872.008	15348
872.138	15157
872.267	15154
872.397	15077
872.526	14960
872.656	15036
872.785	15066
872.915	15249
873.044	15370
873.173	15169
873.303	15245
873.432	15317
873.561	15355
873.69	15230
873.819	15203
873.948	15382
874.077	15264
874.206	15161
874.335	15241
874.464	15545
874.593	15534
874.722	15549
874.851	15656
874.979	15534
875.108	15603
875.237	15526
875.365	15424
875.494	15553
875.623	15671
875.751	15553
875.88	15656
876.008	15762
876.136	15812
876.265	15903
876.393	16200
876.521	16097
876.65	16006
876.778	15987
876.906	15888
877.034	15934
877.162	15918
877.29	15884
877.418	15964
877.546	15991
877.674	15968
877.802	15987
877.93	16017
878.058	15926
878.185	15884
878.313	15953
878.441	15949
878.568	15937
878.696	15915
878.824	16017
878.951	16139
879.079	16188
879.206	16303
879.333	16200
879.461	16082
879.588	16363
879.715	16299
879.842	16417
879.97	16181
880.097	15975
880.224	15911
880.351	15895
880.478	15991
880.605	15823
880.732	15789
880.859	16135
880.986	15895
881.112	15922
881.239	15686
881.366	15633
881.493	15511
881.619	15466
881.746	15477
881.872	15553
881.999	15408
882.125	15431
882.252	15534
882.378	15496
882.505	15591
882.631	15500
882.757	15302
882.883	15439
883.01	15355
883.136	15173
883.262	15237
883.388	15165
883.514	15397
883.64	15329
883.766	15279
883.892	15203
884.018	15218
884.143	15268
884.269	15332
884.395	15062
884.52	15123
884.646	15104
884.772	15020
884.897	14921
885.023	15028
885.148	15135
885.274	15287
885.399	15112
885.524	15131
885.65	15097
885.775	15081
885.9	15043
886.025	15180
886.15	15119
886.275	14960
886.4	14899
886.525	15001
886.65	14857
886.775	14872
886.9	15146
887.025	15298
887.149	14963
887.274	14815
887.399	14788
887.523	14807
887.648	14807
887.773	14720
887.897	14948
888.021	14876
888.146	14815
888.27	14963
888.395	14868
888.519	14895
888.643	14902
888.767	14830
888.891	14674
889.015	14636
889.139	14769
889.263	14758
889.387	14785
889.511	14921
889.635	14777
889.759	14697
889.883	14648
890.006	14674
890.13	14777
890.254	14659
890.377	14682
890.501	14465
890.624	14511
890.748	14537
890.871	14438
890.995	14339
891.118	14320
891.241	14320
891.364	14400
891.488	14358
891.611	14389
891.734	14370
891.857	14495
891.98	14423
892.103	14476
892.226	14370
892.349	14415
892.471	14195
892.594	14305
892.717	14412
892.839	14431
892.962	14343
893.085	14408
893.207	14339
893.33	14351
893.452	14305
893.575	14450
893.697	14370
893.819	14579
893.941	14648
894.064	14495
894.186	14324
894.308	14286
894.43	14526
894.552	14594
894.674	14469
894.796	14351
894.918	14355
895.04	14438
895.161	14404
895.283	14434
895.405	14427
895.526	14415
895.648	14461
895.769	14454
895.891	14549
896.012	14480
896.134	14590
896.255	14488
896.376	14476
896.498	14427
896.619	14537
896.74	14549
896.861	14648
896.982	14891
897.103	15013
897.224	14743
897.345	14743
897.466	14697
897.587	14853
897.708	15001
897.828	14861
897.949	14697
898.07	14693
898.19	14785
898.311	15020
898.431	14762
898.552	14811
898.672	15009
898.792	15047
898.913	14853
899.033	14686
899.153	14777
899.273	14564
899.393	14716
899.513	14724
899.633	14701
899.753	14785
899.873	14788
899.993	14708
900.113	14743
900.232	14735
900.352	14686
900.472	14743
900.591	14533
900.711	14636
900.83	14670
900.95	14712
901.069	14773
901.189	14568
901.308	14377
901.427	14256
901.546	14164
901.665	14298
901.784	14347
901.904	14168
902.023	14062
902.141	13837
902.26	13913
902.379	13940
902.498	13833
902.617	13845
902.735	13837
902.854	13917
902.973	13738
903.091	13632
903.21	13544
903.328	13567
903.446	13480
903.565	13403
903.683	13438
903.801	13350
903.919	13441
904.038	13343
904.156	13259
904.274	13270
904.392	13209
904.51	13206
904.627	13206
904.745	13293
904.863	13255
904.981	12962
905.098	12802
905.216	12791
905.334	12894
905.451	12935
905.569	12901
905.686	12981
905.803	12871
905.921	12665
906.038	12829
906.155	12722
906.272	12544
906.389	12673
906.506	12471
906.623	12456
906.74	12456
906.857	12350
906.974	12433
907.091	12525
907.208	12578
907.324	12547
907.441	12323
907.557	12258
907.674	12266
907.79	12190
907.907	12194
908.023	12277
908.139	12209
908.256	12087
908.372	12102
908.488	12003
908.604	11958
908.72	11946
908.836	12003
908.952	11927
909.068	11996
909.184	12114
909.3	11980
909.415	11920
909.531	12041
909.647	11794
909.762	11786
909.878	11729
909.993	11893
910.108	11695
910.224	11729
910.339	11737
910.454	11653
910.57	11680
910.685	11482
910.8	11847
910.915	11718
911.03	11623
911.145	11429
911.259	11490
911.374	11452
911.489	11364
911.604	11292
911.718	11204
911.833	11147
911.947	11128
912.062	11006
912.176	11265
912.291	11147
912.405	11170
912.519	11406
912.633	11349
912.748	11288
912.862	11235
912.976	11105
913.09	11018
913.204	11003
913.318	11094
913.431	11277
913.545	11250
913.659	11170
913.772	11105
913.886	10953
914	10911
914.113	11067
914.226	11056
914.34	11075
914.453	10965
914.566	11098
914.68	10930
914.793	10930
914.906	10793
915.019	10710
915.132	10603
915.245	10717
915.358	10782
915.47	10847
915.583	10729
915.696	10786
915.809	10843
915.921	10862
916.034	10793
916.146	10714
916.259	10656
916.371	10778
916.483	10748
916.595	10634
916.708	10626
916.82	10717
916.932	10641
917.044	10656
917.156	10675
917.268	10512
917.38	10531
917.491	10558
917.603	10607
917.715	10645
917.826	10660
917.938	10478
918.049	10474
918.161	10607
918.272	10721
918.384	10615
918.495	10588
918.606	10459
918.717	10337
918.828	10481
918.939	10447
919.05	10440
919.161	10409
919.272	10299
919.383	10284
919.494	10390
919.604	10637
919.715	10375
919.826	10405
919.936	10432
920.047	10485
920.157	10500
920.267	10622
920.378	10424
920.488	10386
920.598	10679
920.708	10752
920.818	10637
920.928	10653
921.038	10828
921.148	10687
921.258	10470
921.368	10356
921.477	10341
921.587	10230
921.697	10158
921.806	10257
921.916	10261
922.025	9979
922.134	9979
922.244	9884
922.353	10036
922.462	9850
922.571	9838
922.68	9770
922.789	9644
922.898	9637
923.007	9603
923.116	9778
923.224	9660
923.333	9728
923.442	9599
923.55	9488
923.659	9584
923.767	9652
923.876	9492
923.984	9614
924.092	9466
924.201	9561
924.309	9576
924.417	9618
924.525	9504
924.633	9481
924.741	10405
924.849	9321
924.956	9473
925.064	9253
925.172	9241
925.279	9249
925.387	9397
925.494	9355
925.602	9412
925.709	9405
925.816	9291
925.924	9313
926.031	9393
926.138	9329
926.245	9443
926.352	9249
926.459	9329
926.566	9462
926.673	9283
926.779	9222
926.886	9199
926.993	9074
927.099	9051
927.206	9005
927.312	8948
927.419	9028
927.525	8994
927.631	9131
927.737	8967
927.843	8998
927.95	8842
928.056	8891
928.162	8891
928.267	8971
928.373	9568
928.479	8998
928.585	8819
928.69	8921
928.796	8952
928.901	8800
929.007	8727
929.112	8750
929.218	8849
929.323	8739
929.428	8811
929.533	8960
929.638	8648
929.743	8682
929.848	8792
929.953	8712
930.058	8636
930.163	8507
930.267	8492
930.372	8693
930.477	8473
930.581	8781
930.685	8537
930.79	8396
930.894	8537
930.998	8473
931.103	8613
931.207	8259
931.311	8221
931.415	8161
931.519	7997
931.623	7898
