Data from test_V78500241_541.txt Node
Date: Fri Mar 25 14:37:29 CST 2022
User: usil
Spectrometer: V785-0024
Trigger mode: 0
Integration Time (sec): 4.000000E-1
Scans to average: 1
Nonlinearity correction enabled: false
Boxcar width: 0
Storing dark spectrum: false
XAxis mode: Wavelengths
Number of Pixels in Spectrum: 1024
>>>>>Begin Spectral Data<<<<<
801.071	27488
801.214	27408
801.356	27036
801.499	27036
801.641	26758
801.783	26944
801.926	26925
802.068	26754
802.211	26648
802.353	26564
802.496	26408
802.638	26427
802.78	26400
802.923	26343
803.065	26404
803.208	26259
803.35	26415
803.492	26473
803.635	26408
803.777	26514
803.919	26488
804.061	26762
804.204	26511
804.346	26313
804.488	26362
804.63	26362
804.773	26332
804.915	26518
805.057	26545
805.199	26457
805.341	26613
805.483	26602
805.626	26431
805.768	26598
805.91	26739
806.052	26693
806.194	26613
806.336	26975
806.478	26811
806.62	26826
806.762	27252
806.904	27511
807.046	27698
807.188	27857
807.33	27785
807.472	28029
807.614	28303
807.756	28615
807.898	28923
808.04	29520
808.182	30266
808.324	31263
808.465	32088
808.607	33568
808.749	34580
808.891	35216
809.033	35246
809.174	34565
809.316	33351
809.458	32142
809.6	30848
809.741	30083
809.883	29406
810.025	29044
810.166	28664
810.308	28356
810.45	27949
810.591	27838
810.733	27496
810.875	27481
811.016	27176
811.158	27161
811.299	27291
811.441	27275
811.582	27199
811.724	27131
811.865	27005
812.007	26971
812.148	26868
812.29	26868
812.431	26982
812.573	27047
812.714	27161
812.855	27252
812.997	27412
813.138	27462
813.279	27424
813.421	27211
813.562	27116
813.703	26994
813.845	26830
813.986	26507
814.127	26355
814.268	26256
814.41	26164
814.551	26176
814.692	26336
814.833	26031
814.974	26073
815.115	26069
815.256	26096
815.397	25879
815.539	26020
815.68	25757
815.821	25658
815.962	25830
816.103	25727
816.244	25776
816.385	25674
816.526	25468
816.666	25304
816.807	25278
816.948	25403
817.089	25202
817.23	25263
817.371	25293
817.512	25263
817.653	25122
817.793	25103
817.934	25023
818.075	25091
818.216	25168
818.356	25145
818.497	25012
818.638	24882
818.778	24954
818.919	24749
819.06	24791
819.2	24905
819.341	25023
819.481	24985
819.622	25209
819.762	25346
819.903	25183
820.043	25266
820.184	25091
820.324	25110
820.465	25099
820.605	25034
820.746	25012
820.886	24939
821.026	25076
821.167	24894
821.307	24966
821.447	24973
821.588	24848
821.728	24650
821.868	24460
822.008	24330
822.149	24372
822.289	24262
822.429	24083
822.569	24106
822.709	23904
822.849	23920
822.99	23832
823.13	23779
823.27	23904
823.41	23570
823.55	23482
823.69	23642
823.83	23577
823.97	23573
824.11	23292
824.25	23132
824.389	23429
824.529	23474
824.669	23356
824.809	23406
824.949	23505
825.089	23421
825.228	23452
825.368	23200
825.508	23193
825.648	23242
825.787	23105
825.927	23231
826.067	23006
826.206	23189
826.346	23128
826.485	23189
826.625	23151
826.765	23220
826.904	23200
827.044	22946
827.183	22839
827.323	22763
827.462	22763
827.601	22816
827.741	22771
827.88	22873
828.02	22721
828.159	22694
828.298	22889
828.437	22790
828.577	22713
828.716	22938
828.855	22759
828.994	22443
829.134	22668
829.273	22596
829.412	22413
829.551	22382
829.69	22466
829.829	22531
829.968	22424
830.107	22565
830.246	22538
830.385	22478
830.524	22348
830.663	22272
830.802	22226
830.941	22067
831.08	21934
831.219	22147
831.357	22040
831.496	22226
831.635	22025
831.774	21930
831.913	21975
832.051	21804
832.19	21915
832.329	21854
832.467	21762
832.606	21720
832.744	21823
832.883	21743
833.022	21831
833.16	21789
833.299	22002
833.437	22055
833.576	21975
833.714	22116
833.852	22116
833.991	22112
834.129	22242
834.267	22238
834.406	22249
834.544	22295
834.682	22006
834.821	21937
834.959	22162
835.097	21857
835.235	21903
835.373	21903
835.511	21736
835.65	21622
835.788	21629
835.926	21492
836.064	21416
836.202	21416
836.34	21644
836.478	21625
836.615	21564
836.753	21595
836.891	21641
837.029	21561
837.167	21496
837.305	21488
837.443	21492
837.58	21321
837.718	21485
837.856	21481
837.993	21351
838.131	21401
838.269	21336
838.406	21317
838.544	21249
838.681	20986
838.819	20941
838.956	20785
839.094	20849
839.231	20899
839.369	20941
839.506	21226
839.643	21093
839.781	20872
839.918	20765
840.055	20792
840.193	20796
840.33	20678
840.467	20727
840.604	20689
840.742	21051
840.879	20640
841.016	20739
841.153	20640
841.29	20842
841.427	20686
841.564	20773
841.701	20663
841.838	20640
841.975	20560
842.112	20625
842.249	20583
842.385	20450
842.522	20655
842.659	20526
842.796	20419
842.933	20503
843.069	20423
843.206	20522
843.343	20594
843.479	20514
843.616	20564
843.752	20313
843.889	20324
844.025	20579
844.162	20355
844.298	20522
844.435	20415
844.571	20530
844.708	20579
844.844	20956
844.98	21028
845.117	21226
845.253	21420
845.389	21979
845.525	23280
845.661	24943
845.798	27496
845.934	29478
846.07	30186
846.206	29832
846.342	28516
846.478	26012
846.614	23649
846.75	22067
846.886	21367
847.022	20880
847.158	20431
847.294	20275
847.429	20103
847.565	19951
847.701	20248
847.837	19776
847.972	19441
848.108	19685
848.244	19655
848.379	19369
848.515	19289
848.65	19430
848.786	19335
848.921	19384
849.057	19339
849.192	19331
849.328	19259
849.463	19247
849.598	19228
849.734	19145
849.869	19202
850.004	19069
850.14	19076
850.275	19042
850.41	19027
850.545	18943
850.68	19023
850.815	19019
850.95	18947
851.085	19198
851.22	19122
851.355	19027
851.49	19042
851.625	18897
851.76	18958
851.895	19012
852.03	18802
852.165	19053
852.299	19053
852.434	19137
852.569	19046
852.703	19099
852.838	19061
852.973	19168
853.107	19095
853.242	19000
853.376	18909
853.511	18886
853.645	19008
853.78	19171
853.914	18996
854.048	18939
854.183	19031
854.317	18943
854.451	19221
854.585	18943
854.72	18958
854.854	19053
854.988	18924
855.122	18890
855.256	18833
855.39	18951
855.524	19053
855.658	19012
855.792	18848
855.926	18856
856.06	19057
856.194	18966
856.327	18833
856.461	18848
856.595	18821
856.729	18783
856.862	19012
856.996	18875
857.13	18916
857.263	18935
857.397	18897
857.53	18829
857.664	18779
857.797	18806
857.931	18943
858.064	18951
858.197	18977
858.331	18886
858.464	18753
858.597	18734
858.731	18783
858.864	18802
858.997	18821
859.13	18783
859.263	18745
859.396	18954
859.529	18684
859.662	18707
859.795	18734
859.928	18719
860.061	18810
860.194	18924
860.327	18837
860.46	18734
860.592	18814
860.725	18882
860.858	18909
860.99	18741
861.123	18677
861.256	18734
861.388	18719
861.521	19483
861.653	18593
861.786	18688
861.918	18521
862.05	18665
862.183	18730
862.315	18791
862.447	18806
862.58	18650
862.712	18407
862.844	18509
862.976	18532
863.108	18551
863.24	18859
863.372	18327
863.504	18323
863.636	18445
863.768	18525
863.9	18429
864.032	18403
864.164	18357
864.296	18422
864.428	18494
864.559	18460
864.691	18559
864.823	18395
864.954	18445
865.086	18433
865.217	18323
865.349	18285
865.48	18380
865.612	18418
865.743	18517
865.875	18445
866.006	18178
866.137	18342
866.269	18426
866.4	18369
866.531	18380
866.662	18194
866.793	18251
866.924	18296
867.055	18323
867.186	18304
867.317	18327
867.448	18224
867.579	18311
867.71	18083
867.841	18300
867.972	18315
868.103	18414
868.233	18270
868.364	18365
868.495	18464
868.625	18517
868.756	18642
868.886	18532
869.017	18532
869.147	18650
869.278	18760
869.408	18620
869.539	18483
869.669	18646
869.799	18665
869.929	18791
870.06	18677
870.19	18810
870.32	18920
870.45	18783
870.58	18890
870.71	19065
870.84	18973
870.97	18798
871.1	19008
871.23	19133
871.36	19168
871.489	19164
871.619	19183
871.749	19209
871.879	19213
872.008	19228
872.138	19236
872.267	19156
872.397	19034
872.526	19053
872.656	19042
872.785	19034
872.915	19278
873.044	19266
873.173	19209
873.303	19304
873.432	19426
873.561	19388
873.69	19278
873.819	19282
873.948	19441
874.077	19343
874.206	19324
874.335	19426
874.464	19422
874.593	19616
874.722	19518
874.851	19738
874.979	19666
875.108	19757
875.237	19556
875.365	19681
875.494	19624
875.623	19864
875.751	19761
875.88	19795
876.008	19860
876.136	20043
876.265	20210
876.393	20374
876.521	20381
876.65	20454
876.778	20488
876.906	20320
877.034	20355
877.162	20396
877.29	20313
877.418	20454
877.546	20507
877.674	20571
877.802	20575
877.93	20625
878.058	20594
878.185	20537
878.313	20910
878.441	20857
878.568	20876
878.696	21043
878.824	21515
878.951	21991
879.079	22485
879.206	23398
879.333	23980
879.461	24601
879.588	25084
879.715	25122
879.842	24844
879.97	24300
880.097	23041
880.224	22455
880.351	22120
880.478	21701
880.605	21507
880.732	21443
880.859	21603
880.986	21344
881.112	21252
881.239	21108
881.366	20994
881.493	20948
881.619	20876
881.746	20899
881.872	20849
881.999	20906
882.125	20823
882.252	21017
882.378	20887
882.505	21043
882.631	20815
882.757	20708
882.883	20845
883.01	20651
883.136	20606
883.262	20450
883.388	20495
883.514	20663
883.64	20590
883.766	20594
883.892	20488
884.018	20503
884.143	20629
884.269	20754
884.395	20408
884.52	20317
884.646	20339
884.772	20267
884.897	20324
885.023	20408
885.148	20454
885.274	20636
885.399	20454
885.524	20271
885.65	20240
885.775	20244
885.9	20191
886.025	20149
886.15	20077
886.275	19841
886.4	19864
886.525	19826
886.65	19769
886.775	19784
886.9	19951
887.025	19921
887.149	19666
887.274	19525
887.399	19403
887.523	19381
887.648	19400
887.773	19247
887.897	19255
888.021	19308
888.146	19183
888.27	19297
888.395	19327
888.519	19259
888.643	19168
888.767	19285
888.891	19000
889.015	19004
889.139	18966
889.263	18989
889.387	19042
889.511	19141
889.635	18935
889.759	18844
889.883	18894
890.006	18829
890.13	18901
890.254	18738
890.377	18779
890.501	18623
890.624	18555
890.748	18749
890.871	18551
890.995	18365
891.118	18186
891.241	18361
891.364	18391
891.488	18506
891.611	18327
891.734	18403
891.857	18315
891.98	18304
892.103	18429
892.226	18357
892.349	18365
892.471	18034
892.594	18171
892.717	18205
892.839	18064
892.962	18186
893.085	18308
893.207	18087
893.33	18174
893.452	18045
893.575	18057
893.697	18034
893.819	18266
893.941	18239
894.064	18194
894.186	18106
894.308	18034
894.43	18129
894.552	18216
894.674	18106
894.796	17946
894.918	18030
895.04	18079
895.161	18072
895.283	18125
895.405	18022
895.526	18041
895.648	18102
895.769	18045
895.891	18011
896.012	18110
896.134	18174
896.255	18106
896.376	18007
896.498	18041
896.619	18114
896.74	18007
896.861	18167
896.982	18414
897.103	18544
897.224	18399
897.345	18254
897.466	18277
897.587	18277
897.708	18391
897.828	18247
897.949	18243
898.07	18136
898.19	18209
898.311	18429
898.431	18247
898.552	18232
898.672	18361
898.792	18300
898.913	18190
899.033	18213
899.153	18174
899.273	18079
899.393	18083
899.513	18041
899.633	18049
899.753	18095
899.873	18110
899.993	17992
900.113	17931
900.232	18136
900.352	17931
900.472	17973
900.591	17771
900.711	17954
900.83	17874
900.95	17942
901.069	17935
901.189	17741
901.308	17608
901.427	17501
901.546	17535
901.665	17520
901.784	17436
901.904	17239
902.023	17239
902.141	17052
902.26	17010
902.379	17128
902.498	16946
902.617	16953
902.735	17003
902.854	16915
902.973	16873
903.091	16694
903.21	16660
903.328	16710
903.446	16493
903.565	16481
903.683	16478
903.801	16398
903.919	16375
904.038	16462
904.156	16272
904.274	16371
904.392	16150
904.51	16101
904.627	16116
904.745	16246
904.863	16162
904.981	15892
905.098	15937
905.216	15892
905.334	15823
905.451	15911
905.569	15816
905.686	15823
905.803	15759
905.921	15641
906.038	15728
906.155	15705
906.272	15485
906.389	15485
906.506	15477
906.623	15386
906.74	15386
906.857	15203
906.974	15230
907.091	15481
907.208	15447
907.324	15386
907.441	15272
907.557	15104
907.674	15089
907.79	15089
907.907	15070
908.023	15009
908.139	15085
908.256	15070
908.372	15085
908.488	14986
908.604	14785
908.72	14689
908.836	14750
908.952	14731
909.068	14754
909.184	14781
909.3	14823
909.415	14727
909.531	14720
909.647	14632
909.762	14511
909.878	14450
909.993	14507
910.108	14473
910.224	14473
910.339	14560
910.454	14324
910.57	14328
910.685	14183
910.8	14632
910.915	14442
911.03	14317
911.145	14119
911.259	14073
911.374	14126
911.489	14050
911.604	13967
911.718	13833
911.833	13925
911.947	13765
912.062	13651
912.176	13830
912.291	13757
912.405	13807
912.519	14005
912.633	14058
912.748	13951
912.862	13830
912.976	13696
913.09	13620
913.204	13613
913.318	13620
913.431	13807
913.545	13757
913.659	13837
913.772	13590
913.886	13521
914	13567
914.113	13620
914.226	13647
914.34	13628
914.453	13411
914.566	13590
914.68	13525
914.793	13419
914.906	13350
915.019	13206
915.132	13145
915.245	13164
915.358	13149
915.47	13164
915.583	13190
915.696	13240
915.809	13217
915.921	13419
916.034	13213
916.146	13175
916.259	13152
916.371	13221
916.483	13175
916.595	13057
916.708	13175
916.82	13168
916.932	13084
917.044	13171
917.156	13095
917.268	12916
917.38	12939
917.491	12886
917.603	12977
917.715	13004
917.826	12966
917.938	12787
918.049	12787
918.161	12943
918.272	13034
918.384	12977
918.495	12916
918.606	12791
918.717	12654
918.828	12620
918.939	12760
919.05	12547
919.161	12707
919.272	12498
919.383	12604
919.494	12707
919.604	12795
919.715	12639
919.826	12616
919.936	12673
920.047	12650
920.157	12635
920.267	12871
920.378	12703
920.488	12532
920.598	12722
920.708	12924
920.818	12802
920.928	12798
921.038	12966
921.148	12932
921.258	12654
921.368	12471
921.477	12517
921.587	12445
921.697	12319
921.806	12456
921.916	12388
922.025	12178
922.134	12125
922.244	12034
922.353	12178
922.462	11996
922.571	11885
922.68	11813
922.789	11828
922.898	11775
923.007	11684
923.116	11840
923.224	11684
923.333	11779
923.442	11589
923.55	11581
923.659	11600
923.767	11699
923.876	11566
923.984	11722
924.092	11463
924.201	11558
924.309	11520
924.417	11554
924.525	11459
924.633	11356
924.741	12296
924.849	11330
924.956	11414
925.064	11345
925.172	11155
925.279	11250
925.387	11250
925.494	11303
925.602	11372
925.709	11364
925.816	11151
925.924	11242
926.031	11345
926.138	11277
926.245	11334
926.352	11185
926.459	11242
926.566	11307
926.673	11117
926.779	11052
926.886	11143
926.993	10938
927.099	10866
927.206	10835
927.312	10835
927.419	10831
927.525	10949
927.631	10877
927.737	10797
927.843	10763
927.95	10694
928.056	10740
928.162	10774
928.267	10790
928.373	11349
928.479	10850
928.585	10660
928.69	10736
928.796	10774
928.901	10618
929.007	10580
929.112	10641
929.218	10599
929.323	10565
929.428	10592
929.533	10698
929.638	10554
929.743	10474
929.848	10588
929.953	10466
930.058	10417
930.163	10135
930.267	10131
930.372	10337
930.477	10154
930.581	10447
930.685	10261
930.79	10177
930.894	10093
930.998	10154
931.103	10253
931.207	9857
931.311	9831
931.415	9751
931.519	9595
931.623	9557
