Data from test_V78500241_355.txt Node
Date: Fri Mar 25 14:36:11 CST 2022
User: usil
Spectrometer: V785-0024
Trigger mode: 0
Integration Time (sec): 4.000000E-1
Scans to average: 1
Nonlinearity correction enabled: false
Boxcar width: 0
Storing dark spectrum: false
XAxis mode: Wavelengths
Number of Pixels in Spectrum: 1024
>>>>>Begin Spectral Data<<<<<
801.071	26986
801.214	26849
801.356	26526
801.499	26480
801.641	26358
801.783	26370
801.926	26271
802.068	26229
802.211	26103
802.353	26122
802.496	25898
802.638	25902
802.78	25959
802.923	25898
803.065	25757
803.208	25875
803.35	25852
803.492	25818
803.635	25947
803.777	25830
803.919	25932
804.061	26153
804.204	25772
804.346	25879
804.488	25753
804.63	25902
804.773	25613
804.915	25750
805.057	25925
805.199	25742
805.341	25887
805.483	25830
805.626	25803
805.768	25776
805.91	25860
806.052	25772
806.194	25731
806.336	25955
806.478	25830
806.62	25818
806.762	25928
806.904	26043
807.046	26259
807.188	26088
807.33	26168
807.472	26225
807.614	26092
807.756	26157
807.898	26077
808.04	25940
808.182	26050
808.324	26008
808.465	25936
808.607	26202
808.749	26263
808.891	26465
809.033	26636
809.174	26434
809.316	26377
809.458	26256
809.6	26355
809.741	26400
809.883	26374
810.025	26564
810.166	26469
810.308	26488
810.45	26415
810.591	26442
810.733	26324
810.875	26267
811.016	26012
811.158	26081
811.299	26206
811.441	26374
811.582	26453
811.724	26195
811.865	26225
812.007	26218
812.148	26142
812.29	26130
812.431	26214
812.573	26465
812.714	26434
812.855	26651
812.997	26758
813.138	26758
813.279	26735
813.421	26670
813.562	26560
813.703	26492
813.845	26503
813.986	26119
814.127	25814
814.268	25818
814.41	25868
814.551	25666
814.692	25814
814.833	25704
814.974	25750
815.115	25677
815.256	25537
815.397	25533
815.539	25594
815.68	25346
815.821	25575
815.962	25563
816.103	25510
816.244	25354
816.385	25164
816.526	25194
816.666	25012
816.807	24844
816.948	24829
817.089	25088
817.23	24905
817.371	24871
817.512	24939
817.653	24935
817.793	24829
817.934	24852
818.075	24817
818.216	24886
818.356	24791
818.497	24795
818.638	24574
818.778	24563
818.919	24471
819.06	24593
819.2	24677
819.341	24787
819.481	24658
819.622	24970
819.762	25103
819.903	25008
820.043	24951
820.184	24954
820.324	24787
820.465	24848
820.605	24753
820.746	24722
820.886	24589
821.026	24783
821.167	24757
821.307	24852
821.447	24791
821.588	24540
821.728	24490
821.868	24365
822.008	24178
822.149	24205
822.289	23984
822.429	23859
822.569	23836
822.709	23874
822.849	23767
822.99	23680
823.13	23710
823.27	23596
823.41	23421
823.55	23356
823.69	23474
823.83	23558
823.97	23315
824.11	23086
824.25	23212
824.389	23086
824.529	23296
824.669	23250
824.809	23235
824.949	23303
825.089	23113
825.228	23124
825.368	23010
825.508	23064
825.648	23048
825.787	22889
825.927	22995
826.067	22965
826.206	23079
826.346	23098
826.485	23060
826.625	22984
826.765	23064
826.904	22946
827.044	22740
827.183	22668
827.323	22725
827.462	22565
827.601	22782
827.741	22683
827.88	22611
828.02	22557
828.159	22603
828.298	22630
828.437	22618
828.577	22679
828.716	22786
828.855	22637
828.994	22413
829.134	22371
829.273	22443
829.412	22424
829.551	22306
829.69	22344
829.829	22348
829.968	22417
830.107	22413
830.246	22314
830.385	22291
830.524	22356
830.663	22067
830.802	22067
830.941	21945
831.08	21880
831.219	22006
831.357	22002
831.496	22143
831.635	21895
831.774	21865
831.913	21705
832.051	21759
832.19	21762
832.329	21644
832.467	21629
832.606	21519
832.744	21583
832.883	21515
833.022	21656
833.16	21439
833.299	21542
833.437	21504
833.576	21538
833.714	21564
833.852	21652
833.991	21663
834.129	21774
834.267	21679
834.406	21496
834.544	21660
834.682	21633
834.821	21557
834.959	21652
835.097	21591
835.235	21663
835.373	21454
835.511	21568
835.65	21485
835.788	21420
835.926	21287
836.064	21237
836.202	21272
836.34	21367
836.478	21488
836.615	21389
836.753	21389
836.891	21530
837.029	21420
837.167	21454
837.305	21336
837.443	21416
837.58	21313
837.718	21382
837.856	21332
837.993	21192
838.131	21176
838.269	21116
838.406	21245
838.544	21051
838.681	20967
838.819	20948
838.956	20788
839.094	20781
839.231	20754
839.369	20864
839.506	21104
839.643	20872
839.781	20727
839.918	20636
840.055	20674
840.193	20648
840.33	20606
840.467	20651
840.604	20701
840.742	20834
840.879	20499
841.016	20564
841.153	20454
841.29	20731
841.427	20533
841.564	20530
841.701	20545
841.838	20533
841.975	20511
842.112	20465
842.249	20355
842.385	20301
842.522	20400
842.659	20336
842.796	20259
842.933	20469
843.069	20317
843.206	20187
843.343	20286
843.479	20492
843.616	20305
843.752	20206
843.889	20142
844.025	20278
844.162	20008
844.298	20111
844.435	20031
844.571	20100
844.708	20008
844.844	20229
844.98	20168
845.117	20191
845.253	20107
845.389	19982
845.525	20096
845.661	19989
845.798	19928
845.934	19947
846.07	19890
846.206	19906
846.342	19940
846.478	19921
846.614	19685
846.75	19575
846.886	19525
847.022	19723
847.158	19563
847.294	19613
847.429	19597
847.565	19518
847.701	19849
847.837	19304
847.972	19206
848.108	19468
848.244	19510
848.379	19171
848.515	19065
848.65	19133
848.786	19099
848.921	19152
849.057	19137
849.192	19141
849.328	19095
849.463	19156
849.598	19061
849.734	18989
849.869	18935
850.004	18825
850.14	18943
850.275	18859
850.41	18814
850.545	18806
850.68	18810
850.815	18970
850.95	18901
851.085	18989
851.22	18989
851.355	18943
851.49	18791
851.625	18745
851.76	18840
851.895	18696
852.03	18707
852.165	18776
852.299	18901
852.434	18890
852.569	18935
852.703	18798
852.838	18966
852.973	19034
853.107	18913
853.242	18783
853.376	18582
853.511	18688
853.645	18658
853.78	18707
853.914	18745
854.048	18722
854.183	18627
854.317	18700
854.451	18852
854.585	18658
854.72	18719
854.854	18730
854.988	18544
855.122	18684
855.256	18540
855.39	18574
855.524	18791
855.658	18795
855.792	18730
855.926	18700
856.06	18722
856.194	18711
856.327	18639
856.461	18631
856.595	18555
856.729	18810
856.862	18707
856.996	18700
857.13	18570
857.263	18806
857.397	18700
857.53	18536
857.664	18635
857.797	18703
857.931	18833
858.064	18665
858.197	18802
858.331	18551
858.464	18563
858.597	18528
858.731	18654
858.864	18612
858.997	18715
859.13	18593
859.263	18517
859.396	18757
859.529	18601
859.662	18684
859.795	18589
859.928	18684
860.061	18749
860.194	18745
860.327	18574
860.46	18555
860.592	18738
860.725	18677
860.858	18726
860.99	18513
861.123	18509
861.256	18525
861.388	18593
861.521	19270
861.653	18536
861.786	18502
861.918	18384
862.05	18498
862.183	18608
862.315	18646
862.447	18688
862.58	18631
862.712	18334
862.844	18216
862.976	18399
863.108	18357
863.24	18745
863.372	18289
863.504	18369
863.636	18346
863.768	18403
863.9	18407
864.032	18251
864.164	18201
864.296	18414
864.428	18418
864.559	18418
864.691	18384
864.823	18319
864.954	18292
865.086	18357
865.217	18232
865.349	18262
865.48	18163
865.612	18182
865.743	18353
865.875	18182
866.006	18140
866.137	18216
866.269	18277
866.4	18266
866.531	18163
866.662	18125
866.793	18163
866.924	18110
867.055	18247
867.186	18258
867.317	18243
867.448	18152
867.579	18117
867.71	18167
867.841	18076
867.972	18205
868.103	18201
868.233	18243
868.364	18148
868.495	18220
868.625	18346
868.756	18502
868.886	18452
869.017	18384
869.147	18532
869.278	18521
869.408	18483
869.539	18437
869.669	18467
869.799	18483
869.929	18612
870.06	18407
870.19	18730
870.32	18719
870.45	18791
870.58	18639
870.71	18875
870.84	18776
870.97	18890
871.1	18837
871.23	18856
871.36	18996
871.489	18848
871.619	18924
871.749	18932
871.879	19042
872.008	19023
872.138	18981
872.267	19084
872.397	18943
872.526	18787
872.656	18817
872.785	18859
872.915	18996
873.044	19103
873.173	18958
873.303	19053
873.432	19050
873.561	19103
873.69	19038
873.819	19065
873.948	19137
874.077	19183
874.206	19126
874.335	19088
874.464	19160
874.593	19236
874.722	19316
874.851	19400
874.979	19240
875.108	19384
875.237	19312
875.365	19160
875.494	19255
875.623	19403
875.751	19411
875.88	19301
876.008	19445
876.136	19552
876.265	19818
876.393	19795
876.521	19685
876.65	19731
876.778	19761
876.906	19708
877.034	19605
877.162	19715
877.29	19597
877.418	19757
877.546	19681
877.674	19875
877.802	19734
877.93	19693
878.058	19723
878.185	19647
878.313	19742
878.441	19742
878.568	19502
878.696	19594
878.824	19731
878.951	19826
879.079	19902
879.206	19978
879.333	19784
879.461	19803
879.588	19788
879.715	19864
879.842	20054
879.97	19761
880.097	19559
880.224	19559
880.351	19601
880.478	19567
880.605	19445
880.732	19590
880.859	19761
880.986	19571
881.112	19605
881.239	19430
881.366	19259
881.493	19312
881.619	19145
881.746	19316
881.872	19080
881.999	19164
882.125	19110
882.252	19225
882.378	19221
882.505	19369
882.631	19156
882.757	18875
882.883	19000
883.01	19019
883.136	18882
883.262	18798
883.388	18620
883.514	19046
883.64	18916
883.766	18901
883.892	18646
884.018	18734
884.143	19057
884.269	18901
884.395	18707
884.52	18574
884.646	18719
884.772	18536
884.897	18502
885.023	18521
885.148	18734
885.274	18738
885.399	18730
885.524	18585
885.65	18654
885.775	18494
885.9	18601
886.025	18707
886.15	18616
886.275	18593
886.4	18452
886.525	18574
886.65	18506
886.775	18517
886.9	18582
887.025	18703
887.149	18623
887.274	18445
887.399	18330
887.523	18300
887.648	18399
887.773	18300
887.897	18315
888.021	18388
888.146	18281
888.27	18517
888.395	18388
888.519	18445
888.643	18376
888.767	18479
888.891	18239
889.015	18186
889.139	18182
889.263	18239
889.387	18281
889.511	18388
889.635	18209
889.759	18148
889.883	18186
890.006	18140
890.13	18167
890.254	18091
890.377	18155
890.501	17916
890.624	17935
890.748	18007
890.871	17745
890.995	17737
891.118	17745
891.241	17756
891.364	17764
891.488	17901
891.611	17684
891.734	17908
891.857	17809
891.98	17813
892.103	17874
892.226	17707
892.349	17832
892.471	17611
892.594	17634
892.717	17714
892.839	17680
892.962	17771
893.085	17783
893.207	17604
893.33	17532
893.452	17627
893.575	17771
893.697	17699
893.819	17824
893.941	17946
894.064	17885
894.186	17729
894.308	17737
894.43	17729
894.552	17870
894.674	17874
894.796	17684
894.918	17729
895.04	17710
895.161	17767
895.283	17752
895.405	17562
895.526	17741
895.648	17665
895.769	17794
895.891	17794
896.012	17912
896.134	17847
896.255	17760
896.376	17783
896.498	17847
896.619	17893
896.74	17870
896.861	17866
896.982	18201
897.103	18334
897.224	18083
897.345	18045
897.466	18007
897.587	17980
897.708	18125
897.828	18064
897.949	18030
898.07	17885
898.19	17901
898.311	18041
898.431	17958
898.552	18034
898.672	18152
898.792	18019
898.913	18030
899.033	17874
899.153	17775
899.273	17676
899.393	17889
899.513	17882
899.633	17786
899.753	17878
899.873	17745
899.993	17920
900.113	17851
900.232	17809
900.352	17726
900.472	17676
900.591	17630
900.711	17630
900.83	17638
900.95	17760
901.069	17646
901.189	17467
901.308	17421
901.427	17193
901.546	17235
901.665	17277
901.784	17299
901.904	17147
902.023	17037
902.141	16816
902.26	16763
902.379	16885
902.498	16850
902.617	16721
902.735	16923
902.854	16748
902.973	16698
903.091	16485
903.21	16455
903.328	16447
903.446	16417
903.565	16265
903.683	16303
903.801	16188
903.919	16344
904.038	16188
904.156	16029
904.274	16169
904.392	15915
904.51	15991
904.627	16116
904.745	16158
904.863	16177
904.981	15880
905.098	15739
905.216	15774
905.334	15690
905.451	15663
905.569	15717
905.686	15728
905.803	15618
905.921	15603
906.038	15606
906.155	15515
906.272	15454
906.389	15473
906.506	15340
906.623	15211
906.74	15203
906.857	15169
906.974	15138
907.091	15329
907.208	15428
907.324	15218
907.441	15176
907.557	15085
907.674	14982
907.79	15017
907.907	14956
908.023	15055
908.139	14990
908.256	14899
908.372	14956
908.488	14895
908.604	14746
908.72	14613
908.836	14697
908.952	14568
909.068	14686
909.184	14815
909.3	14674
909.415	14636
909.531	14655
909.647	14434
909.762	14492
909.878	14355
909.993	14412
910.108	14332
910.224	14324
910.339	14415
910.454	14240
910.57	14267
910.685	14202
910.8	14408
910.915	14298
911.03	14225
911.145	14008
911.259	13963
911.374	14046
911.489	14065
911.604	13883
911.718	13769
911.833	13803
911.947	13670
912.062	13594
912.176	13757
912.291	13757
912.405	13731
912.519	13894
912.633	14001
912.748	13833
912.862	13753
912.976	13636
913.09	13434
913.204	13643
913.318	13605
913.431	13753
913.545	13693
913.659	13655
913.772	13529
913.886	13304
914	13464
914.113	13597
914.226	13620
914.34	13529
914.453	13400
914.566	13518
914.68	13441
914.793	13369
914.906	13217
915.019	13114
915.132	13114
915.245	13129
915.358	13152
915.47	13061
915.583	13084
915.696	13202
915.809	13129
915.921	13274
916.034	13034
916.146	13103
916.259	13088
916.371	13114
916.483	13095
916.595	12985
916.708	13084
916.82	13015
916.932	12985
917.044	13031
917.156	12943
917.268	12802
917.38	12859
917.491	12776
917.603	12776
917.715	12951
917.826	12977
917.938	12776
918.049	12726
918.161	12787
918.272	12958
918.384	12920
918.495	12856
918.606	12635
918.717	12654
918.828	12631
918.939	12730
919.05	12604
919.161	12563
919.272	12372
919.383	12441
919.494	12604
919.604	12852
919.715	12669
919.826	12506
919.936	12517
920.047	12646
920.157	12578
920.267	12715
920.378	12688
920.488	12486
920.598	12730
920.708	12920
920.818	12837
920.928	12741
921.038	12894
921.148	12768
921.258	12589
921.368	12441
921.477	12403
921.587	12391
921.697	12262
921.806	12395
921.916	12216
922.025	12098
922.134	12083
922.244	12007
922.353	12064
922.462	12007
922.571	11897
922.68	11680
922.789	11589
922.898	11653
923.007	11676
923.116	11726
923.224	11649
923.333	11649
923.442	11562
923.55	11505
923.659	11551
923.767	11608
923.876	11486
923.984	11592
924.092	11516
924.201	11429
924.309	11421
924.417	11505
924.525	11478
924.633	11440
924.741	12060
924.849	11261
924.956	11349
925.064	11258
925.172	11147
925.279	11136
925.387	11280
925.494	11220
925.602	11334
925.709	11318
925.816	11140
925.924	11204
926.031	11277
926.138	11201
926.245	11174
926.352	11075
926.459	11159
926.566	11284
926.673	11132
926.779	11064
926.886	11003
926.993	10862
927.099	10801
927.206	10854
927.312	10809
927.419	10904
927.525	10824
927.631	10938
927.737	10721
927.843	10683
927.95	10607
928.056	10721
928.162	10611
928.267	10778
928.373	11379
928.479	10694
928.585	10504
928.69	10660
928.796	10565
928.901	10630
929.007	10440
929.112	10584
929.218	10535
929.323	10428
929.428	10398
929.533	10630
929.638	10417
929.743	10356
929.848	10432
929.953	10352
930.058	10405
930.163	10196
930.267	10162
930.372	10390
930.477	10071
930.581	10348
930.685	10249
930.79	10071
930.894	10067
930.998	10090
931.103	10196
931.207	9812
931.311	9751
931.415	9660
931.519	9511
931.623	9466
