Data from test_V78500241_3404.txt Node
Date: Fri Mar 25 14:57:25 CST 2022
User: usil
Spectrometer: V785-0024
Trigger mode: 0
Integration Time (sec): 4.000000E-1
Scans to average: 1
Nonlinearity correction enabled: false
Boxcar width: 0
Storing dark spectrum: false
XAxis mode: Wavelengths
Number of Pixels in Spectrum: 1024
>>>>>Begin Spectral Data<<<<<
801.071	21922
801.214	21842
801.356	21606
801.499	21485
801.641	21374
801.783	21336
801.926	21389
802.068	21237
802.211	21127
802.353	20956
802.496	20899
802.638	20880
802.78	20796
802.923	20693
803.065	20564
803.208	20708
803.35	20598
803.492	20754
803.635	20781
803.777	20625
803.919	20792
804.061	21081
804.204	20678
804.346	20625
804.488	20511
804.63	20564
804.773	20579
804.915	20492
805.057	20712
805.199	20499
805.341	20541
805.483	20644
805.626	20648
805.768	20374
805.91	20530
806.052	20545
806.194	20476
806.336	20697
806.478	20431
806.62	20358
806.762	20651
806.904	20716
807.046	20967
807.188	20842
807.33	20918
807.472	20910
807.614	20739
807.756	20758
807.898	20629
808.04	20415
808.182	20560
808.324	20579
808.465	20632
808.607	20739
808.749	20864
808.891	20990
809.033	21047
809.174	20861
809.316	20754
809.458	20773
809.6	20906
809.741	21112
809.883	20933
810.025	21051
810.166	20956
810.308	20986
810.45	20887
810.591	20902
810.733	20842
810.875	20777
811.016	20526
811.158	20590
811.299	20636
811.441	20716
811.582	20815
811.724	20636
811.865	20579
812.007	20689
812.148	20507
812.29	20632
812.431	20800
812.573	21081
812.714	20975
812.855	21093
812.997	21310
813.138	21443
813.279	21275
813.421	21070
813.562	21047
813.703	20975
813.845	20754
813.986	20522
814.127	20290
814.268	20183
814.41	20278
814.551	20248
814.692	20240
814.833	20096
814.974	20202
815.115	20267
815.256	20005
815.397	20020
815.539	20096
815.68	20001
815.821	19868
815.962	19997
816.103	19890
816.244	19731
816.385	19799
816.526	19651
816.666	19495
816.807	19430
816.948	19430
817.089	19487
817.23	19468
817.371	19320
817.512	19365
817.653	19331
817.793	19362
817.934	19289
818.075	19316
818.216	19403
818.356	19422
818.497	19324
818.638	19015
818.778	19072
818.919	19031
819.06	19076
819.2	19133
819.341	19266
819.481	19259
819.622	19350
819.762	19533
819.903	19616
820.043	19460
820.184	19381
820.324	19187
820.465	19449
820.605	19388
820.746	19270
820.886	19228
821.026	19240
821.167	19141
821.307	19324
821.447	19247
821.588	19179
821.728	19126
821.868	18871
822.008	18787
822.149	18719
822.289	18703
822.429	18509
822.569	18426
822.709	18506
822.849	18254
822.99	18186
823.13	18258
823.27	18262
823.41	18072
823.55	17973
823.69	18019
823.83	18136
823.97	17935
824.11	17897
824.25	17843
824.389	17748
824.529	17897
824.669	17809
824.809	17870
824.949	17885
825.089	17889
825.228	17786
825.368	17649
825.508	17619
825.648	17661
825.787	17745
825.927	17638
826.067	17611
826.206	17543
826.346	17490
826.485	17676
826.625	17581
826.765	17680
826.904	17630
827.044	17395
827.183	17349
827.323	17265
827.462	17269
827.601	17303
827.741	17296
827.88	17311
828.02	17155
828.159	17250
828.298	17315
828.437	17391
828.577	17299
828.716	17436
828.855	17311
828.994	16991
829.134	16991
829.273	16999
829.412	17094
829.551	17052
829.69	16953
829.829	17109
829.968	17109
830.107	16965
830.246	17022
830.385	16980
830.524	16881
830.663	16908
830.802	16801
830.941	16683
831.08	16694
831.219	16626
831.357	16862
831.496	16915
831.635	16558
831.774	16580
831.913	16603
832.051	16470
832.19	16424
832.329	16432
832.467	16409
832.606	16329
832.744	16371
832.883	16360
833.022	16284
833.16	16318
833.299	16360
833.437	16367
833.576	16497
833.714	16386
833.852	16432
833.991	16409
834.129	16459
834.267	16535
834.406	16421
834.544	16500
834.682	16455
834.821	16443
834.959	16512
835.097	16325
835.235	16474
835.373	16523
835.511	16451
835.65	16379
835.788	16310
835.926	16048
836.064	16196
836.202	16204
836.34	16386
836.478	16493
836.615	16276
836.753	16459
836.891	16451
837.029	16367
837.167	16371
837.305	16272
837.443	16265
837.58	16215
837.718	16158
837.856	16265
837.993	16173
838.131	16242
838.269	16147
838.406	16158
838.544	16063
838.681	15968
838.819	15907
838.956	15819
839.094	15759
839.231	15804
839.369	16017
839.506	16166
839.643	15968
839.781	15751
839.918	15759
840.055	15762
840.193	15800
840.33	15793
840.467	15759
840.604	15793
840.742	16006
840.879	15545
841.016	15739
841.153	15717
841.29	15884
841.427	15747
841.564	15812
841.701	15857
841.838	15762
841.975	15625
842.112	15606
842.249	15671
842.385	15599
842.522	15679
842.659	15576
842.796	15603
842.933	15580
843.069	15564
843.206	15557
843.343	15610
843.479	15485
843.616	15561
843.752	15317
843.889	15313
844.025	15488
844.162	15294
844.298	15420
844.435	15317
844.571	15199
844.708	15462
844.844	15542
844.98	15447
845.117	15504
845.253	15272
845.389	15150
845.525	15226
845.661	15218
845.798	15131
845.934	15157
846.07	15131
846.206	15188
846.342	15169
846.478	15142
846.614	14982
846.75	14842
846.886	14910
847.022	14880
847.158	15047
847.294	14819
847.429	15047
847.565	14887
847.701	15150
847.837	14648
847.972	14610
848.108	14769
848.244	14743
848.379	14507
848.515	14480
848.65	14514
848.786	14549
848.921	14522
849.057	14621
849.192	14629
849.328	14556
849.463	14492
849.598	14564
849.734	14457
849.869	14324
850.004	14210
850.14	14263
850.275	14309
850.41	14237
850.545	14244
850.68	14339
850.815	14339
850.95	14351
851.085	14347
851.22	14358
851.355	14336
851.49	14282
851.625	14259
851.76	14252
851.895	14225
852.03	14157
852.165	14290
852.299	14305
852.434	14324
852.569	14221
852.703	14294
852.838	14396
852.973	14454
853.107	14393
853.242	14218
853.376	14103
853.511	13921
853.645	14062
853.78	14233
853.914	14126
854.048	14001
854.183	14107
854.317	14073
854.451	14347
854.585	14126
854.72	14043
854.854	14229
854.988	14100
855.122	14202
855.256	14031
855.39	14119
855.524	14187
855.658	14172
855.792	14233
855.926	14195
856.06	14176
856.194	14233
856.327	14195
856.461	14164
856.595	14092
856.729	14096
856.862	14218
856.996	14103
857.13	14206
857.263	14259
857.397	14199
857.53	14214
857.664	14259
857.797	14176
857.931	14252
858.064	14229
858.197	14275
858.331	14157
858.464	13974
858.597	14119
858.731	14221
858.864	14069
858.997	14259
859.13	14233
859.263	14229
859.396	14237
859.529	14172
859.662	14096
859.795	14077
859.928	14210
860.061	14301
860.194	14328
860.327	14218
860.46	14119
860.592	14233
860.725	14320
860.858	14271
860.99	14107
861.123	14119
861.256	14046
861.388	14168
861.521	14807
861.653	13986
861.786	13997
861.918	14050
862.05	14035
862.183	14065
862.315	14191
862.447	14153
862.58	14123
862.712	13932
862.844	13864
862.976	14024
863.108	13997
863.24	14332
863.372	13803
863.504	13925
863.636	13925
863.768	14039
863.9	13917
864.032	13845
864.164	13769
864.296	13936
864.428	14005
864.559	14054
864.691	13989
864.823	13963
864.954	14062
865.086	14001
865.217	13894
865.349	13856
865.48	13887
865.612	13947
865.743	13997
865.875	13898
866.006	13883
866.137	13860
866.269	13921
866.4	13932
866.531	13864
866.662	13936
866.793	13887
866.924	13917
867.055	13928
867.186	13871
867.317	13860
867.448	13822
867.579	13856
867.71	13852
867.841	13788
867.972	13921
868.103	13860
868.233	13868
868.364	13947
868.495	14027
868.625	14134
868.756	14225
868.886	14046
869.017	14187
869.147	14259
869.278	14298
869.408	14142
869.539	14180
869.669	14229
869.799	14157
869.929	14278
870.06	14309
870.19	14587
870.32	14454
870.45	14427
870.58	14537
870.71	14716
870.84	14678
870.97	14598
871.1	14480
871.23	14746
871.36	14758
871.489	14670
871.619	14678
871.749	14712
871.879	14739
872.008	14785
872.138	14739
872.267	14754
872.397	14667
872.526	14480
872.656	14571
872.785	14556
872.915	14785
873.044	14864
873.173	14693
873.303	14834
873.432	14857
873.561	14800
873.69	14857
873.819	14724
873.948	14918
874.077	14769
874.206	14807
874.335	14963
874.464	14899
874.593	15066
874.722	15123
874.851	15089
874.979	15195
875.108	15203
875.237	15081
875.365	15036
875.494	15077
875.623	15294
875.751	15150
875.88	15211
876.008	15275
876.136	15302
876.265	15690
876.393	15641
876.521	15652
876.65	15599
876.778	15595
876.906	15587
877.034	15458
877.162	15500
877.29	15466
877.418	15599
877.546	15542
877.674	15538
877.802	15443
877.93	15488
878.058	15462
878.185	15447
878.313	15545
878.441	15534
878.568	15370
878.696	15447
878.824	15603
878.951	15637
879.079	15690
879.206	15926
879.333	15846
879.461	15549
879.588	15736
879.715	15660
879.842	15937
879.97	15580
880.097	15279
880.224	15397
880.351	15450
880.478	15397
880.605	15298
880.732	15431
880.859	15622
880.986	15420
881.112	15386
881.239	15233
881.366	15154
881.493	15085
881.619	15070
881.746	15184
881.872	15024
881.999	15013
882.125	15036
882.252	15119
882.378	15070
882.505	15123
882.631	14918
882.757	14838
882.883	14941
883.01	14921
883.136	14842
883.262	14826
883.388	14670
883.514	14921
883.64	14910
883.766	14902
883.892	14743
884.018	14727
884.143	14842
884.269	14937
884.395	14640
884.52	14632
884.646	14598
884.772	14571
884.897	14522
885.023	14594
885.148	14735
885.274	14804
885.399	14686
885.524	14625
885.65	14613
885.775	14621
885.9	14644
886.025	14682
886.15	14670
886.275	14575
886.4	14590
886.525	14594
886.65	14492
886.775	14492
886.9	14632
887.025	14811
887.149	14461
887.274	14393
887.399	14415
887.523	14404
887.648	14419
887.773	14313
887.897	14488
888.021	14423
888.146	14358
888.27	14442
888.395	14484
888.519	14446
888.643	14480
888.767	14514
888.891	14332
889.015	14263
889.139	14320
889.263	14286
889.387	14374
889.511	14537
889.635	14374
889.759	14278
889.883	14210
890.006	14294
890.13	14454
890.254	14256
890.377	14221
890.501	14126
890.624	14065
890.748	14206
890.871	14088
890.995	14012
891.118	13890
891.241	13970
891.364	13989
891.488	14202
891.611	13951
891.734	14020
891.857	14039
891.98	14065
892.103	14084
892.226	14043
892.349	14001
892.471	13864
892.594	14054
892.717	14031
892.839	13913
892.962	13921
893.085	14092
893.207	14043
893.33	13890
893.452	14020
893.575	14050
893.697	13887
893.819	14130
893.941	14138
894.064	14138
894.186	13925
894.308	13974
894.43	14107
894.552	14237
894.674	14062
894.796	13917
894.918	14039
895.04	13951
895.161	14081
895.283	14130
895.405	14115
895.526	14043
895.648	13982
895.769	14134
895.891	14130
896.012	14183
896.134	14240
896.255	14153
896.376	14096
896.498	14202
896.619	14233
896.74	14142
896.861	14229
896.982	14438
897.103	14678
897.224	14415
897.345	14457
897.466	14351
897.587	14495
897.708	14480
897.828	14541
897.949	14408
898.07	14240
898.19	14457
898.311	14552
898.431	14442
898.552	14533
898.672	14571
898.792	14613
898.913	14583
899.033	14484
899.153	14377
899.273	14256
899.393	14412
899.513	14381
899.633	14374
899.753	14366
899.873	14374
899.993	14404
900.113	14351
900.232	14389
900.352	14389
900.472	14275
900.591	14111
900.711	14259
900.83	14172
900.95	14282
901.069	14343
901.189	14050
901.308	13944
901.427	13864
901.546	13894
901.665	14001
901.784	13917
901.904	13715
902.023	13586
902.141	13533
902.26	13453
902.379	13601
902.498	13510
902.617	13384
902.735	13521
902.854	13445
902.973	13453
903.091	13244
903.21	13114
903.328	13179
903.446	13152
903.565	13057
903.683	13046
903.801	12970
903.919	13027
904.038	12989
904.156	12863
904.274	12993
904.392	12844
904.51	12859
904.627	12806
904.745	12913
904.863	12871
904.981	12722
905.098	12536
905.216	12597
905.334	12536
905.451	12616
905.569	12509
905.686	12570
905.803	12563
905.921	12311
906.038	12384
906.155	12452
906.272	12273
906.389	12311
906.506	12247
906.623	12159
906.74	12144
906.857	11939
906.974	12121
907.091	12235
907.208	12224
907.324	12190
907.441	12117
907.557	11923
907.674	11832
907.79	11836
907.907	11874
908.023	11897
908.139	11866
908.256	11821
908.372	11798
908.488	11752
908.604	11691
908.72	11596
908.836	11649
908.952	11642
909.068	11604
909.184	11760
909.3	11737
909.415	11722
909.531	11653
909.647	11429
909.762	11379
909.878	11376
909.993	11436
910.108	11364
910.224	11395
910.339	11353
910.454	11220
910.57	11307
910.685	11185
910.8	11505
910.915	11433
911.03	11284
911.145	11147
911.259	11143
911.374	11162
911.489	11033
911.604	10976
911.718	10953
911.833	10881
911.947	10805
912.062	10683
912.176	10835
912.291	10930
912.405	10930
912.519	11159
912.633	11041
912.748	10953
912.862	10881
912.976	10831
913.09	10649
913.204	10702
913.318	10733
913.431	10786
913.545	10835
913.659	10927
913.772	10820
913.886	10641
914	10596
914.113	10744
914.226	10782
914.34	10771
914.453	10618
914.566	10729
914.68	10599
914.793	10592
914.906	10474
915.019	10333
915.132	10284
915.245	10390
915.358	10382
915.47	10421
915.583	10398
915.696	10478
915.809	10500
915.921	10622
916.034	10348
916.146	10322
916.259	10268
916.371	10500
916.483	10405
916.595	10253
916.708	10375
916.82	10303
916.932	10284
917.044	10341
917.156	10291
917.268	10192
917.38	10246
917.491	10181
917.603	10200
917.715	10333
917.826	10333
917.938	10154
918.049	10116
918.161	10314
918.272	10379
918.384	10375
918.495	10230
918.606	10086
918.717	10120
918.828	10185
918.939	10074
919.05	10124
919.161	10173
919.272	9907
919.383	9991
919.494	10173
919.604	10352
919.715	10082
919.826	10067
919.936	10139
920.047	10097
920.157	10158
920.267	10337
920.378	10116
920.488	10112
920.598	10318
920.708	10443
920.818	10344
920.928	10287
921.038	10455
921.148	10440
921.258	10215
921.368	10040
921.477	9983
921.587	9945
921.697	9918
921.806	10074
921.916	9816
922.025	9701
922.134	9728
922.244	9701
922.353	9717
922.462	9603
922.571	9572
922.68	9428
922.789	9431
922.898	9370
923.007	9416
923.116	9450
923.224	9408
923.333	9363
923.442	9332
923.55	9253
923.659	9283
923.767	9367
923.876	9176
923.984	9294
924.092	9218
924.201	9230
924.309	9211
924.417	9245
924.525	9203
924.633	9214
924.741	10071
924.849	8982
924.956	9180
925.064	9051
925.172	8998
925.279	8960
925.387	9077
925.494	9169
925.602	9150
925.709	9165
925.816	8994
925.924	8986
926.031	9112
926.138	9051
926.245	9081
926.352	9009
926.459	9085
926.566	9176
926.673	9009
926.779	8910
926.886	8914
926.993	8750
927.099	8781
927.206	8689
927.312	8705
927.419	8826
927.525	8804
927.631	8796
927.737	8716
927.843	8716
927.95	8530
928.056	8659
928.162	8651
928.267	8735
928.373	9351
928.479	8716
928.585	8606
928.69	8640
928.796	8682
928.901	8610
929.007	8400
929.112	8568
929.218	8461
929.323	8465
929.428	8431
929.533	8606
929.638	8415
929.743	8461
929.848	8492
929.953	8492
930.058	8366
930.163	8244
930.267	8248
930.372	8400
930.477	8164
930.581	8526
930.685	8313
930.79	8157
930.894	8191
930.998	8164
931.103	8324
931.207	7982
931.311	7959
931.415	7830
931.519	7685
931.623	7742
