Data from test_V78500241_2000.txt Node
Date: Fri Mar 25 14:47:38 CST 2022
User: usil
Spectrometer: V785-0024
Trigger mode: 0
Integration Time (sec): 4.000000E-1
Scans to average: 1
Nonlinearity correction enabled: false
Boxcar width: 0
Storing dark spectrum: false
XAxis mode: Wavelengths
Number of Pixels in Spectrum: 1024
>>>>>Begin Spectral Data<<<<<
801.071	22082
801.214	22082
801.356	21774
801.499	21466
801.641	21553
801.783	21504
801.926	21359
802.068	21523
802.211	21408
802.353	21340
802.496	21104
802.638	20963
802.78	20914
802.923	20853
803.065	20815
803.208	20735
803.35	20788
803.492	20891
803.635	20876
803.777	20765
803.919	20849
804.061	21245
804.204	20887
804.346	20804
804.488	20727
804.63	20762
804.773	20583
804.915	20735
805.057	20876
805.199	20765
805.341	20769
805.483	20849
805.626	20792
805.768	20796
805.91	20762
806.052	20804
806.194	20598
806.336	20811
806.478	20644
806.62	20762
806.762	20800
806.904	20937
807.046	21138
807.188	20933
807.33	20998
807.472	21058
807.614	20956
807.756	20971
807.898	20826
808.04	20765
808.182	20819
808.324	20765
808.465	20891
808.607	21017
808.749	21119
808.891	21173
809.033	21378
809.174	21272
809.316	21112
809.458	21085
809.6	21104
809.741	21199
809.883	21104
810.025	21245
810.166	21214
810.308	21233
810.45	21184
810.591	21077
810.733	20876
810.875	20777
811.016	20792
811.158	20925
811.299	20887
811.441	20956
811.582	20937
811.724	20876
811.865	20880
812.007	20819
812.148	20842
812.29	20800
812.431	21165
812.573	21047
812.714	21218
812.855	21321
812.997	21412
813.138	21686
813.279	21526
813.421	21382
813.562	21245
813.703	21009
813.845	20914
813.986	20705
814.127	20674
814.268	20495
814.41	20484
814.551	20362
814.692	20480
814.833	20374
814.974	20454
815.115	20400
815.256	20355
815.397	20320
815.539	20229
815.68	20157
815.821	20012
815.962	20237
816.103	20172
816.244	20084
816.385	19906
816.526	19845
816.666	19734
816.807	19476
816.948	19689
817.089	19681
817.23	19616
817.371	19582
817.512	19464
817.653	19506
817.793	19468
817.934	19525
818.075	19487
818.216	19666
818.356	19476
818.497	19312
818.638	19270
818.778	19327
818.919	19312
819.06	19236
819.2	19441
819.341	19400
819.481	19460
819.622	19590
819.762	19731
819.903	19643
820.043	19616
820.184	19533
820.324	19468
820.465	19609
820.605	19594
820.746	19533
820.886	19403
821.026	19537
821.167	19400
821.307	19586
821.447	19601
821.588	19381
821.728	19327
821.868	19015
822.008	18916
822.149	18935
822.289	18875
822.429	18722
822.569	18665
822.709	18570
822.849	18471
822.99	18399
823.13	18323
823.27	18388
823.41	18304
823.55	18232
823.69	18254
823.83	18258
823.97	18182
824.11	17984
824.25	17984
824.389	18068
824.529	18121
824.669	17992
824.809	18136
824.949	18034
825.089	18117
825.228	18022
825.368	17863
825.508	17790
825.648	17813
825.787	17893
825.927	17821
826.067	17767
826.206	17699
826.346	17836
826.485	17805
826.625	17897
826.765	17885
826.904	17813
827.044	17585
827.183	17459
827.323	17490
827.462	17611
827.601	17452
827.741	17425
827.88	17551
828.02	17273
828.159	17471
828.298	17528
828.437	17634
828.577	17448
828.716	17558
828.855	17463
828.994	17242
829.134	17193
829.273	17231
829.412	17292
829.551	17212
829.69	17189
829.829	17318
829.968	17429
830.107	17284
830.246	17296
830.385	17220
830.524	17136
830.663	17155
830.802	16904
830.941	16752
831.08	16953
831.219	16908
831.357	16877
831.496	17048
831.635	16778
831.774	16717
831.913	16793
832.051	16713
832.19	16592
832.329	16733
832.467	16485
832.606	16497
832.744	16512
832.883	16481
833.022	16569
833.16	16554
833.299	16694
833.437	16573
833.576	16592
833.714	16660
833.852	16694
833.991	16573
834.129	16668
834.267	16687
834.406	16508
834.544	16615
834.682	16565
834.821	16580
834.959	16752
835.097	16584
835.235	16698
835.373	16733
835.511	16713
835.65	16577
835.788	16554
835.926	16322
836.064	16295
836.202	16352
836.34	16527
836.478	16580
836.615	16436
836.753	16558
836.891	16675
837.029	16645
837.167	16481
837.305	16459
837.443	16443
837.58	16306
837.718	16493
837.856	16451
837.993	16303
838.131	16402
838.269	16352
838.406	16382
838.544	16268
838.681	16105
838.819	15972
838.956	15915
839.094	15937
839.231	16071
839.369	16082
839.506	16299
839.643	16207
839.781	15911
839.918	15865
840.055	15975
840.193	15941
840.33	15949
840.467	15930
840.604	15949
840.742	16192
840.879	15842
841.016	15903
841.153	15797
841.29	16109
841.427	15975
841.564	15960
841.701	15937
841.838	15949
841.975	15949
842.112	15846
842.249	15747
842.385	15580
842.522	15918
842.659	15694
842.796	15781
842.933	15736
843.069	15568
843.206	15724
843.343	15797
843.479	15762
843.616	15774
843.752	15523
843.889	15599
844.025	15667
844.162	15477
844.298	15644
844.435	15519
844.571	15504
844.708	15591
844.844	15701
844.98	15759
845.117	15682
845.253	15424
845.389	15443
845.525	15443
845.661	15523
845.798	15230
845.934	15408
846.07	15313
846.206	15329
846.342	15450
846.478	15302
846.614	15291
846.75	14986
846.886	15116
847.022	15028
847.158	15169
847.294	15100
847.429	15180
847.565	15066
847.701	15359
847.837	14914
847.972	14887
848.108	14975
848.244	14910
848.379	14819
848.515	14602
848.65	14769
848.786	14754
848.921	14663
849.057	14826
849.192	14743
849.328	14739
849.463	14735
849.598	14689
849.734	14651
849.869	14632
850.004	14427
850.14	14419
850.275	14549
850.41	14393
850.545	14503
850.68	14457
850.815	14541
850.95	14389
851.085	14556
851.22	14590
851.355	14499
851.49	14446
851.625	14438
851.76	14511
851.895	14381
852.03	14457
852.165	14518
852.299	14533
852.434	14590
852.569	14484
852.703	14568
852.838	14480
852.973	14640
853.107	14708
853.242	14507
853.376	14385
853.511	14366
853.645	14374
853.78	14511
853.914	14419
854.048	14343
854.183	14389
854.317	14393
854.451	14461
854.585	14374
854.72	14381
854.854	14412
854.988	14267
855.122	14389
855.256	14210
855.39	14313
855.524	14415
855.658	14473
855.792	14461
855.926	14427
856.06	14412
856.194	14427
856.327	14374
856.461	14374
856.595	14252
856.729	14244
856.862	14484
856.996	14400
857.13	14492
857.263	14488
857.397	14480
857.53	14423
857.664	14381
857.797	14438
857.931	14465
858.064	14336
858.197	14446
858.331	14358
858.464	14332
858.597	14233
858.731	14263
858.864	14389
858.997	14389
859.13	14389
859.263	14465
859.396	14343
859.529	14256
859.662	14332
859.795	14313
859.928	14377
860.061	14568
860.194	14522
860.327	14412
860.46	14366
860.592	14514
860.725	14530
860.858	14484
860.99	14404
861.123	14183
861.256	14400
861.388	14339
861.521	15009
861.653	14248
861.786	14298
861.918	14191
862.05	14233
862.183	14343
862.315	14351
862.447	14446
862.58	14309
862.712	14092
862.844	13974
862.976	14225
863.108	14290
863.24	14526
863.372	14054
863.504	14107
863.636	14100
863.768	14164
863.9	14153
864.032	14073
864.164	14012
864.296	14161
864.428	14275
864.559	14218
864.691	14305
864.823	14183
864.954	14138
865.086	14180
865.217	14096
865.349	14088
865.48	14149
865.612	14103
865.743	14294
865.875	14046
866.006	14050
866.137	14084
866.269	14142
866.4	14123
866.531	14054
866.662	14020
866.793	14020
866.924	14107
867.055	14187
867.186	14210
867.317	14046
867.448	14012
867.579	14050
867.71	13932
867.841	14027
867.972	14210
868.103	14100
868.233	14191
868.364	14168
868.495	14244
868.625	14298
868.756	14419
868.886	14183
869.017	14267
869.147	14511
869.278	14495
869.408	14457
869.539	14412
869.669	14533
869.799	14366
869.929	14514
870.06	14408
870.19	14686
870.32	14655
870.45	14826
870.58	14845
870.71	14880
870.84	14861
870.97	14815
871.1	14708
871.23	14910
871.36	14887
871.489	14872
871.619	14914
871.749	14921
871.879	15032
872.008	15089
872.138	15047
872.267	15020
872.397	14731
872.526	14663
872.656	14864
872.785	14834
872.915	14990
873.044	15077
873.173	15005
873.303	15001
873.432	15062
873.561	15039
873.69	14967
873.819	15047
873.948	15123
874.077	14994
874.206	14990
874.335	15081
874.464	15138
874.593	15226
874.722	15256
874.851	15256
874.979	15355
875.108	15359
875.237	15355
875.365	15211
875.494	15298
875.623	15336
875.751	15283
875.88	15306
876.008	15435
876.136	15595
876.265	15739
876.393	15797
876.521	15781
876.65	15785
876.778	15728
876.906	15698
877.034	15766
877.162	15739
877.29	15625
877.418	15770
877.546	15679
877.674	15759
877.802	15808
877.93	15800
878.058	15686
878.185	15610
878.313	15686
878.441	15679
878.568	15667
878.696	15652
878.824	15831
878.951	15823
879.079	15945
879.206	15956
879.333	15922
879.461	15778
879.588	15869
879.715	15907
879.842	16207
879.97	15781
880.097	15648
880.224	15622
880.351	15648
880.478	15603
880.605	15648
880.732	15561
880.859	15762
880.986	15629
881.112	15572
881.239	15534
881.366	15294
881.493	15408
881.619	15203
881.746	15268
881.872	15245
881.999	15165
882.125	15233
882.252	15272
882.378	15180
882.505	15401
882.631	15218
882.757	15142
882.883	15066
883.01	15089
883.136	14952
883.262	14956
883.388	14853
883.514	15131
883.64	15020
883.766	15077
883.892	14918
884.018	14918
884.143	15100
884.269	15165
884.395	14853
884.52	14792
884.646	14731
884.772	14712
884.897	14731
885.023	14891
885.148	14830
885.274	14899
885.399	14872
885.524	14792
885.65	14739
885.775	14762
885.9	14830
886.025	14785
886.15	14796
886.275	14659
886.4	14636
886.525	14716
886.65	14750
886.775	14750
886.9	14891
887.025	15017
887.149	14758
887.274	14552
887.399	14568
887.523	14617
887.648	14617
887.773	14564
887.897	14663
888.021	14621
888.146	14530
888.27	14746
888.395	14705
888.519	14663
888.643	14632
888.767	14720
888.891	14530
889.015	14389
889.139	14488
889.263	14400
889.387	14511
889.511	14621
889.635	14560
889.759	14541
889.883	14408
890.006	14389
890.13	14514
890.254	14389
890.377	14317
890.501	14248
890.624	14336
890.748	14362
890.871	14221
890.995	14199
891.118	14096
891.241	14153
891.364	14221
891.488	14377
891.611	14240
891.734	14142
891.857	14244
891.98	14180
892.103	14309
892.226	14195
892.349	14096
892.471	13974
892.594	14149
892.717	14248
892.839	14065
892.962	14115
893.085	14294
893.207	14286
893.33	14031
893.452	14176
893.575	14134
893.697	14149
893.819	14320
893.941	14355
894.064	14320
894.186	14172
894.308	14138
894.43	14320
894.552	14385
894.674	14233
894.796	14202
894.918	14130
895.04	14225
895.161	14309
895.283	14210
895.405	14168
895.526	14233
895.648	14301
895.769	14218
895.891	14317
896.012	14374
896.134	14347
896.255	14332
896.376	14336
896.498	14313
896.619	14286
896.74	14366
896.861	14480
896.982	14712
897.103	14944
897.224	14632
897.345	14625
897.466	14495
897.587	14629
897.708	14727
897.828	14568
897.949	14461
898.07	14423
898.19	14484
898.311	14743
898.431	14670
898.552	14697
898.672	14769
898.792	14743
898.913	14678
899.033	14511
899.153	14518
899.273	14393
899.393	14552
899.513	14533
899.633	14518
899.753	14568
899.873	14564
899.993	14514
900.113	14526
900.232	14492
900.352	14514
900.472	14419
900.591	14347
900.711	14495
900.83	14358
900.95	14450
901.069	14533
901.189	14294
901.308	14123
901.427	14092
901.546	13993
901.665	14027
901.784	14149
901.904	13978
902.023	13849
902.141	13647
902.26	13674
902.379	13776
902.498	13590
902.617	13578
902.735	13651
902.854	13624
902.973	13499
903.091	13441
903.21	13327
903.328	13244
903.446	13251
903.565	13278
903.683	13270
903.801	13194
903.919	13141
904.038	13145
904.156	13046
904.274	13110
904.392	13015
904.51	13034
904.627	12943
904.745	13084
904.863	13065
904.981	12757
905.098	12696
905.216	12726
905.334	12810
905.451	12673
905.569	12623
905.686	12681
905.803	12688
905.921	12513
906.038	12642
906.155	12544
906.272	12384
906.389	12395
906.506	12277
906.623	12281
906.74	12361
906.857	12167
906.974	12205
907.091	12388
907.208	12448
907.324	12353
907.441	12228
907.557	12091
907.674	12038
907.79	11950
907.907	12076
908.023	12003
908.139	11992
908.256	11923
908.372	11973
908.488	11954
908.604	11783
908.72	11798
908.836	11882
908.952	11737
909.068	11824
909.184	11908
909.3	11786
909.415	11809
909.531	11771
909.647	11627
909.762	11532
909.878	11497
909.993	11589
910.108	11528
910.224	11493
910.339	11471
910.454	11440
910.57	11364
910.685	11349
910.8	11623
910.915	11547
911.03	11512
911.145	11299
911.259	11216
911.374	11231
911.489	11090
911.604	11201
911.718	10968
911.833	10999
911.947	10885
912.062	10816
912.176	11045
912.291	11025
912.405	11060
912.519	11140
912.633	11299
912.748	11083
912.862	11014
912.976	10942
913.09	10801
913.204	10866
913.318	10934
913.431	11010
913.545	10919
913.659	11029
913.772	10930
913.886	10752
914	10748
914.113	10889
914.226	10938
914.34	10790
914.453	10660
914.566	10869
914.68	10717
914.793	10721
914.906	10542
915.019	10535
915.132	10531
915.245	10478
915.358	10443
915.47	10512
915.583	10558
915.696	10611
915.809	10748
915.921	10637
916.034	10489
916.146	10485
916.259	10519
916.371	10508
916.483	10554
916.595	10451
916.708	10462
916.82	10432
916.932	10493
917.044	10432
917.156	10428
917.268	10291
917.38	10367
917.491	10325
917.603	10451
917.715	10481
917.826	10588
917.938	10402
918.049	10280
918.161	10344
918.272	10538
918.384	10493
918.495	10409
918.606	10246
918.717	10238
918.828	10265
918.939	10284
919.05	10284
919.161	10265
919.272	10097
919.383	10109
919.494	10318
919.604	10478
919.715	10249
919.826	10265
919.936	10238
920.047	10253
920.157	10272
920.267	10417
920.378	10413
920.488	10303
920.598	10443
920.708	10656
920.818	10497
920.928	10519
921.038	10687
921.148	10691
921.258	10363
921.368	10291
921.477	10150
921.587	10116
921.697	10025
921.806	10185
921.916	10013
922.025	9922
922.134	9945
922.244	9819
922.353	9918
922.462	9831
922.571	9732
922.68	9572
922.789	9515
922.898	9591
923.007	9473
923.116	9572
923.224	9473
923.333	9549
923.442	9488
923.55	9424
923.659	9466
923.767	9515
923.876	9340
923.984	9523
924.092	9420
924.201	9386
924.309	9386
924.417	9401
924.525	9302
924.633	9332
924.741	10257
924.849	9142
924.956	9374
925.064	9245
925.172	9066
925.279	9119
925.387	9283
925.494	9192
925.602	9306
925.709	9207
925.816	9066
925.924	9203
926.031	9233
926.138	9165
926.245	9184
926.352	9154
926.459	9222
926.566	9306
926.673	9112
926.779	9020
926.886	8990
926.993	8929
927.099	8933
927.206	8819
927.312	8887
927.419	8990
927.525	8929
927.631	8887
927.737	8804
927.843	8800
927.95	8674
928.056	8769
928.162	8826
928.267	8800
928.373	9492
928.479	8944
928.585	8735
928.69	8792
928.796	8720
928.901	8724
929.007	8590
929.112	8746
929.218	8746
929.323	8655
929.428	8533
929.533	8720
929.638	8537
929.743	8552
929.848	8644
929.953	8629
930.058	8442
930.163	8339
930.267	8381
930.372	8484
930.477	8332
930.581	8568
930.685	8495
930.79	8286
930.894	8412
930.998	8339
931.103	8457
931.207	8100
931.311	8073
931.415	8054
931.519	7833
931.623	7822
