Data from test_V78500241_1781.txt Node
Date: Fri Mar 25 14:46:06 CST 2022
User: usil
Spectrometer: V785-0024
Trigger mode: 0
Integration Time (sec): 4.000000E-1
Scans to average: 1
Nonlinearity correction enabled: false
Boxcar width: 0
Storing dark spectrum: false
XAxis mode: Wavelengths
Number of Pixels in Spectrum: 1024
>>>>>Begin Spectral Data<<<<<
801.071	22173
801.214	22059
801.356	21850
801.499	21739
801.641	21652
801.783	21469
801.926	21591
802.068	21393
802.211	21466
802.353	21264
802.496	21154
802.638	21104
802.78	21047
802.923	21001
803.065	20853
803.208	20887
803.35	20921
803.492	20986
803.635	20914
803.777	20811
803.919	20975
804.061	21161
804.204	20906
804.346	20788
804.488	20868
804.63	20838
804.773	20773
804.915	20796
805.057	20883
805.199	20792
805.341	20876
805.483	20857
805.626	20868
805.768	20804
805.91	20838
806.052	20785
806.194	20682
806.336	21036
806.478	20883
806.62	20754
806.762	20868
806.904	21028
807.046	21382
807.188	21058
807.33	21169
807.472	21123
807.614	21062
807.756	21077
807.898	20990
808.04	20739
808.182	20914
808.324	20861
808.465	20960
808.607	21085
808.749	21226
808.891	21302
809.033	21325
809.174	21268
809.316	21173
809.458	21275
809.6	21013
809.741	21199
809.883	21218
810.025	21340
810.166	21317
810.308	21302
810.45	21283
810.591	21176
810.733	21013
810.875	21104
811.016	20842
811.158	20845
811.299	21024
811.441	21070
811.582	20982
811.724	20971
811.865	20906
812.007	21009
812.148	20944
812.29	20963
812.431	21279
812.573	21226
812.714	21279
812.855	21469
812.997	21572
813.138	21610
813.279	21580
813.421	21454
813.562	21294
813.703	21195
813.845	21089
813.986	20880
814.127	20549
814.268	20526
814.41	20571
814.551	20492
814.692	20594
814.833	20389
814.974	20450
815.115	20583
815.256	20332
815.397	20301
815.539	20309
815.68	20351
815.821	20218
815.962	20351
816.103	20157
816.244	20008
816.385	19997
816.526	20050
816.666	19761
816.807	19670
816.948	19658
817.089	19696
817.23	19712
817.371	19727
817.512	19651
817.653	19502
817.793	19597
817.934	19635
818.075	19685
818.216	19647
818.356	19613
818.497	19445
818.638	19274
818.778	19331
818.919	19358
819.06	19441
819.2	19464
819.341	19533
819.481	19438
819.622	19712
819.762	19852
819.903	19837
820.043	19639
820.184	19662
820.324	19693
820.465	19757
820.605	19704
820.746	19616
820.886	19525
821.026	19529
821.167	19578
821.307	19685
821.447	19582
821.588	19468
821.728	19331
821.868	19236
822.008	19110
822.149	19076
822.289	19027
822.429	18741
822.569	18745
822.709	18650
822.849	18658
822.99	18502
823.13	18582
823.27	18369
823.41	18391
823.55	18319
823.69	18346
823.83	18380
823.97	18247
824.11	18083
824.25	18167
824.389	18041
824.529	18152
824.669	18030
824.809	18121
824.949	18243
825.089	18148
825.228	18057
825.368	17889
825.508	17889
825.648	17969
825.787	18015
825.927	17965
826.067	17870
826.206	17851
826.346	17946
826.485	17840
826.625	17786
826.765	17980
826.904	17935
827.044	17608
827.183	17577
827.323	17478
827.462	17627
827.601	17554
827.741	17642
827.88	17478
828.02	17474
828.159	17615
828.298	17634
828.437	17592
828.577	17520
828.716	17691
828.855	17547
828.994	17353
829.134	17296
829.273	17410
829.412	17345
829.551	17212
829.69	17307
829.829	17349
829.968	17463
830.107	17444
830.246	17292
830.385	17128
830.524	17212
830.663	17220
830.802	17159
830.941	16930
831.08	16908
831.219	17025
831.357	16972
831.496	17155
831.635	16965
831.774	16885
831.913	16831
832.051	16782
832.19	16687
832.329	16736
832.467	16649
832.606	16641
832.744	16592
832.883	16596
833.022	16546
833.16	16721
833.299	16599
833.437	16622
833.576	16729
833.714	16611
833.852	16793
833.991	16752
834.129	16790
834.267	16706
834.406	16687
834.544	16767
834.682	16687
834.821	16694
834.959	16896
835.097	16713
835.235	16892
835.373	16634
835.511	16790
835.65	16527
835.788	16580
835.926	16462
836.064	16432
836.202	16443
836.34	16615
836.478	16744
836.615	16668
836.753	16618
836.891	16660
837.029	16577
837.167	16649
837.305	16481
837.443	16519
837.58	16314
837.718	16584
837.856	16417
837.993	16402
838.131	16538
838.269	16402
838.406	16333
838.544	16322
838.681	16086
838.819	16109
838.956	16017
839.094	15945
839.231	16082
839.369	16295
839.506	16360
839.643	16287
839.781	16116
839.918	15960
840.055	16067
840.193	15991
840.33	16036
840.467	16002
840.604	16059
840.742	16303
840.879	15823
841.016	15964
841.153	15941
841.29	16116
841.427	16048
841.564	16029
841.701	16006
841.838	15915
841.975	15861
842.112	15903
842.249	15857
842.385	15679
842.522	15991
842.659	15835
842.796	15778
842.933	15911
843.069	15759
843.206	15827
843.343	15831
843.479	15774
843.616	15827
843.752	15545
843.889	15694
844.025	15812
844.162	15576
844.298	15564
844.435	15599
844.571	15515
844.708	15644
844.844	15724
844.98	15781
845.117	15625
845.253	15625
845.389	15481
845.525	15458
845.661	15454
845.798	15412
845.934	15462
846.07	15389
846.206	15424
846.342	15435
846.478	15378
846.614	15161
846.75	15127
846.886	15119
847.022	15150
847.158	15169
847.294	15203
847.429	15138
847.565	15123
847.701	15393
847.837	15001
847.972	14876
848.108	14864
848.244	15036
848.379	14845
848.515	14781
848.65	14746
848.786	14701
848.921	14788
849.057	14796
849.192	14830
849.328	14899
849.463	14792
849.598	14640
849.734	14739
849.869	14670
850.004	14503
850.14	14560
850.275	14606
850.41	14415
850.545	14484
850.68	14427
850.815	14511
850.95	14518
851.085	14693
851.22	14686
851.355	14583
851.49	14549
851.625	14507
851.76	14431
851.895	14400
852.03	14423
852.165	14537
852.299	14579
852.434	14514
852.569	14636
852.703	14514
852.838	14648
852.973	14720
853.107	14629
853.242	14438
853.376	14415
853.511	14351
853.645	14343
853.78	14461
853.914	14473
854.048	14347
854.183	14305
854.317	14431
854.451	14465
854.585	14423
854.72	14301
854.854	14457
854.988	14237
855.122	14355
855.256	14267
855.39	14317
855.524	14484
855.658	14419
855.792	14377
855.926	14419
856.06	14427
856.194	14526
856.327	14442
856.461	14328
856.595	14396
856.729	14389
856.862	14499
856.996	14499
857.13	14370
857.263	14560
857.397	14473
857.53	14298
857.664	14476
857.797	14469
857.931	14484
858.064	14412
858.197	14415
858.331	14358
858.464	14431
858.597	14233
858.731	14499
858.864	14366
858.997	14336
859.13	14393
859.263	14412
859.396	14469
859.529	14313
859.662	14324
859.795	14366
859.928	14370
860.061	14541
860.194	14629
860.327	14370
860.46	14442
860.592	14454
860.725	14511
860.858	14511
860.99	14355
861.123	14298
861.256	14298
861.388	14492
861.521	15055
861.653	14343
861.786	14248
861.918	14259
862.05	14332
862.183	14290
862.315	14267
862.447	14347
862.58	14233
862.712	14149
862.844	14126
862.976	14263
863.108	14225
863.24	14484
863.372	14138
863.504	14202
863.636	14119
863.768	14282
863.9	14126
864.032	14115
864.164	14073
864.296	14233
864.428	14248
864.559	14267
864.691	14286
864.823	14229
864.954	14138
865.086	14187
865.217	14199
865.349	14119
865.48	14096
865.612	14202
865.743	14282
865.875	14180
866.006	14077
866.137	14100
866.269	14180
866.4	14145
866.531	14180
866.662	14103
866.793	14199
866.924	14039
867.055	14096
867.186	14107
867.317	14062
867.448	14039
867.579	14077
867.71	14081
867.841	14058
867.972	14142
868.103	14096
868.233	14176
868.364	14107
868.495	14191
868.625	14328
868.756	14492
868.886	14282
869.017	14396
869.147	14606
869.278	14518
869.408	14370
869.539	14461
869.669	14438
869.799	14404
869.929	14446
870.06	14385
870.19	14712
870.32	14762
870.45	14727
870.58	14823
870.71	14895
870.84	14925
870.97	14834
871.1	14785
871.23	14952
871.36	15013
871.489	14902
871.619	14963
871.749	14971
871.879	14979
872.008	15089
872.138	14921
872.267	14937
872.397	14750
872.526	14826
872.656	14727
872.785	14819
872.915	15047
873.044	15028
873.173	15051
873.303	15127
873.432	15093
873.561	15176
873.69	15077
873.819	15074
873.948	15127
874.077	15085
874.206	14944
874.335	15009
874.464	15245
874.593	15268
874.722	15230
874.851	15332
874.979	15397
875.108	15393
875.237	15283
875.365	15348
875.494	15351
875.623	15340
875.751	15256
875.88	15268
876.008	15469
876.136	15526
876.265	15675
876.393	15983
876.521	15903
876.65	15842
876.778	15816
876.906	15778
877.034	15713
877.162	15705
877.29	15736
877.418	15641
877.546	15770
877.674	15728
877.802	15789
877.93	15766
878.058	15736
878.185	15701
878.313	15751
878.441	15838
878.568	15568
878.696	15720
878.824	15808
878.951	15838
879.079	15915
879.206	16090
879.333	15956
879.461	15865
879.588	15873
879.715	15827
879.842	16055
879.97	15911
880.097	15561
880.224	15610
880.351	15648
880.478	15694
880.605	15614
880.732	15679
880.859	15869
880.986	15561
881.112	15701
881.239	15504
881.366	15329
881.493	15283
881.619	15222
881.746	15306
881.872	15161
881.999	15180
882.125	15203
882.252	15397
882.378	15302
882.505	15428
882.631	15154
882.757	15100
882.883	15161
883.01	15081
883.136	15055
883.262	15017
883.388	14899
883.514	15119
883.64	15154
883.766	15100
883.892	14876
884.018	14998
884.143	14982
884.269	15165
884.395	14868
884.52	14773
884.646	14853
884.772	14663
884.897	14727
885.023	14815
885.148	14883
885.274	14883
885.399	14838
885.524	14868
885.65	14834
885.775	14739
885.9	14762
886.025	14944
886.15	14823
886.275	14735
886.4	14697
886.525	14651
886.65	14667
886.775	14765
886.9	14853
887.025	15119
887.149	14868
887.274	14590
887.399	14571
887.523	14583
887.648	14495
887.773	14419
887.897	14739
888.021	14804
888.146	14537
888.27	14716
888.395	14659
888.519	14663
888.643	14689
888.767	14678
888.891	14533
889.015	14473
889.139	14484
889.263	14389
889.387	14552
889.511	14716
889.635	14511
889.759	14442
889.883	14370
890.006	14537
890.13	14594
890.254	14374
890.377	14400
890.501	14263
890.624	14248
890.748	14370
890.871	14248
890.995	14252
891.118	14054
891.241	14142
891.364	14180
891.488	14305
891.611	14088
891.734	14195
891.857	14294
891.98	14187
892.103	14240
892.226	14252
892.349	14202
892.471	14077
892.594	14164
892.717	14271
892.839	14168
892.962	14218
893.085	14305
893.207	14138
893.33	14111
893.452	14111
893.575	14168
893.697	14107
893.819	14309
893.941	14336
894.064	14385
894.186	14073
894.308	14153
894.43	14404
894.552	14442
894.674	14282
894.796	14081
894.918	14187
895.04	14172
895.161	14320
895.283	14240
895.405	14256
895.526	14157
895.648	14317
895.769	14298
895.891	14317
896.012	14374
896.134	14393
896.255	14275
896.376	14263
896.498	14347
896.619	14351
896.74	14374
896.861	14408
896.982	14724
897.103	14845
897.224	14716
897.345	14598
897.466	14560
897.587	14617
897.708	14769
897.828	14659
897.949	14617
898.07	14556
898.19	14629
898.311	14667
898.431	14678
898.552	14716
898.672	14826
898.792	14842
898.913	14838
899.033	14632
899.153	14610
899.273	14492
899.393	14590
899.513	14594
899.633	14629
899.753	14621
899.873	14503
899.993	14659
900.113	14552
900.232	14575
900.352	14549
900.472	14469
900.591	14328
900.711	14450
900.83	14450
900.95	14412
901.069	14446
901.189	14366
901.308	14199
901.427	14111
901.546	14031
901.665	14138
901.784	14096
901.904	13982
902.023	13883
902.141	13712
902.26	13666
902.379	13769
902.498	13609
902.617	13590
902.735	13567
902.854	13544
902.973	13605
903.091	13434
903.21	13304
903.328	13407
903.446	13175
903.565	13282
903.683	13228
903.801	13129
903.919	13194
904.038	13206
904.156	13019
904.274	13213
904.392	13076
904.51	13008
904.627	13072
904.745	13145
904.863	13114
904.981	12791
905.098	12760
905.216	12764
905.334	12662
905.451	12935
905.569	12776
905.686	12772
905.803	12719
905.921	12460
906.038	12662
906.155	12566
906.272	12448
906.389	12422
906.506	12334
906.623	12311
906.74	12315
906.857	12182
906.974	12197
907.091	12319
907.208	12498
907.324	12384
907.441	12205
907.557	12026
907.674	12133
907.79	11992
907.907	12072
908.023	12098
908.139	12064
908.256	12019
908.372	12038
908.488	11961
908.604	11817
908.72	11783
908.836	11836
908.952	11878
909.068	11912
909.184	11958
909.3	11802
909.415	11851
909.531	11870
909.647	11562
909.762	11665
909.878	11577
909.993	11642
910.108	11630
910.224	11551
910.339	11691
910.454	11558
910.57	11474
910.685	11425
910.8	11638
910.915	11535
911.03	11539
911.145	11341
911.259	11337
911.374	11356
911.489	11189
911.604	11208
911.718	11128
911.833	11006
911.947	10900
912.062	10938
912.176	10968
912.291	11086
912.405	11113
912.519	11284
912.633	11269
912.748	11189
912.862	11006
912.976	10904
913.09	10774
913.204	10892
913.318	10968
913.431	11045
913.545	11037
913.659	11041
913.772	10995
913.886	10771
914	10805
914.113	10927
914.226	10885
914.34	10873
914.453	10740
914.566	10885
914.68	10801
914.793	10714
914.906	10573
915.019	10554
915.132	10493
915.245	10561
915.358	10535
915.47	10535
915.583	10637
915.696	10474
915.809	10759
915.921	10736
916.034	10599
916.146	10558
916.259	10538
916.371	10611
916.483	10580
916.595	10466
916.708	10538
916.82	10470
916.932	10481
917.044	10447
917.156	10428
917.268	10405
917.38	10424
917.491	10440
917.603	10440
917.715	10405
917.826	10538
917.938	10367
918.049	10303
918.161	10386
918.272	10500
918.384	10523
918.495	10371
918.606	10284
918.717	10234
918.828	10223
918.939	10299
919.05	10158
919.161	10227
919.272	10082
919.383	10120
919.494	10367
919.604	10512
919.715	10261
919.826	10196
919.936	10253
920.047	10306
920.157	10249
920.267	10447
920.378	10322
920.488	10215
920.598	10459
920.708	10618
920.818	10485
920.928	10516
921.038	10630
921.148	10622
921.258	10322
921.368	10230
921.477	10154
921.587	10173
921.697	10036
921.806	10093
921.916	10048
922.025	9838
922.134	9778
922.244	9808
922.353	9873
922.462	9686
922.571	9671
922.68	9637
922.789	9439
922.898	9538
923.007	9511
923.116	9584
923.224	9542
923.333	9477
923.442	9439
923.55	9393
923.659	9408
923.767	9382
923.876	9443
923.984	9469
924.092	9291
924.201	9378
924.309	9408
924.417	9386
924.525	9256
924.633	9355
924.741	10234
924.849	9211
924.956	9386
925.064	9108
925.172	9047
925.279	9100
925.387	9245
925.494	9203
925.602	9291
925.709	9294
925.816	9081
925.924	9214
926.031	9211
926.138	9211
926.245	9264
926.352	9089
926.459	9226
926.566	9268
926.673	9047
926.779	9024
926.886	9062
926.993	8872
927.099	8811
927.206	8823
927.312	8880
927.419	8925
927.525	8914
927.631	8971
927.737	8792
927.843	8716
927.95	8769
928.056	8773
928.162	8800
928.267	8872
928.373	9416
928.479	8902
928.585	8674
928.69	8682
928.796	8769
928.901	8686
929.007	8640
929.112	8655
929.218	8678
929.323	8598
929.428	8583
929.533	8739
929.638	8556
929.743	8552
929.848	8629
929.953	8571
930.058	8522
930.163	8332
930.267	8355
930.372	8522
930.477	8298
930.581	8575
930.685	8480
930.79	8317
930.894	8389
930.998	8317
931.103	8454
931.207	8092
931.311	8084
931.415	7974
931.519	7830
931.623	7811
