Data from test_V78500241_975.txt Node
Date: Fri Mar 25 14:40:30 CST 2022
User: usil
Spectrometer: V785-0024
Trigger mode: 0
Integration Time (sec): 4.000000E-1
Scans to average: 1
Nonlinearity correction enabled: false
Boxcar width: 0
Storing dark spectrum: false
XAxis mode: Wavelengths
Number of Pixels in Spectrum: 1024
>>>>>Begin Spectral Data<<<<<
801.071	23436
801.214	23250
801.356	22999
801.499	22934
801.641	22694
801.783	22649
801.926	22740
802.068	22596
802.211	22512
802.353	22432
802.496	22158
802.638	22230
802.78	22177
802.923	22090
803.065	21975
803.208	21876
803.35	21979
803.492	22166
803.635	21975
803.777	21991
803.919	22109
804.061	22402
804.204	22059
804.346	21975
804.488	22002
804.63	21926
804.773	21892
804.915	21987
805.057	22017
805.199	21983
805.341	22139
805.483	22082
805.626	22139
805.768	21979
805.91	21937
806.052	22147
806.194	21949
806.336	22268
806.478	22120
806.62	22090
806.762	22143
806.904	22322
807.046	22538
807.188	22504
807.33	22512
807.472	22713
807.614	22474
807.756	22793
807.898	22721
808.04	22664
808.182	22839
808.324	23094
808.465	23322
808.607	23642
808.749	24018
808.891	24243
809.033	24224
809.174	24095
809.316	23687
809.458	23535
809.6	23261
809.741	23185
809.883	22873
810.025	23029
810.166	22961
810.308	22999
810.45	22698
810.591	22687
810.733	22656
810.875	22432
811.016	22440
811.158	22318
811.299	22402
811.441	22348
811.582	22344
811.724	22268
811.865	22196
812.007	22249
812.148	22329
812.29	22303
812.431	22523
812.573	22516
812.714	22725
812.855	22698
812.997	22866
813.138	22915
813.279	22927
813.421	22858
813.562	22637
813.703	22565
813.845	22402
813.986	22120
814.127	21945
814.268	21842
814.41	21781
814.551	21759
814.692	21819
814.833	21671
814.974	21781
815.115	21663
815.256	21629
815.397	21583
815.539	21561
815.68	21481
815.821	21473
815.962	21500
816.103	21397
816.244	21313
816.385	21241
816.526	21138
816.666	21024
816.807	20868
816.948	20956
817.089	21017
817.23	21085
817.371	20861
817.512	20956
817.653	20857
817.793	20864
817.934	20887
818.075	20845
818.216	20887
818.356	20918
818.497	20648
818.638	20545
818.778	20598
818.919	20663
819.06	20632
819.2	20705
819.341	20697
819.481	20754
819.622	20956
819.762	21093
819.903	20990
820.043	20902
820.184	20861
820.324	20910
820.465	20883
820.605	20918
820.746	20872
820.886	20682
821.026	20819
821.167	20823
821.307	20914
821.447	20674
821.588	20708
821.728	20735
821.868	20465
822.008	20225
822.149	20263
822.289	20240
822.429	19986
822.569	19947
822.709	19940
822.849	19734
822.99	19689
823.13	19715
823.27	19510
823.41	19575
823.55	19453
823.69	19502
823.83	19449
823.97	19354
824.11	19392
824.25	19213
824.389	19263
824.529	19289
824.669	19244
824.809	19358
824.949	19362
825.089	19495
825.228	19346
825.368	19072
825.508	19118
825.648	19099
825.787	19137
825.927	19110
826.067	19034
826.206	19103
826.346	19103
826.485	19046
826.625	19084
826.765	19251
826.904	19061
827.044	18852
827.183	18776
827.323	18749
827.462	18787
827.601	18787
827.741	18620
827.88	18829
828.02	18757
828.159	18722
828.298	18658
828.437	18817
828.577	18589
828.716	18833
828.855	18608
828.994	18509
829.134	18547
829.273	18574
829.412	18433
829.551	18391
829.69	18479
829.829	18437
829.968	18464
830.107	18585
830.246	18547
830.385	18429
830.524	18372
830.663	18323
830.802	18201
830.941	18121
831.08	18110
831.219	18110
831.357	18121
831.496	18323
831.635	18015
831.774	18022
831.913	17939
832.051	17821
832.19	17893
832.329	17927
832.467	17855
832.606	17741
832.744	17878
832.883	17786
833.022	17802
833.16	17741
833.299	17855
833.437	17916
833.576	17893
833.714	17824
833.852	17961
833.991	18003
834.129	17999
834.267	17904
834.406	17897
834.544	17897
834.682	17946
834.821	17866
834.959	18053
835.097	17840
835.235	17973
835.373	17836
835.511	17893
835.65	17764
835.788	17752
835.926	17558
836.064	17611
836.202	17585
836.34	17752
836.478	17779
836.615	17767
836.753	17737
836.891	17805
837.029	17760
837.167	17805
837.305	17691
837.443	17566
837.58	17482
837.718	17661
837.856	17646
837.993	17528
838.131	17680
838.269	17474
838.406	17482
838.544	17429
838.681	17277
838.819	17235
838.956	17155
839.094	17048
839.231	17052
839.369	17223
839.506	17463
839.643	17360
839.781	17090
839.918	17022
840.055	17060
840.193	17079
840.33	16999
840.467	17147
840.604	17067
840.742	17280
840.879	17018
841.016	17006
841.153	17018
841.29	17296
841.427	17064
841.564	16976
841.701	17098
841.838	16934
841.975	17010
842.112	16847
842.249	16767
842.385	16790
842.522	17029
842.659	16847
842.796	16835
842.933	16866
843.069	16778
843.206	16755
843.343	16889
843.479	16820
843.616	16824
843.752	16630
843.889	16588
844.025	16782
844.162	16607
844.298	16763
844.435	16729
844.571	16561
844.708	16733
844.844	16930
844.98	16809
845.117	16854
845.253	16702
845.389	16892
845.525	17102
845.661	17558
845.798	17851
845.934	18323
846.07	18380
846.206	18452
846.342	18254
846.478	17714
846.614	16995
846.75	16607
846.886	16394
847.022	16474
847.158	16341
847.294	16291
847.429	16230
847.565	16291
847.701	16462
847.837	15987
847.972	15861
848.108	15979
848.244	15994
848.379	15781
848.515	15808
848.65	15770
848.786	15857
848.921	15789
849.057	15888
849.192	15884
849.328	15800
849.463	15793
849.598	15690
849.734	15641
849.869	15614
850.004	15511
850.14	15485
850.275	15557
850.41	15492
850.545	15412
850.68	15542
850.815	15553
850.95	15492
851.085	15679
851.22	15603
851.355	15564
851.49	15500
851.625	15485
851.76	15564
851.895	15412
852.03	15458
852.165	15511
852.299	15488
852.434	15534
852.569	15488
852.703	15500
852.838	15561
852.973	15622
853.107	15732
853.242	15359
853.376	15416
853.511	15294
853.645	15420
853.78	15530
853.914	15420
854.048	15310
854.183	15348
854.317	15485
854.451	15443
854.585	15351
854.72	15310
854.854	15424
854.988	15302
855.122	15397
855.256	15233
855.39	15359
855.524	15389
855.658	15424
855.792	15412
855.926	15412
856.06	15424
856.194	15481
856.327	15424
856.461	15344
856.595	15351
856.729	15447
856.862	15382
856.996	15420
857.13	15431
857.263	15603
857.397	15587
857.53	15561
857.664	15473
857.797	15488
857.931	15523
858.064	15370
858.197	15401
858.331	15397
858.464	15393
858.597	15287
858.731	15329
858.864	15408
858.997	15348
859.13	15389
859.263	15370
859.396	15374
859.529	15420
859.662	15416
859.795	15424
859.928	15458
860.061	15526
860.194	15507
860.327	15397
860.46	15412
860.592	15507
860.725	15564
860.858	15519
860.99	15344
861.123	15397
861.256	15260
861.388	15359
861.521	16044
861.653	15249
861.786	15146
861.918	15264
862.05	15214
862.183	15424
862.315	15325
862.447	15500
862.58	15439
862.712	15237
862.844	15154
862.976	15195
863.108	15264
863.24	15660
863.372	15013
863.504	15165
863.636	15207
863.768	15192
863.9	15119
864.032	15036
864.164	15207
864.296	15165
864.428	15272
864.559	15249
864.691	15161
864.823	15214
864.954	15097
865.086	15241
865.217	15150
865.349	15127
865.48	15165
865.612	15062
865.743	15313
865.875	15203
866.006	15013
866.137	15066
866.269	15207
866.4	15055
866.531	15108
866.662	15081
866.793	15066
866.924	15093
867.055	15104
867.186	15169
867.317	15001
867.448	15051
867.579	15077
867.71	14994
867.841	15062
867.972	15085
868.103	15093
868.233	15116
868.364	15070
868.495	15127
868.625	15249
868.756	15439
868.886	15291
869.017	15298
869.147	15458
869.278	15412
869.408	15473
869.539	15283
869.669	15485
869.799	15386
869.929	15526
870.06	15534
870.19	15667
870.32	15545
870.45	15739
870.58	15656
870.71	15892
870.84	15899
870.97	15736
871.1	15747
871.23	15937
871.36	15979
871.489	15880
871.619	15941
871.749	15930
871.879	15972
872.008	16059
872.138	15972
872.267	15975
872.397	15835
872.526	15800
872.656	15713
872.785	15857
872.915	15903
873.044	16128
873.173	15991
873.303	16074
873.432	15972
873.561	16131
873.69	16078
873.819	15956
873.948	16002
874.077	16013
874.206	15964
874.335	16120
874.464	16147
874.593	16398
874.722	16230
874.851	16303
874.979	16253
875.108	16295
875.237	16249
875.365	16287
875.494	16363
875.623	16462
875.751	16352
875.88	16390
876.008	16508
876.136	16527
876.265	16702
876.393	16953
876.521	16839
876.65	16828
876.778	16748
876.906	16672
877.034	16721
877.162	16786
877.29	16706
877.418	16691
877.546	16885
877.674	16778
877.802	16748
877.93	16885
878.058	16881
878.185	16740
878.313	16843
878.441	16881
878.568	16774
878.696	16858
878.824	17094
878.951	17113
879.079	17425
879.206	17657
879.333	17623
879.461	17668
879.588	17836
879.715	17882
879.842	17916
879.97	17642
880.097	17200
880.224	17121
880.351	17071
880.478	16987
880.605	16782
880.732	16790
880.859	17045
880.986	16847
881.112	16793
881.239	16713
881.366	16577
881.493	16603
881.619	16542
881.746	16542
881.872	16523
881.999	16500
882.125	16455
882.252	16421
882.378	16481
882.505	16565
882.631	16436
882.757	16344
882.883	16371
883.01	16299
883.136	16265
883.262	16188
883.388	16109
883.514	16230
883.64	16306
883.766	16204
883.892	16219
884.018	16067
884.143	16223
884.269	16402
884.395	16112
884.52	15983
884.646	15991
884.772	15960
884.897	15956
885.023	15983
885.148	16124
885.274	16135
885.399	16097
885.524	15987
885.65	15930
885.775	16036
885.9	15991
886.025	16055
886.15	16025
886.275	15907
886.4	15778
886.525	15850
886.65	15781
886.775	15797
886.9	16082
887.025	16063
887.149	15903
887.274	15755
887.399	15705
887.523	15625
887.648	15663
887.773	15545
887.897	15732
888.021	15751
888.146	15595
888.27	15774
888.395	15793
888.519	15667
888.643	15717
888.767	15724
888.891	15675
889.015	15447
889.139	15591
889.263	15530
889.387	15580
889.511	15698
889.635	15500
889.759	15485
889.883	15576
890.006	15420
890.13	15545
890.254	15462
890.377	15374
890.501	15237
890.624	15157
890.748	15325
890.871	15146
890.995	15077
891.118	15028
891.241	15146
891.364	15161
891.488	15241
891.611	15108
891.734	15123
891.857	15138
891.98	15169
892.103	15138
892.226	15104
892.349	15135
892.471	14971
892.594	15108
892.717	15123
892.839	15131
892.962	15108
893.085	15260
893.207	15138
893.33	14895
893.452	14998
893.575	15116
893.697	15005
893.819	15329
893.941	15272
894.064	15237
894.186	15013
894.308	15020
894.43	15180
894.552	15226
894.674	15192
894.796	15089
894.918	15199
895.04	15138
895.161	15218
895.283	15230
895.405	15100
895.526	15230
895.648	15165
895.769	15241
895.891	15176
896.012	15218
896.134	15245
896.255	15275
896.376	15256
896.498	15230
896.619	15214
896.74	15233
896.861	15355
896.982	15557
897.103	15622
897.224	15519
897.345	15412
897.466	15443
897.587	15545
897.708	15564
897.828	15625
897.949	15431
898.07	15386
898.19	15408
898.311	15580
898.431	15458
898.552	15610
898.672	15637
898.792	15614
898.913	15599
899.033	15386
899.153	15435
899.273	15340
899.393	15370
899.513	15450
899.633	15382
899.753	15443
899.873	15405
899.993	15469
900.113	15329
900.232	15397
900.352	15374
900.472	15344
900.591	15230
900.711	15355
900.83	15237
900.95	15408
901.069	15359
901.189	15146
901.308	15070
901.427	14872
901.546	14895
901.665	14941
901.784	14967
901.904	14758
902.023	14746
902.141	14613
902.26	14469
902.379	14587
902.498	14552
902.617	14442
902.735	14450
902.854	14442
902.973	14393
903.091	14252
903.21	14195
903.328	14199
903.446	14134
903.565	13982
903.683	14115
903.801	13932
903.919	14046
904.038	13913
904.156	13795
904.274	13917
904.392	13860
904.51	13841
904.627	13772
904.745	13784
904.863	13841
904.981	13575
905.098	13464
905.216	13529
905.334	13525
905.451	13529
905.569	13533
905.686	13502
905.803	13464
905.921	13297
906.038	13312
906.155	13293
906.272	13228
906.389	13202
906.506	13107
906.623	13046
906.74	13095
906.857	12863
906.974	12973
907.091	13084
907.208	13061
907.324	13031
907.441	12981
907.557	12787
907.674	12802
907.79	12654
907.907	12692
908.023	12757
908.139	12787
908.256	12681
908.372	12658
908.488	12681
908.604	12494
908.72	12494
908.836	12547
908.952	12464
909.068	12578
909.184	12540
909.3	12460
909.415	12612
909.531	12506
909.647	12304
909.762	12258
909.878	12239
909.993	12376
910.108	12205
910.224	12296
910.339	12239
910.454	12178
910.57	12114
910.685	12019
910.8	12403
910.915	12292
911.03	12155
911.145	12068
911.259	11901
911.374	11901
911.489	11859
911.604	11874
911.718	11729
911.833	11695
911.947	11630
912.062	11482
912.176	11703
912.291	11710
912.405	11699
912.519	11927
912.633	11863
912.748	11771
912.862	11737
912.976	11589
913.09	11448
913.204	11573
913.318	11532
913.431	11623
913.545	11630
913.659	11653
913.772	11524
913.886	11417
914	11383
914.113	11532
914.226	11611
914.34	11490
914.453	11311
914.566	11581
914.68	11299
914.793	11410
914.906	11208
915.019	11242
915.132	11151
915.245	11143
915.358	11265
915.47	11273
915.583	11204
915.696	11223
915.809	11337
915.921	11322
916.034	11105
916.146	11098
916.259	11113
916.371	11162
916.483	11193
916.595	10995
916.708	11162
916.82	11136
916.932	11079
917.044	11166
917.156	11071
917.268	10961
917.38	10953
917.491	11045
917.603	10987
917.715	11083
917.826	11010
917.938	11003
918.049	10847
918.161	10984
918.272	11162
918.384	11102
918.495	10991
918.606	10801
918.717	10782
918.828	10900
918.939	10790
919.05	10740
919.161	10847
919.272	10615
919.383	10611
919.494	10904
919.604	11029
919.715	10797
919.826	10752
919.936	10835
920.047	10892
920.157	10854
920.267	11083
920.378	10885
920.488	10858
920.598	11022
920.708	11197
920.818	11033
920.928	10995
921.038	11250
921.148	11178
921.258	10873
921.368	10755
921.477	10668
921.587	10740
921.697	10546
921.806	10702
921.916	10542
922.025	10337
922.134	10303
922.244	10322
922.353	10466
922.462	10310
922.571	10215
922.68	10188
922.789	10006
922.898	10036
923.007	10006
923.116	10131
923.224	10048
923.333	9998
923.442	9930
923.55	9926
923.659	9972
923.767	10017
923.876	9846
923.984	10040
924.092	9823
924.201	9953
924.309	9907
924.417	9915
924.525	9850
924.633	9789
924.741	10805
924.849	9682
924.956	9762
925.064	9667
925.172	9606
925.279	9667
925.387	9694
925.494	9701
925.602	9823
925.709	9812
925.816	9606
925.924	9701
926.031	9778
926.138	9728
926.245	9713
926.352	9663
926.459	9690
926.566	9842
926.673	9629
926.779	9504
926.886	9534
926.993	9530
927.099	9420
927.206	9382
927.312	9412
927.419	9412
927.525	9420
927.631	9500
927.737	9359
927.843	9245
927.95	9241
928.056	9272
928.162	9268
928.267	9435
928.373	9895
928.479	9355
928.585	9176
928.69	9317
928.796	9405
928.901	9131
929.007	9131
929.112	9241
929.218	9218
929.323	9119
929.428	9131
929.533	9195
929.638	9097
929.743	9074
929.848	9142
929.953	9169
930.058	9009
930.163	8800
930.267	8834
930.372	9039
930.477	8758
930.581	9100
930.685	8979
930.79	8804
930.894	8811
930.998	8842
931.103	8872
931.207	8613
931.311	8587
931.415	8438
931.519	8294
931.623	8343
