Data from test_V78500241_912.txt Node
Date: Fri Mar 25 14:40:04 CST 2022
User: usil
Spectrometer: V785-0024
Trigger mode: 0
Integration Time (sec): 4.000000E-1
Scans to average: 1
Nonlinearity correction enabled: false
Boxcar width: 0
Storing dark spectrum: false
XAxis mode: Wavelengths
Number of Pixels in Spectrum: 1024
>>>>>Begin Spectral Data<<<<<
801.071	24962
801.214	24844
801.356	24570
801.499	24521
801.641	24266
801.783	24285
801.926	24239
802.068	23999
802.211	24076
802.353	23942
802.496	23699
802.638	23714
802.78	23562
802.923	23703
803.065	23551
803.208	23570
803.35	23562
803.492	23859
803.635	23874
803.777	23577
803.919	23672
804.061	23927
804.204	23638
804.346	23551
804.488	23467
804.63	23573
804.773	23486
804.915	23558
805.057	23726
805.199	23695
805.341	23646
805.483	23722
805.626	23684
805.768	23608
805.91	23760
806.052	23703
806.194	23573
806.336	23950
806.478	23798
806.62	23817
806.762	23958
806.904	24209
807.046	24429
807.188	24289
807.33	24376
807.472	24730
807.614	24673
807.756	24909
807.898	24886
808.04	25228
808.182	25411
808.324	26046
808.465	26530
808.607	27351
808.749	27732
808.891	28166
809.033	28173
809.174	27831
809.316	27184
809.458	26613
809.6	25978
809.741	25639
809.883	25327
810.025	25251
810.166	24970
810.308	24856
810.45	24574
810.591	24540
810.733	24285
810.875	24277
811.016	24106
811.158	23965
811.299	24323
811.441	24148
811.582	24038
811.724	24049
811.865	23855
812.007	23908
812.148	23946
812.29	23946
812.431	23950
812.573	24308
812.714	24194
812.855	24407
812.997	24471
813.138	24627
813.279	24441
813.421	24171
813.562	24304
813.703	24136
813.845	24007
813.986	23653
814.127	23646
814.268	23448
814.41	23341
814.551	23391
814.692	23463
814.833	23288
814.974	23337
815.115	23200
815.256	23140
815.397	23162
815.539	23170
815.68	23071
815.821	22961
815.962	23075
816.103	22972
816.244	22869
816.385	22797
816.526	22717
816.666	22615
816.807	22417
816.948	22603
817.089	22523
817.23	22573
817.371	22485
817.512	22413
817.653	22257
817.793	22314
817.934	22451
818.075	22402
818.216	22421
818.356	22447
818.497	22090
818.638	22044
818.778	22093
818.919	22169
819.06	22086
819.2	22177
819.341	22268
819.481	22287
819.622	22417
819.762	22493
819.903	22443
820.043	22447
820.184	22295
820.324	22348
820.465	22371
820.605	22356
820.746	22356
820.886	22230
821.026	22265
821.167	22291
821.307	22417
821.447	22215
821.588	22162
821.728	21892
821.868	21739
822.008	21774
822.149	21717
822.289	21743
822.429	21481
822.569	21393
822.709	21370
822.849	21317
822.99	21112
823.13	21036
823.27	21135
823.41	20925
823.55	20982
823.69	21104
823.83	20967
823.97	20845
824.11	20762
824.25	20754
824.389	20693
824.529	20746
824.669	20629
824.809	20830
824.949	20864
825.089	20724
825.228	20823
825.368	20442
825.508	20438
825.648	20514
825.787	20609
825.927	20598
826.067	20446
826.206	20442
826.346	20404
826.485	20473
826.625	20495
826.765	20552
826.904	20545
827.044	20244
827.183	20271
827.323	20149
827.462	20195
827.601	20199
827.741	20149
827.88	20183
828.02	20084
828.159	20130
828.298	20164
828.437	20214
828.577	20069
828.716	20282
828.855	20024
828.994	19898
829.134	19776
829.273	19940
829.412	19803
829.551	19746
829.69	19947
829.829	19955
829.968	19902
830.107	19951
830.246	19860
830.385	19803
830.524	19826
830.663	19674
830.802	19544
830.941	19510
831.08	19430
831.219	19548
831.357	19472
831.496	19616
831.635	19422
831.774	19457
831.913	19270
832.051	19282
832.19	19251
832.329	19209
832.467	19148
832.606	19168
832.744	19228
832.883	19244
833.022	19015
833.16	19133
833.299	19148
833.437	19183
833.576	19377
833.714	19266
833.852	19411
833.991	19411
834.129	19403
834.267	19506
834.406	19464
834.544	19354
834.682	19316
834.821	19217
834.959	19445
835.097	19320
835.235	19331
835.373	19263
835.511	19171
835.65	19171
835.788	19034
835.926	18878
836.064	18840
836.202	18909
836.34	19084
836.478	19069
836.615	18962
836.753	19110
836.891	19171
837.029	19027
837.167	18954
837.305	18920
837.443	18840
837.58	18821
837.718	18954
837.856	18848
837.993	18825
838.131	18814
838.269	18684
838.406	18776
838.544	18635
838.681	18540
838.819	18448
838.956	18452
839.094	18262
839.231	18498
839.369	18623
839.506	18658
839.643	18536
839.781	18330
839.918	18346
840.055	18330
840.193	18285
840.33	18178
840.467	18186
840.604	18315
840.742	18616
840.879	18022
841.016	18277
841.153	18171
841.29	18281
841.427	18136
841.564	18376
841.701	18239
841.838	18178
841.975	18083
842.112	18136
842.249	18072
842.385	17999
842.522	18228
842.659	18076
842.796	17923
842.933	18057
843.069	17942
843.206	17954
843.343	18091
843.479	18049
843.616	18125
843.752	17885
843.889	17866
844.025	18007
844.162	17824
844.298	18079
844.435	17802
844.571	17897
844.708	18121
844.844	18258
844.98	18251
845.117	18338
845.253	18384
845.389	18593
845.525	19141
845.661	20142
845.798	21039
845.934	22219
846.07	22580
846.206	22512
846.342	21827
846.478	20549
846.614	19331
846.75	18452
846.886	17984
847.022	17931
847.158	17649
847.294	17653
847.429	17562
847.565	17448
847.701	17691
847.837	17159
847.972	17090
848.108	17258
848.244	17181
848.379	17010
848.515	17006
848.65	16873
848.786	16991
848.921	17006
849.057	16946
849.192	17094
849.328	17075
849.463	16976
849.598	16915
849.734	16740
849.869	16706
850.004	16755
850.14	16748
850.275	16634
850.41	16668
850.545	16611
850.68	16592
850.815	16630
850.95	16675
851.085	16850
851.22	16672
851.355	16694
851.49	16641
851.625	16634
851.76	16630
851.895	16580
852.03	16504
852.165	16706
852.299	16596
852.434	16774
852.569	16759
852.703	16733
852.838	16721
852.973	16809
853.107	16801
853.242	16592
853.376	16561
853.511	16459
853.645	16443
853.78	16618
853.914	16565
854.048	16546
854.183	16554
854.317	16489
854.451	16679
854.585	16497
854.72	16523
854.854	16546
854.988	16535
855.122	16474
855.256	16451
855.39	16535
855.524	16622
855.658	16653
855.792	16618
855.926	16592
856.06	16512
856.194	16584
856.327	16508
856.461	16402
856.595	16428
856.729	16421
856.862	16565
856.996	16504
857.13	16546
857.263	16615
857.397	16622
857.53	16478
857.664	16497
857.797	16466
857.931	16588
858.064	16455
858.197	16580
858.331	16478
858.464	16481
858.597	16284
858.731	16409
858.864	16371
858.997	16375
859.13	16470
859.263	16424
859.396	16417
859.529	16466
859.662	16379
859.795	16459
859.928	16432
860.061	16573
860.194	16588
860.327	16409
860.46	16531
860.592	16558
860.725	16569
860.858	16466
860.99	16485
861.123	16428
861.256	16367
861.388	16470
861.521	17086
861.653	16352
861.786	16284
861.918	16265
862.05	16375
862.183	16375
862.315	16489
862.447	16481
862.58	16386
862.712	16169
862.844	16204
862.976	16268
863.108	16284
863.24	16634
863.372	16139
863.504	16181
863.636	16257
863.768	16219
863.9	16135
864.032	16116
864.164	16200
864.296	16131
864.428	16192
864.559	16284
864.691	16265
864.823	16249
864.954	16181
865.086	16196
865.217	16226
865.349	16128
865.48	16120
865.612	16154
865.743	16322
865.875	16177
866.006	16025
866.137	16173
866.269	16112
866.4	16128
866.531	16154
866.662	16067
866.793	16188
866.924	16128
867.055	16093
867.186	16090
867.317	16048
867.448	16006
867.579	16048
867.71	16010
867.841	16029
867.972	16116
868.103	16093
868.233	16120
868.364	16143
868.495	16211
868.625	16367
868.756	16398
868.886	16242
869.017	16367
869.147	16451
869.278	16504
869.408	16413
869.539	16238
869.669	16478
869.799	16398
869.929	16489
870.06	16504
870.19	16668
870.32	16592
870.45	16660
870.58	16797
870.71	16858
870.84	16881
870.97	16744
871.1	16660
871.23	16927
871.36	16923
871.489	16934
871.619	16934
871.749	17014
871.879	16991
872.008	17064
872.138	16949
872.267	16896
872.397	16759
872.526	16831
872.656	16862
872.785	16786
872.915	17079
873.044	17075
873.173	17102
873.303	17064
873.432	17003
873.561	17102
873.69	17025
873.819	17006
873.948	17155
874.077	17170
874.206	17025
874.335	17056
874.464	17288
874.593	17436
874.722	17311
874.851	17315
874.979	17395
875.108	17360
875.237	17391
875.365	17334
875.494	17364
875.623	17501
875.751	17440
875.88	17391
876.008	17505
876.136	17684
876.265	17946
876.393	17961
876.521	17874
876.65	18038
876.778	17855
876.906	17790
877.034	17908
877.162	17923
877.29	17923
877.418	17863
877.546	17920
877.674	17935
877.802	17996
877.93	17878
878.058	17942
878.185	17942
878.313	18087
878.441	18213
878.568	18053
878.696	18220
878.824	18384
878.951	18802
879.079	19015
879.206	19521
879.333	19795
879.461	20069
879.588	20256
879.715	20374
879.842	20400
879.97	19799
880.097	19107
880.224	19019
880.351	18627
880.478	18471
880.605	18418
880.732	18338
880.859	18460
880.986	18209
881.112	18152
881.239	18117
881.366	17954
881.493	17893
881.619	17897
881.746	17866
881.872	17828
881.999	17863
882.125	17767
882.252	17996
882.378	18083
882.505	17996
882.631	17901
882.757	17790
882.883	17737
883.01	17786
883.136	17767
883.262	17551
883.388	17528
883.514	17767
883.64	17691
883.766	17653
883.892	17543
884.018	17619
884.143	17585
884.269	17741
884.395	17379
884.52	17436
884.646	17505
884.772	17368
884.897	17299
885.023	17414
885.148	17417
885.274	17570
885.399	17433
885.524	17368
885.65	17330
885.775	17315
885.9	17277
886.025	17448
886.15	17200
886.275	17212
886.4	17064
886.525	17159
886.65	17033
886.775	17075
886.9	17064
887.025	17269
887.149	17083
887.274	16961
887.399	16862
887.523	16877
887.648	16797
887.773	16679
887.897	16919
888.021	16885
888.146	16843
888.27	16923
888.395	16835
888.519	16774
888.643	16698
888.767	16839
888.891	16759
889.015	16554
889.139	16755
889.263	16554
889.387	16649
889.511	16694
889.635	16702
889.759	16565
889.883	16428
890.006	16497
890.13	16641
890.254	16375
890.377	16504
890.501	16230
890.624	16329
890.748	16424
890.871	16207
890.995	16177
891.118	16025
891.241	16105
891.364	16128
891.488	16295
891.611	16211
891.734	16135
891.857	16234
891.98	16169
892.103	16169
892.226	16135
892.349	16036
892.471	15888
892.594	16051
892.717	16166
892.839	16097
892.962	16150
893.085	16090
893.207	16029
893.33	15968
893.452	15953
893.575	16211
893.697	15998
893.819	16093
893.941	16246
894.064	16044
894.186	16139
894.308	16010
894.43	16147
894.552	16185
894.674	16128
894.796	15937
894.918	16139
895.04	16082
895.161	16040
895.283	16063
895.405	16048
895.526	16139
895.648	15994
895.769	16162
895.891	16082
896.012	16055
896.134	16109
896.255	16124
896.376	16090
896.498	16090
896.619	16124
896.74	16067
896.861	16135
896.982	16424
897.103	16649
897.224	16432
897.345	16344
897.466	16356
897.587	16398
897.708	16489
897.828	16424
897.949	16318
898.07	16284
898.19	16272
898.311	16485
898.431	16394
898.552	16424
898.672	16402
898.792	16493
898.913	16512
899.033	16299
899.153	16303
899.273	16196
899.393	16322
899.513	16280
899.633	16200
899.753	16322
899.873	16272
899.993	16382
900.113	16196
900.232	16173
900.352	16226
900.472	16200
900.591	16059
900.711	16223
900.83	16128
900.95	16246
901.069	16299
901.189	15937
901.308	15892
901.427	15675
901.546	15785
901.665	15713
901.784	15903
901.904	15717
902.023	15466
902.141	15420
902.26	15348
902.379	15317
902.498	15321
902.617	15275
902.735	15412
902.854	15283
902.973	15211
903.091	14994
903.21	14979
903.328	14960
903.446	14857
903.565	14804
903.683	14826
903.801	14648
903.919	14678
904.038	14678
904.156	14571
904.274	14644
904.392	14480
904.51	14610
904.627	14560
904.745	14549
904.863	14663
904.981	14438
905.098	14240
905.216	14351
905.334	14237
905.451	14221
905.569	14206
905.686	14214
905.803	14240
905.921	14065
906.038	14210
906.155	14054
906.272	13955
906.389	13909
906.506	13788
906.623	13723
906.74	13845
906.857	13757
906.974	13620
907.091	13727
907.208	13875
907.324	13784
907.441	13715
907.557	13525
907.674	13521
907.79	13449
907.907	13480
908.023	13449
908.139	13460
908.256	13441
908.372	13384
908.488	13422
908.604	13209
908.72	13145
908.836	13247
908.952	13209
909.068	13206
909.184	13316
909.3	13198
909.415	13202
909.531	13301
909.647	12989
909.762	12939
909.878	12894
909.993	13012
910.108	12920
910.224	12901
910.339	13000
910.454	12844
910.57	12757
910.685	12711
910.8	12977
910.915	12962
911.03	12768
911.145	12741
911.259	12574
911.374	12631
911.489	12502
911.604	12585
911.718	12380
911.833	12448
911.947	12201
912.062	12171
912.176	12258
912.291	12330
912.405	12380
912.519	12452
912.633	12521
912.748	12334
912.862	12308
912.976	12194
913.09	12102
913.204	12194
913.318	12228
913.431	12311
913.545	12292
913.659	12311
913.772	12205
913.886	12114
914	12030
914.113	12152
914.226	12171
914.34	12273
914.453	12038
914.566	12083
914.68	12019
914.793	11980
914.906	11863
915.019	11665
915.132	11714
915.245	11722
915.358	11733
915.47	11840
915.583	11813
915.696	11798
915.809	11885
915.921	11969
916.034	11710
916.146	11707
916.259	11665
916.371	11859
916.483	11824
916.595	11703
916.708	11688
916.82	11775
916.932	11634
917.044	11672
917.156	11665
917.268	11497
917.38	11547
917.491	11604
917.603	11516
917.715	11714
917.826	11665
917.938	11539
918.049	11455
918.161	11577
918.272	11729
918.384	11611
918.495	11486
918.606	11372
918.717	11372
918.828	11436
918.939	11376
919.05	11364
919.161	11398
919.272	11212
919.383	11250
919.494	11482
919.604	11585
919.715	11512
919.826	11326
919.936	11402
920.047	11467
920.157	11421
920.267	11589
920.378	11493
920.488	11452
920.598	11543
920.708	11722
920.818	11532
920.928	11493
921.038	11786
921.148	11661
921.258	11322
921.368	11356
921.477	11208
921.587	11159
921.697	11056
921.806	11242
921.916	11025
922.025	10923
922.134	10881
922.244	10869
922.353	10965
922.462	10778
922.571	10702
922.68	10580
922.789	10588
922.898	10580
923.007	10485
923.116	10656
923.224	10478
923.333	10550
923.442	10424
923.55	10390
923.659	10470
923.767	10599
923.876	10371
923.984	10493
924.092	10367
924.201	10367
924.309	10367
924.417	10421
924.525	10268
924.633	10436
924.741	11071
924.849	10196
924.956	10325
925.064	10211
925.172	10078
925.279	10154
925.387	10166
925.494	10204
925.602	10249
925.709	10280
925.816	10139
925.924	10116
926.031	10276
926.138	10071
926.245	10067
926.352	10082
926.459	10185
926.566	10230
926.673	10112
926.779	10002
926.886	10017
926.993	9865
927.099	9888
927.206	9854
927.312	9835
927.419	9922
927.525	9869
927.631	9903
927.737	9823
927.843	9709
927.95	9561
928.056	9675
928.162	9781
928.267	9724
928.373	10363
928.479	9823
928.585	9603
928.69	9698
928.796	9713
928.901	9694
929.007	9519
929.112	9656
929.218	9637
929.323	9557
929.428	9458
929.533	9660
929.638	9439
929.743	9519
929.848	9443
929.953	9515
930.058	9443
930.163	9317
930.267	9325
930.372	9481
930.477	9260
930.581	9500
930.685	9382
930.79	9245
930.894	9294
930.998	9218
931.103	9408
931.207	9032
931.311	8967
931.415	8811
931.519	8705
931.623	8800
