Data from test_V78500241_332.txt Node
Date: Fri Mar 25 14:36:02 CST 2022
User: usil
Spectrometer: V785-0024
Trigger mode: 0
Integration Time (sec): 4.000000E-1
Scans to average: 1
Nonlinearity correction enabled: false
Boxcar width: 0
Storing dark spectrum: false
XAxis mode: Wavelengths
Number of Pixels in Spectrum: 1024
>>>>>Begin Spectral Data<<<<<
801.071	27077
801.214	26952
801.356	26590
801.499	26560
801.641	26552
801.783	26358
801.926	26415
802.068	26343
802.211	26161
802.353	26218
802.496	26149
802.638	25970
802.78	26096
802.923	25928
803.065	25849
803.208	25811
803.35	25890
803.492	25936
803.635	25925
803.777	26024
803.919	25963
804.061	26294
804.204	25982
804.346	25761
804.488	25833
804.63	25906
804.773	25597
804.915	25944
805.057	26119
805.199	25909
805.341	26008
805.483	25925
805.626	26035
805.768	25940
805.91	25951
806.052	26043
806.194	25921
806.336	26077
806.478	25875
806.62	25871
806.762	26043
806.904	26134
807.046	26343
807.188	26301
807.33	26111
807.472	26434
807.614	26275
807.756	26183
807.898	26050
808.04	26096
808.182	26145
808.324	26084
808.465	26069
808.607	26309
808.749	26347
808.891	26632
809.033	26693
809.174	26450
809.316	26473
809.458	26476
809.6	26415
809.741	26431
809.883	26514
810.025	26674
810.166	26785
810.308	26503
810.45	26583
810.591	26423
810.733	26461
810.875	26290
811.016	26225
811.158	26278
811.299	26313
811.441	26374
811.582	26362
811.724	26157
811.865	26290
812.007	26275
812.148	26278
812.29	26294
812.431	26507
812.573	26518
812.714	26667
812.855	26682
812.997	26765
813.138	26929
813.279	26937
813.421	26621
813.562	26777
813.703	26636
813.845	26514
813.986	26191
814.127	25986
814.268	25928
814.41	25772
814.551	25887
814.692	25974
814.833	25849
814.974	25784
815.115	25742
815.256	25620
815.397	25681
815.539	25685
815.68	25567
815.821	25540
815.962	25681
816.103	25510
816.244	25464
816.385	25327
816.526	25388
816.666	25141
816.807	25012
816.948	25080
817.089	24962
817.23	25145
817.371	25069
817.512	24939
817.653	25034
817.793	24859
817.934	25000
818.075	24935
818.216	24916
818.356	24871
818.497	24753
818.638	24757
818.778	24681
818.919	24505
819.06	24604
819.2	24639
819.341	24886
819.481	24783
819.622	25103
819.762	25209
819.903	25084
820.043	24989
820.184	24856
820.324	25004
820.465	25027
820.605	24935
820.746	24905
820.886	24726
821.026	24996
821.167	24821
821.307	24890
821.447	24749
821.588	24555
821.728	24563
821.868	24525
822.008	24350
822.149	24186
822.289	24418
822.429	24083
822.569	23863
822.709	23878
822.849	23764
822.99	23836
823.13	23657
823.27	23638
823.41	23600
823.55	23448
823.69	23547
823.83	23566
823.97	23501
824.11	23448
824.25	23280
824.389	23227
824.529	23292
824.669	23296
824.809	23505
824.949	23429
825.089	23433
825.228	23421
825.368	23166
825.508	23189
825.648	23223
825.787	23124
825.927	23132
826.067	23117
826.206	23086
826.346	23067
826.485	23212
826.625	23018
826.765	23204
826.904	23170
827.044	22858
827.183	22725
827.323	22801
827.462	22892
827.601	22744
827.741	22771
827.88	22679
828.02	22668
828.159	22683
828.298	22748
828.437	22908
828.577	22767
828.716	22812
828.855	22786
828.994	22485
829.134	22504
829.273	22512
829.412	22474
829.551	22417
829.69	22512
829.829	22470
829.968	22455
830.107	22504
830.246	22447
830.385	22329
830.524	22413
830.663	22242
830.802	22230
830.941	22112
831.08	22040
831.219	22086
831.357	22109
831.496	22139
831.635	22063
831.774	21994
831.913	21907
832.051	21842
832.19	21842
832.329	21854
832.467	21728
832.606	21675
832.744	21549
832.883	21679
833.022	21656
833.16	21755
833.299	21759
833.437	21709
833.576	21717
833.714	21789
833.852	21846
833.991	21690
834.129	21911
834.267	21770
834.406	21675
834.544	21747
834.682	21720
834.821	21614
834.959	21762
835.097	21603
835.235	21770
835.373	21717
835.511	21618
835.65	21557
835.788	21599
835.926	21473
836.064	21435
836.202	21416
836.34	21641
836.478	21641
836.615	21447
836.753	21622
836.891	21538
837.029	21549
837.167	21580
837.305	21504
837.443	21397
837.58	21454
837.718	21481
837.856	21370
837.993	21332
838.131	21386
838.269	21272
838.406	21325
838.544	21214
838.681	20937
838.819	20918
838.956	20781
839.094	20937
839.231	20861
839.369	21070
839.506	21138
839.643	21169
839.781	20773
839.918	20670
840.055	20788
840.193	20838
840.33	20667
840.467	20667
840.604	20712
840.742	20994
840.879	20629
841.016	20663
841.153	20583
841.29	20804
841.427	20800
841.564	20781
841.701	20587
841.838	20697
841.975	20613
842.112	20621
842.249	20431
842.385	20514
842.522	20667
842.659	20492
842.796	20423
842.933	20473
843.069	20473
843.206	20492
843.343	20533
843.479	20484
843.616	20526
843.752	20305
843.889	20214
844.025	20267
844.162	20290
844.298	20275
844.435	20225
844.571	20176
844.708	20286
844.844	20438
844.98	20347
845.117	20324
845.253	20199
845.389	20221
845.525	20149
845.661	20100
845.798	20046
845.934	20130
846.07	20012
846.206	20100
846.342	20107
846.478	19951
846.614	19921
846.75	19651
846.886	19750
847.022	19803
847.158	19681
847.294	19658
847.429	19791
847.565	19567
847.701	19989
847.837	19495
847.972	19365
848.108	19438
848.244	19518
848.379	19221
848.515	19171
848.65	19126
848.786	19206
848.921	19251
849.057	19400
849.192	19259
849.328	19232
849.463	19225
849.598	19095
849.734	19141
849.869	19236
850.004	19042
850.14	19076
850.275	19038
850.41	18856
850.545	18905
850.68	18935
850.815	18920
850.95	19031
851.085	19179
851.22	19091
851.355	18985
851.49	18859
851.625	18890
851.76	19088
851.895	18776
852.03	18753
852.165	18981
852.299	19015
852.434	19107
852.569	19015
852.703	19053
852.838	19072
852.973	19050
853.107	19019
853.242	18909
853.376	18715
853.511	18654
853.645	18719
853.78	18970
853.914	18738
854.048	18734
854.183	18688
854.317	18738
854.451	19027
854.585	18829
854.72	18692
854.854	18867
854.988	18681
855.122	18700
855.256	18593
855.39	18745
855.524	18916
855.658	18665
855.792	18814
855.926	18859
856.06	18745
856.194	18894
856.327	18722
856.461	18661
856.595	18837
856.729	18806
856.862	18905
856.996	18829
857.13	18776
857.263	18867
857.397	18871
857.53	18707
857.664	18901
857.797	18954
857.931	18867
858.064	18867
858.197	18814
858.331	18844
858.464	18604
858.597	18620
858.731	18631
858.864	18707
858.997	18646
859.13	18783
859.263	18749
859.396	18798
859.529	18715
859.662	18684
859.795	18631
859.928	18658
860.061	18901
860.194	18863
860.327	18776
860.46	18669
860.592	18848
860.725	18829
860.858	18738
860.99	18802
861.123	18566
861.256	18593
861.388	18791
861.521	19381
861.653	18612
861.786	18563
861.918	18677
862.05	18578
862.183	18764
862.315	18749
862.447	18840
862.58	18707
862.712	18407
862.844	18407
862.976	18593
863.108	18433
863.24	18837
863.372	18460
863.504	18388
863.636	18506
863.768	18467
863.9	18528
864.032	18270
864.164	18441
864.296	18460
864.428	18486
864.559	18555
864.691	18570
864.823	18407
864.954	18429
865.086	18338
865.217	18407
865.349	18384
865.48	18353
865.612	18410
865.743	18540
865.875	18437
866.006	18311
866.137	18369
866.269	18403
866.4	18372
866.531	18365
866.662	18330
866.793	18327
866.924	18174
867.055	18384
867.186	18292
867.317	18194
867.448	18213
867.579	18254
867.71	18140
867.841	18174
867.972	18273
868.103	18262
868.233	18247
868.364	18247
868.495	18300
868.625	18471
868.756	18635
868.886	18414
869.017	18551
869.147	18627
869.278	18563
869.408	18563
869.539	18494
869.669	18627
869.799	18502
869.929	18642
870.06	18532
870.19	18760
870.32	18791
870.45	18913
870.58	18821
870.71	19027
870.84	19038
870.97	18901
871.1	19008
871.23	19080
871.36	19012
871.489	19107
871.619	19099
871.749	19046
871.879	19091
872.008	19206
872.138	19107
872.267	19148
872.397	19023
872.526	18905
872.656	18837
872.785	18856
872.915	19114
873.044	19251
873.173	19145
873.303	19217
873.432	19190
873.561	19285
873.69	19263
873.819	19293
873.948	19088
874.077	19141
874.206	19145
874.335	19251
874.464	19129
874.593	19327
874.722	19354
874.851	19434
874.979	19438
875.108	19419
875.237	19381
875.365	19293
875.494	19365
875.623	19457
875.751	19346
875.88	19377
876.008	19552
876.136	19807
876.265	19700
876.393	19871
876.521	19780
876.65	19932
876.778	19704
876.906	19753
877.034	19761
877.162	19738
877.29	19765
877.418	19753
877.546	19674
877.674	19814
877.802	19734
877.93	19772
878.058	19833
878.185	19689
878.313	19727
878.441	19826
878.568	19685
878.696	19795
878.824	19890
878.951	19860
879.079	20077
879.206	20126
879.333	20024
879.461	19852
879.588	20100
879.715	20084
879.842	20111
879.97	19951
880.097	19609
880.224	19601
880.351	19708
880.478	19674
880.605	19613
880.732	19635
880.859	19959
880.986	19685
881.112	19670
881.239	19476
881.366	19411
881.493	19297
881.619	19365
881.746	19320
881.872	19164
881.999	19107
882.125	19304
882.252	19324
882.378	19301
882.505	19320
882.631	19190
882.757	19099
882.883	19183
883.01	19179
883.136	18954
883.262	18924
883.388	18840
883.514	19095
883.64	19099
883.766	18909
883.892	18856
884.018	18928
884.143	18966
884.269	19107
884.395	18703
884.52	18665
884.646	18757
884.772	18574
884.897	18627
885.023	18711
885.148	18795
885.274	18897
885.399	18715
885.524	18715
885.65	18684
885.775	18745
885.9	18696
886.025	18639
886.15	18768
886.275	18688
886.4	18711
886.525	18696
886.65	18544
886.775	18540
886.9	18768
887.025	18768
887.149	18688
887.274	18441
887.399	18418
887.523	18429
887.648	18304
887.773	18361
887.897	18536
888.021	18452
888.146	18350
888.27	18540
888.395	18555
888.519	18494
888.643	18490
888.767	18464
888.891	18361
889.015	18144
889.139	18346
889.263	18254
889.387	18380
889.511	18456
889.635	18376
889.759	18243
889.883	18201
890.006	18205
890.13	18281
890.254	18144
890.377	18182
890.501	18076
890.624	17969
890.748	18144
890.871	18007
890.995	17809
891.118	17752
891.241	17889
891.364	17821
891.488	18019
891.611	17798
891.734	17885
891.857	17908
891.98	17889
892.103	17931
892.226	17912
892.349	17779
892.471	17684
892.594	17901
892.717	17946
892.839	17798
892.962	17707
893.085	17950
893.207	17969
893.33	17707
893.452	17733
893.575	17798
893.697	17767
893.819	17942
893.941	18026
894.064	18011
894.186	17722
894.308	17726
894.43	17832
894.552	18110
894.674	17805
894.796	17676
894.918	17817
895.04	17748
895.161	17969
895.283	17855
895.405	17748
895.526	17847
895.648	17752
895.769	17889
895.891	17779
896.012	17931
896.134	17885
896.255	17847
896.376	17828
896.498	17859
896.619	18053
896.74	17809
896.861	18026
896.982	18174
897.103	18361
897.224	18209
897.345	18155
897.466	18129
897.587	18068
897.708	18281
897.828	18197
897.949	18152
898.07	18019
898.19	18060
898.311	18171
898.431	18053
898.552	18171
898.672	18121
898.792	18235
898.913	18106
899.033	18114
899.153	17870
899.273	17824
899.393	17836
899.513	17771
899.633	17988
899.753	17935
899.873	17855
899.993	17965
900.113	17927
900.232	17942
900.352	17870
900.472	17794
900.591	17661
900.711	17771
900.83	17745
900.95	17920
901.069	17874
901.189	17592
901.308	17372
901.427	17322
901.546	17364
901.665	17406
901.784	17364
901.904	17254
902.023	17121
902.141	16862
902.26	16873
902.379	16843
902.498	16847
902.617	16740
902.735	16847
902.854	16854
902.973	16801
903.091	16550
903.21	16516
903.328	16554
903.446	16462
903.565	16394
903.683	16375
903.801	16226
903.919	16299
904.038	16306
904.156	16124
904.274	16234
904.392	16093
904.51	16086
904.627	16074
904.745	16105
904.863	16071
904.981	15934
905.098	15823
905.216	15816
905.334	15808
905.451	15816
905.569	15747
905.686	15816
905.803	15724
905.921	15644
906.038	15682
906.155	15698
906.272	15492
906.389	15481
906.506	15389
906.623	15340
906.74	15287
906.857	15237
906.974	15302
907.091	15416
907.208	15393
907.324	15401
907.441	15264
907.557	15142
907.674	14979
907.79	14906
907.907	15013
908.023	15097
908.139	15039
908.256	15039
908.372	14956
908.488	14861
908.604	14872
908.72	14594
908.836	14781
908.952	14716
909.068	14762
909.184	14674
909.3	14720
909.415	14857
909.531	14735
909.647	14473
909.762	14503
909.878	14522
909.993	14537
910.108	14499
910.224	14374
910.339	14454
910.454	14275
910.57	14301
910.685	14202
910.8	14564
910.915	14377
911.03	14286
911.145	14081
911.259	14001
911.374	14046
911.489	14008
911.604	13967
911.718	13902
911.833	13902
911.947	13772
912.062	13624
912.176	13753
912.291	13795
912.405	13814
912.519	14001
912.633	14039
912.748	13852
912.862	13822
912.976	13769
913.09	13624
913.204	13689
913.318	13594
913.431	13765
913.545	13788
913.659	13776
913.772	13628
913.886	13499
914	13529
914.113	13571
914.226	13540
914.34	13502
914.453	13350
914.566	13544
914.68	13445
914.793	13419
914.906	13285
915.019	13236
915.132	13187
915.245	13187
915.358	13209
915.47	13274
915.583	13206
915.696	13156
915.809	13396
915.921	13282
916.034	13171
916.146	13088
916.259	12993
916.371	13209
916.483	13247
916.595	13088
916.708	13084
916.82	13076
916.932	13004
917.044	13023
917.156	12943
917.268	12935
917.38	12882
917.491	12856
917.603	12882
917.715	13012
917.826	13050
917.938	12871
918.049	12654
918.161	12856
918.272	12958
918.384	13015
918.495	12833
918.606	12707
918.717	12601
918.828	12673
918.939	12719
919.05	12547
919.161	12623
919.272	12467
919.383	12464
919.494	12692
919.604	12844
919.715	12654
919.826	12570
919.936	12673
920.047	12726
920.157	12696
920.267	12821
920.378	12608
920.488	12578
920.598	12722
920.708	12886
920.818	12787
920.928	12779
921.038	13008
921.148	12943
921.258	12585
921.368	12589
921.477	12441
921.587	12353
921.697	12270
921.806	12418
921.916	12292
922.025	12083
922.134	12011
922.244	12064
922.353	12186
922.462	12019
922.571	11901
922.68	11733
922.789	11775
922.898	11764
923.007	11718
923.116	11805
923.224	11722
923.333	11722
923.442	11577
923.55	11551
923.659	11668
923.767	11665
923.876	11520
923.984	11570
924.092	11528
924.201	11608
924.309	11558
924.417	11554
924.525	11512
924.633	11391
924.741	12254
924.849	11322
924.956	11395
925.064	11254
925.172	11208
925.279	11246
925.387	11311
925.494	11239
925.602	11406
925.709	11372
925.816	11174
925.924	11185
926.031	11349
926.138	11277
926.245	11212
926.352	11140
926.459	11239
926.566	11265
926.673	11128
926.779	11056
926.886	11025
926.993	10934
927.099	10911
927.206	10869
927.312	10896
927.419	10885
927.525	10858
927.631	10965
927.737	10835
927.843	10774
927.95	10603
928.056	10771
928.162	10805
928.267	10869
928.373	11296
928.479	10816
928.585	10634
928.69	10668
928.796	10774
928.901	10611
929.007	10459
929.112	10653
929.218	10573
929.323	10531
929.428	10481
929.533	10656
929.638	10417
929.743	10451
929.848	10538
929.953	10519
930.058	10363
930.163	10291
930.267	10192
930.372	10306
930.477	10158
930.581	10405
930.685	10257
930.79	10131
930.894	10196
930.998	9972
931.103	10192
931.207	9941
931.311	9804
931.415	9660
931.519	9595
931.623	9519
