Data from test_V78500241_2850.txt Node
Date: Fri Mar 25 14:53:33 CST 2022
User: usil
Spectrometer: V785-0024
Trigger mode: 0
Integration Time (sec): 4.000000E-1
Scans to average: 1
Nonlinearity correction enabled: false
Boxcar width: 0
Storing dark spectrum: false
XAxis mode: Wavelengths
Number of Pixels in Spectrum: 1024
>>>>>Begin Spectral Data<<<<<
801.071	22067
801.214	21926
801.356	21793
801.499	21576
801.641	21405
801.783	21507
801.926	21507
802.068	21458
802.211	21344
802.353	21283
802.496	21081
802.638	21013
802.78	20883
802.923	20914
803.065	20773
803.208	20781
803.35	20731
803.492	20982
803.635	20864
803.777	20670
803.919	20864
804.061	21032
804.204	20845
804.346	20716
804.488	20716
804.63	20724
804.773	20667
804.915	20811
805.057	20640
805.199	20659
805.341	20693
805.483	20727
805.626	20762
805.768	20636
805.91	20743
806.052	20693
806.194	20560
806.336	20746
806.478	20720
806.62	20632
806.762	20716
806.904	20910
807.046	21005
807.188	21032
807.33	20967
807.472	21085
807.614	20982
807.756	20929
807.898	20929
808.04	20697
808.182	20750
808.324	20765
808.465	20792
808.607	20944
808.749	21070
808.891	21157
809.033	21154
809.174	21039
809.316	21001
809.458	21058
809.6	21096
809.741	21108
809.883	21108
810.025	21211
810.166	21272
810.308	21241
810.45	21138
810.591	21005
810.733	20944
810.875	20941
811.016	20716
811.158	20815
811.299	20811
811.441	20838
811.582	20804
811.724	20975
811.865	20731
812.007	20785
812.148	20773
812.29	20864
812.431	21043
812.573	21039
812.714	21211
812.855	21321
812.997	21431
813.138	21587
813.279	21348
813.421	21268
813.562	21211
813.703	21036
813.845	20975
813.986	20575
814.127	20587
814.268	20423
814.41	20355
814.551	20313
814.692	20480
814.833	20286
814.974	20336
815.115	20301
815.256	20229
815.397	20168
815.539	20275
815.68	20130
815.821	20088
815.962	20077
816.103	19947
816.244	19993
816.385	19940
816.526	19708
816.666	19757
816.807	19544
816.948	19708
817.089	19685
817.23	19525
817.371	19426
817.512	19445
817.653	19434
817.793	19438
817.934	19426
818.075	19453
818.216	19552
818.356	19430
818.497	19274
818.638	19141
818.778	19164
818.919	19209
819.06	19236
819.2	19232
819.341	19381
819.481	19441
819.622	19480
819.762	19712
819.903	19628
820.043	19571
820.184	19453
820.324	19457
820.465	19491
820.605	19419
820.746	19491
820.886	19255
821.026	19343
821.167	19396
821.307	19392
821.447	19403
821.588	19316
821.728	19126
821.868	18943
822.008	18806
822.149	18867
822.289	18741
822.429	18589
822.569	18513
822.709	18623
822.849	18509
822.99	18346
823.13	18346
823.27	18388
823.41	18174
823.55	18110
823.69	18117
823.83	18224
823.97	18057
824.11	17942
824.25	17874
824.389	18057
824.529	17980
824.669	17954
824.809	17961
824.949	18079
825.089	17931
825.228	17946
825.368	17714
825.508	17745
825.648	17748
825.787	17756
825.927	17824
826.067	17611
826.206	17699
826.346	17665
826.485	17783
826.625	17676
826.765	17866
826.904	17843
827.044	17455
827.183	17478
827.323	17349
827.462	17402
827.601	17383
827.741	17410
827.88	17368
828.02	17406
828.159	17467
828.298	17414
828.437	17535
828.577	17303
828.716	17524
828.855	17277
828.994	17242
829.134	17200
829.273	17105
829.412	17159
829.551	17162
829.69	17121
829.829	17261
829.968	17246
830.107	17159
830.246	17140
830.385	17147
830.524	16999
830.663	17048
830.802	16877
830.941	16831
831.08	16721
831.219	16809
831.357	16824
831.496	16968
831.635	16763
831.774	16721
831.913	16611
832.051	16485
832.19	16618
832.329	16451
832.467	16493
832.606	16466
832.744	16474
832.883	16409
833.022	16428
833.16	16493
833.299	16504
833.437	16497
833.576	16538
833.714	16538
833.852	16481
833.991	16481
834.129	16565
834.267	16561
834.406	16584
834.544	16542
834.682	16474
834.821	16417
834.959	16702
835.097	16516
835.235	16599
835.373	16538
835.511	16443
835.65	16386
835.788	16447
835.926	16280
836.064	16265
836.202	16204
836.34	16436
836.478	16626
836.615	16417
836.753	16405
836.891	16573
837.029	16432
837.167	16367
837.305	16360
837.443	16310
837.58	16185
837.718	16322
837.856	16207
837.993	16188
838.131	16299
838.269	16211
838.406	16310
838.544	16086
838.681	15998
838.819	15949
838.956	15831
839.094	15823
839.231	15857
839.369	16071
839.506	16238
839.643	16147
839.781	15895
839.918	15800
840.055	15865
840.193	15800
840.33	15827
840.467	15835
840.604	15838
840.742	16139
840.879	15759
841.016	15774
841.153	15842
841.29	16017
841.427	15816
841.564	15865
841.701	15850
841.838	15812
841.975	15804
842.112	15770
842.249	15625
842.385	15564
842.522	15785
842.659	15633
842.796	15534
842.933	15690
843.069	15633
843.206	15629
843.343	15629
843.479	15568
843.616	15606
843.752	15393
843.889	15378
844.025	15504
844.162	15424
844.298	15477
844.435	15416
844.571	15435
844.708	15386
844.844	15545
844.98	15526
845.117	15530
845.253	15321
845.389	15416
845.525	15336
845.661	15233
845.798	15226
845.934	15332
846.07	15203
846.206	15226
846.342	15340
846.478	15226
846.614	15108
846.75	14944
846.886	14830
847.022	15142
847.158	14967
847.294	14971
847.429	15028
847.565	14861
847.701	15249
847.837	14746
847.972	14712
848.108	14838
848.244	14731
848.379	14621
848.515	14526
848.65	14518
848.786	14568
848.921	14564
849.057	14670
849.192	14663
849.328	14568
849.463	14746
849.598	14484
849.734	14537
849.869	14431
850.004	14305
850.14	14332
850.275	14396
850.41	14248
850.545	14256
850.68	14282
850.815	14332
850.95	14282
851.085	14495
851.22	14480
851.355	14358
851.49	14347
851.625	14336
851.76	14244
851.895	14252
852.03	14195
852.165	14374
852.299	14385
852.434	14389
852.569	14393
852.703	14438
852.838	14393
852.973	14465
853.107	14503
853.242	14286
853.376	14248
853.511	13989
853.645	14183
853.78	14286
853.914	14244
854.048	14138
854.183	14206
854.317	14218
854.451	14355
854.585	14126
854.72	14183
854.854	14275
854.988	14096
855.122	14183
855.256	14084
855.39	14123
855.524	14305
855.658	14267
855.792	14244
855.926	14210
856.06	14225
856.194	14336
856.327	14229
856.461	14233
856.595	14073
856.729	14103
856.862	14278
856.996	14229
857.13	14244
857.263	14381
857.397	14294
857.53	14259
857.664	14320
857.797	14343
857.931	14339
858.064	14195
858.197	14339
858.331	14206
858.464	14214
858.597	14107
858.731	14168
858.864	14252
858.997	14153
859.13	14206
859.263	14259
859.396	14328
859.529	14168
859.662	14145
859.795	14176
859.928	14191
860.061	14244
860.194	14343
860.327	14294
860.46	14092
860.592	14320
860.725	14301
860.858	14252
860.99	14221
861.123	14100
861.256	14027
861.388	14290
861.521	14785
861.653	14001
861.786	14054
861.918	14069
862.05	14153
862.183	14084
862.315	14103
862.447	14240
862.58	14142
862.712	13993
862.844	13845
862.976	14069
863.108	14020
863.24	14438
863.372	13814
863.504	13982
863.636	13986
863.768	13955
863.9	14054
864.032	13951
864.164	13974
864.296	14043
864.428	14187
864.559	14058
864.691	14073
864.823	14084
864.954	13974
865.086	13997
865.217	14050
865.349	13921
865.48	13913
865.612	13944
865.743	14183
865.875	13940
866.006	13871
866.137	14005
866.269	13993
866.4	13887
866.531	13856
866.662	13921
866.793	13849
866.924	13917
867.055	14031
867.186	14058
867.317	13902
867.448	13868
867.579	13913
867.71	13803
867.841	13906
867.972	13982
868.103	13970
868.233	13932
868.364	13936
868.495	14031
868.625	14248
868.756	14332
868.886	14210
869.017	14275
869.147	14271
869.278	14252
869.408	14286
869.539	14225
869.669	14298
869.799	14172
869.929	14290
870.06	14275
870.19	14541
870.32	14537
870.45	14598
870.58	14689
870.71	14701
870.84	14701
870.97	14682
871.1	14579
871.23	14781
871.36	14807
871.489	14720
871.619	14830
871.749	14724
871.879	14823
872.008	14944
872.138	14883
872.267	14762
872.397	14636
872.526	14689
872.656	14621
872.785	14594
872.915	14868
873.044	14891
873.173	14883
873.303	14948
873.432	14864
873.561	14971
873.69	14777
873.819	14823
873.948	14986
874.077	14857
874.206	14876
874.335	14880
874.464	14986
874.593	15119
874.722	15195
874.851	15264
874.979	15195
875.108	15302
875.237	15165
875.365	15047
875.494	15146
875.623	15237
875.751	15036
875.88	15188
876.008	15424
876.136	15412
876.265	15587
876.393	15804
876.521	15739
876.65	15671
876.778	15580
876.906	15549
877.034	15576
877.162	15584
877.29	15553
877.418	15652
877.546	15584
877.674	15485
877.802	15610
877.93	15545
878.058	15557
878.185	15431
878.313	15557
878.441	15618
878.568	15435
878.696	15488
878.824	15545
878.951	15728
879.079	15785
879.206	15903
879.333	15732
879.461	15641
879.588	15698
879.715	15709
879.842	15926
879.97	15587
880.097	15389
880.224	15458
880.351	15534
880.478	15412
880.605	15370
880.732	15428
880.859	15739
880.986	15481
881.112	15466
881.239	15420
881.366	15252
881.493	15180
881.619	15104
881.746	15173
881.872	15112
881.999	15173
882.125	15009
882.252	15097
882.378	15108
882.505	15332
882.631	14986
882.757	15005
882.883	14944
883.01	14986
883.136	14864
883.262	14883
883.388	14762
883.514	14937
883.64	14941
883.766	14834
883.892	14765
884.018	14731
884.143	14853
884.269	15043
884.395	14682
884.52	14659
884.646	14621
884.772	14518
884.897	14537
885.023	14636
885.148	14720
885.274	14777
885.399	14651
885.524	14629
885.65	14606
885.775	14617
885.9	14636
886.025	14743
886.15	14655
886.275	14667
886.4	14598
886.525	14659
886.65	14594
886.775	14526
886.9	14754
887.025	14864
887.149	14575
887.274	14438
887.399	14408
887.523	14495
887.648	14499
887.773	14507
887.897	14533
888.021	14545
888.146	14446
888.27	14537
888.395	14571
888.519	14541
888.643	14507
888.767	14564
888.891	14362
889.015	14381
889.139	14336
889.263	14336
889.387	14389
889.511	14473
889.635	14438
889.759	14404
889.883	14324
890.006	14415
890.13	14427
890.254	14290
890.377	14305
890.501	14157
890.624	14046
890.748	14157
890.871	14062
890.995	14008
891.118	13921
891.241	14088
891.364	14039
891.488	14123
891.611	13970
891.734	13997
891.857	14100
891.98	14043
892.103	14088
892.226	14024
892.349	13902
892.471	13849
892.594	14054
892.717	14046
892.839	14054
892.962	14016
893.085	14142
893.207	14054
893.33	13871
893.452	13997
893.575	14069
893.697	13978
893.819	14256
893.941	14263
894.064	14191
894.186	13955
894.308	14016
894.43	14229
894.552	14237
894.674	14237
894.796	13974
894.918	14107
895.04	14050
895.161	14126
895.283	14119
895.405	14183
895.526	14088
895.648	14096
895.769	14130
895.891	14153
896.012	14240
896.134	14206
896.255	14221
896.376	14210
896.498	14221
896.619	14244
896.74	14210
896.861	14229
896.982	14594
897.103	14686
897.224	14583
897.345	14484
897.466	14438
897.587	14499
897.708	14533
897.828	14537
897.949	14412
898.07	14351
898.19	14495
898.311	14503
898.431	14552
898.552	14545
898.672	14560
898.792	14549
898.913	14583
899.033	14507
899.153	14404
899.273	14298
899.393	14446
899.513	14465
899.633	14393
899.753	14495
899.873	14404
899.993	14507
900.113	14461
900.232	14450
900.352	14400
900.472	14298
900.591	14317
900.711	14263
900.83	14263
900.95	14336
901.069	14358
901.189	14275
901.308	13951
901.427	13959
901.546	13982
901.665	13967
901.784	13936
901.904	13883
902.023	13784
902.141	13601
902.26	13590
902.379	13636
902.498	13491
902.617	13483
902.735	13605
902.854	13548
902.973	13434
903.091	13263
903.21	13228
903.328	13308
903.446	13194
903.565	13107
903.683	13141
903.801	13023
903.919	13076
904.038	13152
904.156	12875
904.274	12932
904.392	12871
904.51	12935
904.627	12928
904.745	12939
904.863	12901
904.981	12658
905.098	12555
905.216	12608
905.334	12597
905.451	12532
905.569	12604
905.686	12688
905.803	12639
905.921	12395
906.038	12570
906.155	12414
906.272	12243
906.389	12376
906.506	12232
906.623	12197
906.74	12190
906.857	12125
906.974	12186
907.091	12239
907.208	12296
907.324	12224
907.441	12102
907.557	11992
907.674	11973
907.79	11851
907.907	11870
908.023	11893
908.139	11969
908.256	11855
908.372	11824
908.488	11851
908.604	11710
908.72	11642
908.836	11699
908.952	11630
909.068	11729
909.184	11775
909.3	11767
909.415	11737
909.531	11737
909.647	11482
909.762	11497
909.878	11539
909.993	11490
910.108	11509
910.224	11486
910.339	11532
910.454	11337
910.57	11299
910.685	11315
910.8	11608
910.915	11493
911.03	11360
911.145	11185
911.259	11166
911.374	11178
911.489	11033
911.604	11071
911.718	10995
911.833	10957
911.947	10854
912.062	10816
912.176	10965
912.291	10965
912.405	10927
912.519	11067
912.633	11102
912.748	10991
912.862	10968
912.976	10869
913.09	10744
913.204	10672
913.318	10786
913.431	10957
913.545	10919
913.659	10961
913.772	10805
913.886	10672
914	10622
914.113	10771
914.226	10889
914.34	10748
914.453	10641
914.566	10763
914.68	10672
914.793	10599
914.906	10459
915.019	10421
915.132	10413
915.245	10379
915.358	10447
915.47	10466
915.583	10451
915.696	10485
915.809	10508
915.921	10588
916.034	10325
916.146	10428
916.259	10348
916.371	10409
916.483	10500
916.595	10379
916.708	10310
916.82	10398
916.932	10295
917.044	10382
917.156	10386
917.268	10230
917.38	10287
917.491	10204
917.603	10299
917.715	10402
917.826	10398
917.938	10295
918.049	10192
918.161	10276
918.272	10478
918.384	10398
918.495	10310
918.606	10067
918.717	10128
918.828	10173
918.939	10219
919.05	10105
919.161	10112
919.272	9972
919.383	10040
919.494	10215
919.604	10276
919.715	10177
919.826	10101
919.936	10150
920.047	10200
920.157	10173
920.267	10398
920.378	10154
920.488	10166
920.598	10436
920.708	10500
920.818	10348
920.928	10398
921.038	10558
921.148	10459
921.258	10253
921.368	10078
921.477	10059
921.587	10032
921.697	9949
921.806	10013
921.916	9888
922.025	9800
922.134	9747
922.244	9698
922.353	9759
922.462	9549
922.571	9622
922.68	9329
922.789	9386
922.898	9458
923.007	9450
923.116	9504
923.224	9386
923.333	9405
923.442	9256
923.55	9340
923.659	9321
923.767	9447
923.876	9245
923.984	9348
924.092	9264
924.201	9348
924.309	9264
924.417	9325
924.525	9218
924.633	9230
924.741	10196
924.849	9009
924.956	9279
925.064	9127
925.172	9028
925.279	9074
925.387	9104
925.494	9131
925.602	9233
925.709	9161
925.816	9009
925.924	9070
926.031	9116
926.138	9119
926.245	9157
926.352	9017
926.459	9165
926.566	9180
926.673	8994
926.779	8887
926.886	8963
926.993	8758
927.099	8762
927.206	8743
927.312	8746
927.419	8819
927.525	8819
927.631	8777
927.737	8739
927.843	8716
927.95	8610
928.056	8636
928.162	8766
928.267	8674
928.373	9195
928.479	8834
928.585	8499
928.69	8739
928.796	8727
928.901	8606
929.007	8484
929.112	8617
929.218	8579
929.323	8537
929.428	8537
929.533	8644
929.638	8480
929.743	8503
929.848	8541
929.953	8507
930.058	8454
930.163	8233
930.267	8351
930.372	8454
930.477	8259
930.581	8484
930.685	8400
930.79	8221
930.894	8290
930.998	8206
931.103	8355
931.207	8077
931.311	7989
931.415	7947
931.519	7708
931.623	7788
