Data from test_V78500241_2605.txt Node
Date: Fri Mar 25 14:51:51 CST 2022
User: usil
Spectrometer: V785-0024
Trigger mode: 0
Integration Time (sec): 4.000000E-1
Scans to average: 1
Nonlinearity correction enabled: false
Boxcar width: 0
Storing dark spectrum: false
XAxis mode: Wavelengths
Number of Pixels in Spectrum: 1024
>>>>>Begin Spectral Data<<<<<
801.071	22128
801.214	21895
801.356	21671
801.499	21557
801.641	21370
801.783	21389
801.926	21454
802.068	21332
802.211	21332
802.353	21165
802.496	20952
802.638	20876
802.78	20788
802.923	20845
803.065	20716
803.208	20655
803.35	20625
803.492	20834
803.635	20708
803.777	20708
803.919	20891
804.061	21077
804.204	20765
804.346	20743
804.488	20629
804.63	20663
804.773	20594
804.915	20716
805.057	20735
805.199	20579
805.341	20800
805.483	20815
805.626	20686
805.768	20511
805.91	20632
806.052	20682
806.194	20518
806.336	20838
806.478	20564
806.62	20625
806.762	20682
806.904	20724
807.046	20982
807.188	20914
807.33	20925
807.472	21043
807.614	20883
807.756	20861
807.898	20937
808.04	20568
808.182	20678
808.324	20701
808.465	20804
808.607	20952
808.749	21066
808.891	21108
809.033	21184
809.174	21017
809.316	20948
809.458	20994
809.6	20998
809.741	20948
809.883	21036
810.025	21161
810.166	21161
810.308	21169
810.45	21074
810.591	20910
810.733	20845
810.875	20891
811.016	20674
811.158	20514
811.299	20765
811.441	20868
811.582	20891
811.724	20754
811.865	20663
812.007	20804
812.148	20807
812.29	20697
812.431	20929
812.573	21077
812.714	21173
812.855	21279
812.997	21298
813.138	21553
813.279	21393
813.421	21313
813.562	21043
813.703	21036
813.845	20891
813.986	20644
814.127	20358
814.268	20438
814.41	20328
814.551	20324
814.692	20301
814.833	20313
814.974	20271
815.115	20233
815.256	20180
815.397	20130
815.539	20168
815.68	20065
815.821	19947
815.962	20001
816.103	19982
816.244	19830
816.385	19818
816.526	19776
816.666	19655
816.807	19308
816.948	19441
817.089	19594
817.23	19403
817.371	19487
817.512	19453
817.653	19430
817.793	19369
817.934	19445
818.075	19426
818.216	19468
818.356	19324
818.497	19221
818.638	19019
818.778	19046
818.919	19129
819.06	19126
819.2	19244
819.341	19369
819.481	19320
819.622	19445
819.762	19658
819.903	19537
820.043	19453
820.184	19468
820.324	19422
820.465	19445
820.605	19365
820.746	19400
820.886	19225
821.026	19457
821.167	19312
821.307	19354
821.447	19301
821.588	19213
821.728	19099
821.868	18970
822.008	18935
822.149	18741
822.289	18795
822.429	18604
822.569	18551
822.709	18612
822.849	18292
822.99	18304
823.13	18300
823.27	18220
823.41	18197
823.55	18068
823.69	18076
823.83	18163
823.97	18072
824.11	17996
824.25	17889
824.389	17977
824.529	17969
824.669	17824
824.809	18019
824.949	17961
825.089	18022
825.228	17847
825.368	17775
825.508	17714
825.648	17627
825.787	17748
825.927	17684
826.067	17615
826.206	17611
826.346	17672
826.485	17646
826.625	17581
826.765	17756
826.904	17729
827.044	17459
827.183	17406
827.323	17318
827.462	17372
827.601	17395
827.741	17364
827.88	17436
828.02	17189
828.159	17379
828.298	17318
828.437	17490
828.577	17288
828.716	17455
828.855	17376
828.994	17216
829.134	17170
829.273	17223
829.412	17204
829.551	17060
829.69	17117
829.829	17128
829.968	17322
830.107	17284
830.246	17197
830.385	17162
830.524	17132
830.663	17090
830.802	16881
830.941	16778
831.08	16801
831.219	16949
831.357	16820
831.496	16984
831.635	16706
831.774	16713
831.913	16641
832.051	16592
832.19	16618
832.329	16649
832.467	16538
832.606	16382
832.744	16493
832.883	16329
833.022	16413
833.16	16470
833.299	16508
833.437	16489
833.576	16519
833.714	16622
833.852	16500
833.991	16481
834.129	16710
834.267	16542
834.406	16607
834.544	16531
834.682	16542
834.821	16493
834.959	16717
835.097	16565
835.235	16615
835.373	16512
835.511	16615
835.65	16459
835.788	16493
835.926	16291
836.064	16215
836.202	16242
836.34	16504
836.478	16527
836.615	16443
836.753	16405
836.891	16417
837.029	16481
837.167	16379
837.305	16363
837.443	16348
837.58	16280
837.718	16405
837.856	16394
837.993	16291
838.131	16284
838.269	16325
838.406	16223
838.544	16207
838.681	15926
838.819	15975
838.956	15865
839.094	15800
839.231	15926
839.369	16036
839.506	16272
839.643	15991
839.781	15850
839.918	15831
840.055	15892
840.193	15869
840.33	15892
840.467	15857
840.604	15838
840.742	16097
840.879	15759
841.016	15774
841.153	15694
841.29	15960
841.427	15816
841.564	15949
841.701	15876
841.838	15755
841.975	15842
842.112	15819
842.249	15698
842.385	15568
842.522	15774
842.659	15713
842.796	15698
842.933	15603
843.069	15580
843.206	15610
843.343	15694
843.479	15648
843.616	15663
843.752	15447
843.889	15389
844.025	15561
844.162	15416
844.298	15450
844.435	15530
844.571	15431
844.708	15424
844.844	15591
844.98	15694
845.117	15637
845.253	15351
845.389	15291
845.525	15344
845.661	15321
845.798	15199
845.934	15260
846.07	15283
846.206	15336
846.342	15310
846.478	15233
846.614	14944
846.75	15051
846.886	14979
847.022	15108
847.158	15058
847.294	15085
847.429	14941
847.565	15043
847.701	15233
847.837	14693
847.972	14705
848.108	14826
848.244	14807
848.379	14735
848.515	14632
848.65	14507
848.786	14693
848.921	14678
849.057	14762
849.192	14701
849.328	14769
849.463	14613
849.598	14545
849.734	14499
849.869	14514
850.004	14438
850.14	14507
850.275	14404
850.41	14248
850.545	14309
850.68	14374
850.815	14400
850.95	14419
851.085	14549
851.22	14476
851.355	14358
851.49	14309
851.625	14385
851.76	14320
851.895	14309
852.03	14267
852.165	14320
852.299	14362
852.434	14476
852.569	14522
852.703	14317
852.838	14385
852.973	14503
853.107	14545
853.242	14298
853.376	14294
853.511	14157
853.645	14259
853.78	14336
853.914	14221
854.048	14161
854.183	14191
854.317	14221
854.451	14358
854.585	14240
854.72	14187
854.854	14290
854.988	14191
855.122	14221
855.256	14145
855.39	14278
855.524	14248
855.658	14305
855.792	14225
855.926	14298
856.06	14278
856.194	14332
856.327	14252
856.461	14180
856.595	14119
856.729	14233
856.862	14332
856.996	14286
857.13	14286
857.263	14256
857.397	14248
857.53	14343
857.664	14336
857.797	14434
857.931	14385
858.064	14309
858.197	14351
858.331	14282
858.464	14199
858.597	13986
858.731	14309
858.864	14286
858.997	14256
859.13	14347
859.263	14263
859.396	14263
859.529	14164
859.662	14225
859.795	14225
859.928	14328
860.061	14438
860.194	14370
860.327	14206
860.46	14278
860.592	14351
860.725	14389
860.858	14370
860.99	14294
861.123	14107
861.256	14199
861.388	14275
861.521	14895
861.653	14123
861.786	14111
861.918	14168
862.05	14103
862.183	14195
862.315	14225
862.447	14313
862.58	14263
862.712	14073
862.844	13970
862.976	14046
863.108	14069
863.24	14537
863.372	14001
863.504	14012
863.636	13940
863.768	14088
863.9	14062
864.032	13959
864.164	13963
864.296	14088
864.428	14107
864.559	14073
864.691	14073
864.823	14126
864.954	14084
865.086	13982
865.217	13928
865.349	13883
865.48	14039
865.612	13993
865.743	14180
865.875	13974
866.006	14020
866.137	14092
866.269	14043
866.4	14016
866.531	13974
866.662	13986
866.793	13963
866.924	13970
867.055	14077
867.186	13997
867.317	13925
867.448	13864
867.579	13986
867.71	13970
867.841	13978
867.972	13963
868.103	13944
868.233	13959
868.364	14012
868.495	14092
868.625	14199
868.756	14358
868.886	14210
869.017	14225
869.147	14412
869.278	14396
869.408	14267
869.539	14176
869.669	14370
869.799	14305
869.929	14381
870.06	14358
870.19	14602
870.32	14549
870.45	14663
870.58	14648
870.71	14731
870.84	14777
870.97	14571
871.1	14610
871.23	14887
871.36	14887
871.489	14804
871.619	14796
871.749	14876
871.879	14902
872.008	14895
872.138	14872
872.267	14883
872.397	14686
872.526	14697
872.656	14689
872.785	14674
872.915	14921
873.044	14952
873.173	14941
873.303	14937
873.432	14963
873.561	14906
873.69	14925
873.819	14864
873.948	15001
874.077	14861
874.206	14941
874.335	14994
874.464	15009
874.593	15291
874.722	15108
874.851	15268
874.979	15214
875.108	15245
875.237	15184
875.365	15207
875.494	15241
875.623	15283
875.751	15188
875.88	15260
876.008	15420
876.136	15397
876.265	15648
876.393	15728
876.521	15774
876.65	15698
876.778	15709
876.906	15648
877.034	15618
877.162	15595
877.29	15481
877.418	15622
877.546	15682
877.674	15713
877.802	15507
877.93	15667
878.058	15504
878.185	15606
878.313	15542
878.441	15709
878.568	15447
878.696	15610
878.824	15637
878.951	15595
879.079	15838
879.206	15892
879.333	15804
879.461	15652
879.588	15671
879.715	15812
879.842	15964
879.97	15686
880.097	15496
880.224	15477
880.351	15458
880.478	15580
880.605	15462
880.732	15504
880.859	15728
880.986	15523
881.112	15454
881.239	15332
881.366	15317
881.493	15157
881.619	15097
881.746	15173
881.872	15268
881.999	15184
882.125	15058
882.252	15272
882.378	15192
882.505	15310
882.631	15043
882.757	14853
882.883	14929
883.01	14971
883.136	14864
883.262	14914
883.388	14830
883.514	15043
883.64	15077
883.766	14868
883.892	14735
884.018	14830
884.143	15001
884.269	14944
884.395	14682
884.52	14636
884.646	14739
884.772	14644
884.897	14564
885.023	14693
885.148	14754
885.274	14845
885.399	14750
885.524	14560
885.65	14606
885.775	14720
885.9	14792
886.025	14765
886.15	14731
886.275	14617
886.4	14571
886.525	14655
886.65	14533
886.775	14507
886.9	14743
887.025	14929
887.149	14708
887.274	14492
887.399	14408
887.523	14461
887.648	14454
887.773	14366
887.897	14480
888.021	14537
888.146	14533
888.27	14579
888.395	14575
888.519	14564
888.643	14552
888.767	14492
888.891	14431
889.015	14457
889.139	14358
889.263	14336
889.387	14476
889.511	14564
889.635	14511
889.759	14301
889.883	14355
890.006	14412
890.13	14473
890.254	14282
890.377	14328
890.501	14168
890.624	14119
890.748	14252
890.871	14119
890.995	14062
891.118	13963
891.241	13993
891.364	14024
891.488	14172
891.611	14054
891.734	14035
891.857	14107
891.98	14088
892.103	14081
892.226	14103
892.349	14016
892.471	13852
892.594	14050
892.717	14024
892.839	14035
892.962	14176
893.085	14103
893.207	14039
893.33	14027
893.452	13917
893.575	14073
893.697	13951
893.819	14244
893.941	14149
894.064	14267
894.186	13890
894.308	13989
894.43	14149
894.552	14252
894.674	14164
894.796	14058
894.918	14035
895.04	14054
895.161	14256
895.283	14164
895.405	14130
895.526	14153
895.648	14202
895.769	14259
895.891	14202
896.012	14336
896.134	14233
896.255	14180
896.376	14142
896.498	14183
896.619	14263
896.74	14298
896.861	14286
896.982	14659
897.103	14678
897.224	14503
897.345	14412
897.466	14465
897.587	14560
897.708	14526
897.828	14621
897.949	14419
898.07	14396
898.19	14450
898.311	14625
898.431	14571
898.552	14598
898.672	14632
898.792	14682
898.913	14636
899.033	14568
899.153	14514
899.273	14415
899.393	14431
899.513	14434
899.633	14404
899.753	14400
899.873	14301
899.993	14442
900.113	14446
900.232	14473
900.352	14423
900.472	14389
900.591	14259
900.711	14313
900.83	14202
900.95	14450
901.069	14347
901.189	14267
901.308	14012
901.427	13944
901.546	13986
901.665	13928
901.784	13967
901.904	13803
902.023	13811
902.141	13544
902.26	13578
902.379	13601
902.498	13419
902.617	13533
902.735	13578
902.854	13483
902.973	13388
903.091	13327
903.21	13263
903.328	13266
903.446	13240
903.565	13198
903.683	13175
903.801	13050
903.919	13069
904.038	13015
904.156	12875
904.274	12947
904.392	12894
904.51	12920
904.627	12863
904.745	12958
904.863	13046
904.981	12715
905.098	12589
905.216	12627
905.334	12555
905.451	12684
905.569	12631
905.686	12707
905.803	12715
905.921	12521
906.038	12578
906.155	12490
906.272	12365
906.389	12426
906.506	12251
906.623	12213
906.74	12228
906.857	12129
906.974	12152
907.091	12239
907.208	12350
907.324	12178
907.441	12209
907.557	11988
907.674	11882
907.79	11920
907.907	11889
908.023	11939
908.139	11950
908.256	11878
908.372	11870
908.488	11821
908.604	11756
908.72	11672
908.836	11722
908.952	11688
909.068	11703
909.184	11809
909.3	11691
909.415	11710
909.531	11764
909.647	11486
909.762	11501
909.878	11490
909.993	11539
910.108	11471
910.224	11455
910.339	11482
910.454	11383
910.57	11364
910.685	11273
910.8	11566
910.915	11459
911.03	11406
911.145	11174
911.259	11147
911.374	11223
911.489	11128
911.604	11109
911.718	11025
911.833	11003
911.947	10915
912.062	10748
912.176	11037
912.291	10938
912.405	10934
912.519	11170
912.633	11147
912.748	11006
912.862	10930
912.976	10782
913.09	10710
913.204	10793
913.318	10862
913.431	10900
913.545	10923
913.659	10972
913.772	10797
913.886	10714
914	10717
914.113	10767
914.226	10877
914.34	10919
914.453	10607
914.566	10767
914.68	10687
914.793	10634
914.906	10493
915.019	10436
915.132	10386
915.245	10413
915.358	10474
915.47	10466
915.583	10455
915.696	10470
915.809	10580
915.921	10546
916.034	10497
916.146	10440
916.259	10409
916.371	10523
916.483	10546
916.595	10382
916.708	10371
916.82	10390
916.932	10436
917.044	10337
917.156	10284
917.268	10272
917.38	10314
917.491	10253
917.603	10261
917.715	10379
917.826	10398
917.938	10207
918.049	10181
918.161	10299
918.272	10451
918.384	10424
918.495	10287
918.606	10150
918.717	10128
918.828	10105
918.939	10242
919.05	10101
919.161	10166
919.272	9949
919.383	10029
919.494	10242
919.604	10325
919.715	10181
919.826	10135
919.936	10086
920.047	10215
920.157	10200
920.267	10394
920.378	10253
920.488	10124
920.598	10352
920.708	10546
920.818	10367
920.928	10325
921.038	10535
921.148	10421
921.258	10192
921.368	10131
921.477	10036
921.587	10032
921.697	9979
921.806	10048
921.916	9968
922.025	9774
922.134	9747
922.244	9755
922.353	9781
922.462	9625
922.571	9553
922.68	9534
922.789	9435
922.898	9458
923.007	9473
923.116	9534
923.224	9469
923.333	9428
923.442	9359
923.55	9306
923.659	9325
923.767	9340
923.876	9340
923.984	9329
924.092	9214
924.201	9287
924.309	9268
924.417	9321
924.525	9245
924.633	9268
924.741	9987
924.849	9058
924.956	9306
925.064	9081
925.172	9024
925.279	8994
925.387	9062
925.494	9165
925.602	9237
925.709	9188
925.816	9047
925.924	9100
926.031	9249
926.138	9180
926.245	9173
926.352	9009
926.459	9112
926.566	9207
926.673	8982
926.779	9024
926.886	8895
926.993	8781
927.099	8826
927.206	8750
927.312	8766
927.419	8876
927.525	8857
927.631	8823
927.737	8693
927.843	8663
927.95	8636
928.056	8632
928.162	8644
928.267	8864
928.373	9367
928.479	8826
928.585	8495
928.69	8667
928.796	8766
928.901	8632
929.007	8492
929.112	8629
929.218	8640
929.323	8587
929.428	8533
929.533	8598
929.638	8473
929.743	8533
929.848	8526
929.953	8541
930.058	8457
930.163	8305
930.267	8282
930.372	8450
930.477	8202
930.581	8454
930.685	8332
930.79	8275
930.894	8355
930.998	8202
931.103	8343
931.207	8046
931.311	7951
931.415	7932
931.519	7734
931.623	7723
