Data from test_V78500241_3104.txt Node
Date: Fri Mar 25 14:55:19 CST 2022
User: usil
Spectrometer: V785-0024
Trigger mode: 0
Integration Time (sec): 4.000000E-1
Scans to average: 1
Nonlinearity correction enabled: false
Boxcar width: 0
Storing dark spectrum: false
XAxis mode: Wavelengths
Number of Pixels in Spectrum: 1024
>>>>>Begin Spectral Data<<<<<
801.071	22128
801.214	21983
801.356	21827
801.499	21587
801.641	21519
801.783	21450
801.926	21488
802.068	21428
802.211	21340
802.353	21211
802.496	21005
802.638	20952
802.78	20834
802.923	20853
803.065	20667
803.208	20682
803.35	20823
803.492	20777
803.635	20845
803.777	20792
803.919	20902
804.061	21104
804.204	20781
804.346	20651
804.488	20602
804.63	20739
804.773	20594
804.915	20651
805.057	20857
805.199	20712
805.341	20743
805.483	20765
805.626	20788
805.768	20594
805.91	20777
806.052	20640
806.194	20530
806.336	20792
806.478	20682
806.62	20640
806.762	20724
806.904	20819
807.046	21150
807.188	21043
807.33	20998
807.472	21047
807.614	20864
807.756	21009
807.898	20785
808.04	20659
808.182	20826
808.324	20796
808.465	20712
808.607	20971
808.749	20975
808.891	21207
809.033	21192
809.174	21100
809.316	20971
809.458	21039
809.6	21043
809.741	20956
809.883	21074
810.025	21245
810.166	21199
810.308	21230
810.45	21199
810.591	21013
810.733	20975
810.875	20857
811.016	20705
811.158	20716
811.299	20929
811.441	20990
811.582	20956
811.724	20769
811.865	20762
812.007	20811
812.148	20849
812.29	20746
812.431	20864
812.573	21066
812.714	21188
812.855	21359
812.997	21511
813.138	21507
813.279	21397
813.421	21294
813.562	21104
813.703	21074
813.845	20899
813.986	20674
814.127	20465
814.268	20427
814.41	20518
814.551	20366
814.692	20298
814.833	20313
814.974	20294
815.115	20415
815.256	20240
815.397	20218
815.539	20298
815.68	20225
815.821	20138
815.962	20157
816.103	20103
816.244	19978
816.385	19883
816.526	19864
816.666	19670
816.807	19514
816.948	19662
817.089	19476
817.23	19582
817.371	19396
817.512	19495
817.653	19540
817.793	19369
817.934	19590
818.075	19453
818.216	19480
818.356	19384
818.497	19247
818.638	19232
818.778	19179
818.919	19061
819.06	19145
819.2	19282
819.341	19400
819.481	19247
819.622	19468
819.762	19594
819.903	19563
820.043	19601
820.184	19537
820.324	19403
820.465	19556
820.605	19438
820.746	19491
820.886	19411
821.026	19445
821.167	19346
821.307	19518
821.447	19392
821.588	19164
821.728	19122
821.868	18985
822.008	18863
822.149	18943
822.289	18776
822.429	18631
822.569	18502
822.709	18646
822.849	18304
822.99	18300
823.13	18384
823.27	18311
823.41	18205
823.55	18178
823.69	18136
823.83	18163
823.97	18110
824.11	18011
824.25	17904
824.389	18045
824.529	18079
824.669	17916
824.809	18068
824.949	18034
825.089	18140
825.228	17912
825.368	17752
825.508	17653
825.648	17794
825.787	17798
825.927	17802
826.067	17775
826.206	17657
826.346	17821
826.485	17794
826.625	17649
826.765	17901
826.904	17745
827.044	17554
827.183	17429
827.323	17368
827.462	17501
827.601	17398
827.741	17497
827.88	17436
828.02	17258
828.159	17311
828.298	17486
828.437	17398
828.577	17307
828.716	17520
828.855	17303
828.994	17204
829.134	17250
829.273	17254
829.412	17212
829.551	17090
829.69	17109
829.829	17258
829.968	17227
830.107	17178
830.246	17246
830.385	17067
830.524	17079
830.663	16957
830.802	16927
830.941	16782
831.08	16736
831.219	16831
831.357	16881
831.496	17033
831.635	16786
831.774	16687
831.913	16744
832.051	16466
832.19	16542
832.329	16561
832.467	16523
832.606	16447
832.744	16428
832.883	16474
833.022	16478
833.16	16375
833.299	16577
833.437	16489
833.576	16542
833.714	16516
833.852	16531
833.991	16558
834.129	16702
834.267	16512
834.406	16500
834.544	16569
834.682	16424
834.821	16451
834.959	16668
835.097	16607
835.235	16596
835.373	16519
835.511	16554
835.65	16466
835.788	16398
835.926	16173
836.064	16226
836.202	16177
836.34	16512
836.478	16546
836.615	16409
836.753	16375
836.891	16527
837.029	16519
837.167	16405
837.305	16310
837.443	16268
837.58	16234
837.718	16409
837.856	16253
837.993	16219
838.131	16382
838.269	16169
838.406	16192
838.544	16181
838.681	16021
838.819	15934
838.956	15838
839.094	15873
839.231	15926
839.369	15911
839.506	16169
839.643	16158
839.781	15895
839.918	15861
840.055	15884
840.193	15915
840.33	15842
840.467	15812
840.604	15869
840.742	16120
840.879	15709
841.016	15831
841.153	15652
841.29	16048
841.427	15880
841.564	15869
841.701	15819
841.838	15736
841.975	15762
842.112	15850
842.249	15561
842.385	15534
842.522	15766
842.659	15686
842.796	15648
842.933	15641
843.069	15572
843.206	15545
843.343	15751
843.479	15648
843.616	15698
843.752	15382
843.889	15370
844.025	15561
844.162	15268
844.298	15511
844.435	15416
844.571	15359
844.708	15428
844.844	15614
844.98	15572
845.117	15469
845.253	15302
845.389	15279
845.525	15340
845.661	15355
845.798	15275
845.934	15287
846.07	15188
846.206	15260
846.342	15416
846.478	15230
846.614	15017
846.75	14880
846.886	14880
847.022	15066
847.158	15024
847.294	15036
847.429	15055
847.565	14906
847.701	15169
847.837	14712
847.972	14556
848.108	14777
848.244	14868
848.379	14594
848.515	14613
848.65	14499
848.786	14526
848.921	14613
849.057	14693
849.192	14693
849.328	14579
849.463	14648
849.598	14568
849.734	14507
849.869	14419
850.004	14385
850.14	14381
850.275	14309
850.41	14263
850.545	14271
850.68	14313
850.815	14366
850.95	14393
851.085	14446
851.22	14408
851.355	14438
851.49	14339
851.625	14244
851.76	14286
851.895	14256
852.03	14210
852.165	14309
852.299	14358
852.434	14495
852.569	14396
852.703	14355
852.838	14442
852.973	14545
853.107	14381
853.242	14362
853.376	14248
853.511	14100
853.645	14168
853.78	14377
853.914	14218
854.048	14244
854.183	14069
854.317	14233
854.451	14389
854.585	14195
854.72	14195
854.854	14275
854.988	14084
855.122	14210
855.256	14031
855.39	14149
855.524	14301
855.658	14233
855.792	14336
855.926	14256
856.06	14282
856.194	14355
856.327	14168
856.461	14123
856.595	14168
856.729	14172
856.862	14305
856.996	14248
857.13	14256
857.263	14336
857.397	14358
857.53	14161
857.664	14294
857.797	14332
857.931	14336
858.064	14275
858.197	14309
858.331	14138
858.464	14103
858.597	14100
858.731	14134
858.864	14191
858.997	14233
859.13	14126
859.263	14195
859.396	14229
859.529	14206
859.662	14138
859.795	14180
859.928	14229
860.061	14438
860.194	14294
860.327	14218
860.46	14153
860.592	14339
860.725	14286
860.858	14278
860.99	14180
861.123	14035
861.256	14111
861.388	14195
861.521	14838
861.653	14100
861.786	14031
861.918	14126
862.05	14130
862.183	14176
862.315	14206
862.447	14225
862.58	14134
862.712	13928
862.844	13909
862.976	13978
863.108	13997
863.24	14381
863.372	13909
863.504	13974
863.636	13864
863.768	13997
863.9	14001
864.032	13928
864.164	13913
864.296	14031
864.428	14199
864.559	13989
864.691	14115
864.823	14039
864.954	13936
865.086	14054
865.217	13989
865.349	13852
865.48	13967
865.612	13947
865.743	14100
865.875	13986
866.006	14016
866.137	13989
866.269	14100
866.4	13928
866.531	13932
866.662	14005
866.793	13921
866.924	13947
867.055	13959
867.186	13959
867.317	13967
867.448	13841
867.579	13894
867.71	13928
867.841	13841
867.972	14020
868.103	14024
868.233	13917
868.364	14062
868.495	14088
868.625	14206
868.756	14221
868.886	14176
869.017	14168
869.147	14415
869.278	14336
869.408	14206
869.539	14126
869.669	14419
869.799	14282
869.929	14339
870.06	14366
870.19	14552
870.32	14423
870.45	14568
870.58	14617
870.71	14644
870.84	14826
870.97	14617
871.1	14663
871.23	14815
871.36	14796
871.489	14670
871.619	14701
871.749	14792
871.879	14792
872.008	14861
872.138	14887
872.267	14724
872.397	14667
872.526	14617
872.656	14640
872.785	14625
872.915	14891
873.044	14883
873.173	14777
873.303	14910
873.432	14895
873.561	14933
873.69	14815
873.819	14792
873.948	14929
874.077	14785
874.206	14773
874.335	14861
874.464	14990
874.593	15138
874.722	15032
874.851	15226
874.979	15272
875.108	15169
875.237	15188
875.365	15161
875.494	15077
875.623	15241
875.751	15135
875.88	15188
876.008	15370
876.136	15424
876.265	15568
876.393	15797
876.521	15637
876.65	15709
876.778	15633
876.906	15572
877.034	15568
877.162	15469
877.29	15564
877.418	15663
877.546	15584
877.674	15743
877.802	15504
877.93	15671
878.058	15488
878.185	15538
878.313	15587
878.441	15591
878.568	15466
878.696	15595
878.824	15591
878.951	15629
879.079	15838
879.206	15987
879.333	15797
879.461	15591
879.588	15762
879.715	15827
879.842	15907
879.97	15785
880.097	15447
880.224	15386
880.351	15466
880.478	15412
880.605	15477
880.732	15492
880.859	15667
880.986	15519
881.112	15424
881.239	15401
881.366	15192
881.493	15180
881.619	15119
881.746	15176
881.872	15024
881.999	15146
882.125	15077
882.252	15165
882.378	15165
882.505	15199
882.631	14990
882.757	14853
882.883	15062
883.01	14990
883.136	14849
883.262	14849
883.388	14781
883.514	14906
883.64	14971
883.766	14891
883.892	14762
884.018	14785
884.143	14891
884.269	14933
884.395	14701
884.52	14575
884.646	14689
884.772	14579
884.897	14423
885.023	14610
885.148	14739
885.274	14788
885.399	14693
885.524	14686
885.65	14689
885.775	14583
885.9	14636
886.025	14758
886.15	14727
886.275	14636
886.4	14571
886.525	14564
886.65	14545
886.775	14575
886.9	14758
887.025	14834
887.149	14564
887.274	14495
887.399	14438
887.523	14377
887.648	14294
887.773	14294
887.897	14518
888.021	14492
888.146	14492
888.27	14541
888.395	14495
888.519	14533
888.643	14492
888.767	14545
888.891	14305
889.015	14343
889.139	14377
889.263	14282
889.387	14511
889.511	14526
889.635	14275
889.759	14385
889.883	14256
890.006	14370
890.13	14396
890.254	14199
890.377	14180
890.501	14073
890.624	14016
890.748	14210
890.871	14046
890.995	13986
891.118	13909
891.241	14035
891.364	14088
891.488	14130
891.611	14043
891.734	14062
891.857	14107
891.98	13932
892.103	14088
892.226	14077
892.349	13906
892.471	13921
892.594	14001
892.717	13959
892.839	14016
892.962	14111
893.085	14054
893.207	14058
893.33	13928
893.452	13951
893.575	14077
893.697	13921
893.819	14259
893.941	14259
894.064	14240
894.186	14096
894.308	13967
894.43	14142
894.552	14275
894.674	14153
894.796	14084
894.918	14126
895.04	14092
895.161	14252
895.283	14107
895.405	14214
895.526	14092
895.648	13944
895.769	14191
895.891	14168
896.012	14294
896.134	14248
896.255	14278
896.376	14218
896.498	14168
896.619	14332
896.74	14252
896.861	14218
896.982	14461
897.103	14701
897.224	14442
897.345	14530
897.466	14385
897.587	14473
897.708	14541
897.828	14507
897.949	14476
898.07	14358
898.19	14355
898.311	14587
898.431	14488
898.552	14457
898.672	14667
898.792	14575
898.913	14552
899.033	14522
899.153	14404
899.273	14278
899.393	14332
899.513	14385
899.633	14495
899.753	14457
899.873	14286
899.993	14423
900.113	14343
900.232	14332
900.352	14351
900.472	14442
900.591	14210
900.711	14278
900.83	14202
900.95	14278
901.069	14286
901.189	14214
901.308	14050
901.427	14016
901.546	13909
901.665	13947
901.784	14031
901.904	13818
902.023	13784
902.141	13548
902.26	13464
902.379	13643
902.498	13514
902.617	13400
902.735	13636
902.854	13480
902.973	13457
903.091	13247
903.21	13266
903.328	13270
903.446	13152
903.565	13107
903.683	13061
903.801	12890
903.919	13110
904.038	13038
904.156	12901
904.274	12989
904.392	12875
904.51	12859
904.627	12943
904.745	12871
904.863	12958
904.981	12772
905.098	12627
905.216	12627
905.334	12525
905.451	12654
905.569	12566
905.686	12589
905.803	12601
905.921	12372
906.038	12578
906.155	12475
906.272	12213
906.389	12300
906.506	12140
906.623	12201
906.74	12152
906.857	12011
906.974	11980
907.091	12220
907.208	12304
907.324	12209
907.441	12114
907.557	11965
907.674	11961
907.79	11923
907.907	11958
908.023	11908
908.139	11954
908.256	11851
908.372	11836
908.488	11874
908.604	11726
908.72	11741
908.836	11646
908.952	11710
909.068	11634
909.184	11783
909.3	11638
909.415	11767
909.531	11710
909.647	11528
909.762	11452
909.878	11436
909.993	11459
910.108	11436
910.224	11379
910.339	11391
910.454	11368
910.57	11315
910.685	11277
910.8	11558
910.915	11505
911.03	11414
911.145	11201
911.259	11124
911.374	11102
911.489	11098
911.604	11109
911.718	10873
911.833	10923
911.947	10752
912.062	10702
912.176	10843
912.291	10953
912.405	10927
912.519	11105
912.633	11201
912.748	10987
912.862	10984
912.976	10805
913.09	10668
913.204	10824
913.318	10835
913.431	10892
913.545	10904
913.659	10915
913.772	10774
913.886	10782
914	10691
914.113	10710
914.226	10835
914.34	10820
914.453	10584
914.566	10809
914.68	10592
914.793	10607
914.906	10459
915.019	10386
915.132	10421
915.245	10417
915.358	10432
915.47	10443
915.583	10462
915.696	10516
915.809	10485
915.921	10535
916.034	10405
916.146	10371
916.259	10265
916.371	10500
916.483	10489
916.595	10325
916.708	10375
916.82	10325
916.932	10306
917.044	10344
917.156	10280
917.268	10295
917.38	10257
917.491	10268
917.603	10234
917.715	10428
917.826	10344
917.938	10238
918.049	10185
918.161	10230
918.272	10428
918.384	10386
918.495	10249
918.606	10181
918.717	10078
918.828	10158
918.939	10166
919.05	10067
919.161	10158
919.272	9922
919.383	10063
919.494	10227
919.604	10303
919.715	10215
919.826	10036
919.936	10078
920.047	10166
920.157	10162
920.267	10379
920.378	10215
920.488	10139
920.598	10341
920.708	10584
920.818	10314
920.928	10344
921.038	10500
921.148	10481
921.258	10116
921.368	10048
921.477	10105
921.587	10006
921.697	9869
921.806	10013
921.916	9903
922.025	9720
922.134	9652
922.244	9652
922.353	9770
922.462	9709
922.571	9515
922.68	9431
922.789	9405
922.898	9367
923.007	9367
923.116	9428
923.224	9477
923.333	9424
923.442	9279
923.55	9317
923.659	9298
923.767	9458
923.876	9233
923.984	9378
924.092	9218
924.201	9283
924.309	9287
924.417	9241
924.525	9253
924.633	9268
924.741	10162
924.849	9077
924.956	9203
925.064	9043
925.172	8986
925.279	8998
925.387	9127
925.494	9104
925.602	9150
925.709	9150
925.816	9020
925.924	8986
926.031	9104
926.138	9009
926.245	9116
926.352	9028
926.459	9131
926.566	9184
926.673	9001
926.779	8876
926.886	8963
926.993	8781
927.099	8754
927.206	8781
927.312	8766
927.419	8807
927.525	8781
927.631	8895
927.737	8769
927.843	8629
927.95	8541
928.056	8670
928.162	8705
928.267	8735
928.373	9195
928.479	8842
928.585	8530
928.69	8667
928.796	8739
928.901	8602
929.007	8454
929.112	8583
929.218	8617
929.323	8499
929.428	8507
929.533	8693
929.638	8507
929.743	8488
929.848	8568
929.953	8492
930.058	8415
930.163	8248
930.267	8263
930.372	8408
930.477	8256
930.581	8545
930.685	8317
930.79	8218
930.894	8191
930.998	8218
931.103	8400
931.207	8077
931.311	7928
931.415	7982
931.519	7727
931.623	7738
