Data from test_V78500241_3290.txt Node
Date: Fri Mar 25 14:56:37 CST 2022
User: usil
Spectrometer: V785-0024
Trigger mode: 0
Integration Time (sec): 4.000000E-1
Scans to average: 1
Nonlinearity correction enabled: false
Boxcar width: 0
Storing dark spectrum: false
XAxis mode: Wavelengths
Number of Pixels in Spectrum: 1024
>>>>>Begin Spectral Data<<<<<
801.071	22078
801.214	21823
801.356	21526
801.499	21557
801.641	21317
801.783	21458
801.926	21344
802.068	21249
802.211	21135
802.353	21131
802.496	20986
802.638	20796
802.78	20807
802.923	20598
803.065	20705
803.208	20689
803.35	20602
803.492	20804
803.635	20781
803.777	20629
803.919	20750
804.061	20941
804.204	20724
804.346	20644
804.488	20434
804.63	20659
804.773	20598
804.915	20602
805.057	20648
805.199	20533
805.341	20549
805.483	20670
805.626	20617
805.768	20476
805.91	20606
806.052	20640
806.194	20374
806.336	20667
806.478	20514
806.62	20469
806.762	20609
806.904	20773
807.046	20937
807.188	20861
807.33	20834
807.472	21005
807.614	20712
807.756	20731
807.898	20606
808.04	20564
808.182	20598
808.324	20545
808.465	20629
808.607	20781
808.749	20849
808.891	20948
809.033	21062
809.174	20838
809.316	20895
809.458	20914
809.6	20830
809.741	20872
809.883	20944
810.025	21039
810.166	21024
810.308	21024
810.45	20899
810.591	21062
810.733	20823
810.875	20670
811.016	20526
811.158	20606
811.299	20762
811.441	20891
811.582	20739
811.724	20727
811.865	20670
812.007	20686
812.148	20636
812.29	20686
812.431	20807
812.573	20960
812.714	21093
812.855	21207
812.997	21203
813.138	21416
813.279	21332
813.421	21020
813.562	21062
813.703	20921
813.845	20800
813.986	20514
814.127	20415
814.268	20195
814.41	20229
814.551	20221
814.692	20286
814.833	19986
814.974	20183
815.115	20225
815.256	20058
815.397	20077
815.539	20119
815.68	19871
815.821	19723
815.962	19864
816.103	19898
816.244	19765
816.385	19677
816.526	19632
816.666	19590
816.807	19384
816.948	19495
817.089	19499
817.23	19396
817.371	19270
817.512	19304
817.653	19331
817.793	19194
817.934	19373
818.075	19343
818.216	19373
818.356	19270
818.497	19202
818.638	19065
818.778	19012
818.919	19042
819.06	19069
819.2	19152
819.341	19228
819.481	19080
819.622	19335
819.762	19453
819.903	19422
820.043	19373
820.184	19430
820.324	19244
820.465	19324
820.605	19282
820.746	19255
820.886	19164
821.026	19324
821.167	19259
821.307	19297
821.447	19251
821.588	19114
821.728	18962
821.868	18837
822.008	18719
822.149	18745
822.289	18749
822.429	18540
822.569	18494
822.709	18403
822.849	18155
822.99	18060
823.13	18102
823.27	18174
823.41	18022
823.55	17992
823.69	18049
823.83	18015
823.97	17821
824.11	17805
824.25	17699
824.389	17790
824.529	17828
824.669	17809
824.809	17889
824.949	17805
825.089	17832
825.228	17859
825.368	17627
825.508	17551
825.648	17661
825.787	17714
825.927	17528
826.067	17501
826.206	17611
826.346	17589
826.485	17642
826.625	17486
826.765	17634
826.904	17524
827.044	17360
827.183	17315
827.323	17162
827.462	17379
827.601	17261
827.741	17265
827.88	17296
828.02	17216
828.159	17261
828.298	17227
828.437	17326
828.577	17231
828.716	17414
828.855	17128
828.994	17064
829.134	17086
829.273	17083
829.412	16953
829.551	16976
829.69	17056
829.829	17064
829.968	17109
830.107	17052
830.246	17037
830.385	16908
830.524	16900
830.663	16915
830.802	16805
830.941	16592
831.08	16675
831.219	16797
831.357	16759
831.496	16847
831.635	16691
831.774	16512
831.913	16432
832.051	16432
832.19	16394
832.329	16466
832.467	16390
832.606	16272
832.744	16322
832.883	16394
833.022	16257
833.16	16382
833.299	16398
833.437	16295
833.576	16402
833.714	16428
833.852	16356
833.991	16447
834.129	16485
834.267	16512
834.406	16363
834.544	16421
834.682	16443
834.821	16413
834.959	16675
835.097	16402
835.235	16546
835.373	16390
835.511	16379
835.65	16295
835.788	16291
835.926	16207
836.064	16086
836.202	16185
836.34	16379
836.478	16341
836.615	16284
836.753	16329
836.891	16405
837.029	16424
837.167	16253
837.305	16272
837.443	16166
837.58	16116
837.718	16371
837.856	16276
837.993	16200
838.131	16211
838.269	16090
838.406	16188
838.544	16120
838.681	15850
838.819	15956
838.956	15793
839.094	15770
839.231	15804
839.369	15873
839.506	16124
839.643	16002
839.781	15743
839.918	15682
840.055	15747
840.193	15846
840.33	15717
840.467	15747
840.604	15732
840.742	15926
840.879	15682
841.016	15652
841.153	15755
841.29	15895
841.427	15785
841.564	15724
841.701	15789
841.838	15667
841.975	15660
842.112	15671
842.249	15568
842.385	15534
842.522	15728
842.659	15557
842.796	15424
842.933	15591
843.069	15405
843.206	15485
843.343	15557
843.479	15530
843.616	15595
843.752	15298
843.889	15359
844.025	15405
844.162	15260
844.298	15447
844.435	15332
844.571	15317
844.708	15363
844.844	15496
844.98	15420
845.117	15473
845.253	15275
845.389	15279
845.525	15214
845.661	15218
845.798	15058
845.934	15310
846.07	15093
846.206	15089
846.342	15211
846.478	15112
846.614	14975
846.75	14887
846.886	14830
847.022	14872
847.158	14914
847.294	14921
847.429	14937
847.565	14857
847.701	15097
847.837	14598
847.972	14659
848.108	14667
848.244	14712
848.379	14507
848.515	14583
848.65	14560
848.786	14484
848.921	14465
849.057	14545
849.192	14594
849.328	14514
849.463	14454
849.598	14461
849.734	14431
849.869	14339
850.004	14214
850.14	14332
850.275	14298
850.41	14202
850.545	14263
850.68	14191
850.815	14263
850.95	14290
851.085	14400
851.22	14396
851.355	14195
851.49	14286
851.625	14206
851.76	14199
851.895	14187
852.03	14031
852.165	14298
852.299	14393
852.434	14343
852.569	14218
852.703	14256
852.838	14408
852.973	14389
853.107	14423
853.242	14282
853.376	14142
853.511	14016
853.645	14073
853.78	14138
853.914	14195
854.048	14073
854.183	14062
854.317	14123
854.451	14199
854.585	14157
854.72	14111
854.854	14240
854.988	14088
855.122	14065
855.256	14012
855.39	14115
855.524	14153
855.658	14145
855.792	14081
855.926	14202
856.06	14119
856.194	14229
856.327	14183
856.461	14096
856.595	14092
856.729	14176
856.862	14286
856.996	14275
857.13	14149
857.263	14237
857.397	14301
857.53	14096
857.664	14157
857.797	14286
857.931	14252
858.064	14221
858.197	14278
858.331	14214
858.464	14058
858.597	14046
858.731	14092
858.864	14092
858.997	14035
859.13	14206
859.263	14145
859.396	14244
859.529	14191
859.662	14069
859.795	14065
859.928	14233
860.061	14370
860.194	14286
860.327	14206
860.46	14126
860.592	14256
860.725	14351
860.858	14248
860.99	14092
861.123	14001
861.256	14081
861.388	14081
861.521	15001
861.653	13959
861.786	13947
861.918	13940
862.05	14096
862.183	14126
862.315	14149
862.447	14180
862.58	14145
862.712	13906
862.844	13871
862.976	13913
863.108	13993
863.24	14263
863.372	13845
863.504	13913
863.636	13951
863.768	14008
863.9	13917
864.032	13856
864.164	13795
864.296	13940
864.428	13974
864.559	13970
864.691	14016
864.823	13982
864.954	13883
865.086	13997
865.217	13871
865.349	13830
865.48	13906
865.612	13951
865.743	14024
865.875	13898
866.006	13830
866.137	13913
866.269	13883
866.4	13864
866.531	13898
866.662	13811
866.793	13879
866.924	13814
867.055	13894
867.186	13940
867.317	13898
867.448	13822
867.579	13811
867.71	14001
867.841	13826
867.972	14005
868.103	13963
868.233	13864
868.364	13913
868.495	14043
868.625	14058
868.756	14233
868.886	14046
869.017	14195
869.147	14263
869.278	14298
869.408	14202
869.539	14172
869.669	14134
869.799	14081
869.929	14320
870.06	14275
870.19	14476
870.32	14480
870.45	14583
870.58	14598
870.71	14674
870.84	14568
870.97	14545
871.1	14579
871.23	14785
871.36	14705
871.489	14682
871.619	14716
871.749	14716
871.879	14834
872.008	14929
872.138	14796
872.267	14724
872.397	14594
872.526	14560
872.656	14613
872.785	14575
872.915	14746
873.044	14876
873.173	14705
873.303	14941
873.432	14887
873.561	14963
873.69	14800
873.819	14667
873.948	14971
874.077	14781
874.206	14727
874.335	14838
874.464	15028
874.593	15062
874.722	15074
874.851	15123
874.979	15211
875.108	15161
875.237	14979
875.365	15036
875.494	15116
875.623	15207
875.751	15047
875.88	15104
876.008	15230
876.136	15401
876.265	15454
876.393	15568
876.521	15599
876.65	15625
876.778	15545
876.906	15564
877.034	15435
877.162	15526
877.29	15473
877.418	15462
877.546	15530
877.674	15587
877.802	15450
877.93	15595
878.058	15481
878.185	15374
878.313	15450
878.441	15564
878.568	15393
878.696	15545
878.824	15538
878.951	15656
879.079	15679
879.206	15876
879.333	15663
879.461	15603
879.588	15641
879.715	15759
879.842	15797
879.97	15557
880.097	15340
880.224	15443
880.351	15313
880.478	15340
880.605	15351
880.732	15351
880.859	15679
880.986	15435
881.112	15439
881.239	15283
881.366	15127
881.493	15173
881.619	14998
881.746	15112
881.872	15127
881.999	15081
882.125	14998
882.252	15077
882.378	14944
882.505	15291
882.631	14982
882.757	14807
882.883	14971
883.01	14804
883.136	14819
883.262	14731
883.388	14781
883.514	14880
883.64	14838
883.766	14861
883.892	14667
884.018	14682
884.143	14918
884.269	14895
884.395	14541
884.52	14598
884.646	14594
884.772	14511
884.897	14469
885.023	14492
885.148	14629
885.274	14720
885.399	14682
885.524	14629
885.65	14617
885.775	14583
885.9	14537
886.025	14708
886.15	14697
886.275	14480
886.4	14488
886.525	14526
886.65	14461
886.775	14393
886.9	14727
887.025	14807
887.149	14579
887.274	14393
887.399	14237
887.523	14374
887.648	14400
887.773	14256
887.897	14495
888.021	14404
888.146	14366
888.27	14499
888.395	14507
888.519	14408
888.643	14404
888.767	14503
888.891	14370
889.015	14294
889.139	14358
889.263	14256
889.387	14332
889.511	14480
889.635	14427
889.759	14218
889.883	14221
890.006	14305
890.13	14427
890.254	14153
890.377	14248
890.501	14058
890.624	14096
890.748	14161
890.871	13993
890.995	13845
891.118	13944
891.241	14008
891.364	13989
891.488	14100
891.611	13871
891.734	14043
891.857	14016
891.98	14008
892.103	13967
892.226	13986
892.349	13955
892.471	13871
892.594	13921
892.717	14043
892.839	13925
892.962	13978
893.085	14134
893.207	13845
893.33	13826
893.452	13951
893.575	14031
893.697	13970
893.819	14161
893.941	14138
894.064	14123
894.186	13913
894.308	13883
894.43	14168
894.552	14081
894.674	14115
894.796	13978
894.918	14035
895.04	13989
895.161	14157
895.283	14035
895.405	14031
895.526	14092
895.648	14149
895.769	14126
895.891	14126
896.012	14237
896.134	14221
896.255	14214
896.376	14088
896.498	14100
896.619	14142
896.74	14259
896.861	14218
896.982	14511
897.103	14674
897.224	14415
897.345	14450
897.466	14336
897.587	14347
897.708	14568
897.828	14499
897.949	14454
898.07	14202
898.19	14332
898.311	14560
898.431	14450
898.552	14480
898.672	14530
898.792	14602
898.913	14511
899.033	14396
899.153	14377
899.273	14210
899.393	14366
899.513	14324
899.633	14370
899.753	14351
899.873	14419
899.993	14526
900.113	14305
900.232	14438
900.352	14377
900.472	14275
900.591	14130
900.711	14244
900.83	14164
900.95	14305
901.069	14385
901.189	14134
901.308	13868
901.427	13951
901.546	13917
901.665	13894
901.784	13883
901.904	13795
902.023	13582
902.141	13514
902.26	13525
902.379	13510
902.498	13476
902.617	13403
902.735	13434
902.854	13552
902.973	13422
903.091	13149
903.21	13088
903.328	13259
903.446	13118
903.565	13103
903.683	12993
903.801	13046
903.919	12993
904.038	12970
904.156	12947
904.274	12871
904.392	12821
904.51	12916
904.627	12829
904.745	12932
904.863	12973
904.981	12646
905.098	12616
905.216	12574
905.334	12559
905.451	12578
905.569	12475
905.686	12665
905.803	12566
905.921	12372
906.038	12369
906.155	12369
906.272	12289
906.389	12311
906.506	12087
906.623	12064
906.74	12167
906.857	12026
906.974	12038
907.091	12228
907.208	12254
907.324	12239
907.441	12038
907.557	11893
907.674	11859
907.79	11843
907.907	11908
908.023	11961
908.139	11927
908.256	11767
908.372	11843
908.488	11897
908.604	11695
908.72	11615
908.836	11718
908.952	11703
909.068	11672
909.184	11821
909.3	11630
909.415	11684
909.531	11634
909.647	11414
909.762	11448
909.878	11421
909.993	11440
910.108	11471
910.224	11376
910.339	11436
910.454	11284
910.57	11288
910.685	11174
910.8	11459
910.915	11444
911.03	11391
911.145	11067
911.259	11060
911.374	11083
911.489	10999
911.604	11003
911.718	10900
911.833	10881
911.947	10771
912.062	10698
912.176	10854
912.291	10839
912.405	10946
912.519	11056
912.633	11060
912.748	10980
912.862	10919
912.976	10740
913.09	10763
913.204	10668
913.318	10778
913.431	10809
913.545	10889
913.659	10900
913.772	10759
913.886	10645
914	10664
914.113	10752
914.226	10744
914.34	10755
914.453	10626
914.566	10736
914.68	10641
914.793	10580
914.906	10493
915.019	10375
915.132	10325
915.245	10386
915.358	10394
915.47	10443
915.583	10462
915.696	10470
915.809	10500
915.921	10550
916.034	10367
916.146	10253
916.259	10386
916.371	10428
916.483	10478
916.595	10268
916.708	10398
916.82	10402
916.932	10265
917.044	10329
917.156	10261
917.268	10185
917.38	10200
917.491	10192
917.603	10352
917.715	10322
917.826	10360
917.938	10154
918.049	10139
918.161	10280
918.272	10409
918.384	10421
918.495	10291
918.606	10162
918.717	10010
918.828	10071
918.939	10143
919.05	9994
919.161	10071
919.272	9918
919.383	9979
919.494	10192
919.604	10306
919.715	10200
919.826	10029
919.936	10090
920.047	10188
920.157	10185
920.267	10382
920.378	10185
920.488	10082
920.598	10257
920.708	10485
920.818	10394
920.928	10371
921.038	10481
921.148	10443
921.258	10185
921.368	10071
921.477	9979
921.587	10044
921.697	9823
921.806	10040
921.916	9922
922.025	9781
922.134	9701
922.244	9641
922.353	9743
922.462	9568
922.571	9515
922.68	9412
922.789	9389
922.898	9359
923.007	9454
923.116	9424
923.224	9329
923.333	9420
923.442	9264
923.55	9253
923.659	9275
923.767	9313
923.876	9218
923.984	9302
924.092	9218
924.201	9241
924.309	9237
924.417	9306
924.525	9176
924.633	9237
924.741	10143
924.849	9055
924.956	9222
925.064	9017
925.172	8975
925.279	8986
925.387	9039
925.494	9036
925.602	9150
925.709	9123
925.816	8956
925.924	9005
926.031	9062
926.138	9058
926.245	9051
926.352	9013
926.459	9127
926.566	9146
926.673	9104
926.779	8876
926.886	8929
926.993	8842
927.099	8754
927.206	8754
927.312	8708
927.419	8792
927.525	8868
927.631	8807
927.737	8705
927.843	8724
927.95	8480
928.056	8621
928.162	8739
928.267	8743
928.373	9184
928.479	8785
928.585	8564
928.69	8678
928.796	8727
928.901	8617
929.007	8385
929.112	8610
929.218	8511
929.323	8503
929.428	8549
929.533	8590
929.638	8377
929.743	8442
929.848	8530
929.953	8457
930.058	8385
930.163	8248
930.267	8282
930.372	8465
930.477	8168
930.581	8476
930.685	8343
930.79	8221
930.894	8313
930.998	8153
931.103	8309
931.207	7944
931.311	7951
931.415	7841
931.519	7677
931.623	7708
