Data from test_V78500241_3298.txt Node
Date: Fri Mar 25 14:56:40 CST 2022
User: usil
Spectrometer: V785-0024
Trigger mode: 0
Integration Time (sec): 4.000000E-1
Scans to average: 1
Nonlinearity correction enabled: false
Boxcar width: 0
Storing dark spectrum: false
XAxis mode: Wavelengths
Number of Pixels in Spectrum: 1024
>>>>>Begin Spectral Data<<<<<
801.071	21975
801.214	21930
801.356	21690
801.499	21466
801.641	21340
801.783	21351
801.926	21378
802.068	21363
802.211	21237
802.353	21203
802.496	20937
802.638	20830
802.78	20769
802.923	20651
803.065	20632
803.208	20507
803.35	20609
803.492	20739
803.635	20830
803.777	20621
803.919	20727
804.061	20998
804.204	20727
804.346	20507
804.488	20571
804.63	20727
804.773	20526
804.915	20598
805.057	20568
805.199	20537
805.341	20644
805.483	20708
805.626	20522
805.768	20602
805.91	20545
806.052	20552
806.194	20461
806.336	20758
806.478	20575
806.62	20473
806.762	20693
806.904	20682
807.046	21051
807.188	20914
807.33	20937
807.472	20975
807.614	20906
807.756	20823
807.898	20712
808.04	20617
808.182	20667
808.324	20644
808.465	20788
808.607	20880
808.749	20925
808.891	20975
809.033	21150
809.174	20933
809.316	20895
809.458	20899
809.6	20842
809.741	21043
809.883	20990
810.025	21100
810.166	21039
810.308	21028
810.45	21036
810.591	21005
810.733	20807
810.875	20735
811.016	20533
811.158	20594
811.299	20689
811.441	20902
811.582	20880
811.724	20781
811.865	20712
812.007	20571
812.148	20617
812.29	20682
812.431	20914
812.573	20948
812.714	21226
812.855	21207
812.997	21203
813.138	21469
813.279	21279
813.421	21222
813.562	21192
813.703	20910
813.845	20830
813.986	20575
814.127	20320
814.268	20343
814.41	20256
814.551	20233
814.692	20313
814.833	20263
814.974	20161
815.115	20225
815.256	20096
815.397	20012
815.539	20096
815.68	20020
815.821	19970
815.962	19986
816.103	19906
816.244	19753
816.385	19814
816.526	19616
816.666	19609
816.807	19335
816.948	19483
817.089	19453
817.23	19396
817.371	19495
817.512	19403
817.653	19422
817.793	19236
817.934	19339
818.075	19373
818.216	19312
818.356	19331
818.497	19190
818.638	19084
818.778	19038
818.919	19069
819.06	19034
819.2	19240
819.341	19346
819.481	19297
819.622	19403
819.762	19521
819.903	19422
820.043	19403
820.184	19407
820.324	19426
820.465	19392
820.605	19384
820.746	19274
820.886	19206
821.026	19335
821.167	19312
821.307	19289
821.447	19141
821.588	19114
821.728	19042
821.868	18844
822.008	18741
822.149	18726
822.289	18749
822.429	18475
822.569	18395
822.709	18486
822.849	18296
822.99	18205
823.13	18289
823.27	18087
823.41	18114
823.55	17939
823.69	18079
823.83	18053
823.97	17885
824.11	17813
824.25	17771
824.389	17889
824.529	17870
824.669	17817
824.809	17863
824.949	17893
825.089	17912
825.228	17760
825.368	17646
825.508	17570
825.648	17630
825.787	17653
825.927	17707
826.067	17581
826.206	17604
826.346	17474
826.485	17543
826.625	17638
826.765	17733
826.904	17687
827.044	17330
827.183	17353
827.323	17326
827.462	17299
827.601	17277
827.741	17258
827.88	17330
828.02	17235
828.159	17326
828.298	17337
828.437	17364
828.577	17296
828.716	17417
828.855	17254
828.994	17086
829.134	17155
829.273	17029
829.412	17090
829.551	16980
829.69	16999
829.829	16942
829.968	17090
830.107	17113
830.246	17143
830.385	17052
830.524	16911
830.663	16877
830.802	16771
830.941	16653
831.08	16653
831.219	16725
831.357	16752
831.496	16771
831.635	16694
831.774	16500
831.913	16611
832.051	16485
832.19	16348
832.329	16542
832.467	16344
832.606	16409
832.744	16451
832.883	16424
833.022	16379
833.16	16348
833.299	16367
833.437	16348
833.576	16375
833.714	16443
833.852	16360
833.991	16432
834.129	16432
834.267	16516
834.406	16375
834.544	16371
834.682	16360
834.821	16432
834.959	16653
835.097	16504
835.235	16462
835.373	16379
835.511	16421
835.65	16329
835.788	16428
835.926	16196
836.064	16131
836.202	16150
836.34	16398
836.478	16447
836.615	16337
836.753	16421
836.891	16440
837.029	16432
837.167	16272
837.305	16272
837.443	16200
837.58	16299
837.718	16303
837.856	16230
837.993	16158
838.131	16295
838.269	16192
838.406	16185
838.544	16128
838.681	15907
838.819	15899
838.956	15728
839.094	15838
839.231	15831
839.369	15827
839.506	16196
839.643	16055
839.781	15804
839.918	15690
840.055	15816
840.193	15766
840.33	15679
840.467	15747
840.604	15797
840.742	15941
840.879	15618
841.016	15728
841.153	15751
841.29	15911
841.427	15800
841.564	15808
841.701	15816
841.838	15713
841.975	15656
842.112	15675
842.249	15629
842.385	15534
842.522	15705
842.659	15591
842.796	15534
842.933	15545
843.069	15530
843.206	15500
843.343	15629
843.479	15629
843.616	15549
843.752	15378
843.889	15435
844.025	15485
844.162	15310
844.298	15447
844.435	15302
844.571	15252
844.708	15374
844.844	15603
844.98	15447
845.117	15363
845.253	15298
845.389	15184
845.525	15340
845.661	15268
845.798	15081
845.934	15199
846.07	15085
846.206	15097
846.342	15211
846.478	15119
846.614	15039
846.75	14880
846.886	15009
847.022	15013
847.158	14956
847.294	15001
847.429	14876
847.565	14819
847.701	15123
847.837	14659
847.972	14594
848.108	14781
848.244	14716
848.379	14545
848.515	14492
848.65	14454
848.786	14488
848.921	14575
849.057	14571
849.192	14613
849.328	14571
849.463	14560
849.598	14488
849.734	14484
849.869	14362
850.004	14286
850.14	14336
850.275	14324
850.41	14240
850.545	14328
850.68	14336
850.815	14282
850.95	14271
851.085	14556
851.22	14324
851.355	14263
851.49	14202
851.625	14218
851.76	14362
851.895	14035
852.03	14195
852.165	14259
852.299	14275
852.434	14389
852.569	14267
852.703	14317
852.838	14298
852.973	14473
853.107	14412
853.242	14313
853.376	14164
853.511	14138
853.645	14077
853.78	14298
853.914	14142
854.048	14103
854.183	14134
854.317	14138
854.451	14290
854.585	14111
854.72	14088
854.854	14233
854.988	13997
855.122	14161
855.256	14046
855.39	14202
855.524	14149
855.658	14206
855.792	14240
855.926	14123
856.06	14267
856.194	14214
856.327	14088
856.461	14084
856.595	14138
856.729	14142
856.862	14153
856.996	14218
857.13	14248
857.263	14278
857.397	14237
857.53	14134
857.664	14149
857.797	14267
857.931	14164
858.064	14187
858.197	14317
858.331	14142
858.464	14092
858.597	14039
858.731	14069
858.864	14130
858.997	14134
859.13	14199
859.263	14214
859.396	14225
859.529	14119
859.662	14103
859.795	14100
859.928	14153
860.061	14267
860.194	14275
860.327	14221
860.46	14088
860.592	14267
860.725	14149
860.858	14278
860.99	14107
861.123	13993
861.256	14084
861.388	14153
861.521	14952
861.653	14100
861.786	14024
861.918	13932
862.05	14130
862.183	14046
862.315	14145
862.447	14164
862.58	14027
862.712	13841
862.844	13818
862.976	14039
863.108	14073
863.24	14298
863.372	13845
863.504	13963
863.636	13993
863.768	13940
863.9	13947
864.032	13940
864.164	13947
864.296	14039
864.428	14050
864.559	14008
864.691	14012
864.823	14024
864.954	13982
865.086	13913
865.217	13944
865.349	13871
865.48	13932
865.612	14043
865.743	14062
865.875	13944
866.006	13921
866.137	13811
866.269	13887
866.4	13883
866.531	13883
866.662	13784
866.793	13852
866.924	13772
867.055	13932
867.186	13833
867.317	13837
867.448	13852
867.579	13890
867.71	13780
867.841	13875
867.972	13936
868.103	13951
868.233	13890
868.364	14046
868.495	14035
868.625	14130
868.756	14237
868.886	14092
869.017	14176
869.147	14248
869.278	14290
869.408	14225
869.539	14138
869.669	14221
869.799	14259
869.929	14305
870.06	14214
870.19	14590
870.32	14412
870.45	14415
870.58	14575
870.71	14697
870.84	14686
870.97	14568
871.1	14503
871.23	14735
871.36	14804
871.489	14648
871.619	14758
871.749	14735
871.879	14743
872.008	14887
872.138	14785
872.267	14689
872.397	14678
872.526	14720
872.656	14621
872.785	14590
872.915	14807
873.044	14933
873.173	14830
873.303	14796
873.432	14838
873.561	14823
873.69	14864
873.819	14880
873.948	14876
874.077	14883
874.206	14819
874.335	14921
874.464	14815
874.593	15165
874.722	15009
874.851	15192
874.979	15214
875.108	15226
875.237	15055
875.365	15100
875.494	15097
875.623	15146
875.751	15237
875.88	15135
876.008	15325
876.136	15317
876.265	15576
876.393	15701
876.521	15671
876.65	15667
876.778	15564
876.906	15492
877.034	15466
877.162	15458
877.29	15553
877.418	15557
877.546	15576
877.674	15545
877.802	15496
877.93	15416
878.058	15466
878.185	15431
878.313	15603
878.441	15545
878.568	15386
878.696	15534
878.824	15542
878.951	15656
879.079	15766
879.206	15964
879.333	15652
879.461	15591
879.588	15557
879.715	15797
879.842	15804
879.97	15625
880.097	15389
880.224	15428
880.351	15408
880.478	15424
880.605	15443
880.732	15325
880.859	15587
880.986	15469
881.112	15428
881.239	15283
881.366	15192
881.493	15089
881.619	15001
881.746	15017
881.872	15127
881.999	15051
882.125	15085
882.252	15116
882.378	15161
882.505	15275
882.631	15055
882.757	14899
882.883	14967
883.01	14830
883.136	14857
883.262	14727
883.388	14659
883.514	14925
883.64	14990
883.766	14800
883.892	14724
884.018	14731
884.143	14838
884.269	14948
884.395	14632
884.52	14648
884.646	14606
884.772	14530
884.897	14533
885.023	14564
885.148	14682
885.274	14693
885.399	14575
885.524	14571
885.65	14575
885.775	14632
885.9	14621
886.025	14724
886.15	14746
886.275	14568
886.4	14484
886.525	14480
886.65	14522
886.775	14583
886.9	14659
887.025	14781
887.149	14598
887.274	14469
887.399	14438
887.523	14351
887.648	14408
887.773	14423
887.897	14469
888.021	14457
888.146	14381
888.27	14560
888.395	14564
888.519	14434
888.643	14526
888.767	14518
888.891	14389
889.015	14233
889.139	14317
889.263	14263
889.387	14275
889.511	14526
889.635	14450
889.759	14183
889.883	14248
890.006	14358
890.13	14336
890.254	14187
890.377	14282
890.501	14024
890.624	14046
890.748	14248
890.871	14054
890.995	13883
891.118	13875
891.241	13909
891.364	13978
891.488	14088
891.611	13909
891.734	13974
891.857	14073
891.98	14001
892.103	14031
892.226	14107
892.349	14012
892.471	13864
892.594	13936
892.717	13970
892.839	14027
892.962	14054
893.085	13997
893.207	13951
893.33	13822
893.452	13833
893.575	14039
893.697	13989
893.819	14157
893.941	14164
894.064	14069
894.186	13970
894.308	14016
894.43	14142
894.552	14218
894.674	14069
894.796	13955
894.918	14031
895.04	14077
895.161	14218
895.283	14107
895.405	14031
895.526	14043
895.648	14202
895.769	14153
895.891	14134
896.012	14149
896.134	14210
896.255	14195
896.376	14130
896.498	14130
896.619	14134
896.74	14206
896.861	14259
896.982	14503
897.103	14651
897.224	14461
897.345	14400
897.466	14324
897.587	14457
897.708	14556
897.828	14518
897.949	14450
898.07	14206
898.19	14366
898.311	14602
898.431	14522
898.552	14507
898.672	14545
898.792	14594
898.913	14530
899.033	14461
899.153	14320
899.273	14229
899.393	14393
899.513	14271
899.633	14332
899.753	14347
899.873	14317
899.993	14393
900.113	14381
900.232	14347
900.352	14309
900.472	14233
900.591	14225
900.711	14229
900.83	14244
900.95	14313
901.069	14328
901.189	14195
901.308	13982
901.427	13909
901.546	13864
901.665	13997
901.784	13997
901.904	13769
902.023	13731
902.141	13518
902.26	13510
902.379	13559
902.498	13430
902.617	13400
902.735	13453
902.854	13468
902.973	13346
903.091	13187
903.21	13164
903.328	13190
903.446	13126
903.565	13126
903.683	13095
903.801	12905
903.919	13046
904.038	12985
904.156	12935
904.274	12973
904.392	12844
904.51	12867
904.627	12878
904.745	12920
904.863	12878
904.981	12589
905.098	12646
905.216	12589
905.334	12555
905.451	12506
905.569	12555
905.686	12696
905.803	12578
905.921	12323
906.038	12467
906.155	12414
906.272	12258
906.389	12372
906.506	12125
906.623	12243
906.74	12167
906.857	12114
906.974	12079
907.091	12224
907.208	12330
907.324	12175
907.441	12030
907.557	11863
907.674	11901
907.79	11874
907.907	11889
908.023	11980
908.139	11984
908.256	11855
908.372	11904
908.488	11794
908.604	11638
908.72	11585
908.836	11623
908.952	11604
909.068	11714
909.184	11779
909.3	11733
909.415	11722
909.531	11585
909.647	11436
909.762	11452
909.878	11395
909.993	11421
910.108	11383
910.224	11425
910.339	11421
910.454	11250
910.57	11360
910.685	11216
910.8	11509
910.915	11516
911.03	11258
911.145	11113
911.259	11147
911.374	11102
911.489	11029
911.604	11033
911.718	10923
911.833	10900
911.947	10801
912.062	10702
912.176	10919
912.291	10885
912.405	10843
912.519	11140
912.633	10984
912.748	10877
912.862	10968
912.976	10850
913.09	10706
913.204	10630
913.318	10790
913.431	10805
913.545	10858
913.659	10854
913.772	10786
913.886	10637
914	10634
914.113	10839
914.226	10809
914.34	10736
914.453	10500
914.566	10733
914.68	10577
914.793	10611
914.906	10489
915.019	10363
915.132	10322
915.245	10497
915.358	10405
915.47	10421
915.583	10485
915.696	10470
915.809	10508
915.921	10497
916.034	10405
916.146	10363
916.259	10329
916.371	10466
916.483	10489
916.595	10341
916.708	10371
916.82	10409
916.932	10276
917.044	10303
917.156	10363
917.268	10219
917.38	10341
917.491	10219
917.603	10261
917.715	10299
917.826	10341
917.938	10192
918.049	10131
918.161	10249
918.272	10329
918.384	10375
918.495	10246
918.606	10200
918.717	10051
918.828	10147
918.939	10147
919.05	9987
919.161	10154
919.272	9953
919.383	9956
919.494	10147
919.604	10280
919.715	10124
919.826	10093
919.936	10051
920.047	10093
920.157	10169
920.267	10325
920.378	10162
920.488	10067
920.598	10261
920.708	10470
920.818	10257
920.928	10318
921.038	10459
921.148	10527
921.258	10135
921.368	10109
921.477	9949
921.587	9975
921.697	9842
921.806	10013
921.916	9907
922.025	9728
922.134	9717
922.244	9648
922.353	9720
922.462	9629
922.571	9523
922.68	9294
922.789	9405
922.898	9348
923.007	9253
923.116	9420
923.224	9374
923.333	9439
923.442	9294
923.55	9241
923.659	9298
923.767	9374
923.876	9313
923.984	9260
924.092	9249
924.201	9150
924.309	9241
924.417	9321
924.525	9195
924.633	9256
924.741	10055
924.849	8986
924.956	9169
925.064	9081
925.172	8963
925.279	9066
925.387	9058
925.494	9058
925.602	9154
925.709	9089
925.816	9055
925.924	9085
926.031	9119
926.138	9074
926.245	9104
926.352	9032
926.459	9074
926.566	9131
926.673	9062
926.779	8963
926.886	8910
926.993	8788
927.099	8682
927.206	8766
927.312	8590
927.419	8766
927.525	8811
927.631	8830
927.737	8693
927.843	8655
927.95	8556
928.056	8640
928.162	8621
928.267	8739
928.373	9211
928.479	8735
928.585	8522
928.69	8644
928.796	8697
928.901	8613
929.007	8438
929.112	8575
929.218	8476
929.323	8514
929.428	8434
929.533	8644
929.638	8434
929.743	8507
929.848	8564
929.953	8469
930.058	8423
930.163	8233
930.267	8324
930.372	8469
930.477	8202
930.581	8415
930.685	8362
930.79	8195
930.894	8240
930.998	8206
931.103	8286
931.207	8020
931.311	7932
931.415	7837
931.519	7685
931.623	7738
