Data from test_V78500241_3242.txt Node
Date: Fri Mar 25 14:56:17 CST 2022
User: usil
Spectrometer: V785-0024
Trigger mode: 0
Integration Time (sec): 4.000000E-1
Scans to average: 1
Nonlinearity correction enabled: false
Boxcar width: 0
Storing dark spectrum: false
XAxis mode: Wavelengths
Number of Pixels in Spectrum: 1024
>>>>>Begin Spectral Data<<<<<
801.071	22051
801.214	21800
801.356	21675
801.499	21675
801.641	21393
801.783	21424
801.926	21428
802.068	21313
802.211	21317
802.353	21089
802.496	20990
802.638	20979
802.78	20849
802.923	20743
803.065	20762
803.208	20632
803.35	20621
803.492	20769
803.635	20724
803.777	20705
803.919	20758
804.061	21005
804.204	20727
804.346	20640
804.488	20552
804.63	20655
804.773	20602
804.915	20625
805.057	20682
805.199	20602
805.341	20549
805.483	20617
805.626	20629
805.768	20495
805.91	20697
806.052	20564
806.194	20400
806.336	20686
806.478	20499
806.62	20579
806.762	20674
806.904	20796
807.046	20990
807.188	20910
807.33	21043
807.472	20975
807.614	20834
807.756	20861
807.898	20762
808.04	20492
808.182	20716
808.324	20617
808.465	20617
808.607	20857
808.749	20986
808.891	20986
809.033	21017
809.174	21066
809.316	20899
809.458	21005
809.6	20902
809.741	21005
809.883	20990
810.025	21104
810.166	21017
810.308	21123
810.45	21051
810.591	21020
810.733	20830
810.875	20849
811.016	20575
811.158	20617
811.299	20800
811.441	20819
811.582	20826
811.724	20640
811.865	20590
812.007	20701
812.148	20724
812.29	20811
812.431	20834
812.573	21039
812.714	21085
812.855	21203
812.997	21298
813.138	21435
813.279	21401
813.421	21108
813.562	21188
813.703	21005
813.845	20899
813.986	20446
814.127	20438
814.268	20298
814.41	20358
814.551	20404
814.692	20419
814.833	20180
814.974	20206
815.115	20339
815.256	20081
815.397	20157
815.539	20130
815.68	20012
815.821	19944
815.962	19906
816.103	19982
816.244	19818
816.385	19776
816.526	19696
816.666	19540
816.807	19415
816.948	19434
817.089	19499
817.23	19362
817.371	19453
817.512	19384
817.653	19327
817.793	19289
817.934	19438
818.075	19415
818.216	19377
818.356	19346
818.497	19152
818.638	19145
818.778	19171
818.919	19046
819.06	19107
819.2	19240
819.341	19213
819.481	19221
819.622	19381
819.762	19571
819.903	19521
820.043	19430
820.184	19392
820.324	19365
820.465	19441
820.605	19350
820.746	19354
820.886	19221
821.026	19270
821.167	19278
821.307	19289
821.447	19263
821.588	19228
821.728	19034
821.868	18852
822.008	18734
822.149	18700
822.289	18627
822.429	18475
822.569	18483
822.709	18578
822.849	18315
822.99	18186
823.13	18251
823.27	18273
823.41	18155
823.55	18049
823.69	18148
823.83	18079
823.97	18022
824.11	17863
824.25	17798
824.389	17779
824.529	17859
824.669	17824
824.809	18049
824.949	17874
825.089	17923
825.228	17927
825.368	17745
825.508	17752
825.648	17478
825.787	17760
825.927	17741
826.067	17634
826.206	17509
826.346	17638
826.485	17661
826.625	17615
826.765	17767
826.904	17676
827.044	17421
827.183	17402
827.323	17303
827.462	17455
827.601	17364
827.741	17356
827.88	17197
828.02	17147
828.159	17235
828.298	17296
828.437	17395
828.577	17273
828.716	17497
828.855	17231
828.994	17056
829.134	17155
829.273	17022
829.412	16976
829.551	17006
829.69	17113
829.829	17056
829.968	17102
830.107	17159
830.246	17071
830.385	17067
830.524	16866
830.663	16942
830.802	16816
830.941	16645
831.08	16603
831.219	16866
831.357	16664
831.496	16889
831.635	16584
831.774	16656
831.913	16565
832.051	16577
832.19	16459
832.329	16554
832.467	16306
832.606	16329
832.744	16310
832.883	16268
833.022	16386
833.16	16447
833.299	16459
833.437	16314
833.576	16436
833.714	16341
833.852	16485
833.991	16443
834.129	16489
834.267	16485
834.406	16371
834.544	16485
834.682	16390
834.821	16417
834.959	16672
835.097	16386
835.235	16554
835.373	16462
835.511	16394
835.65	16348
835.788	16409
835.926	16196
836.064	16143
836.202	16177
836.34	16447
836.478	16451
836.615	16333
836.753	16242
836.891	16466
837.029	16360
837.167	16253
837.305	16257
837.443	16299
837.58	16147
837.718	16284
837.856	16196
837.993	16128
838.131	16242
838.269	16112
838.406	16131
838.544	16032
838.681	15880
838.819	15888
838.956	15728
839.094	15781
839.231	15747
839.369	15884
839.506	16223
839.643	15983
839.781	15797
839.918	15663
840.055	15819
840.193	15713
840.33	15755
840.467	15736
840.604	15751
840.742	16067
840.879	15576
841.016	15694
841.153	15652
841.29	15850
841.427	15804
841.564	15751
841.701	15819
841.838	15751
841.975	15720
842.112	15660
842.249	15538
842.385	15587
842.522	15724
842.659	15606
842.796	15473
842.933	15530
843.069	15591
843.206	15477
843.343	15610
843.479	15671
843.616	15564
843.752	15408
843.889	15367
844.025	15439
844.162	15298
844.298	15344
844.435	15412
844.571	15294
844.708	15355
844.844	15477
844.98	15542
845.117	15412
845.253	15370
845.389	15241
845.525	15291
845.661	15310
845.798	15112
845.934	15249
846.07	15081
846.206	15207
846.342	15245
846.478	15138
846.614	14933
846.75	14899
846.886	14944
847.022	14963
847.158	14944
847.294	14838
847.429	14914
847.565	14861
847.701	15116
847.837	14613
847.972	14678
848.108	14758
848.244	14701
848.379	14503
848.515	14396
848.65	14518
848.786	14495
848.921	14526
849.057	14663
849.192	14564
849.328	14575
849.463	14537
849.598	14507
849.734	14454
849.869	14431
850.004	14301
850.14	14381
850.275	14233
850.41	14263
850.545	14275
850.68	14320
850.815	14271
850.95	14275
851.085	14530
851.22	14427
851.355	14320
851.49	14183
851.625	14218
851.76	14286
851.895	14252
852.03	14096
852.165	14252
852.299	14263
852.434	14309
852.569	14240
852.703	14263
852.838	14332
852.973	14454
853.107	14400
853.242	14259
853.376	14176
853.511	14035
853.645	14107
853.78	14282
853.914	14115
854.048	14206
854.183	14142
854.317	14096
854.451	14362
854.585	14161
854.72	14145
854.854	14229
854.988	14031
855.122	14168
855.256	13959
855.39	14153
855.524	14202
855.658	14191
855.792	14248
855.926	14214
856.06	14244
856.194	14298
856.327	14172
856.461	14214
856.595	14180
856.729	14142
856.862	14256
856.996	14275
857.13	14290
857.263	14278
857.397	14301
857.53	14142
857.664	14172
857.797	14221
857.931	14298
858.064	14172
858.197	14282
858.331	14199
858.464	14069
858.597	14084
858.731	14050
858.864	14149
858.997	14134
859.13	14134
859.263	14176
859.396	14248
859.529	14142
859.662	14191
859.795	14001
859.928	14218
860.061	14278
860.194	14294
860.327	14153
860.46	14153
860.592	14229
860.725	14343
860.858	14275
860.99	14111
861.123	14130
861.256	14088
861.388	14153
861.521	14933
861.653	14016
861.786	14054
861.918	13974
862.05	14111
862.183	14111
862.315	14180
862.447	14149
862.58	13993
862.712	14001
862.844	13852
862.976	14005
863.108	13993
863.24	14362
863.372	13925
863.504	14005
863.636	13967
863.768	14077
863.9	13955
864.032	13738
864.164	13883
864.296	14054
864.428	14050
864.559	14001
864.691	13963
864.823	13883
864.954	14001
865.086	13906
865.217	13902
865.349	13852
865.48	14005
865.612	13803
865.743	14054
865.875	13940
866.006	13875
866.137	13955
866.269	13811
866.4	13871
866.531	13883
866.662	13845
866.793	13864
866.924	13944
867.055	13978
867.186	13986
867.317	13890
867.448	13776
867.579	13845
867.71	13917
867.841	13860
867.972	13989
868.103	13959
868.233	13986
868.364	13932
868.495	14035
868.625	14202
868.756	14290
868.886	14172
869.017	14161
869.147	14252
869.278	14180
869.408	14275
869.539	14187
869.669	14176
869.799	14286
869.929	14358
870.06	14317
870.19	14499
870.32	14461
870.45	14465
870.58	14560
870.71	14629
870.84	14632
870.97	14549
871.1	14492
871.23	14781
871.36	14762
871.489	14727
871.619	14708
871.749	14750
871.879	14849
872.008	14906
872.138	14754
872.267	14731
872.397	14758
872.526	14495
872.656	14526
872.785	14670
872.915	14899
873.044	14956
873.173	14686
873.303	14864
873.432	14857
873.561	14876
873.69	14857
873.819	14861
873.948	14929
874.077	14864
874.206	14876
874.335	14899
874.464	15017
874.593	15039
874.722	15066
874.851	15226
874.979	15138
875.108	15249
875.237	15097
875.365	15039
875.494	15169
875.623	15214
875.751	15116
875.88	15165
876.008	15233
876.136	15450
876.265	15587
876.393	15694
876.521	15629
876.65	15671
876.778	15469
876.906	15507
877.034	15458
877.162	15523
877.29	15553
877.418	15629
877.546	15564
877.674	15557
877.802	15591
877.93	15667
878.058	15545
878.185	15519
878.313	15523
878.441	15610
878.568	15412
878.696	15488
878.824	15526
878.951	15629
879.079	15762
879.206	15911
879.333	15819
879.461	15648
879.588	15675
879.715	15618
879.842	15873
879.97	15614
880.097	15393
880.224	15481
880.351	15458
880.478	15382
880.605	15401
880.732	15302
880.859	15610
880.986	15443
881.112	15405
881.239	15325
881.366	15207
881.493	15108
881.619	15062
881.746	15161
881.872	15142
881.999	14960
882.125	15119
882.252	15097
882.378	15077
882.505	15260
882.631	15081
882.757	14868
882.883	14963
883.01	14807
883.136	14842
883.262	14773
883.388	14739
883.514	15005
883.64	14891
883.766	14864
883.892	14724
884.018	14705
884.143	14838
884.269	15036
884.395	14594
884.52	14541
884.646	14587
884.772	14606
884.897	14484
885.023	14678
885.148	14708
885.274	14796
885.399	14682
885.524	14674
885.65	14674
885.775	14636
885.9	14495
886.025	14785
886.15	14651
886.275	14598
886.4	14590
886.525	14514
886.65	14492
886.775	14499
886.9	14743
887.025	14826
887.149	14575
887.274	14526
887.399	14385
887.523	14427
887.648	14358
887.773	14237
887.897	14457
888.021	14568
888.146	14358
888.27	14564
888.395	14602
888.519	14465
888.643	14511
888.767	14484
888.891	14336
889.015	14320
889.139	14366
889.263	14225
889.387	14400
889.511	14415
889.635	14469
889.759	14320
889.883	14259
890.006	14282
890.13	14404
890.254	14237
890.377	14294
890.501	14096
890.624	14058
890.748	14142
890.871	14092
890.995	13974
891.118	13879
891.241	14054
891.364	14001
891.488	14001
891.611	13902
891.734	13967
891.857	14043
891.98	14058
892.103	14115
892.226	14046
892.349	13993
892.471	13894
892.594	13951
892.717	14077
892.839	13978
892.962	13909
893.085	14081
893.207	14031
893.33	13932
893.452	14001
893.575	14088
893.697	13936
893.819	14206
893.941	14214
894.064	14062
894.186	14020
894.308	13932
894.43	14149
894.552	14248
894.674	14157
894.796	13864
894.918	13928
895.04	14020
895.161	14084
895.283	14123
895.405	14062
895.526	14081
895.648	14084
895.769	14161
895.891	14077
896.012	14164
896.134	14164
896.255	14172
896.376	14103
896.498	14199
896.619	14210
896.74	14123
896.861	14267
896.982	14511
897.103	14587
897.224	14480
897.345	14438
897.466	14332
897.587	14431
897.708	14606
897.828	14545
897.949	14434
898.07	14336
898.19	14393
898.311	14587
898.431	14362
898.552	14568
898.672	14602
898.792	14590
898.913	14632
899.033	14454
899.153	14355
899.273	14351
899.393	14263
899.513	14396
899.633	14438
899.753	14438
899.873	14385
899.993	14454
900.113	14358
900.232	14355
900.352	14358
900.472	14305
900.591	14229
900.711	14294
900.83	14176
900.95	14290
901.069	14267
901.189	14111
901.308	13989
901.427	13928
901.546	13951
901.665	13993
901.784	13940
901.904	13826
902.023	13734
902.141	13510
902.26	13613
902.379	13590
902.498	13502
902.617	13529
902.735	13544
902.854	13491
902.973	13411
903.091	13202
903.21	13194
903.328	13244
903.446	13080
903.565	13072
903.683	13069
903.801	13069
903.919	13019
904.038	13095
904.156	12920
904.274	12882
904.392	12867
904.51	12795
904.627	12970
904.745	12981
904.863	12932
904.981	12715
905.098	12471
905.216	12589
905.334	12612
905.451	12589
905.569	12486
905.686	12612
905.803	12665
905.921	12426
906.038	12418
906.155	12395
906.272	12224
906.389	12292
906.506	12121
906.623	12228
906.74	12129
906.857	12019
906.974	12053
907.091	12194
907.208	12262
907.324	12281
907.441	12064
907.557	11923
907.674	11863
907.79	11813
907.907	11824
908.023	11885
908.139	11973
908.256	11840
908.372	11847
908.488	11817
908.604	11695
908.72	11634
908.836	11752
908.952	11661
909.068	11695
909.184	11767
909.3	11726
909.415	11752
909.531	11630
909.647	11433
909.762	11501
909.878	11490
909.993	11429
910.108	11383
910.224	11455
910.339	11463
910.454	11337
910.57	11303
910.685	11197
910.8	11486
910.915	11436
911.03	11349
911.145	11178
911.259	11216
911.374	11162
911.489	11098
911.604	10972
911.718	10885
911.833	10953
911.947	10771
912.062	10729
912.176	10831
912.291	10896
912.405	10942
912.519	11155
912.633	11170
912.748	10987
912.862	10873
912.976	10748
913.09	10668
913.204	10725
913.318	10706
913.431	10881
913.545	10881
913.659	10927
913.772	10755
913.886	10653
914	10683
914.113	10733
914.226	10835
914.34	10736
914.453	10653
914.566	10729
914.68	10622
914.793	10611
914.906	10417
915.019	10348
915.132	10322
915.245	10329
915.358	10394
915.47	10432
915.583	10421
915.696	10474
915.809	10508
915.921	10493
916.034	10417
916.146	10375
916.259	10322
916.371	10413
916.483	10428
916.595	10375
916.708	10363
916.82	10371
916.932	10360
917.044	10322
917.156	10322
917.268	10242
917.38	10238
917.491	10204
917.603	10272
917.715	10295
917.826	10341
917.938	10242
918.049	10097
918.161	10249
918.272	10504
918.384	10333
918.495	10284
918.606	10074
918.717	10124
918.828	10162
918.939	10215
919.05	10071
919.161	10135
919.272	9941
919.383	9987
919.494	10166
919.604	10375
919.715	10227
919.826	10059
919.936	10071
920.047	10276
920.157	10207
920.267	10284
920.378	10158
920.488	10139
920.598	10348
920.708	10466
920.818	10306
920.928	10337
921.038	10516
921.148	10466
921.258	10287
921.368	10074
921.477	10055
921.587	9998
921.697	9911
921.806	10006
921.916	9994
922.025	9778
922.134	9713
922.244	9663
922.353	9679
922.462	9545
922.571	9614
922.68	9424
922.789	9355
922.898	9332
923.007	9332
923.116	9488
923.224	9408
923.333	9378
923.442	9294
923.55	9264
923.659	9348
923.767	9340
923.876	9135
923.984	9355
924.092	9184
924.201	9294
924.309	9294
924.417	9260
924.525	9214
924.633	9199
924.741	10116
924.849	9051
924.956	9283
925.064	9020
925.172	9001
925.279	9009
925.387	9077
925.494	9051
925.602	9233
925.709	9146
925.816	9032
925.924	9024
926.031	9184
926.138	9112
926.245	9161
926.352	9013
926.459	9108
926.566	9169
926.673	8986
926.779	8963
926.886	8918
926.993	8823
927.099	8861
927.206	8762
927.312	8762
927.419	8838
927.525	8724
927.631	8769
927.737	8731
927.843	8636
927.95	8613
928.056	8636
928.162	8705
928.267	8693
928.373	9195
928.479	8815
928.585	8495
928.69	8629
928.796	8655
928.901	8606
929.007	8450
929.112	8602
929.218	8613
929.323	8499
929.428	8507
929.533	8606
929.638	8423
929.743	8511
929.848	8533
929.953	8461
930.058	8370
930.163	8237
930.267	8206
930.372	8324
930.477	8199
930.581	8461
930.685	8393
930.79	8271
930.894	8199
930.998	8202
931.103	8275
931.207	7967
931.311	7932
931.415	7928
931.519	7712
931.623	7674
