Data from test_V78500241_3321.txt Node
Date: Fri Mar 25 14:56:50 CST 2022
User: usil
Spectrometer: V785-0024
Trigger mode: 0
Integration Time (sec): 4.000000E-1
Scans to average: 1
Nonlinearity correction enabled: false
Boxcar width: 0
Storing dark spectrum: false
XAxis mode: Wavelengths
Number of Pixels in Spectrum: 1024
>>>>>Begin Spectral Data<<<<<
801.071	21888
801.214	21869
801.356	21599
801.499	21561
801.641	21485
801.783	21355
801.926	21389
802.068	21222
802.211	21252
802.353	21074
802.496	20895
802.638	20880
802.78	20739
802.923	20670
803.065	20678
803.208	20583
803.35	20682
803.492	20689
803.635	20925
803.777	20750
803.919	20708
804.061	20990
804.204	20640
804.346	20541
804.488	20503
804.63	20731
804.773	20530
804.915	20575
805.057	20629
805.199	20602
805.341	20560
805.483	20590
805.626	20644
805.768	20533
805.91	20583
806.052	20579
806.194	20457
806.336	20644
806.478	20507
806.62	20480
806.762	20587
806.904	20720
807.046	20994
807.188	20941
807.33	20857
807.472	20971
807.614	20792
807.756	20910
807.898	20579
808.04	20530
808.182	20644
808.324	20625
808.465	20670
808.607	20918
808.749	20864
808.891	21047
809.033	21173
809.174	20990
809.316	20895
809.458	20948
809.6	20994
809.741	20952
809.883	20944
810.025	21062
810.166	21112
810.308	21039
810.45	21047
810.591	20845
810.733	20735
810.875	20667
811.016	20621
811.158	20632
811.299	20743
811.441	20659
811.582	20807
811.724	20781
811.865	20613
812.007	20613
812.148	20716
812.29	20705
812.431	20765
812.573	20906
812.714	21043
812.855	21131
812.997	21294
813.138	21355
813.279	21336
813.421	21184
813.562	20979
813.703	20853
813.845	20819
813.986	20492
814.127	20351
814.268	20218
814.41	20358
814.551	20206
814.692	20214
814.833	20138
814.974	20214
815.115	20122
815.256	20073
815.397	20054
815.539	20081
815.68	19913
815.821	19925
815.962	20008
816.103	19871
816.244	19822
816.385	19681
816.526	19510
816.666	19495
816.807	19308
816.948	19506
817.089	19567
817.23	19274
817.371	19354
817.512	19430
817.653	19343
817.793	19244
817.934	19388
818.075	19346
818.216	19396
818.356	19293
818.497	19240
818.638	19023
818.778	19088
818.919	18947
819.06	18962
819.2	19236
819.341	19179
819.481	19289
819.622	19324
819.762	19609
819.903	19358
820.043	19483
820.184	19308
820.324	19301
820.465	19358
820.605	19449
820.746	19244
820.886	19141
821.026	19187
821.167	19282
821.307	19324
821.447	19168
821.588	19110
821.728	19027
821.868	18897
822.008	18768
822.149	18856
822.289	18673
822.429	18498
822.569	18456
822.709	18407
822.849	18209
822.99	18152
823.13	18155
823.27	18232
823.41	17916
823.55	17999
823.69	18015
823.83	18091
823.97	18026
824.11	17794
824.25	17798
824.389	17756
824.529	17870
824.669	17752
824.809	17885
824.949	17904
825.089	17908
825.228	17828
825.368	17634
825.508	17558
825.648	17615
825.787	17649
825.927	17634
826.067	17539
826.206	17474
826.346	17608
826.485	17535
826.625	17539
826.765	17672
826.904	17714
827.044	17326
827.183	17372
827.323	17239
827.462	17250
827.601	17284
827.741	17181
827.88	17337
828.02	17155
828.159	17334
828.298	17296
828.437	17452
828.577	17189
828.716	17398
828.855	17337
828.994	17010
829.134	17056
829.273	17159
829.412	17067
829.551	16976
829.69	17037
829.829	17003
829.968	17178
830.107	17075
830.246	17185
830.385	16930
830.524	16885
830.663	16858
830.802	16843
830.941	16599
831.08	16748
831.219	16752
831.357	16721
831.496	16900
831.635	16702
831.774	16664
831.913	16523
832.051	16424
832.19	16344
832.329	16417
832.467	16314
832.606	16276
832.744	16284
832.883	16386
833.022	16367
833.16	16409
833.299	16303
833.437	16261
833.576	16432
833.714	16371
833.852	16382
833.991	16508
834.129	16504
834.267	16451
834.406	16413
834.544	16409
834.682	16424
834.821	16447
834.959	16470
835.097	16421
835.235	16573
835.373	16489
835.511	16363
835.65	16272
835.788	16333
835.926	16238
836.064	16101
836.202	16147
836.34	16436
836.478	16371
836.615	16322
836.753	16337
836.891	16428
837.029	16329
837.167	16386
837.305	16287
837.443	16310
837.58	16162
837.718	16341
837.856	16249
837.993	16124
838.131	16173
838.269	16082
838.406	16196
838.544	16048
838.681	15979
838.819	15907
838.956	15797
839.094	15838
839.231	15743
839.369	15915
839.506	16188
839.643	15968
839.781	15762
839.918	15861
840.055	15724
840.193	15667
840.33	15732
840.467	15770
840.604	15736
840.742	16013
840.879	15618
841.016	15736
841.153	15720
841.29	15854
841.427	15774
841.564	15713
841.701	15770
841.838	15728
841.975	15667
842.112	15648
842.249	15644
842.385	15561
842.522	15637
842.659	15584
842.796	15469
842.933	15538
843.069	15500
843.206	15435
843.343	15644
843.479	15523
843.616	15557
843.752	15348
843.889	15363
844.025	15336
844.162	15268
844.298	15378
844.435	15355
844.571	15313
844.708	15367
844.844	15515
844.98	15568
845.117	15397
845.253	15310
845.389	15291
845.525	15321
845.661	15241
845.798	15138
845.934	15089
846.07	15028
846.206	15203
846.342	15245
846.478	15093
846.614	14956
846.75	14861
846.886	14929
847.022	15047
847.158	14952
847.294	14986
847.429	14899
847.565	14872
847.701	15085
847.837	14621
847.972	14648
848.108	14727
848.244	14549
848.379	14590
848.515	14499
848.65	14457
848.786	14469
848.921	14492
849.057	14613
849.192	14590
849.328	14480
849.463	14488
849.598	14454
849.734	14400
849.869	14385
850.004	14145
850.14	14347
850.275	14233
850.41	14218
850.545	14214
850.68	14229
850.815	14313
850.95	14286
851.085	14488
851.22	14473
851.355	14210
851.49	14248
851.625	14286
851.76	14313
851.895	14221
852.03	14187
852.165	14259
852.299	14248
852.434	14415
852.569	14275
852.703	14286
852.838	14355
852.973	14454
853.107	14530
853.242	14275
853.376	14115
853.511	14103
853.645	14107
853.78	14199
853.914	14073
854.048	14233
854.183	14115
854.317	14161
854.451	14275
854.585	14233
854.72	14062
854.854	14317
854.988	14027
855.122	14115
855.256	14016
855.39	14134
855.524	14248
855.658	14210
855.792	14195
855.926	14206
856.06	14256
856.194	14244
856.327	14145
856.461	14187
856.595	14103
856.729	14161
856.862	14229
856.996	14271
857.13	14259
857.263	14275
857.397	14278
857.53	14168
857.664	14202
857.797	14259
857.931	14347
858.064	14240
858.197	14351
858.331	14210
858.464	14210
858.597	14168
858.731	14229
858.864	14065
858.997	14149
859.13	14218
859.263	14172
859.396	14282
859.529	14172
859.662	14244
859.795	14123
859.928	14172
860.061	14351
860.194	14396
860.327	14202
860.46	14195
860.592	14377
860.725	14294
860.858	14221
860.99	14073
861.123	14149
861.256	14111
861.388	14180
861.521	14914
861.653	14111
861.786	14039
861.918	13978
862.05	14058
862.183	14123
862.315	14233
862.447	14317
862.58	14145
862.712	13989
862.844	13959
862.976	14039
863.108	14035
863.24	14294
863.372	13932
863.504	13947
863.636	14058
863.768	13974
863.9	13947
864.032	13936
864.164	14020
864.296	14001
864.428	14065
864.559	14119
864.691	14180
864.823	14065
864.954	14035
865.086	13978
865.217	13940
865.349	13917
865.48	13959
865.612	14077
865.743	14016
865.875	14035
866.006	13875
866.137	13959
866.269	13883
866.4	13902
866.531	13849
866.662	13898
866.793	13845
866.924	13868
867.055	14035
867.186	13951
867.317	13955
867.448	13818
867.579	13852
867.71	13947
867.841	13868
867.972	13982
868.103	14012
868.233	13959
868.364	13883
868.495	14100
868.625	14111
868.756	14343
868.886	14187
869.017	14164
869.147	14339
869.278	14343
869.408	14259
869.539	14161
869.669	14271
869.799	14123
869.929	14389
870.06	14294
870.19	14492
870.32	14511
870.45	14461
870.58	14575
870.71	14689
870.84	14712
870.97	14667
871.1	14598
871.23	14864
871.36	14674
871.489	14629
871.619	14720
871.749	14800
871.879	14800
872.008	14941
872.138	14785
872.267	14838
872.397	14697
872.526	14594
872.656	14705
872.785	14632
872.915	14823
873.044	14914
873.173	14792
873.303	14830
873.432	14937
873.561	14967
873.69	14872
873.819	14925
873.948	14956
874.077	14876
874.206	14826
874.335	14872
874.464	14979
874.593	15058
874.722	15051
874.851	15131
874.979	15161
875.108	15233
875.237	15039
875.365	15085
875.494	15157
875.623	15222
875.751	15100
875.88	15233
876.008	15389
876.136	15397
876.265	15542
876.393	15797
876.521	15728
876.65	15625
876.778	15667
876.906	15504
877.034	15553
877.162	15656
877.29	15511
877.418	15450
877.546	15591
877.674	15625
877.802	15576
877.93	15545
878.058	15614
878.185	15549
878.313	15519
878.441	15629
878.568	15359
878.696	15488
878.824	15511
878.951	15648
879.079	15671
879.206	15907
879.333	15675
879.461	15644
879.588	15603
879.715	15816
879.842	15884
879.97	15591
880.097	15393
880.224	15393
880.351	15485
880.478	15454
880.605	15382
880.732	15511
880.859	15720
880.986	15473
881.112	15568
881.239	15397
881.366	15264
881.493	15150
881.619	15119
881.746	15100
881.872	15070
881.999	15058
882.125	15100
882.252	15165
882.378	15169
882.505	15211
882.631	15077
882.757	14899
882.883	14941
883.01	14910
883.136	14929
883.262	14796
883.388	14754
883.514	14902
883.64	14971
883.766	14906
883.892	14777
884.018	14811
884.143	14857
884.269	14891
884.395	14727
884.52	14587
884.646	14663
884.772	14590
884.897	14488
885.023	14514
885.148	14773
885.274	14807
885.399	14769
885.524	14602
885.65	14610
885.775	14644
885.9	14556
886.025	14712
886.15	14701
886.275	14537
886.4	14533
886.525	14644
886.65	14617
886.775	14484
886.9	14686
887.025	14830
887.149	14644
887.274	14465
887.399	14412
887.523	14415
887.648	14488
887.773	14408
887.897	14541
888.021	14480
888.146	14454
888.27	14579
888.395	14610
888.519	14590
888.643	14454
888.767	14526
888.891	14339
889.015	14313
889.139	14339
889.263	14267
889.387	14450
889.511	14492
889.635	14385
889.759	14240
889.883	14385
890.006	14347
890.13	14438
890.254	14271
890.377	14225
890.501	14119
890.624	14081
890.748	14237
890.871	14126
890.995	13982
891.118	13967
891.241	14016
891.364	13986
891.488	14115
891.611	14012
891.734	14046
891.857	14065
891.98	14039
892.103	14050
892.226	14054
892.349	13989
892.471	13852
892.594	13986
892.717	14062
892.839	14005
892.962	13989
893.085	14096
893.207	13986
893.33	13951
893.452	13894
893.575	14016
893.697	13959
893.819	14214
893.941	14149
894.064	14183
894.186	14031
894.308	13959
894.43	14168
894.552	14225
894.674	14119
894.796	14103
894.918	14100
895.04	14092
895.161	14210
895.283	14195
895.405	14027
895.526	14107
895.648	14126
895.769	14180
895.891	14115
896.012	14187
896.134	14123
896.255	14161
896.376	14081
896.498	14157
896.619	14351
896.74	14206
896.861	14259
896.982	14560
897.103	14594
897.224	14533
897.345	14484
897.466	14339
897.587	14530
897.708	14606
897.828	14461
897.949	14351
898.07	14389
898.19	14351
898.311	14571
898.431	14530
898.552	14514
898.672	14587
898.792	14708
898.913	14659
899.033	14488
899.153	14396
899.273	14256
899.393	14412
899.513	14332
899.633	14370
899.753	14434
899.873	14374
899.993	14480
900.113	14400
900.232	14393
900.352	14301
900.472	14374
900.591	14240
900.711	14199
900.83	14168
900.95	14366
901.069	14355
901.189	14191
901.308	13883
901.427	13852
901.546	13936
901.665	13989
901.784	13963
901.904	13784
902.023	13681
902.141	13552
902.26	13510
902.379	13655
902.498	13487
902.617	13480
902.735	13464
902.854	13460
902.973	13529
903.091	13278
903.21	13263
903.328	13175
903.446	13213
903.565	13095
903.683	13004
903.801	13008
903.919	13129
904.038	12954
904.156	12905
904.274	12985
904.392	12901
904.51	12882
904.627	12913
904.745	12966
904.863	12947
904.981	12726
905.098	12612
905.216	12616
905.334	12730
905.451	12604
905.569	12582
905.686	12700
905.803	12642
905.921	12395
906.038	12467
906.155	12456
906.272	12277
906.389	12239
906.506	12175
906.623	12232
906.74	12167
906.857	12034
906.974	12026
907.091	12247
907.208	12315
907.324	12266
907.441	12057
907.557	11931
907.674	11855
907.79	11874
907.907	11859
908.023	11939
908.139	11961
908.256	11969
908.372	11889
908.488	11779
908.604	11703
908.72	11676
908.836	11703
908.952	11623
909.068	11695
909.184	11866
909.3	11699
909.415	11752
909.531	11748
909.647	11509
909.762	11474
909.878	11398
909.993	11520
910.108	11345
910.224	11497
910.339	11402
910.454	11383
910.57	11315
910.685	11212
910.8	11589
910.915	11433
911.03	11341
911.145	11178
911.259	11132
911.374	11124
911.489	10938
911.604	11113
911.718	10919
911.833	10854
911.947	10828
912.062	10748
912.176	10885
912.291	10938
912.405	10824
912.519	11098
912.633	11193
912.748	10987
912.862	10881
912.976	10850
913.09	10675
913.204	10767
913.318	10824
913.431	10866
913.545	10919
913.659	10889
913.772	10793
913.886	10675
914	10733
914.113	10805
914.226	10831
914.34	10812
914.453	10573
914.566	10736
914.68	10618
914.793	10588
914.906	10455
915.019	10394
915.132	10367
915.245	10322
915.358	10402
915.47	10508
915.583	10405
915.696	10417
915.809	10542
915.921	10569
916.034	10428
916.146	10424
916.259	10386
916.371	10459
916.483	10398
916.595	10375
916.708	10287
916.82	10360
916.932	10375
917.044	10295
917.156	10306
917.268	10238
917.38	10230
917.491	10242
917.603	10261
917.715	10322
917.826	10382
917.938	10200
918.049	10135
918.161	10238
918.272	10405
918.384	10394
918.495	10310
918.606	10150
918.717	10044
918.828	10242
918.939	10158
919.05	10135
919.161	10105
919.272	9956
919.383	10055
919.494	10185
919.604	10409
919.715	10158
919.826	10139
919.936	10120
920.047	10314
920.157	10154
920.267	10318
920.378	10196
920.488	10135
920.598	10413
920.708	10523
920.818	10356
920.928	10371
921.038	10611
921.148	10500
921.258	10223
921.368	10204
921.477	10017
921.587	10036
921.697	9949
921.806	10143
921.916	9934
922.025	9736
922.134	9755
922.244	9637
922.353	9759
922.462	9644
922.571	9564
922.68	9447
922.789	9439
922.898	9424
923.007	9435
923.116	9466
923.224	9469
923.333	9325
923.442	9374
923.55	9355
923.659	9348
923.767	9382
923.876	9370
923.984	9424
924.092	9249
924.201	9298
924.309	9355
924.417	9313
924.525	9230
924.633	9344
924.741	10207
924.849	9081
924.956	9268
925.064	9135
925.172	9077
925.279	9051
925.387	9062
925.494	9116
925.602	9226
925.709	9161
925.816	8998
925.924	9097
926.031	9161
926.138	9154
926.245	9146
926.352	9108
926.459	9233
926.566	9184
926.673	9070
926.779	8990
926.886	8956
926.993	8933
927.099	8823
927.206	8739
927.312	8792
927.419	8861
927.525	8811
927.631	8785
927.737	8659
927.843	8720
927.95	8571
928.056	8682
928.162	8705
928.267	8800
928.373	9431
928.479	8849
928.585	8594
928.69	8701
928.796	8739
928.901	8678
929.007	8495
929.112	8655
929.218	8629
929.323	8541
929.428	8537
929.533	8621
929.638	8465
929.743	8480
929.848	8590
929.953	8484
930.058	8415
930.163	8267
930.267	8320
930.372	8450
930.477	8256
930.581	8568
930.685	8400
930.79	8279
930.894	8279
930.998	8252
931.103	8393
931.207	8054
931.311	7982
931.415	7932
931.519	7807
931.623	7723
