Data from test_V78500241_3296.txt Node
Date: Fri Mar 25 14:56:39 CST 2022
User: usil
Spectrometer: V785-0024
Trigger mode: 0
Integration Time (sec): 4.000000E-1
Scans to average: 1
Nonlinearity correction enabled: false
Boxcar width: 0
Storing dark spectrum: false
XAxis mode: Wavelengths
Number of Pixels in Spectrum: 1024
>>>>>Begin Spectral Data<<<<<
801.071	22048
801.214	21880
801.356	21690
801.499	21534
801.641	21447
801.783	21340
801.926	21344
802.068	21161
802.211	21237
802.353	21138
802.496	21032
802.638	20834
802.78	20864
802.923	20701
803.065	20575
803.208	20743
803.35	20804
803.492	20735
803.635	20712
803.777	20629
803.919	20849
804.061	21074
804.204	20644
804.346	20686
804.488	20549
804.63	20613
804.773	20556
804.915	20670
805.057	20629
805.199	20530
805.341	20765
805.483	20796
805.626	20765
805.768	20560
805.91	20537
806.052	20739
806.194	20530
806.336	20785
806.478	20659
806.62	20469
806.762	20655
806.904	20678
807.046	21036
807.188	20918
807.33	20990
807.472	20979
807.614	20906
807.756	20842
807.898	20705
808.04	20609
808.182	20629
808.324	20674
808.465	20773
808.607	20746
808.749	20914
808.891	20845
809.033	21081
809.174	21005
809.316	20872
809.458	21013
809.6	20807
809.741	21001
809.883	21093
810.025	21195
810.166	21039
810.308	21070
810.45	20979
810.591	20948
810.733	20746
810.875	20792
811.016	20560
811.158	20587
811.299	20724
811.441	20891
811.582	20853
811.724	20708
811.865	20606
812.007	20571
812.148	20689
812.29	20686
812.431	20857
812.573	21005
812.714	21043
812.855	21256
812.997	21332
813.138	21367
813.279	21416
813.421	21351
813.562	21154
813.703	20838
813.845	20792
813.986	20484
814.127	20465
814.268	20347
814.41	20252
814.551	20298
814.692	20168
814.833	20180
814.974	20138
815.115	20275
815.256	20062
815.397	20145
815.539	20062
815.68	20115
815.821	19788
815.962	20031
816.103	19989
816.244	19696
816.385	19841
816.526	19696
816.666	19586
816.807	19346
816.948	19460
817.089	19415
817.23	19430
817.371	19304
817.512	19324
817.653	19335
817.793	19346
817.934	19335
818.075	19350
818.216	19358
818.356	19263
818.497	19247
818.638	19031
818.778	19107
818.919	18981
819.06	19057
819.2	19206
819.341	19266
819.481	19285
819.622	19441
819.762	19597
819.903	19483
820.043	19609
820.184	19335
820.324	19457
820.465	19422
820.605	19400
820.746	19316
820.886	19141
821.026	19255
821.167	19274
821.307	19422
821.447	19194
821.588	19175
821.728	19027
821.868	18890
822.008	18711
822.149	18741
822.289	18658
822.429	18559
822.569	18498
822.709	18509
822.849	18350
822.99	18098
823.13	18144
823.27	18289
823.41	18011
823.55	17999
823.69	18095
823.83	17942
823.97	17935
824.11	17855
824.25	17813
824.389	17802
824.529	17958
824.669	17817
824.809	17908
824.949	17805
825.089	17885
825.228	17870
825.368	17722
825.508	17562
825.648	17539
825.787	17657
825.927	17726
826.067	17535
826.206	17486
826.346	17649
826.485	17627
826.625	17562
826.765	17627
826.904	17703
827.044	17463
827.183	17296
827.323	17277
827.462	17452
827.601	17334
827.741	17326
827.88	17242
828.02	17181
828.159	17280
828.298	17166
828.437	17273
828.577	17353
828.716	17372
828.855	17277
828.994	17117
829.134	17060
829.273	16991
829.412	17075
829.551	17025
829.69	17010
829.829	17136
829.968	17117
830.107	17037
830.246	17014
830.385	17010
830.524	16961
830.663	16854
830.802	16949
830.941	16675
831.08	16641
831.219	16790
831.357	16771
831.496	16892
831.635	16675
831.774	16618
831.913	16584
832.051	16531
832.19	16466
832.329	16489
832.467	16367
832.606	16360
832.744	16386
832.883	16447
833.022	16322
833.16	16390
833.299	16428
833.437	16375
833.576	16402
833.714	16360
833.852	16409
833.991	16478
834.129	16474
834.267	16451
834.406	16360
834.544	16451
834.682	16451
834.821	16402
834.959	16649
835.097	16379
835.235	16474
835.373	16443
835.511	16428
835.65	16299
835.788	16405
835.926	16166
836.064	16143
836.202	16242
836.34	16405
836.478	16402
836.615	16310
836.753	16421
836.891	16379
837.029	16379
837.167	16280
837.305	16219
837.443	16238
837.58	16131
837.718	16356
837.856	16246
837.993	16150
838.131	16204
838.269	16196
838.406	16169
838.544	16074
838.681	15918
838.819	15903
838.956	15762
839.094	15709
839.231	15762
839.369	16002
839.506	16173
839.643	15979
839.781	15755
839.918	15698
840.055	15698
840.193	15785
840.33	15698
840.467	15705
840.604	15713
840.742	15994
840.879	15625
841.016	15591
841.153	15724
841.29	15911
841.427	15797
841.564	15808
841.701	15743
841.838	15728
841.975	15614
842.112	15652
842.249	15622
842.385	15652
842.522	15728
842.659	15679
842.796	15481
842.933	15545
843.069	15564
843.206	15507
843.343	15561
843.479	15545
843.616	15561
843.752	15363
843.889	15294
844.025	15496
844.162	15310
844.298	15519
844.435	15348
844.571	15256
844.708	15454
844.844	15428
844.98	15458
845.117	15500
845.253	15264
845.389	15313
845.525	15306
845.661	15211
845.798	15207
845.934	15150
846.07	15066
846.206	15017
846.342	15226
846.478	15051
846.614	14933
846.75	14849
846.886	14857
847.022	14998
847.158	15039
847.294	14880
847.429	14895
847.565	14944
847.701	15097
847.837	14716
847.972	14644
848.108	14701
848.244	14777
848.379	14712
848.515	14469
848.65	14488
848.786	14454
848.921	14545
849.057	14629
849.192	14571
849.328	14457
849.463	14560
849.598	14511
849.734	14438
849.869	14442
850.004	14317
850.14	14263
850.275	14355
850.41	14206
850.545	14210
850.68	14278
850.815	14271
850.95	14248
851.085	14454
851.22	14415
851.355	14313
851.49	14317
851.625	14233
851.76	14233
851.895	14195
852.03	14145
852.165	14309
852.299	14343
852.434	14275
852.569	14377
852.703	14355
852.838	14431
852.973	14480
853.107	14442
853.242	14233
853.376	14210
853.511	14035
853.645	14126
853.78	14320
853.914	14164
854.048	14149
854.183	14191
854.317	14180
854.451	14309
854.585	14218
854.72	14176
854.854	14263
854.988	14084
855.122	14134
855.256	14123
855.39	14172
855.524	14252
855.658	14187
855.792	14267
855.926	14088
856.06	14259
856.194	14294
856.327	14244
856.461	14111
856.595	14119
856.729	14176
856.862	14328
856.996	14164
857.13	14195
857.263	14244
857.397	14206
857.53	14298
857.664	14290
857.797	14240
857.931	14343
858.064	14221
858.197	14259
858.331	14195
858.464	14096
858.597	14054
858.731	14088
858.864	14142
858.997	14145
859.13	14138
859.263	14263
859.396	14286
859.529	14172
859.662	14065
859.795	14202
859.928	14149
860.061	14339
860.194	14282
860.327	14229
860.46	14088
860.592	14263
860.725	14343
860.858	14286
860.99	14130
861.123	14126
861.256	14103
861.388	14229
861.521	15085
861.653	14035
861.786	14005
861.918	14008
862.05	14126
862.183	14103
862.315	14199
862.447	14256
862.58	14130
862.712	13932
862.844	13887
862.976	14001
863.108	13970
863.24	14244
863.372	13906
863.504	14016
863.636	13909
863.768	14024
863.9	13974
864.032	13951
864.164	13875
864.296	13917
864.428	14043
864.559	14058
864.691	14027
864.823	14031
864.954	13925
865.086	14005
865.217	13940
865.349	13879
865.48	13940
865.612	13936
865.743	14043
865.875	13906
866.006	13921
866.137	13989
866.269	13959
866.4	13989
866.531	13967
866.662	13849
866.793	13814
866.924	13845
867.055	13947
867.186	13978
867.317	13902
867.448	13909
867.579	13887
867.71	13803
867.841	13849
867.972	13947
868.103	13967
868.233	14001
868.364	13970
868.495	13970
868.625	14008
868.756	14252
868.886	14183
869.017	14168
869.147	14256
869.278	14370
869.408	14199
869.539	14157
869.669	14396
869.799	14317
869.929	14278
870.06	14415
870.19	14549
870.32	14533
870.45	14625
870.58	14579
870.71	14750
870.84	14830
870.97	14640
871.1	14617
871.23	14731
871.36	14838
871.489	14762
871.619	14792
871.749	14830
871.879	14819
872.008	15051
872.138	14727
872.267	14788
872.397	14537
872.526	14541
872.656	14617
872.785	14625
872.915	14842
873.044	14842
873.173	14765
873.303	14921
873.432	14891
873.561	14849
873.69	14834
873.819	14838
873.948	14948
874.077	14830
874.206	14830
874.335	14910
874.464	14910
874.593	15138
874.722	15097
874.851	15176
874.979	15150
875.108	15199
875.237	15154
875.365	15051
875.494	15100
875.623	15298
875.751	15085
875.88	15195
876.008	15313
876.136	15405
876.265	15599
876.393	15648
876.521	15667
876.65	15656
876.778	15553
876.906	15496
877.034	15549
877.162	15610
877.29	15485
877.418	15542
877.546	15587
877.674	15629
877.802	15534
877.93	15572
878.058	15538
878.185	15485
878.313	15595
878.441	15682
878.568	15329
878.696	15458
878.824	15538
878.951	15637
879.079	15633
879.206	15937
879.333	15774
879.461	15629
879.588	15732
879.715	15682
879.842	15869
879.97	15572
880.097	15447
880.224	15462
880.351	15466
880.478	15424
880.605	15447
880.732	15466
880.859	15667
880.986	15431
881.112	15557
881.239	15287
881.366	15165
881.493	15100
881.619	15131
881.746	15058
881.872	15074
881.999	15058
882.125	15013
882.252	15085
882.378	15157
882.505	15249
882.631	15097
882.757	14876
882.883	15024
883.01	15020
883.136	14876
883.262	14788
883.388	14750
883.514	14823
883.64	14861
883.766	14868
883.892	14739
884.018	14800
884.143	14861
884.269	14960
884.395	14568
884.52	14610
884.646	14678
884.772	14644
884.897	14469
885.023	14678
885.148	14739
885.274	14785
885.399	14701
885.524	14583
885.65	14705
885.775	14583
885.9	14537
886.025	14701
886.15	14602
886.275	14674
886.4	14495
886.525	14549
886.65	14514
886.775	14549
886.9	14602
887.025	14876
887.149	14602
887.274	14434
887.399	14423
887.523	14427
887.648	14415
887.773	14366
887.897	14533
888.021	14465
888.146	14507
888.27	14587
888.395	14484
888.519	14454
888.643	14465
888.767	14503
888.891	14366
889.015	14233
889.139	14358
889.263	14294
889.387	14450
889.511	14503
889.635	14457
889.759	14256
889.883	14324
890.006	14301
890.13	14381
890.254	14278
890.377	14233
890.501	14214
890.624	14149
890.748	14214
890.871	14084
890.995	13970
891.118	13944
891.241	14008
891.364	14077
891.488	14084
891.611	14039
891.734	14054
891.857	13993
891.98	14077
892.103	14012
892.226	13993
892.349	13978
892.471	13974
892.594	13993
892.717	14008
892.839	14062
892.962	13974
893.085	14195
893.207	14016
893.33	13898
893.452	13944
893.575	14046
893.697	14001
893.819	14168
893.941	14210
894.064	14134
894.186	13978
894.308	13951
894.43	14130
894.552	14309
894.674	14100
894.796	13909
894.918	14062
895.04	14111
895.161	14183
895.283	14096
895.405	14054
895.526	14130
895.648	14062
895.769	14149
895.891	14191
896.012	14309
896.134	14153
896.255	14138
896.376	14111
896.498	14191
896.619	14248
896.74	14123
896.861	14202
896.982	14503
897.103	14705
897.224	14499
897.345	14381
897.466	14374
897.587	14473
897.708	14579
897.828	14450
897.949	14446
898.07	14267
898.19	14396
898.311	14541
898.431	14511
898.552	14549
898.672	14613
898.792	14564
898.913	14594
899.033	14423
899.153	14377
899.273	14389
899.393	14427
899.513	14419
899.633	14366
899.753	14465
899.873	14412
899.993	14499
900.113	14404
900.232	14450
900.352	14324
900.472	14252
900.591	14180
900.711	14336
900.83	14168
900.95	14313
901.069	14320
901.189	14229
901.308	13921
901.427	13978
901.546	13906
901.665	13997
901.784	13997
901.904	13814
902.023	13624
902.141	13480
902.26	13491
902.379	13525
902.498	13514
902.617	13460
902.735	13518
902.854	13441
902.973	13415
903.091	13259
903.21	13251
903.328	13168
903.446	13171
903.565	13129
903.683	13034
903.801	13012
903.919	13034
904.038	12996
904.156	12844
904.274	12943
904.392	12833
904.51	12817
904.627	12817
904.745	12943
904.863	12973
904.981	12749
905.098	12532
905.216	12574
905.334	12570
905.451	12479
905.569	12563
905.686	12684
905.803	12578
905.921	12319
906.038	12486
906.155	12452
906.272	12372
906.389	12346
906.506	12224
906.623	12136
906.74	12235
906.857	12057
906.974	12110
907.091	12190
907.208	12353
907.324	12186
907.441	12053
907.557	11954
907.674	11874
907.79	11783
907.907	11840
908.023	12015
908.139	11859
908.256	11885
908.372	11832
908.488	11809
908.604	11710
908.72	11691
908.836	11657
908.952	11562
909.068	11710
909.184	11722
909.3	11627
909.415	11771
909.531	11688
909.647	11539
909.762	11436
909.878	11379
909.993	11391
910.108	11398
910.224	11337
910.339	11512
910.454	11395
910.57	11296
910.685	11216
910.8	11539
910.915	11524
911.03	11406
911.145	11136
911.259	11140
911.374	11143
911.489	11052
911.604	11052
911.718	10877
911.833	11010
911.947	10733
912.062	10790
912.176	10908
912.291	10927
912.405	10908
912.519	11117
912.633	11109
912.748	11025
912.862	10965
912.976	10786
913.09	10596
913.204	10706
913.318	10774
913.431	10968
913.545	10850
913.659	10923
913.772	10793
913.886	10672
914	10740
914.113	10763
914.226	10843
914.34	10771
914.453	10508
914.566	10790
914.68	10683
914.793	10668
914.906	10440
915.019	10447
915.132	10337
915.245	10440
915.358	10424
915.47	10421
915.583	10451
915.696	10440
915.809	10481
915.921	10584
916.034	10447
916.146	10367
916.259	10409
916.371	10394
916.483	10432
916.595	10356
916.708	10287
916.82	10303
916.932	10268
917.044	10276
917.156	10333
917.268	10192
917.38	10223
917.491	10188
917.603	10207
917.715	10367
917.826	10390
917.938	10173
918.049	10135
918.161	10223
918.272	10333
918.384	10318
918.495	10329
918.606	10227
918.717	10071
918.828	10143
918.939	10097
919.05	10025
919.161	10166
919.272	9930
919.383	10017
919.494	10173
919.604	10299
919.715	10158
919.826	9998
919.936	10112
920.047	10257
920.157	10223
920.267	10379
920.378	10173
920.488	10124
920.598	10333
920.708	10462
920.818	10375
920.928	10341
921.038	10485
921.148	10474
921.258	10261
921.368	10139
921.477	9994
921.587	9899
921.697	9941
921.806	10082
921.916	9903
922.025	9781
922.134	9755
922.244	9656
922.353	9701
922.462	9599
922.571	9568
922.68	9473
922.789	9363
922.898	9450
923.007	9363
923.116	9431
923.224	9382
923.333	9340
923.442	9302
923.55	9268
923.659	9294
923.767	9374
923.876	9249
923.984	9336
924.092	9169
924.201	9344
924.309	9294
924.417	9332
924.525	9218
924.633	9188
924.741	10124
924.849	9165
924.956	9264
925.064	9108
925.172	8979
925.279	9043
925.387	9077
925.494	9020
925.602	9135
925.709	9127
925.816	8967
925.924	9020
926.031	9123
926.138	9036
926.245	9089
926.352	9017
926.459	9119
926.566	9127
926.673	9028
926.779	8929
926.886	8891
926.993	8796
927.099	8716
927.206	8686
927.312	8712
927.419	8819
927.525	8823
927.631	8887
927.737	8689
927.843	8682
927.95	8507
928.056	8617
928.162	8670
928.267	8754
928.373	9218
928.479	8773
928.585	8473
928.69	8579
928.796	8724
928.901	8564
929.007	8438
929.112	8640
929.218	8568
929.323	8537
929.428	8488
929.533	8629
929.638	8415
929.743	8545
929.848	8499
929.953	8514
930.058	8370
930.163	8279
930.267	8298
930.372	8362
930.477	8225
930.581	8457
930.685	8339
930.79	8183
930.894	8263
930.998	8210
931.103	8336
931.207	8020
931.311	7974
931.415	7913
931.519	7753
931.623	7696
