Data from test_V78500241_2584.txt Node
Date: Fri Mar 25 14:51:42 CST 2022
User: usil
Spectrometer: V785-0024
Trigger mode: 0
Integration Time (sec): 4.000000E-1
Scans to average: 1
Nonlinearity correction enabled: false
Boxcar width: 0
Storing dark spectrum: false
XAxis mode: Wavelengths
Number of Pixels in Spectrum: 1024
>>>>>Begin Spectral Data<<<<<
801.071	21934
801.214	21857
801.356	21751
801.499	21538
801.641	21287
801.783	21500
801.926	21359
802.068	21401
802.211	21226
802.353	21138
802.496	20971
802.638	20918
802.78	20864
802.923	20792
803.065	20735
803.208	20632
803.35	20796
803.492	20899
803.635	20792
803.777	20735
803.919	20807
804.061	21039
804.204	20758
804.346	20720
804.488	20640
804.63	20659
804.773	20613
804.915	20636
805.057	20769
805.199	20636
805.341	20655
805.483	20750
805.626	20689
805.768	20705
805.91	20705
806.052	20678
806.194	20568
806.336	20785
806.478	20533
806.62	20621
806.762	20682
806.904	20868
807.046	21070
807.188	20967
807.33	21009
807.472	21058
807.614	20872
807.756	20849
807.898	20705
808.04	20727
808.182	20651
808.324	20762
808.465	20876
808.607	20849
808.749	21028
808.891	21123
809.033	21241
809.174	21043
809.316	21028
809.458	20918
809.6	21024
809.741	20986
809.883	21176
810.025	21184
810.166	21077
810.308	21176
810.45	21093
810.591	21123
810.733	20914
810.875	20861
811.016	20659
811.158	20697
811.299	20678
811.441	21013
811.582	20910
811.724	20762
811.865	20686
812.007	20708
812.148	20830
812.29	20655
812.431	20994
812.573	21013
812.714	21108
812.855	21180
812.997	21374
813.138	21447
813.279	21405
813.421	21355
813.562	21203
813.703	21089
813.845	20925
813.986	20716
814.127	20530
814.268	20309
814.41	20328
814.551	20347
814.692	20343
814.833	20256
814.974	20313
815.115	20221
815.256	20027
815.397	20130
815.539	20172
815.68	20126
815.821	19997
815.962	19982
816.103	20100
816.244	19906
816.385	19860
816.526	19791
816.666	19563
816.807	19460
816.948	19594
817.089	19624
817.23	19438
817.371	19403
817.512	19438
817.653	19373
817.793	19384
817.934	19499
818.075	19464
818.216	19362
818.356	19396
818.497	19324
818.638	19076
818.778	19061
818.919	19099
819.06	19110
819.2	19320
819.341	19457
819.481	19339
819.622	19518
819.762	19689
819.903	19533
820.043	19476
820.184	19403
820.324	19396
820.465	19472
820.605	19445
820.746	19324
820.886	19335
821.026	19373
821.167	19388
821.307	19445
821.447	19381
821.588	19331
821.728	19213
821.868	18810
822.008	18867
822.149	18795
822.289	18901
822.429	18483
822.569	18490
822.709	18452
822.849	18350
822.99	18247
823.13	18285
823.27	18190
823.41	18167
823.55	17965
823.69	18319
823.83	18167
823.97	18064
824.11	17946
824.25	17950
824.389	17969
824.529	17969
824.669	17984
824.809	17973
824.949	17996
825.089	17908
825.228	17904
825.368	17722
825.508	17657
825.648	17646
825.787	17684
825.927	17794
826.067	17634
826.206	17528
826.346	17729
826.485	17638
826.625	17604
826.765	17684
826.904	17714
827.044	17493
827.183	17516
827.323	17364
827.462	17402
827.601	17379
827.741	17356
827.88	17337
828.02	17379
828.159	17406
828.298	17364
828.437	17482
828.577	17398
828.716	17455
828.855	17395
828.994	17185
829.134	17090
829.273	17136
829.412	17132
829.551	17037
829.69	17147
829.829	17181
829.968	17166
830.107	17246
830.246	17193
830.385	17159
830.524	16991
830.663	17033
830.802	16778
830.941	16698
831.08	16683
831.219	16881
831.357	16736
831.496	16866
831.635	16740
831.774	16717
831.913	16710
832.051	16611
832.19	16508
832.329	16599
832.467	16565
832.606	16398
832.744	16504
832.883	16413
833.022	16413
833.16	16535
833.299	16550
833.437	16478
833.576	16424
833.714	16500
833.852	16565
833.991	16474
834.129	16584
834.267	16531
834.406	16516
834.544	16531
834.682	16478
834.821	16447
834.959	16702
835.097	16535
835.235	16561
835.373	16531
835.511	16607
835.65	16417
835.788	16398
835.926	16352
836.064	16287
836.202	16287
836.34	16519
836.478	16447
836.615	16386
836.753	16413
836.891	16546
837.029	16478
837.167	16325
837.305	16299
837.443	16413
837.58	16306
837.718	16462
837.856	16360
837.993	16265
838.131	16382
838.269	16310
838.406	16238
838.544	16162
838.681	15994
838.819	15892
838.956	15861
839.094	15762
839.231	15827
839.369	15964
839.506	16325
839.643	16071
839.781	15884
839.918	15838
840.055	15857
840.193	15884
840.33	15797
840.467	15827
840.604	15907
840.742	16131
840.879	15720
841.016	15732
841.153	15690
841.29	15892
841.427	15876
841.564	15857
841.701	15842
841.838	15835
841.975	15899
842.112	15732
842.249	15587
842.385	15545
842.522	15838
842.659	15690
842.796	15671
842.933	15660
843.069	15595
843.206	15641
843.343	15717
843.479	15656
843.616	15660
843.752	15515
843.889	15443
844.025	15568
844.162	15443
844.298	15466
844.435	15424
844.571	15252
844.708	15416
844.844	15564
844.98	15663
845.117	15542
845.253	15439
845.389	15272
845.525	15302
845.661	15306
845.798	15226
845.934	15245
846.07	15146
846.206	15264
846.342	15374
846.478	15195
846.614	15017
846.75	14956
846.886	15066
847.022	15043
847.158	15039
847.294	15100
847.429	15074
847.565	14933
847.701	15188
847.837	14712
847.972	14693
848.108	14838
848.244	14842
848.379	14590
848.515	14610
848.65	14545
848.786	14610
848.921	14621
849.057	14727
849.192	14686
849.328	14575
849.463	14621
849.598	14564
849.734	14590
849.869	14507
850.004	14415
850.14	14408
850.275	14408
850.41	14282
850.545	14294
850.68	14347
850.815	14290
850.95	14336
851.085	14431
851.22	14415
851.355	14423
851.49	14298
851.625	14298
851.76	14282
851.895	14290
852.03	14248
852.165	14366
852.299	14320
852.434	14404
852.569	14351
852.703	14343
852.838	14389
852.973	14549
853.107	14469
853.242	14275
853.376	14305
853.511	14084
853.645	14180
853.78	14370
853.914	14237
854.048	14248
854.183	14180
854.317	14237
854.451	14400
854.585	14142
854.72	14210
854.854	14294
854.988	14123
855.122	14111
855.256	14005
855.39	14176
855.524	14301
855.658	14282
855.792	14218
855.926	14225
856.06	14275
856.194	14313
856.327	14256
856.461	14195
856.595	14183
856.729	14244
856.862	14305
856.996	14282
857.13	14305
857.263	14381
857.397	14328
857.53	14206
857.664	14358
857.797	14282
857.931	14313
858.064	14313
858.197	14294
858.331	14214
858.464	14199
858.597	14111
858.731	14320
858.864	14267
858.997	14244
859.13	14221
859.263	14290
859.396	14317
859.529	14218
859.662	14244
859.795	14206
859.928	14275
860.061	14396
860.194	14450
860.327	14267
860.46	14237
860.592	14370
860.725	14317
860.858	14362
860.99	14263
861.123	14123
861.256	14123
861.388	14187
861.521	14762
861.653	14134
861.786	14115
861.918	14077
862.05	14191
862.183	14161
862.315	14237
862.447	14195
862.58	14164
862.712	14069
862.844	14008
862.976	14100
863.108	14107
863.24	14412
863.372	13894
863.504	13989
863.636	14073
863.768	13944
863.9	13955
864.032	13902
864.164	14012
864.296	13959
864.428	14161
864.559	14050
864.691	14149
864.823	14115
864.954	14081
865.086	14050
865.217	13986
865.349	13875
865.48	13928
865.612	14016
865.743	14176
865.875	14065
866.006	13928
866.137	13959
866.269	14027
866.4	14062
866.531	13898
866.662	13940
866.793	13906
866.924	13993
867.055	14024
867.186	13944
867.317	13963
867.448	13913
867.579	13967
867.71	14035
867.841	13909
867.972	13986
868.103	14024
868.233	14020
868.364	14020
868.495	14020
868.625	14229
868.756	14339
868.886	14134
869.017	14210
869.147	14351
869.278	14339
869.408	14202
869.539	14202
869.669	14282
869.799	14336
869.929	14370
870.06	14336
870.19	14598
870.32	14492
870.45	14667
870.58	14682
870.71	14743
870.84	14750
870.97	14632
871.1	14621
871.23	14830
871.36	14826
871.489	14769
871.619	14796
871.749	14891
871.879	14857
872.008	14914
872.138	14887
872.267	14849
872.397	14807
872.526	14610
872.656	14663
872.785	14686
872.915	14982
873.044	14925
873.173	14899
873.303	15001
873.432	14990
873.561	14952
873.69	14868
873.819	14842
873.948	14948
874.077	14948
874.206	14986
874.335	14979
874.464	15062
874.593	15233
874.722	15070
874.851	15264
874.979	15165
875.108	15249
875.237	15150
875.365	15077
875.494	15184
875.623	15336
875.751	15188
875.88	15275
876.008	15401
876.136	15412
876.265	15564
876.393	15736
876.521	15675
876.65	15587
876.778	15679
876.906	15591
877.034	15542
877.162	15591
877.29	15599
877.418	15610
877.546	15542
877.674	15625
877.802	15633
877.93	15648
878.058	15675
878.185	15606
878.313	15610
878.441	15603
878.568	15428
878.696	15572
878.824	15660
878.951	15705
879.079	15739
879.206	15934
879.333	15789
879.461	15728
879.588	15698
879.715	15819
879.842	15895
879.97	15679
880.097	15519
880.224	15481
880.351	15580
880.478	15530
880.605	15428
880.732	15523
880.859	15671
880.986	15576
881.112	15473
881.239	15370
881.366	15317
881.493	15211
881.619	15058
881.746	15260
881.872	15142
881.999	15135
882.125	15116
882.252	15207
882.378	15154
882.505	15272
882.631	15135
882.757	14914
882.883	14998
883.01	15036
883.136	14921
883.262	14853
883.388	14705
883.514	14971
883.64	15032
883.766	14967
883.892	14811
884.018	14754
884.143	14902
884.269	15028
884.395	14727
884.52	14606
884.646	14686
884.772	14632
884.897	14556
885.023	14659
885.148	14838
885.274	14853
885.399	14750
885.524	14724
885.65	14674
885.775	14648
885.9	14678
886.025	14762
886.15	14678
886.275	14575
886.4	14549
886.525	14678
886.65	14590
886.775	14594
886.9	14910
887.025	14853
887.149	14625
887.274	14484
887.399	14571
887.523	14412
887.648	14423
887.773	14385
887.897	14522
888.021	14522
888.146	14362
888.27	14522
888.395	14617
888.519	14549
888.643	14492
888.767	14541
888.891	14366
889.015	14305
889.139	14328
889.263	14317
889.387	14446
889.511	14602
889.635	14461
889.759	14324
889.883	14351
890.006	14336
890.13	14545
890.254	14309
890.377	14381
890.501	14134
890.624	14176
890.748	14339
890.871	14107
890.995	13997
891.118	13955
891.241	14054
891.364	14008
891.488	14161
891.611	14012
891.734	14210
891.857	14050
891.98	14020
892.103	14180
892.226	14153
892.349	14031
892.471	13890
892.594	14043
892.717	14050
892.839	14050
892.962	13932
893.085	14088
893.207	14073
893.33	13936
893.452	14001
893.575	14164
893.697	14092
893.819	14176
893.941	14252
894.064	14210
894.186	13944
894.308	13940
894.43	14199
894.552	14282
894.674	14336
894.796	14031
894.918	14134
895.04	14138
895.161	14225
895.283	14248
895.405	14065
895.526	14088
895.648	14259
895.769	14229
895.891	14210
896.012	14240
896.134	14332
896.255	14195
896.376	14225
896.498	14286
896.619	14305
896.74	14172
896.861	14305
896.982	14686
897.103	14686
897.224	14632
897.345	14332
897.466	14396
897.587	14476
897.708	14617
897.828	14568
897.949	14556
898.07	14393
898.19	14476
898.311	14617
898.431	14473
898.552	14610
898.672	14659
898.792	14648
898.913	14564
899.033	14587
899.153	14393
899.273	14298
899.393	14377
899.513	14434
899.633	14434
899.753	14499
899.873	14404
899.993	14499
900.113	14339
900.232	14423
900.352	14495
900.472	14434
900.591	14320
900.711	14339
900.83	14317
900.95	14370
901.069	14305
901.189	14202
901.308	13963
901.427	13940
901.546	14077
901.665	13970
901.784	13974
901.904	13799
902.023	13769
902.141	13620
902.26	13632
902.379	13651
902.498	13487
902.617	13468
902.735	13575
902.854	13537
902.973	13445
903.091	13217
903.21	13206
903.328	13240
903.446	13152
903.565	13091
903.683	13149
903.801	13080
903.919	13122
904.038	13103
904.156	12939
904.274	12916
904.392	12943
904.51	12932
904.627	12886
904.745	12951
904.863	12985
904.981	12722
905.098	12532
905.216	12528
905.334	12662
905.451	12673
905.569	12642
905.686	12719
905.803	12669
905.921	12452
906.038	12563
906.155	12445
906.272	12327
906.389	12445
906.506	12175
906.623	12285
906.74	12140
906.857	12129
906.974	12171
907.091	12353
907.208	12369
907.324	12270
907.441	12079
907.557	11973
907.674	11916
907.79	11870
907.907	11977
908.023	11904
908.139	11931
908.256	11923
908.372	11935
908.488	11889
908.604	11843
908.72	11771
908.836	11688
908.952	11726
909.068	11798
909.184	11824
909.3	11695
909.415	11805
909.531	11630
909.647	11505
909.762	11520
909.878	11444
909.993	11493
910.108	11520
910.224	11471
910.339	11505
910.454	11414
910.57	11353
910.685	11326
910.8	11551
910.915	11577
911.03	11376
911.145	11296
911.259	11128
911.374	11162
911.489	11159
911.604	11048
911.718	10968
911.833	10984
911.947	10866
912.062	10801
912.176	10927
912.291	10953
912.405	10892
912.519	11166
912.633	11128
912.748	11037
912.862	10915
912.976	10835
913.09	10736
913.204	10744
913.318	10869
913.431	10972
913.545	10892
913.659	10972
913.772	10892
913.886	10740
914	10721
914.113	10809
914.226	10805
914.34	10752
914.453	10706
914.566	10763
914.68	10664
914.793	10641
914.906	10535
915.019	10386
915.132	10310
915.245	10432
915.358	10440
915.47	10516
915.583	10481
915.696	10558
915.809	10653
915.921	10653
916.034	10459
916.146	10390
916.259	10322
916.371	10421
916.483	10447
916.595	10409
916.708	10417
916.82	10428
916.932	10344
917.044	10386
917.156	10405
917.268	10303
917.38	10280
917.491	10318
917.603	10287
917.715	10322
917.826	10382
917.938	10265
918.049	10196
918.161	10363
918.272	10443
918.384	10386
918.495	10341
918.606	10177
918.717	10131
918.828	10150
918.939	10230
919.05	10032
919.161	10177
919.272	10044
919.383	9994
919.494	10211
919.604	10386
919.715	10291
919.826	10071
919.936	10166
920.047	10253
920.157	10215
920.267	10428
920.378	10234
920.488	10116
920.598	10322
920.708	10474
920.818	10379
920.928	10360
921.038	10592
921.148	10584
921.258	10246
921.368	10131
921.477	10063
921.587	10063
921.697	9964
921.806	10021
921.916	9964
922.025	9816
922.134	9671
922.244	9728
922.353	9804
922.462	9698
922.571	9580
922.68	9477
922.789	9351
922.898	9488
923.007	9386
923.116	9454
923.224	9458
923.333	9481
923.442	9317
923.55	9325
923.659	9340
923.767	9355
923.876	9275
923.984	9439
924.092	9241
924.201	9340
924.309	9332
924.417	9336
924.525	9279
924.633	9180
924.741	10036
924.849	9085
924.956	9138
925.064	9032
925.172	9032
925.279	9104
925.387	9039
925.494	9074
925.602	9192
925.709	9195
925.816	9055
925.924	9081
926.031	9169
926.138	9123
926.245	9112
926.352	9051
926.459	9211
926.566	9222
926.673	9024
926.779	8975
926.886	8895
926.993	8769
927.099	8830
927.206	8754
927.312	8727
927.419	8853
927.525	8857
927.631	8880
927.737	8743
927.843	8667
927.95	8689
928.056	8682
928.162	8773
928.267	8712
928.373	9359
928.479	8781
928.585	8552
928.69	8670
928.796	8758
928.901	8640
929.007	8419
929.112	8587
929.218	8571
929.323	8537
929.428	8511
929.533	8667
929.638	8556
929.743	8511
929.848	8549
929.953	8575
930.058	8469
930.163	8275
930.267	8305
930.372	8438
930.477	8202
930.581	8514
930.685	8454
930.79	8282
930.894	8290
930.998	8252
931.103	8385
931.207	8035
931.311	8008
931.415	7921
931.519	7727
931.623	7753
