Data from test_V78500241_101.txt Node
Date: Fri Mar 25 14:34:25 CST 2022
User: usil
Spectrometer: V785-0024
Trigger mode: 0
Integration Time (sec): 4.000000E-1
Scans to average: 1
Nonlinearity correction enabled: false
Boxcar width: 0
Storing dark spectrum: false
XAxis mode: Wavelengths
Number of Pixels in Spectrum: 1024
>>>>>Begin Spectral Data<<<<<
801.071	29235
801.214	29265
801.356	29022
801.499	28881
801.641	28740
801.783	28706
801.926	28873
802.068	28691
802.211	28668
802.353	28519
802.496	28440
802.638	28310
802.78	28394
802.923	28257
803.065	28242
803.208	28375
803.35	28413
803.492	28538
803.635	28561
803.777	28386
803.919	28649
804.061	28850
804.204	28599
804.346	28481
804.488	28344
804.63	28424
804.773	28413
804.915	28447
805.057	28592
805.199	28569
805.341	28698
805.483	28569
805.626	28763
805.768	28584
805.91	28790
806.052	28809
806.194	28740
806.336	28953
806.478	28900
806.62	28896
806.762	29033
806.904	29178
807.046	29512
807.188	29421
807.33	29615
807.472	29699
807.614	29878
807.756	30155
807.898	30106
808.04	30327
808.182	30688
808.324	31293
808.465	31712
808.607	32644
808.749	33119
808.891	33770
809.033	33580
809.174	33180
809.316	32674
809.458	32005
809.6	31293
809.741	30886
809.883	30707
810.025	30327
810.166	30159
810.308	30018
810.45	29767
810.591	29745
810.733	29467
810.875	29448
811.016	29155
811.158	29166
811.299	29166
811.441	29421
811.582	29360
811.724	29231
811.865	29143
812.007	29193
812.148	29185
812.29	29124
812.431	29197
812.573	29417
812.714	29478
812.855	29570
812.997	29585
813.138	29760
813.279	29649
813.421	29596
813.562	29417
813.703	29345
813.845	29280
813.986	28919
814.127	28771
814.268	28554
814.41	28691
814.551	28561
814.692	28710
814.833	28478
814.974	28432
815.115	28508
815.256	28462
815.397	28386
815.539	28405
815.68	28405
815.821	28276
815.962	28322
816.103	28207
816.244	28177
816.385	28048
816.526	27892
816.666	27762
816.807	27572
816.948	27530
817.089	27781
817.23	27644
817.371	27572
817.512	27473
817.653	27496
817.793	27660
817.934	27720
818.075	27618
818.216	27614
818.356	27469
818.497	27523
818.638	27252
818.778	27340
818.919	27378
819.06	27325
819.2	27355
819.341	27523
819.481	27504
819.622	27572
819.762	27911
819.903	27736
820.043	27644
820.184	27572
820.324	27591
820.465	27557
820.605	27507
820.746	27542
820.886	27370
821.026	27561
821.167	27378
821.307	27515
821.447	27351
821.588	27348
821.728	27207
821.868	26891
822.008	26956
822.149	26933
822.289	26735
822.429	26564
822.569	26488
822.709	26518
822.849	26313
822.99	26362
823.13	26412
823.27	26069
823.41	26081
823.55	25921
823.69	26107
823.83	26058
823.97	25978
824.11	25963
824.25	25772
824.389	25761
824.529	25898
824.669	25868
824.809	25955
824.949	25864
825.089	25830
825.228	25963
825.368	25628
825.508	25712
825.648	25715
825.787	25761
825.927	25616
826.067	25632
826.206	25613
826.346	25658
826.485	25772
826.625	25647
826.765	25807
826.904	25696
827.044	25441
827.183	25400
827.323	25324
827.462	25312
827.601	25377
827.741	25259
827.88	25544
828.02	25324
828.159	25285
828.298	25263
828.437	25472
828.577	25088
828.716	25270
828.855	25171
828.994	25012
829.134	25053
829.273	24962
829.412	25027
829.551	24935
829.69	24966
829.829	25008
829.968	25015
830.107	25000
830.246	25015
830.385	24882
830.524	24814
830.663	24806
830.802	24703
830.941	24475
831.08	24513
831.219	24551
831.357	24642
831.496	24817
831.635	24494
831.774	24414
831.913	24361
832.051	24281
832.19	24407
832.329	24266
832.467	24224
832.606	24186
832.744	24106
832.883	24239
833.022	24266
833.16	24247
833.299	24350
833.437	24266
833.576	24399
833.714	24296
833.852	24585
833.991	24433
834.129	24422
834.267	24372
834.406	24441
834.544	24437
834.682	24399
834.821	24357
834.959	24498
835.097	24254
835.235	24292
835.373	24194
835.511	24125
835.65	24114
835.788	23992
835.926	23897
836.064	23843
836.202	23809
836.34	23992
836.478	24034
836.615	23897
836.753	23984
836.891	23920
837.029	23973
837.167	23969
837.305	23904
837.443	23824
837.58	23786
837.718	23866
837.856	23969
837.993	23771
838.131	23813
838.269	23676
838.406	23722
838.544	23562
838.681	23433
838.819	23398
838.956	23280
839.094	23212
839.231	23277
839.369	23421
839.506	23520
839.643	23440
839.781	23147
839.918	23147
840.055	23128
840.193	23185
840.33	22976
840.467	23083
840.604	23102
840.742	23334
840.879	22934
841.016	22965
841.153	22984
841.29	23166
841.427	23064
841.564	23181
841.701	23022
841.838	22995
841.975	22850
842.112	22991
842.249	22919
842.385	22858
842.522	22976
842.659	22896
842.796	22664
842.933	22957
843.069	22790
843.206	22717
843.343	22869
843.479	22812
843.616	22812
843.752	22656
843.889	22557
844.025	22656
844.162	22573
844.298	22717
844.435	22634
844.571	22577
844.708	22835
844.844	22869
844.98	22965
845.117	23037
845.253	23102
845.389	23417
845.525	23984
845.661	25122
845.798	26240
845.934	27386
846.07	27797
846.206	27614
846.342	26868
846.478	25430
846.614	24167
846.75	23303
846.886	22774
847.022	22641
847.158	22398
847.294	22242
847.429	22162
847.565	22101
847.701	22211
847.837	21911
847.972	21663
848.108	21842
848.244	21804
848.379	21690
848.515	21511
848.65	21443
848.786	21530
848.921	21477
849.057	21591
849.192	21595
849.328	21603
849.463	21507
849.598	21500
849.734	21496
849.869	21397
850.004	21272
850.14	21230
850.275	21275
850.41	21123
850.545	21230
850.68	21226
850.815	21256
850.95	21203
851.085	21344
851.22	21268
851.355	21226
851.49	21112
851.625	21138
851.76	21252
851.895	21074
852.03	21066
852.165	21150
852.299	21264
852.434	21291
852.569	21252
852.703	21252
852.838	21374
852.973	21226
853.107	21329
853.242	21176
853.376	21165
853.511	21020
853.645	21127
853.78	21157
853.914	21127
854.048	21089
854.183	20963
854.317	21142
854.451	21211
854.585	21081
854.72	21096
854.854	21047
854.988	20918
855.122	21009
855.256	21009
855.39	21020
855.524	21089
855.658	20910
855.792	21093
855.926	21028
856.06	20944
856.194	21081
856.327	20925
856.461	20914
856.595	20952
856.729	20994
856.862	21001
856.996	21089
857.13	21077
857.263	21085
857.397	21066
857.53	21138
857.664	20918
857.797	20956
857.931	21096
858.064	20967
858.197	21142
858.331	20895
858.464	20796
858.597	20804
858.731	20925
858.864	20883
858.997	20899
859.13	20975
859.263	20982
859.396	20941
859.529	21013
859.662	20781
859.795	20857
859.928	20823
860.061	20994
860.194	21116
860.327	20925
860.46	20864
860.592	20925
860.725	20941
860.858	20929
860.99	20785
861.123	20796
861.256	20811
861.388	20712
861.521	21675
861.653	20727
861.786	20575
861.918	20785
862.05	20906
862.183	20857
862.315	21001
862.447	20891
862.58	20956
862.712	20727
862.844	20590
862.976	20838
863.108	20712
863.24	21093
863.372	20480
863.504	20659
863.636	20712
863.768	20613
863.9	20514
864.032	20579
864.164	20507
864.296	20621
864.428	20739
864.559	20727
864.691	20514
864.823	20564
864.954	20533
865.086	20404
865.217	20400
865.349	20415
865.48	20454
865.612	20484
865.743	20625
865.875	20469
866.006	20358
866.137	20469
866.269	20499
866.4	20317
866.531	20389
866.662	20240
866.793	20408
866.924	20339
867.055	20358
867.186	20343
867.317	20366
867.448	20271
867.579	20343
867.71	20324
867.841	20396
867.972	20396
868.103	20362
868.233	20358
868.364	20320
868.495	20427
868.625	20594
868.756	20811
868.886	20511
869.017	20590
869.147	20769
869.278	20682
869.408	20613
869.539	20629
869.669	20785
869.799	20625
869.929	20754
870.06	20697
870.19	20960
870.32	20815
870.45	20948
870.58	20979
870.71	21135
870.84	21081
870.97	21077
871.1	20929
871.23	21211
871.36	21135
871.489	21207
871.619	21203
871.749	21192
871.879	21310
872.008	21389
872.138	21249
872.267	21279
872.397	21108
872.526	21112
872.656	21104
872.785	21047
872.915	21325
873.044	21348
873.173	21340
873.303	21306
873.432	21367
873.561	21363
873.69	21283
873.819	21363
873.948	21469
874.077	21291
874.206	21294
874.335	21287
874.464	21485
874.593	21603
874.722	21507
874.851	21625
874.979	21591
875.108	21561
875.237	21663
875.365	21572
875.494	21542
875.623	21808
875.751	21561
875.88	21694
876.008	21724
876.136	21922
876.265	22093
876.393	22299
876.521	22169
876.65	22147
876.778	22188
876.906	22101
877.034	22185
877.162	22078
877.29	22078
877.418	22116
877.546	22158
877.674	22390
877.802	22280
877.93	22067
878.058	22204
878.185	22272
878.313	22276
878.441	22375
878.568	22375
878.696	22478
878.824	22672
878.951	22919
879.079	23398
879.206	23847
879.333	24091
879.461	24369
879.588	24730
879.715	24905
879.842	24696
879.97	24178
880.097	23486
880.224	23280
880.351	23037
880.478	22774
880.605	22759
880.732	22618
880.859	22790
880.986	22763
881.112	22550
881.239	22318
881.366	22394
881.493	22230
881.619	22086
881.746	22116
881.872	22032
881.999	22131
882.125	22150
882.252	22109
882.378	22090
882.505	22344
882.631	22078
882.757	21915
882.883	22074
883.01	21873
883.136	21972
883.262	21804
883.388	21755
883.514	21937
883.64	21960
883.766	21774
883.892	21835
884.018	21739
884.143	21838
884.269	22006
884.395	21709
884.52	21534
884.646	21576
884.772	21587
884.897	21416
885.023	21462
885.148	21622
885.274	21751
885.399	21595
885.524	21557
885.65	21344
885.775	21477
885.9	21443
886.025	21507
886.15	21428
886.275	21207
886.4	21233
886.525	21173
886.65	21112
886.775	21085
886.9	21351
887.025	21481
887.149	21112
887.274	20941
887.399	20872
887.523	20880
887.648	20720
887.773	20823
887.897	20849
888.021	20880
888.146	20769
888.27	20952
888.395	20823
888.519	20777
888.643	20769
888.767	20762
888.891	20499
889.015	20568
889.139	20514
889.263	20454
889.387	20724
889.511	20724
889.635	20678
889.759	20404
889.883	20503
890.006	20419
890.13	20480
890.254	20282
890.377	20423
890.501	20286
890.624	20172
890.748	20240
890.871	20107
890.995	20039
891.118	19963
891.241	19963
891.364	19883
891.488	20138
891.611	20107
891.734	19982
891.857	20081
891.98	19921
892.103	20103
892.226	19902
892.349	19951
892.471	19738
892.594	19791
892.717	19913
892.839	19822
892.962	19864
893.085	19951
893.207	19856
893.33	19757
893.452	19746
893.575	19970
893.697	19830
893.819	19967
893.941	19982
894.064	19967
894.186	19871
894.308	19700
894.43	19811
894.552	19944
894.674	19833
894.796	19746
894.918	19712
895.04	19753
895.161	19864
895.283	19731
895.405	19677
895.526	19685
895.648	19658
895.769	19734
895.891	19753
896.012	19818
896.134	19849
896.255	19715
896.376	19651
896.498	19715
896.619	19837
896.74	19776
896.861	19890
896.982	20039
897.103	20172
897.224	20005
897.345	19959
897.466	19932
897.587	19875
897.708	20069
897.828	20054
897.949	19894
898.07	19788
898.19	19875
898.311	20035
898.431	19830
898.552	19959
898.672	20027
898.792	19967
898.913	19883
899.033	19772
899.153	19613
899.273	19662
899.393	19727
899.513	19655
899.633	19689
899.753	19571
899.873	19635
899.993	19483
900.113	19609
900.232	19556
900.352	19453
900.472	19400
900.591	19407
900.711	19495
900.83	19419
900.95	19464
901.069	19480
901.189	19400
901.308	19160
901.427	19057
901.546	19042
901.665	19004
901.784	19099
901.904	18989
902.023	18772
902.141	18639
902.26	18441
902.379	18616
902.498	18479
902.617	18365
902.735	18551
902.854	18517
902.973	18464
903.091	18228
903.21	18125
903.328	18247
903.446	18083
903.565	17965
903.683	18125
903.801	17863
903.919	17882
904.038	17965
904.156	17843
904.274	17798
904.392	17680
904.51	17726
904.627	17798
904.745	17783
904.863	17817
904.981	17471
905.098	17322
905.216	17398
905.334	17376
905.451	17467
905.569	17265
905.686	17322
905.803	17315
905.921	17159
906.038	17296
906.155	17159
906.272	17117
906.389	17029
906.506	16885
906.623	16881
906.74	16816
906.857	16816
906.974	16771
907.091	16866
907.208	17010
907.324	16828
907.441	16809
907.557	16615
907.674	16550
907.79	16558
907.907	16603
908.023	16596
908.139	16554
908.256	16531
908.372	16409
908.488	16360
908.604	16257
908.72	16204
908.836	16276
908.952	16219
909.068	16318
909.184	16295
909.3	16299
909.415	16226
909.531	16223
909.647	16006
909.762	15972
909.878	15945
909.993	15937
910.108	15941
910.224	15819
910.339	15895
910.454	15842
910.57	15720
910.685	15797
910.8	15895
910.915	15987
911.03	15671
911.145	15671
911.259	15530
911.374	15614
911.489	15443
911.604	15496
911.718	15355
911.833	15241
911.947	15214
912.062	15188
912.176	15233
912.291	15321
912.405	15218
912.519	15408
912.633	15450
912.748	15306
912.862	15169
912.976	15066
913.09	14986
913.204	15017
913.318	15097
913.431	15169
913.545	15161
913.659	15157
913.772	15039
913.886	14986
914	14849
914.113	15013
914.226	15104
914.34	15028
914.453	14842
914.566	15005
914.68	14743
914.793	14842
914.906	14632
915.019	14697
915.132	14450
915.245	14568
915.358	14583
915.47	14590
915.583	14617
915.696	14552
915.809	14674
915.921	14663
916.034	14564
916.146	14419
916.259	14495
916.371	14541
916.483	14507
916.595	14419
916.708	14415
916.82	14396
916.932	14282
917.044	14313
917.156	14286
917.268	14294
917.38	14263
917.491	14202
917.603	14240
917.715	14324
917.826	14259
917.938	14153
918.049	14130
918.161	14164
918.272	14343
918.384	14263
918.495	14130
918.606	14081
918.717	13902
918.828	14073
918.939	14001
919.05	13818
919.161	13913
919.272	13734
919.383	13849
919.494	13970
919.604	14138
919.715	13951
919.826	13788
919.936	13928
920.047	13913
920.157	13894
920.267	14050
920.378	13940
920.488	13849
920.598	14039
920.708	14195
920.818	13940
920.928	14020
921.038	14119
921.148	14107
921.258	13742
921.368	13616
921.477	13563
921.587	13537
921.697	13514
921.806	13624
921.916	13434
922.025	13278
922.134	13304
922.244	13282
922.353	13297
922.462	13198
922.571	13126
922.68	12962
922.789	12909
922.898	12924
923.007	12916
923.116	12916
923.224	12863
923.333	12806
923.442	12768
923.55	12711
923.659	12764
923.767	12764
923.876	12719
923.984	12787
924.092	12654
924.201	12749
924.309	12734
924.417	12597
924.525	12665
924.633	12616
924.741	13518
924.849	12384
924.956	12547
925.064	12327
925.172	12281
925.279	12315
925.387	12403
925.494	12350
925.602	12464
925.709	12407
925.816	12228
925.924	12369
926.031	12384
926.138	12175
926.245	12357
926.352	12190
926.459	12372
926.566	12296
926.673	12285
926.779	12114
926.886	12064
926.993	12015
927.099	11927
927.206	11836
927.312	11885
927.419	11988
927.525	12015
927.631	11901
927.737	11798
927.843	11737
927.95	11688
928.056	11805
928.162	11840
928.267	11786
928.373	12357
928.479	11931
928.585	11611
928.69	11767
928.796	11771
928.901	11676
929.007	11547
929.112	11627
929.218	11562
929.323	11535
929.428	11463
929.533	11562
929.638	11417
929.743	11455
929.848	11455
929.953	11410
930.058	11349
930.163	11239
930.267	11216
930.372	11273
930.477	11083
930.581	11398
930.685	11265
930.79	11075
930.894	11056
930.998	11029
931.103	11159
931.207	10828
931.311	10782
931.415	10675
931.519	10485
931.623	10447
