Data from test_V78500241_757.txt Node
Date: Fri Mar 25 14:38:59 CST 2022
User: usil
Spectrometer: V785-0024
Trigger mode: 0
Integration Time (sec): 4.000000E-1
Scans to average: 1
Nonlinearity correction enabled: false
Boxcar width: 0
Storing dark spectrum: false
XAxis mode: Wavelengths
Number of Pixels in Spectrum: 1024
>>>>>Begin Spectral Data<<<<<
801.071	26990
801.214	26773
801.356	26613
801.499	26560
801.641	26461
801.783	26286
801.926	26377
802.068	26244
802.211	26058
802.353	26008
802.496	25955
802.638	25852
802.78	25788
802.923	25791
803.065	25833
803.208	25807
803.35	25814
803.492	26084
803.635	25989
803.777	25780
803.919	26035
804.061	26305
804.204	26024
804.346	25993
804.488	26012
804.63	26115
804.773	25955
804.915	26065
805.057	26229
805.199	26263
805.341	26374
805.483	26511
805.626	26450
805.768	26560
805.91	26727
806.052	26815
806.194	26849
806.336	27043
806.478	27332
806.62	27325
806.762	27675
806.904	28086
807.046	28713
807.188	28965
807.33	29349
807.472	29980
807.614	30604
807.756	31499
807.898	32727
808.04	34036
808.182	36209
808.324	38880
808.465	41859
808.607	44902
808.749	48060
808.891	50039
809.033	49940
809.174	48445
809.316	45511
809.458	41942
809.6	38446
809.741	35805
809.883	33488
810.025	32199
810.166	31050
810.308	30114
810.45	29619
810.591	29022
810.733	28367
810.875	28109
811.016	27888
811.158	27420
811.299	27519
811.441	27439
811.582	27287
811.724	27036
811.865	26800
812.007	26861
812.148	26807
812.29	26701
812.431	26594
812.573	26849
812.714	26906
812.855	26967
812.997	26861
813.138	27039
813.279	26895
813.421	26758
813.562	26629
813.703	26457
813.845	26244
813.986	25890
814.127	25826
814.268	25731
814.41	25704
814.551	25571
814.692	25662
814.833	25441
814.974	25472
815.115	25381
815.256	25320
815.397	25190
815.539	25209
815.68	25046
815.821	25034
815.962	25038
816.103	25080
816.244	24817
816.385	24806
816.526	24726
816.666	24578
816.807	24410
816.948	24369
817.089	24460
817.23	24452
817.371	24380
817.512	24338
817.653	24258
817.793	24197
817.934	24205
818.075	24216
818.216	24254
818.356	24216
818.497	24034
818.638	23973
818.778	23931
818.919	24022
819.06	23977
819.2	24079
819.341	24121
819.481	24182
819.622	24285
819.762	24502
819.903	24232
820.043	24262
820.184	24087
820.324	24114
820.465	24209
820.605	24011
820.746	24068
820.886	23878
821.026	23893
821.167	24015
821.307	23980
821.447	23996
821.588	23980
821.728	23623
821.868	23531
822.008	23334
822.149	23417
822.289	23292
822.429	23098
822.569	23010
822.709	22965
822.849	22858
822.99	22782
823.13	22710
823.27	22801
823.41	22455
823.55	22478
823.69	22550
823.83	22504
823.97	22424
824.11	22265
824.25	22337
824.389	22341
824.529	22386
824.669	22276
824.809	22489
824.949	22402
825.089	22485
825.228	22375
825.368	22215
825.508	22116
825.648	22223
825.787	22150
825.927	22173
826.067	22086
826.206	22013
826.346	22147
826.485	22131
826.625	21987
826.765	22226
826.904	22070
827.044	21869
827.183	21857
827.323	21808
827.462	21850
827.601	21686
827.741	21705
827.88	21759
828.02	21690
828.159	21690
828.298	21774
828.437	21827
828.577	21751
828.716	21762
828.855	21580
828.994	21534
829.134	21401
829.273	21542
829.412	21420
829.551	21363
829.69	21485
829.829	21420
829.968	21450
830.107	21458
830.246	21523
830.385	21348
830.524	21359
830.663	21195
830.802	21165
830.941	21100
831.08	20944
831.219	20990
831.357	21192
831.496	21237
831.635	21062
831.774	20960
831.913	21005
832.051	20876
832.19	20929
832.329	20872
832.467	20910
832.606	20914
832.744	20956
832.883	21062
833.022	21043
833.16	21176
833.299	21195
833.437	21336
833.576	21599
833.714	21595
833.852	21717
833.991	21991
834.129	21956
834.267	22063
834.406	22070
834.544	21960
834.682	21876
834.821	21732
834.959	21652
835.097	21302
835.235	21447
835.373	21165
835.511	21123
835.65	21005
835.788	20887
835.926	20731
836.064	20613
836.202	20720
836.34	20625
836.478	20773
836.615	20644
836.753	20716
836.891	20697
837.029	20549
837.167	20689
837.305	20457
837.443	20370
837.58	20336
837.718	20465
837.856	20412
837.993	20218
838.131	20343
838.269	20271
838.406	20290
838.544	20153
838.681	20088
838.819	20027
838.956	19845
839.094	19727
839.231	19944
839.369	19974
839.506	20126
839.643	20062
839.781	19883
839.918	19875
840.055	19913
840.193	19818
840.33	19795
840.467	19947
840.604	19769
840.742	20062
840.879	19757
841.016	19693
841.153	19727
841.29	19894
841.427	19822
841.564	19712
841.701	19841
841.838	19635
841.975	19704
842.112	19746
842.249	19674
842.385	19525
842.522	19738
842.659	19674
842.796	19635
842.933	19639
843.069	19525
843.206	19750
843.343	19830
843.479	19776
843.616	19822
843.752	19525
843.889	19624
844.025	19845
844.162	19860
844.298	20039
844.435	20096
844.571	20153
844.708	20606
844.844	20895
844.98	21458
845.117	21987
845.253	22991
845.389	24852
845.525	28519
845.661	34577
845.798	41364
845.934	46459
846.07	48319
846.206	46907
846.342	42125
846.478	35185
846.614	29341
846.75	25377
846.886	23162
847.022	21907
847.158	20914
847.294	20446
847.429	20065
847.565	19651
847.701	19841
847.837	19244
847.972	19084
848.108	19209
848.244	19015
848.379	18875
848.515	18696
848.65	18620
848.786	18631
848.921	18715
849.057	18738
849.192	18673
849.328	18612
849.463	18700
849.598	18593
849.734	18544
849.869	18410
850.004	18365
850.14	18380
850.275	18289
850.41	18186
850.545	18182
850.68	18254
850.815	18369
850.95	18194
851.085	18502
851.22	18372
851.355	18330
851.49	18323
851.625	18163
851.76	18220
851.895	18216
852.03	18053
852.165	18266
852.299	18334
852.434	18372
852.569	18437
852.703	18410
852.838	18433
852.973	18528
853.107	18616
853.242	18357
853.376	18334
853.511	18311
853.645	18292
853.78	18429
853.914	18486
854.048	18448
854.183	18372
854.317	18475
854.451	18741
854.585	18570
854.72	18433
854.854	18627
854.988	18422
855.122	18410
855.256	18171
855.39	18308
855.524	18330
855.658	18342
855.792	18178
855.926	18239
856.06	18216
856.194	18357
856.327	18216
856.461	18098
856.595	18098
856.729	18148
856.862	18239
856.996	18053
857.13	18136
857.263	18213
857.397	18216
857.53	17904
857.664	18079
857.797	18019
857.931	18209
858.064	18030
858.197	18083
858.331	18053
858.464	17931
858.597	17855
858.731	17885
858.864	17931
858.997	17840
859.13	18057
859.263	17977
859.396	18019
859.529	17882
859.662	17920
859.795	17935
859.928	18026
860.061	18057
860.194	18106
860.327	17969
860.46	17988
860.592	17973
860.725	18015
860.858	18030
860.99	17958
861.123	17756
861.256	17836
861.388	17889
861.521	18597
861.653	17729
861.786	17623
861.918	17851
862.05	17802
862.183	17741
862.315	17893
862.447	17973
862.58	17767
862.712	17691
862.844	17608
862.976	17691
863.108	17680
863.24	18064
863.372	17433
863.504	17600
863.636	17501
863.768	17657
863.9	17619
864.032	17436
864.164	17493
864.296	17532
864.428	17741
864.559	17539
864.691	17600
864.823	17623
864.954	17501
865.086	17630
865.217	17497
865.349	17486
865.48	17512
865.612	17512
865.743	17604
865.875	17528
866.006	17467
866.137	17562
866.269	17474
866.4	17505
866.531	17406
866.662	17425
866.793	17402
866.924	17493
867.055	17497
867.186	17581
867.317	17326
867.448	17364
867.579	17360
867.71	17459
867.841	17444
867.972	17421
868.103	17433
868.233	17547
868.364	17577
868.495	17558
868.625	17767
868.756	17935
868.886	17748
869.017	17783
869.147	17851
869.278	17828
869.408	17824
869.539	17767
869.669	17821
869.799	17783
869.929	17920
870.06	17901
870.19	18034
870.32	17965
870.45	18159
870.58	18266
870.71	18330
870.84	18270
870.97	18247
871.1	18190
871.23	18426
871.36	18509
871.489	18376
871.619	18426
871.749	18372
871.879	18490
872.008	18589
872.138	18585
872.267	18547
872.397	18403
872.526	18338
872.656	18407
872.785	18506
872.915	18623
873.044	18715
873.173	18669
873.303	18730
873.432	18779
873.561	18753
873.69	18757
873.819	18741
873.948	18890
874.077	18833
874.206	18875
874.335	18943
874.464	19114
874.593	19164
874.722	19198
874.851	19483
874.979	19403
875.108	19487
875.237	19377
875.365	19270
875.494	19495
875.623	19540
875.751	19434
875.88	19647
876.008	19856
876.136	19852
876.265	20073
876.393	20263
876.521	20221
876.65	20324
876.778	20233
876.906	20294
877.034	20473
877.162	20556
877.29	20446
877.418	20644
877.546	20712
877.674	20899
877.802	20952
877.93	21093
878.058	21241
878.185	21435
878.313	21705
878.441	21998
878.568	22390
878.696	22991
878.824	23836
878.951	24882
879.079	26507
879.206	28637
879.333	30475
879.461	32366
879.588	33458
879.715	33496
879.842	32533
879.97	30654
880.097	28432
880.224	26883
880.351	25712
880.478	24882
880.605	24300
880.732	23946
880.859	23790
880.986	23467
881.112	23425
881.239	23178
881.366	23025
881.493	23075
881.619	22866
881.746	23010
881.872	22972
881.999	22949
882.125	22942
882.252	23235
882.378	23250
882.505	23220
882.631	23117
882.757	22957
882.883	23037
883.01	23018
883.136	22885
883.262	22820
883.388	22740
883.514	22972
883.64	23037
883.766	22892
883.892	22790
884.018	22683
884.143	22938
884.269	23003
884.395	22736
884.52	22725
884.646	22733
884.772	22599
884.897	22626
885.023	22664
885.148	22713
885.274	22672
885.399	22683
885.524	22398
885.65	22371
885.775	22337
885.9	21998
886.025	21975
886.15	21785
886.275	21625
886.4	21256
886.525	21313
886.65	21077
886.775	21116
886.9	21142
887.025	21116
887.149	20796
887.274	20537
887.399	20431
887.523	20298
887.648	20077
887.773	19932
887.897	20096
888.021	20024
888.146	19883
888.27	20058
888.395	19845
888.519	19837
888.643	19776
888.767	19864
888.891	19590
889.015	19483
889.139	19445
889.263	19430
889.387	19567
889.511	19578
889.635	19476
889.759	19228
889.883	19331
890.006	19213
890.13	19225
890.254	18932
890.377	19012
890.501	18795
890.624	18669
890.748	18852
890.871	18776
890.995	18570
891.118	18540
891.241	18532
891.364	18589
891.488	18544
891.611	18475
891.734	18506
891.857	18540
891.98	18384
892.103	18365
892.226	18384
892.349	18311
892.471	18049
892.594	18159
892.717	18098
892.839	18072
892.962	18136
893.085	18049
893.207	18003
893.33	17954
893.452	17999
893.575	17992
893.697	17973
893.819	18083
893.941	18038
894.064	18038
894.186	17824
894.308	17821
894.43	17904
894.552	17999
894.674	17893
894.796	17703
894.918	17745
895.04	17630
895.161	17779
895.283	17687
895.405	17687
895.526	17672
895.648	17577
895.769	17611
895.891	17600
896.012	17737
896.134	17691
896.255	17452
896.376	17558
896.498	17486
896.619	17722
896.74	17474
896.861	17649
896.982	17946
897.103	18076
897.224	17828
897.345	17665
897.466	17752
897.587	17756
897.708	17908
897.828	17802
897.949	17748
898.07	17505
898.19	17695
898.311	17832
898.431	17680
898.552	17760
898.672	17965
898.792	17707
898.913	17859
899.033	17684
899.153	17524
899.273	17497
899.393	17516
899.513	17604
899.633	17482
899.753	17577
899.873	17524
899.993	17646
900.113	17570
900.232	17535
900.352	17459
900.472	17326
900.591	17337
900.711	17360
900.83	17200
900.95	17364
901.069	17452
901.189	17242
901.308	17102
901.427	17010
901.546	16968
901.665	16961
901.784	16999
901.904	16729
902.023	16717
902.141	16516
902.26	16462
902.379	16538
902.498	16379
902.617	16386
902.735	16462
902.854	16295
902.973	16215
903.091	16048
903.21	16002
903.328	15979
903.446	15945
903.565	15876
903.683	15869
903.801	15785
903.919	15831
904.038	15816
904.156	15473
904.274	15724
904.392	15572
904.51	15542
904.627	15553
904.745	15523
904.863	15584
904.981	15382
905.098	15256
905.216	15237
905.334	15268
905.451	15176
905.569	15268
905.686	15317
905.803	15169
905.921	15024
906.038	15028
906.155	15013
906.272	14853
906.389	14937
906.506	14735
906.623	14765
906.74	14735
906.857	14610
906.974	14667
907.091	14815
907.208	14819
907.324	14739
907.441	14651
907.557	14549
907.674	14457
907.79	14358
907.907	14370
908.023	14495
908.139	14446
908.256	14393
908.372	14278
908.488	14313
908.604	14157
908.72	14180
908.836	14142
908.952	14161
909.068	14115
909.184	14320
909.3	14225
909.415	14263
909.531	14176
909.647	13913
909.762	13986
909.878	13894
909.993	13982
910.108	13921
910.224	13852
910.339	13925
910.454	13868
910.57	13845
910.685	13799
910.8	13898
910.915	13909
911.03	13753
911.145	13609
911.259	13525
911.374	13563
911.489	13605
911.604	13537
911.718	13392
911.833	13263
911.947	13285
912.062	13198
912.176	13278
912.291	13335
912.405	13327
912.519	13483
912.633	13487
912.748	13392
912.862	13251
912.976	13213
913.09	12954
913.204	13080
913.318	13175
913.431	13251
913.545	13213
913.659	13365
913.772	13141
913.886	13031
914	12977
914.113	13042
914.226	13156
914.34	13129
914.453	12939
914.566	13137
914.68	13034
914.793	12954
914.906	12738
915.019	12795
915.132	12707
915.245	12722
915.358	12783
915.47	12741
915.583	12802
915.696	12798
915.809	12973
915.921	12867
916.034	12783
916.146	12719
916.259	12635
916.371	12741
916.483	12696
916.595	12692
916.708	12646
916.82	12688
916.932	12635
917.044	12612
917.156	12662
917.268	12498
917.38	12494
917.491	12494
917.603	12475
917.715	12593
917.826	12620
917.938	12429
918.049	12311
918.161	12467
918.272	12525
918.384	12540
918.495	12372
918.606	12262
918.717	12262
918.828	12235
918.939	12338
919.05	12155
919.161	12254
919.272	12106
919.383	12034
919.494	12418
919.604	12448
919.715	12213
919.826	12178
919.936	12117
920.047	12315
920.157	12228
920.267	12414
920.378	12350
920.488	12171
920.598	12372
920.708	12601
920.818	12429
920.928	12369
921.038	12483
921.148	12483
921.258	12163
921.368	12129
921.477	11999
921.587	11999
921.697	11904
921.806	12045
921.916	11908
922.025	11726
922.134	11649
922.244	11532
922.353	11726
922.462	11543
922.571	11455
922.68	11387
922.789	11326
922.898	11345
923.007	11315
923.116	11379
923.224	11307
923.333	11315
923.442	11136
923.55	11170
923.659	11178
923.767	11201
923.876	11143
923.984	11250
924.092	11117
924.201	11109
924.309	11113
924.417	11121
924.525	11060
924.633	11048
924.741	11832
924.849	10854
924.956	11045
925.064	10889
925.172	10790
925.279	10896
925.387	10900
925.494	10923
925.602	11067
925.709	10862
925.816	10778
925.924	10831
926.031	11010
926.138	10869
926.245	10839
926.352	10835
926.459	10904
926.566	10968
926.673	10759
926.779	10752
926.886	10649
926.993	10542
927.099	10554
927.206	10466
927.312	10489
927.419	10588
927.525	10504
927.631	10554
927.737	10356
927.843	10402
927.95	10265
928.056	10344
928.162	10390
928.267	10436
928.373	11018
928.479	10489
928.585	10253
928.69	10344
928.796	10424
928.901	10253
929.007	10166
929.112	10325
929.218	10131
929.323	10238
929.428	10181
929.533	10299
929.638	10143
929.743	10112
929.848	10192
929.953	10131
930.058	9998
930.163	9835
930.267	9892
930.372	9979
930.477	9854
930.581	10082
930.685	10067
930.79	9880
930.894	9850
930.998	9804
931.103	9869
931.207	9538
931.311	9507
931.415	9450
931.519	9264
931.623	9222
