Data from test_V78500241_1565.txt Node
Date: Fri Mar 25 14:44:36 CST 2022
User: usil
Spectrometer: V785-0024
Trigger mode: 0
Integration Time (sec): 4.000000E-1
Scans to average: 1
Nonlinearity correction enabled: false
Boxcar width: 0
Storing dark spectrum: false
XAxis mode: Wavelengths
Number of Pixels in Spectrum: 1024
>>>>>Begin Spectral Data<<<<<
801.071	22500
801.214	22207
801.356	22055
801.499	21934
801.641	21842
801.783	21766
801.926	21831
802.068	21701
802.211	21629
802.353	21473
802.496	21302
802.638	21237
802.78	21184
802.923	21138
803.065	21180
803.208	21062
803.35	21188
803.492	21298
803.635	21138
803.777	21085
803.919	21146
804.061	21454
804.204	21112
804.346	21123
804.488	21028
804.63	21066
804.773	20975
804.915	21074
805.057	21146
805.199	21058
805.341	21028
805.483	21192
805.626	21074
805.768	21036
805.91	21055
806.052	20990
806.194	20994
806.336	21218
806.478	20902
806.62	21047
806.762	21047
806.904	21294
807.046	21420
807.188	21306
807.33	21325
807.472	21416
807.614	21298
807.756	21401
807.898	21256
808.04	21195
808.182	21116
808.324	21218
808.465	21173
808.607	21511
808.749	21496
808.891	21618
809.033	21774
809.174	21667
809.316	21454
809.458	21439
809.6	21386
809.741	21637
809.883	21519
810.025	21743
810.166	21671
810.308	21564
810.45	21504
810.591	21469
810.733	21268
810.875	21294
811.016	21211
811.158	21127
811.299	21207
811.441	21367
811.582	21367
811.724	21245
811.865	21100
812.007	21135
812.148	21131
812.29	21195
812.431	21359
812.573	21568
812.714	21618
812.855	21648
812.997	21869
813.138	21903
813.279	21873
813.421	21755
813.562	21625
813.703	21439
813.845	21405
813.986	21112
814.127	20895
814.268	20861
814.41	20823
814.551	20811
814.692	20785
814.833	20693
814.974	20727
815.115	20712
815.256	20457
815.397	20587
815.539	20667
815.68	20465
815.821	20457
815.962	20530
816.103	20301
816.244	20332
816.385	20221
816.526	20282
816.666	20024
816.807	19940
816.948	20084
817.089	20073
817.23	20043
817.371	19826
817.512	19890
817.653	19978
817.793	19753
817.934	19780
818.075	20005
818.216	19978
818.356	19795
818.497	19681
818.638	19529
818.778	19521
818.919	19575
819.06	19594
819.2	19655
819.341	19750
819.481	19712
819.622	19791
819.762	20134
819.903	19902
820.043	20058
820.184	19811
820.324	19849
820.465	19944
820.605	19887
820.746	19776
820.886	19780
821.026	19795
821.167	19788
821.307	19864
821.447	19837
821.588	19715
821.728	19597
821.868	19502
822.008	19388
822.149	19225
822.289	19259
822.429	19091
822.569	18935
822.709	18958
822.849	18684
822.99	18779
823.13	18623
823.27	18741
823.41	18631
823.55	18494
823.69	18677
823.83	18601
823.97	18513
824.11	18467
824.25	18308
824.389	18361
824.529	18357
824.669	18426
824.809	18536
824.949	18365
825.089	18369
825.228	18376
825.368	18243
825.508	18190
825.648	18064
825.787	18243
825.927	18197
826.067	18178
826.206	18079
826.346	18133
826.485	18117
826.625	18125
826.765	18201
826.904	18251
827.044	17859
827.183	17927
827.323	17767
827.462	17855
827.601	17817
827.741	17828
827.88	17779
828.02	17699
828.159	17760
828.298	17885
828.437	17901
828.577	17729
828.716	17996
828.855	17783
828.994	17592
829.134	17604
829.273	17760
829.412	17596
829.551	17493
829.69	17474
829.829	17566
829.968	17733
830.107	17634
830.246	17570
830.385	17497
830.524	17547
830.663	17391
830.802	17334
830.941	17174
831.08	17159
831.219	17284
831.357	17273
831.496	17345
831.635	17147
831.774	17143
831.913	16991
832.051	16972
832.19	16946
832.329	17025
832.467	16892
832.606	16847
832.744	16911
832.883	16976
833.022	16786
833.16	16873
833.299	16809
833.437	16942
833.576	16847
833.714	16953
833.852	16987
833.991	16892
834.129	16968
834.267	17025
834.406	16831
834.544	16942
834.682	16915
834.821	16946
834.959	17151
835.097	16782
835.235	16934
835.373	16862
835.511	16972
835.65	16862
835.788	16908
835.926	16717
836.064	16573
836.202	16698
836.34	16858
836.478	16869
836.615	16771
836.753	16911
836.891	16881
837.029	16877
837.167	16809
837.305	16615
837.443	16710
837.58	16630
837.718	16733
837.856	16706
837.993	16679
838.131	16565
838.269	16588
838.406	16626
838.544	16489
838.681	16466
838.819	16295
838.956	16124
839.094	16120
839.231	16215
839.369	16409
839.506	16603
839.643	16394
839.781	16131
839.918	16112
840.055	16207
840.193	16234
840.33	16162
840.467	16219
840.604	16280
840.742	16405
840.879	16040
841.016	16120
841.153	16105
841.29	16390
841.427	16261
841.564	16234
841.701	16265
841.838	16169
841.975	16143
842.112	16036
842.249	16006
842.385	15998
842.522	16143
842.659	16036
842.796	15987
842.933	15968
843.069	15899
843.206	15907
843.343	16147
843.479	15915
843.616	15983
843.752	15861
843.889	15751
844.025	15884
844.162	15732
844.298	15873
844.435	15778
844.571	15766
844.708	15785
844.844	15903
844.98	15899
845.117	15895
845.253	15797
845.389	15637
845.525	15781
845.661	15709
845.798	15629
845.934	15724
846.07	15641
846.206	15747
846.342	15816
846.478	15698
846.614	15405
846.75	15443
846.886	15218
847.022	15378
847.158	15458
847.294	15344
847.429	15420
847.565	15336
847.701	15614
847.837	15176
847.972	15100
848.108	15275
848.244	15051
848.379	14994
848.515	14960
848.65	14910
848.786	14956
848.921	14921
849.057	14948
849.192	15039
849.328	14914
849.463	14929
849.598	15032
849.734	14910
849.869	14845
850.004	14754
850.14	14777
850.275	14750
850.41	14552
850.545	14659
850.68	14640
850.815	14587
850.95	14651
851.085	14891
851.22	14739
851.355	14781
851.49	14590
851.625	14621
851.76	14632
851.895	14629
852.03	14533
852.165	14727
852.299	14663
852.434	14796
852.569	14720
852.703	14777
852.838	14750
852.973	14811
853.107	14834
853.242	14659
853.376	14610
853.511	14457
853.645	14507
853.78	14678
853.914	14541
854.048	14560
854.183	14476
854.317	14636
854.451	14743
854.585	14533
854.72	14469
854.854	14636
854.988	14575
855.122	14625
855.256	14393
855.39	14514
855.524	14651
855.658	14640
855.792	14667
855.926	14621
856.06	14598
856.194	14731
856.327	14583
856.461	14530
856.595	14503
856.729	14583
856.862	14667
856.996	14549
857.13	14575
857.263	14667
857.397	14667
857.53	14564
857.664	14682
857.797	14636
857.931	14735
858.064	14556
858.197	14743
858.331	14587
858.464	14575
858.597	14533
858.731	14579
858.864	14499
858.997	14465
859.13	14549
859.263	14518
859.396	14590
859.529	14480
859.662	14579
859.795	14400
859.928	14541
860.061	14746
860.194	14773
860.327	14606
860.46	14518
860.592	14617
860.725	14636
860.858	14667
860.99	14499
861.123	14457
861.256	14484
861.388	14587
861.521	15135
861.653	14434
861.786	14404
861.918	14404
862.05	14290
862.183	14434
862.315	14503
862.447	14518
862.58	14461
862.712	14400
862.844	14244
862.976	14381
863.108	14404
863.24	14838
863.372	14229
863.504	14370
863.636	14301
863.768	14488
863.9	14332
864.032	14278
864.164	14305
864.296	14320
864.428	14362
864.559	14442
864.691	14408
864.823	14434
864.954	14431
865.086	14400
865.217	14320
865.349	14248
865.48	14286
865.612	14332
865.743	14541
865.875	14317
866.006	14214
866.137	14324
866.269	14252
866.4	14248
866.531	14263
866.662	14206
866.793	14244
866.924	14290
867.055	14286
867.186	14324
867.317	14202
867.448	14103
867.579	14225
867.71	14240
867.841	14256
867.972	14332
868.103	14263
868.233	14259
868.364	14294
868.495	14374
868.625	14583
868.756	14617
868.886	14442
869.017	14522
869.147	14636
869.278	14735
869.408	14575
869.539	14454
869.669	14575
869.799	14594
869.929	14678
870.06	14549
870.19	14883
870.32	14823
870.45	14842
870.58	14990
870.71	15055
870.84	14982
870.97	14944
871.1	14891
871.23	15176
871.36	15154
871.489	14971
871.619	15051
871.749	15180
871.879	15207
872.008	15176
872.138	15150
872.267	15108
872.397	14937
872.526	14944
872.656	14777
872.785	15058
872.915	15226
873.044	15207
873.173	15192
873.303	15138
873.432	15268
873.561	15226
873.69	15260
873.819	15192
873.948	15302
874.077	15241
874.206	15127
874.335	15260
874.464	15321
874.593	15454
874.722	15477
874.851	15641
874.979	15481
875.108	15538
875.237	15443
875.365	15401
875.494	15496
875.623	15564
875.751	15519
875.88	15542
876.008	15694
876.136	15846
876.265	15892
876.393	16131
876.521	16059
876.65	16025
876.778	15975
876.906	15876
877.034	15880
877.162	15819
877.29	15785
877.418	15865
877.546	15956
877.674	15854
877.802	15903
877.93	15918
878.058	15918
878.185	15793
878.313	15774
878.441	15895
878.568	15720
878.696	15884
878.824	15926
878.951	16051
879.079	16162
879.206	16257
879.333	16120
879.461	16074
879.588	16162
879.715	16181
879.842	16268
879.97	16029
880.097	15766
880.224	15739
880.351	15755
880.478	15804
880.605	15759
880.732	15751
880.859	15983
880.986	15774
881.112	15934
881.239	15663
881.366	15652
881.493	15515
881.619	15317
881.746	15351
881.872	15424
881.999	15511
882.125	15424
882.252	15542
882.378	15439
882.505	15500
882.631	15386
882.757	15188
882.883	15408
883.01	15233
883.136	15195
883.262	15097
883.388	15173
883.514	15237
883.64	15370
883.766	15176
883.892	15199
884.018	15146
884.143	15218
884.269	15382
884.395	15005
884.52	14956
884.646	14963
884.772	14826
884.897	14853
885.023	14994
885.148	15058
885.274	15173
885.399	15097
885.524	14994
885.65	14925
885.775	15009
885.9	15013
886.025	15108
886.15	15043
886.275	14952
886.4	14845
886.525	14998
886.65	14872
886.775	14876
886.9	15001
887.025	15192
887.149	14990
887.274	14724
887.399	14727
887.523	14708
887.648	14705
887.773	14686
887.897	14872
888.021	14845
888.146	14678
888.27	14834
888.395	14986
888.519	14804
888.643	14872
888.767	14815
888.891	14678
889.015	14564
889.139	14674
889.263	14533
889.387	14693
889.511	14838
889.635	14807
889.759	14583
889.883	14602
890.006	14655
890.13	14724
890.254	14431
890.377	14575
890.501	14438
890.624	14423
890.748	14442
890.871	14339
890.995	14267
891.118	14149
891.241	14374
891.364	14324
891.488	14446
891.611	14290
891.734	14317
891.857	14347
891.98	14256
892.103	14465
892.226	14347
892.349	14244
892.471	14126
892.594	14362
892.717	14294
892.839	14278
892.962	14366
893.085	14404
893.207	14336
893.33	14229
893.452	14130
893.575	14396
893.697	14278
893.819	14336
893.941	14552
894.064	14465
894.186	14271
894.308	14328
894.43	14431
894.552	14495
894.674	14362
894.796	14309
894.918	14377
895.04	14309
895.161	14450
895.283	14389
895.405	14237
895.526	14362
895.648	14393
895.769	14480
895.891	14507
896.012	14533
896.134	14492
896.255	14408
896.376	14476
896.498	14484
896.619	14518
896.74	14484
896.861	14606
896.982	14758
897.103	14948
897.224	14842
897.345	14708
897.466	14682
897.587	14735
897.708	14807
897.828	14762
897.949	14720
898.07	14625
898.19	14712
898.311	14982
898.431	14796
898.552	14880
898.672	14963
898.792	14998
898.913	14739
899.033	14754
899.153	14682
899.273	14617
899.393	14571
899.513	14663
899.633	14667
899.753	14834
899.873	14708
899.993	14689
900.113	14659
900.232	14682
900.352	14693
900.472	14511
900.591	14492
900.711	14511
900.83	14442
900.95	14716
901.069	14693
901.189	14533
901.308	14320
901.427	14195
901.546	14183
901.665	14282
901.784	14351
901.904	14161
902.023	14084
902.141	13849
902.26	13734
902.379	13807
902.498	13791
902.617	13742
902.735	13883
902.854	13803
902.973	13647
903.091	13578
903.21	13476
903.328	13544
903.446	13438
903.565	13365
903.683	13304
903.801	13263
903.919	13331
904.038	13316
904.156	13217
904.274	13236
904.392	13129
904.51	13137
904.627	13069
904.745	13194
904.863	13217
904.981	12993
905.098	12890
905.216	12875
905.334	12810
905.451	12844
905.569	12856
905.686	12916
905.803	12939
905.921	12646
906.038	12844
906.155	12635
906.272	12631
906.389	12570
906.506	12388
906.623	12395
906.74	12391
906.857	12292
906.974	12426
907.091	12486
907.208	12540
907.324	12456
907.441	12258
907.557	12110
907.674	12148
907.79	12068
907.907	12178
908.023	12300
908.139	12194
908.256	12038
908.372	12167
908.488	12175
908.604	11984
908.72	11961
908.836	12019
908.952	11859
909.068	11973
909.184	11996
909.3	11855
909.415	11988
909.531	11992
909.647	11699
909.762	11672
909.878	11733
909.993	11733
910.108	11760
910.224	11646
910.339	11680
910.454	11638
910.57	11490
910.685	11493
910.8	11752
910.915	11661
911.03	11551
911.145	11425
911.259	11326
911.374	11372
911.489	11311
911.604	11277
911.718	11189
911.833	11246
911.947	11025
912.062	10942
912.176	11166
912.291	11220
912.405	11075
912.519	11391
912.633	11284
912.748	11166
912.862	11170
912.976	11067
913.09	10946
913.204	10953
913.318	10991
913.431	11147
913.545	11143
913.659	11094
913.772	11102
913.886	10965
914	10896
914.113	10949
914.226	11003
914.34	10984
914.453	10759
914.566	10927
914.68	10812
914.793	10809
914.906	10725
915.019	10580
915.132	10599
915.245	10569
915.358	10653
915.47	10603
915.583	10698
915.696	10683
915.809	10809
915.921	10824
916.034	10637
916.146	10603
916.259	10580
916.371	10645
916.483	10634
916.595	10573
916.708	10573
916.82	10603
916.932	10649
917.044	10523
917.156	10580
917.268	10382
917.38	10489
917.491	10474
917.603	10459
917.715	10584
917.826	10630
917.938	10398
918.049	10341
918.161	10462
918.272	10584
918.384	10596
918.495	10413
918.606	10402
918.717	10257
918.828	10318
918.939	10367
919.05	10325
919.161	10341
919.272	10128
919.383	10268
919.494	10440
919.604	10569
919.715	10394
919.826	10276
919.936	10310
920.047	10440
920.157	10325
920.267	10561
920.378	10462
920.488	10371
920.598	10573
920.708	10714
920.818	10546
920.928	10573
921.038	10622
921.148	10656
921.258	10398
921.368	10246
921.477	10230
921.587	10219
921.697	10120
921.806	10265
921.916	10109
922.025	9937
922.134	9884
922.244	9880
922.353	9899
922.462	9808
922.571	9819
922.68	9679
922.789	9481
922.898	9633
923.007	9545
923.116	9595
923.224	9660
923.333	9481
923.442	9500
923.55	9473
923.659	9519
923.767	9595
923.876	9439
923.984	9500
924.092	9443
924.201	9526
924.309	9420
924.417	9454
924.525	9393
924.633	9397
924.741	10413
924.849	9253
924.956	9367
925.064	9245
925.172	9165
925.279	9203
925.387	9264
925.494	9287
925.602	9329
925.709	9370
925.816	9173
925.924	9207
926.031	9401
926.138	9188
926.245	9359
926.352	9184
926.459	9321
926.566	9378
926.673	9180
926.779	9157
926.886	9184
926.993	9001
927.099	8910
927.206	8918
927.312	8902
927.419	9028
927.525	9001
927.631	9058
927.737	8857
927.843	8902
927.95	8735
928.056	8864
928.162	8906
928.267	8944
928.373	9458
928.479	8910
928.585	8716
928.69	8880
928.796	8933
928.901	8735
929.007	8648
929.112	8842
929.218	8743
929.323	8651
929.428	8682
929.533	8769
929.638	8648
929.743	8686
929.848	8788
929.953	8701
930.058	8629
930.163	8355
930.267	8476
930.372	8522
930.477	8412
930.581	8712
930.685	8465
930.79	8374
930.894	8396
930.998	8431
931.103	8541
931.207	8134
931.311	8168
931.415	8069
931.519	7906
931.623	7898
