Data from test_V78500241_329.txt Node
Date: Fri Mar 25 14:36:00 CST 2022
User: usil
Spectrometer: V785-0024
Trigger mode: 0
Integration Time (sec): 4.000000E-1
Scans to average: 1
Nonlinearity correction enabled: false
Boxcar width: 0
Storing dark spectrum: false
XAxis mode: Wavelengths
Number of Pixels in Spectrum: 1024
>>>>>Begin Spectral Data<<<<<
801.071	26940
801.214	26853
801.356	26705
801.499	26530
801.641	26423
801.783	26453
801.926	26419
802.068	26336
802.211	26225
802.353	26149
802.496	26153
802.638	26005
802.78	25970
802.923	25833
803.065	25928
803.208	25898
803.35	25898
803.492	26088
803.635	26138
803.777	25932
803.919	26001
804.061	26415
804.204	25947
804.346	25887
804.488	25803
804.63	26005
804.773	25864
804.915	25921
805.057	26092
805.199	25856
805.341	26062
805.483	25898
805.626	26069
805.768	25982
805.91	25966
806.052	25864
806.194	25902
806.336	26138
806.478	26031
806.62	25883
806.762	26012
806.904	26130
807.046	26415
807.188	26267
807.33	26248
807.472	26358
807.614	26210
807.756	26317
807.898	26111
808.04	26077
808.182	26157
808.324	26290
808.465	26168
808.607	26339
808.749	26495
808.891	26670
809.033	26758
809.174	26549
809.316	26545
809.458	26549
809.6	26362
809.741	26461
809.883	26522
810.025	26754
810.166	26735
810.308	26853
810.45	26667
810.591	26560
810.733	26499
810.875	26423
811.016	26294
811.158	26206
811.299	26473
811.441	26499
811.582	26351
811.724	26298
811.865	26286
812.007	26225
812.148	26355
812.29	26473
812.431	26423
812.573	26518
812.714	26678
812.855	26765
812.997	26982
813.138	27096
813.279	26781
813.421	26746
813.562	26804
813.703	26583
813.845	26541
813.986	26142
814.127	26115
814.268	25940
814.41	25928
814.551	25856
814.692	25898
814.833	25826
814.974	25868
815.115	25887
815.256	25685
815.397	25689
815.539	25818
815.68	25738
815.821	25605
815.962	25696
816.103	25571
816.244	25483
816.385	25354
816.526	25148
816.666	25316
816.807	25095
816.948	24981
817.089	25152
817.23	25069
817.371	24985
817.512	25008
817.653	25069
817.793	24905
817.934	25034
818.075	25072
818.216	25031
818.356	24897
818.497	24882
818.638	24700
818.778	24646
818.919	24627
819.06	24726
819.2	24783
819.341	24837
819.481	24901
819.622	25015
819.762	25255
819.903	25244
820.043	25019
820.184	25091
820.324	24981
820.465	25065
820.605	24962
820.746	24909
820.886	24863
821.026	24920
821.167	24875
821.307	24977
821.447	24928
821.588	24696
821.728	24642
821.868	24551
822.008	24372
822.149	24346
822.289	24251
822.429	24102
822.569	24068
822.709	24015
822.849	23866
822.99	23893
823.13	23866
823.27	23722
823.41	23573
823.55	23535
823.69	23653
823.83	23531
823.97	23551
824.11	23459
824.25	23391
824.389	23250
824.529	23440
824.669	23250
824.809	23440
824.949	23406
825.089	23356
825.228	23376
825.368	23197
825.508	23296
825.648	23181
825.787	23193
825.927	23208
826.067	23162
826.206	23162
826.346	23105
826.485	23200
826.625	23052
826.765	23197
826.904	23162
827.044	22957
827.183	22877
827.323	22763
827.462	22786
827.601	22854
827.741	22767
827.88	22797
828.02	22698
828.159	22793
828.298	22790
828.437	22831
828.577	22683
828.716	22965
828.855	22729
828.994	22371
829.134	22569
829.273	22637
829.412	22367
829.551	22478
829.69	22424
829.829	22493
829.968	22481
830.107	22717
830.246	22550
830.385	22497
830.524	22363
830.663	22223
830.802	22242
830.941	22070
831.08	22036
831.219	22166
831.357	22192
831.496	22242
831.635	22036
831.774	22082
831.913	21930
832.051	21838
832.19	21926
832.329	21831
832.467	21789
832.606	21705
832.744	21732
832.883	21778
833.022	21603
833.16	21785
833.299	21755
833.437	21648
833.576	21770
833.714	21831
833.852	21732
833.991	21800
834.129	21854
834.267	21709
834.406	21762
834.544	21797
834.682	21759
834.821	21618
834.959	21827
835.097	21526
835.235	21705
835.373	21675
835.511	21622
835.65	21447
835.788	21572
835.926	21473
836.064	21363
836.202	21435
836.34	21561
836.478	21568
836.615	21408
836.753	21568
836.891	21686
837.029	21500
837.167	21530
837.305	21443
837.443	21488
837.58	21416
837.718	21572
837.856	21378
837.993	21367
838.131	21447
838.269	21275
838.406	21424
838.544	21131
838.681	20960
838.819	20952
838.956	20842
839.094	20864
839.231	20982
839.369	21036
839.506	21264
839.643	21093
839.781	20880
839.918	20800
840.055	20857
840.193	20785
840.33	20686
840.467	20868
840.604	20849
840.742	21074
840.879	20670
841.016	20651
841.153	20716
841.29	20872
841.427	20644
841.564	20788
841.701	20659
841.838	20720
841.975	20583
842.112	20663
842.249	20552
842.385	20461
842.522	20583
842.659	20537
842.796	20518
842.933	20644
843.069	20511
843.206	20579
843.343	20518
843.479	20484
843.616	20522
843.752	20313
843.889	20347
844.025	20461
844.162	20282
844.298	20404
844.435	20195
844.571	20218
844.708	20400
844.844	20286
844.98	20465
845.117	20385
845.253	20134
845.389	20202
845.525	20210
845.661	20199
845.798	20027
845.934	20096
846.07	20161
846.206	20122
846.342	20183
846.478	20161
846.614	19818
846.75	19700
846.886	19666
847.022	19845
847.158	19750
847.294	19807
847.429	19814
847.565	19693
847.701	20024
847.837	19441
847.972	19274
848.108	19434
848.244	19529
848.379	19308
848.515	19209
848.65	19244
848.786	19282
848.921	19396
849.057	19343
849.192	19464
849.328	19335
849.463	19289
849.598	19202
849.734	19069
849.869	19152
850.004	18981
850.14	18954
850.275	18935
850.41	19015
850.545	18973
850.68	18973
850.815	19031
850.95	18935
851.085	19160
851.22	19088
851.355	19061
851.49	18951
851.625	18932
851.76	18920
851.895	18821
852.03	18897
852.165	18814
852.299	19088
852.434	19072
852.569	18920
852.703	18939
852.838	19015
852.973	19069
853.107	19148
853.242	18981
853.376	18787
853.511	18802
853.645	18738
853.78	18924
853.914	18837
854.048	18681
854.183	18791
854.317	18856
854.451	19053
854.585	18897
854.72	18749
854.854	18795
854.988	18749
855.122	18894
855.256	18726
855.39	18772
855.524	18829
855.658	18863
855.792	18787
855.926	18776
856.06	18852
856.194	18890
856.327	18833
856.461	18726
856.595	18738
856.729	18772
856.862	18852
856.996	18795
857.13	18852
857.263	18859
857.397	18844
857.53	18802
857.664	18894
857.797	18920
857.931	18890
858.064	18817
858.197	18871
858.331	18707
858.464	18696
858.597	18612
858.731	18734
858.864	18642
858.997	18650
859.13	18650
859.263	18711
859.396	18787
859.529	18692
859.662	18639
859.795	18814
859.928	18696
860.061	18916
860.194	18863
860.327	18741
860.46	18791
860.592	18856
860.725	18863
860.858	18840
860.99	18650
861.123	18536
861.256	18677
861.388	18719
861.521	19339
861.653	18738
861.786	18456
861.918	18631
862.05	18707
862.183	18654
862.315	18856
862.447	18760
862.58	18764
862.712	18467
862.844	18456
862.976	18616
863.108	18604
863.24	18852
863.372	18464
863.504	18460
863.636	18429
863.768	18502
863.9	18479
864.032	18277
864.164	18338
864.296	18589
864.428	18502
864.559	18452
864.691	18429
864.823	18509
864.954	18395
865.086	18395
865.217	18456
865.349	18254
865.48	18315
865.612	18456
865.743	18494
865.875	18422
866.006	18266
866.137	18422
866.269	18376
866.4	18391
866.531	18235
866.662	18365
866.793	18239
866.924	18292
867.055	18308
867.186	18391
867.317	18266
867.448	18258
867.579	18270
867.71	18254
867.841	18292
867.972	18426
868.103	18338
868.233	18384
868.364	18330
868.495	18441
868.625	18486
868.756	18635
868.886	18452
869.017	18528
869.147	18669
869.278	18734
869.408	18642
869.539	18490
869.669	18540
869.799	18532
869.929	18555
870.06	18669
870.19	18741
870.32	18795
870.45	18890
870.58	18897
870.71	18989
870.84	18993
870.97	18981
871.1	18863
871.23	19095
871.36	19160
871.489	19042
871.619	19179
871.749	19084
871.879	19187
872.008	19179
872.138	19175
872.267	19126
872.397	19034
872.526	18977
872.656	18981
872.785	18878
872.915	19156
873.044	19164
873.173	19107
873.303	19168
873.432	19126
873.561	19225
873.69	19236
873.819	19156
873.948	19274
874.077	19190
874.206	19099
874.335	19122
874.464	19263
874.593	19304
874.722	19320
874.851	19384
874.979	19343
875.108	19426
875.237	19350
875.365	19278
875.494	19396
875.623	19567
875.751	19339
875.88	19491
876.008	19491
876.136	19662
876.265	19864
876.393	19993
876.521	19932
876.65	19883
876.778	19788
876.906	19715
877.034	19788
877.162	19738
877.29	19742
877.418	19788
877.546	19814
877.674	19837
877.802	19776
877.93	19776
878.058	19727
878.185	19681
878.313	19753
878.441	19845
878.568	19693
878.696	19833
878.824	19837
878.951	19818
879.079	19936
879.206	20092
879.333	20020
879.461	19898
879.588	20084
879.715	20016
879.842	20145
879.97	19974
880.097	19708
880.224	19700
880.351	19704
880.478	19719
880.605	19594
880.732	19731
880.859	19955
880.986	19753
881.112	19845
881.239	19666
881.366	19537
881.493	19316
881.619	19312
881.746	19339
881.872	19251
881.999	19225
882.125	19335
882.252	19327
882.378	19202
882.505	19480
882.631	19213
882.757	19122
882.883	19228
883.01	19042
883.136	19122
883.262	18905
883.388	18973
883.514	19110
883.64	19133
883.766	18943
883.892	18829
884.018	18905
884.143	19065
884.269	19103
884.395	18871
884.52	18627
884.646	18810
884.772	18654
884.897	18601
885.023	18730
885.148	18859
885.274	18764
885.399	18951
885.524	18745
885.65	18707
885.775	18722
885.9	18684
886.025	18814
886.15	18787
886.275	18753
886.4	18464
886.525	18684
886.65	18608
886.775	18677
886.9	18772
887.025	18856
887.149	18757
887.274	18536
887.399	18547
887.523	18418
887.648	18433
887.773	18486
887.897	18601
888.021	18627
888.146	18467
888.27	18555
888.395	18764
888.519	18464
888.643	18585
888.767	18479
888.891	18369
889.015	18308
889.139	18407
889.263	18311
889.387	18342
889.511	18486
889.635	18426
889.759	18292
889.883	18194
890.006	18292
890.13	18350
890.254	18098
890.377	18235
890.501	18064
890.624	18038
890.748	18114
890.871	18026
890.995	17821
891.118	17832
891.241	17927
891.364	17931
891.488	17965
891.611	17923
891.734	17805
891.857	17973
891.98	17927
892.103	17969
892.226	17927
892.349	17912
892.471	17805
892.594	17843
892.717	18019
892.839	17771
892.962	17836
893.085	17931
893.207	17946
893.33	17771
893.452	17726
893.575	17908
893.697	17802
893.819	18026
893.941	18079
894.064	17999
894.186	17714
894.308	17745
894.43	18045
894.552	17977
894.674	17999
894.796	17840
894.918	17912
895.04	17946
895.161	17908
895.283	17813
895.405	17722
895.526	17855
895.648	17836
895.769	17950
895.891	17897
896.012	17931
896.134	17942
896.255	17885
896.376	17916
896.498	17946
896.619	18011
896.74	17946
896.861	18064
896.982	18281
897.103	18395
897.224	18235
897.345	18338
897.466	18197
897.587	18133
897.708	18323
897.828	18133
897.949	18068
898.07	18053
898.19	18167
898.311	18315
898.431	18102
898.552	18148
898.672	18254
898.792	18144
898.913	18178
899.033	17999
899.153	17843
899.273	17866
899.393	18003
899.513	17908
899.633	17950
899.753	17996
899.873	17931
899.993	17988
900.113	17908
900.232	17897
900.352	17802
900.472	17840
900.591	17718
900.711	17798
900.83	17714
900.95	17832
901.069	17874
901.189	17687
901.308	17402
901.427	17322
901.546	17383
901.665	17417
901.784	17345
901.904	17277
902.023	17197
902.141	16900
902.26	16858
902.379	16927
902.498	16896
902.617	16889
902.735	16927
902.854	16828
902.973	16824
903.091	16474
903.21	16512
903.328	16618
903.446	16504
903.565	16485
903.683	16394
903.801	16299
903.919	16409
904.038	16341
904.156	16276
904.274	16154
904.392	16166
904.51	16188
904.627	16139
904.745	16204
904.863	16090
904.981	15880
905.098	15854
905.216	15831
905.334	15880
905.451	15876
905.569	15789
905.686	15846
905.803	15857
905.921	15622
906.038	15762
906.155	15652
906.272	15481
906.389	15572
906.506	15325
906.623	15367
906.74	15355
906.857	15306
906.974	15230
907.091	15374
907.208	15447
907.324	15386
907.441	15332
907.557	15138
907.674	15089
907.79	15093
907.907	14956
908.023	15024
908.139	15135
908.256	15017
908.372	14868
908.488	14960
908.604	14880
908.72	14701
908.836	14895
908.952	14762
909.068	14838
909.184	14800
909.3	14800
909.415	14876
909.531	14765
909.647	14442
909.762	14617
909.878	14518
909.993	14522
910.108	14511
910.224	14545
910.339	14465
910.454	14343
910.57	14339
910.685	14309
910.8	14613
910.915	14427
911.03	14275
911.145	14149
911.259	14119
911.374	14024
911.489	14024
911.604	14050
911.718	13902
911.833	13955
911.947	13811
912.062	13674
912.176	13849
912.291	13883
912.405	13860
912.519	14031
912.633	13982
912.748	13868
912.862	13837
912.976	13772
913.09	13571
913.204	13639
913.318	13689
913.431	13803
913.545	13814
913.659	13700
913.772	13601
913.886	13495
914	13514
914.113	13620
914.226	13704
914.34	13674
914.453	13460
914.566	13533
914.68	13464
914.793	13434
914.906	13289
915.019	13232
915.132	13114
915.245	13168
915.358	13213
915.47	13149
915.583	13213
915.696	13232
915.809	13343
915.921	13343
916.034	13225
916.146	13110
916.259	13057
916.371	13164
916.483	13118
916.595	13076
916.708	13076
916.82	13187
916.932	13046
917.044	13034
917.156	13034
917.268	12939
917.38	12897
917.491	12871
917.603	12916
917.715	12958
917.826	13031
917.938	12875
918.049	12787
918.161	12882
918.272	13008
918.384	13065
918.495	12894
918.606	12787
918.717	12654
918.828	12776
918.939	12700
919.05	12623
919.161	12662
919.272	12551
919.383	12574
919.494	12760
919.604	12825
919.715	12711
919.826	12608
919.936	12620
920.047	12681
920.157	12776
920.267	12909
920.378	12665
920.488	12642
920.598	12817
920.708	12996
920.818	12779
920.928	12859
921.038	13000
921.148	12935
921.258	12669
921.368	12597
921.477	12418
921.587	12410
921.697	12285
921.806	12517
921.916	12273
922.025	12140
922.134	12167
922.244	12076
922.353	12102
922.462	12015
922.571	11980
922.68	11783
922.789	11824
922.898	11802
923.007	11718
923.116	11840
923.224	11733
923.333	11691
923.442	11649
923.55	11619
923.659	11596
923.767	11756
923.876	11688
923.984	11722
924.092	11535
924.201	11596
924.309	11623
924.417	11535
924.525	11532
924.633	11497
924.741	12346
924.849	11349
924.956	11444
925.064	11372
925.172	11242
925.279	11292
925.387	11269
925.494	11273
925.602	11440
925.709	11353
925.816	11261
925.924	11242
926.031	11307
926.138	11284
926.245	11315
926.352	11143
926.459	11288
926.566	11398
926.673	11109
926.779	11075
926.886	11052
926.993	10953
927.099	10862
927.206	10889
927.312	10877
927.419	10984
927.525	10927
927.631	10995
927.737	10771
927.843	10866
927.95	10698
928.056	10683
928.162	10919
928.267	10828
928.373	11303
928.479	10850
928.585	10584
928.69	10721
928.796	10801
928.901	10683
929.007	10546
929.112	10660
929.218	10554
929.323	10523
929.428	10516
929.533	10596
929.638	10500
929.743	10485
929.848	10611
929.953	10474
930.058	10409
930.163	10261
930.267	10249
930.372	10360
930.477	10215
930.581	10417
930.685	10287
930.79	10185
930.894	10131
930.998	10074
931.103	10238
931.207	9915
931.311	9835
931.415	9793
931.519	9606
931.623	9549
