Data from test_V78500241_3171.txt Node
Date: Fri Mar 25 14:55:47 CST 2022
User: usil
Spectrometer: V785-0024
Trigger mode: 0
Integration Time (sec): 4.000000E-1
Scans to average: 1
Nonlinearity correction enabled: false
Boxcar width: 0
Storing dark spectrum: false
XAxis mode: Wavelengths
Number of Pixels in Spectrum: 1024
>>>>>Begin Spectral Data<<<<<
801.071	21934
801.214	21926
801.356	21698
801.499	21591
801.641	21450
801.783	21439
801.926	21397
802.068	21405
802.211	21199
802.353	21036
802.496	21005
802.638	20758
802.78	20765
802.923	20796
803.065	20568
803.208	20674
803.35	20819
803.492	20754
803.635	20849
803.777	20609
803.919	20746
804.061	21017
804.204	20754
804.346	20731
804.488	20473
804.63	20674
804.773	20640
804.915	20735
805.057	20724
805.199	20590
805.341	20640
805.483	20861
805.626	20762
805.768	20701
805.91	20712
806.052	20720
806.194	20613
806.336	20731
806.478	20655
806.62	20389
806.762	20678
806.904	20792
807.046	21009
807.188	20971
807.33	20868
807.472	20963
807.614	20857
807.756	20895
807.898	20815
808.04	20640
808.182	20648
808.324	20716
808.465	20667
808.607	20857
808.749	21005
808.891	21096
809.033	21051
809.174	21036
809.316	20941
809.458	20952
809.6	21005
809.741	21093
809.883	21104
810.025	21188
810.166	21157
810.308	21085
810.45	21100
810.591	21047
810.733	20785
810.875	20754
811.016	20712
811.158	20632
811.299	20880
811.441	20883
811.582	20929
811.724	20849
811.865	20701
812.007	20765
812.148	20746
812.29	20746
812.431	20868
812.573	21001
812.714	21131
812.855	21291
812.997	21287
813.138	21439
813.279	21317
813.421	21260
813.562	21222
813.703	21138
813.845	20838
813.986	20598
814.127	20461
814.268	20400
814.41	20389
814.551	20313
814.692	20385
814.833	20286
814.974	20229
815.115	20248
815.256	20164
815.397	20237
815.539	20111
815.68	20088
815.821	19959
815.962	19963
816.103	20020
816.244	19871
816.385	19765
816.526	19719
816.666	19632
816.807	19548
816.948	19609
817.089	19529
817.23	19525
817.371	19445
817.512	19400
817.653	19480
817.793	19518
817.934	19415
818.075	19430
818.216	19362
818.356	19460
818.497	19293
818.638	19023
818.778	19080
818.919	19160
819.06	19141
819.2	19236
819.341	19259
819.481	19324
819.622	19438
819.762	19670
819.903	19704
820.043	19540
820.184	19430
820.324	19346
820.465	19324
820.605	19422
820.746	19396
820.886	19255
821.026	19312
821.167	19419
821.307	19388
821.447	19354
821.588	19179
821.728	19107
821.868	18837
822.008	18726
822.149	18810
822.289	18726
822.429	18433
822.569	18536
822.709	18517
822.849	18350
822.99	18235
823.13	18361
823.27	18266
823.41	18220
823.55	18102
823.69	18232
823.83	18155
823.97	18057
824.11	17920
824.25	17885
824.389	17874
824.529	17950
824.669	17908
824.809	18076
824.949	17939
825.089	17828
825.228	17916
825.368	17653
825.508	17699
825.648	17600
825.787	17752
825.927	17687
826.067	17638
826.206	17566
826.346	17710
826.485	17714
826.625	17657
826.765	17714
826.904	17661
827.044	17376
827.183	17410
827.323	17284
827.462	17372
827.601	17414
827.741	17231
827.88	17383
828.02	17143
828.159	17208
828.298	17360
828.437	17315
828.577	17356
828.716	17440
828.855	17258
828.994	17094
829.134	17143
829.273	17105
829.412	17083
829.551	16984
829.69	17083
829.829	17033
829.968	17204
830.107	17124
830.246	17170
830.385	17052
830.524	16984
830.663	16991
830.802	16793
830.941	16691
831.08	16725
831.219	16752
831.357	16896
831.496	16927
831.635	16664
831.774	16626
831.913	16485
832.051	16584
832.19	16493
832.329	16508
832.467	16481
832.606	16405
832.744	16535
832.883	16428
833.022	16344
833.16	16497
833.299	16432
833.437	16379
833.576	16447
833.714	16504
833.852	16375
833.991	16481
834.129	16493
834.267	16538
834.406	16466
834.544	16546
834.682	16493
834.821	16546
834.959	16558
835.097	16466
835.235	16531
835.373	16523
835.511	16580
835.65	16371
835.788	16318
835.926	16135
836.064	16169
836.202	16128
836.34	16352
836.478	16478
836.615	16329
836.753	16386
836.891	16577
837.029	16390
837.167	16234
837.305	16325
837.443	16249
837.58	16253
837.718	16310
837.856	16162
837.993	16242
838.131	16150
838.269	16177
838.406	16101
838.544	16025
838.681	16040
838.819	15945
838.956	15778
839.094	15717
839.231	15789
839.369	15873
839.506	16192
839.643	16090
839.781	15876
839.918	15762
840.055	15663
840.193	15785
840.33	15698
840.467	15842
840.604	15755
840.742	16051
840.879	15652
841.016	15705
841.153	15686
841.29	15960
841.427	15747
841.564	15861
841.701	15850
841.838	15762
841.975	15717
842.112	15728
842.249	15622
842.385	15576
842.522	15762
842.659	15591
842.796	15523
842.933	15618
843.069	15447
843.206	15507
843.343	15663
843.479	15682
843.616	15667
843.752	15351
843.889	15313
844.025	15458
844.162	15340
844.298	15447
844.435	15317
844.571	15294
844.708	15332
844.844	15557
844.98	15450
845.117	15481
845.253	15306
845.389	15237
845.525	15363
845.661	15211
845.798	15112
845.934	15237
846.07	15173
846.206	15268
846.342	15313
846.478	15203
846.614	15028
846.75	14864
846.886	14861
847.022	14944
847.158	14960
847.294	14967
847.429	14963
847.565	15001
847.701	15100
847.837	14617
847.972	14644
848.108	14788
848.244	14735
848.379	14511
848.515	14511
848.65	14507
848.786	14476
848.921	14492
849.057	14636
849.192	14629
849.328	14530
849.463	14610
849.598	14450
849.734	14404
849.869	14351
850.004	14320
850.14	14320
850.275	14370
850.41	14168
850.545	14229
850.68	14385
850.815	14381
850.95	14332
851.085	14381
851.22	14366
851.355	14317
851.49	14290
851.625	14275
851.76	14259
851.895	14164
852.03	14176
852.165	14256
852.299	14252
852.434	14339
852.569	14408
852.703	14313
852.838	14362
852.973	14503
853.107	14457
853.242	14244
853.376	14126
853.511	14115
853.645	14183
853.78	14218
853.914	14168
854.048	14199
854.183	14092
854.317	14168
854.451	14256
854.585	14248
854.72	14107
854.854	14221
854.988	14100
855.122	14214
855.256	13989
855.39	14043
855.524	14286
855.658	14210
855.792	14145
855.926	14134
856.06	14278
856.194	14332
856.327	14195
856.461	14161
856.595	14176
856.729	14126
856.862	14313
856.996	14107
857.13	14233
857.263	14309
857.397	14370
857.53	14259
857.664	14256
857.797	14355
857.931	14233
858.064	14256
858.197	14168
858.331	14149
858.464	14081
858.597	14092
858.731	14195
858.864	14187
858.997	14180
859.13	14206
859.263	14199
859.396	14252
859.529	14111
859.662	14096
859.795	14145
859.928	14240
860.061	14362
860.194	14400
860.327	14248
860.46	14149
860.592	14237
860.725	14267
860.858	14336
860.99	14107
861.123	14027
861.256	14084
861.388	14126
861.521	14918
861.653	14065
861.786	14012
861.918	14092
862.05	14176
862.183	14084
862.315	14088
862.447	14240
862.58	14088
862.712	14020
862.844	13833
862.976	13963
863.108	13997
863.24	14286
863.372	13860
863.504	13856
863.636	13860
863.768	14027
863.9	13997
864.032	13849
864.164	13947
864.296	14027
864.428	13982
864.559	14012
864.691	14119
864.823	14039
864.954	13970
865.086	14005
865.217	13871
865.349	13955
865.48	13814
865.612	13947
865.743	14134
865.875	13875
866.006	13925
866.137	13925
866.269	13894
866.4	13906
866.531	13898
866.662	13826
866.793	13921
866.924	13932
867.055	13940
867.186	13902
867.317	13875
867.448	13849
867.579	13978
867.71	13849
867.841	13818
867.972	13875
868.103	13837
868.233	13997
868.364	14005
868.495	13997
868.625	14119
868.756	14271
868.886	14115
869.017	14233
869.147	14290
869.278	14225
869.408	14259
869.539	14195
869.669	14267
869.799	14115
869.929	14271
870.06	14259
870.19	14507
870.32	14473
870.45	14579
870.58	14575
870.71	14743
870.84	14617
870.97	14644
871.1	14598
871.23	14781
871.36	14773
871.489	14804
871.619	14735
871.749	14845
871.879	14864
872.008	14864
872.138	14819
872.267	14804
872.397	14655
872.526	14670
872.656	14644
872.785	14587
872.915	14769
873.044	14815
873.173	14849
873.303	14804
873.432	14952
873.561	14921
873.69	14853
873.819	14796
873.948	14921
874.077	14921
874.206	14826
874.335	14838
874.464	15055
874.593	15051
874.722	15055
874.851	15222
874.979	15116
875.108	15230
875.237	15154
875.365	15104
875.494	15127
875.623	15287
875.751	15097
875.88	15203
876.008	15382
876.136	15370
876.265	15587
876.393	15774
876.521	15660
876.65	15686
876.778	15564
876.906	15545
877.034	15473
877.162	15496
877.29	15469
877.418	15564
877.546	15553
877.674	15561
877.802	15606
877.93	15576
878.058	15523
878.185	15374
878.313	15595
878.441	15576
878.568	15420
878.696	15564
878.824	15526
878.951	15633
879.079	15835
879.206	15842
879.333	15698
879.461	15507
879.588	15679
879.715	15690
879.842	15762
879.97	15637
880.097	15408
880.224	15488
880.351	15549
880.478	15431
880.605	15367
880.732	15469
880.859	15682
880.986	15420
881.112	15302
881.239	15222
881.366	15192
881.493	15047
881.619	15077
881.746	15077
881.872	15028
881.999	15085
882.125	14948
882.252	15032
882.378	15089
882.505	15275
882.631	15119
882.757	14952
882.883	14994
883.01	14986
883.136	14899
883.262	14739
883.388	14682
883.514	15062
883.64	14899
883.766	14925
883.892	14735
884.018	14883
884.143	14838
884.269	15005
884.395	14568
884.52	14602
884.646	14697
884.772	14533
884.897	14499
885.023	14625
885.148	14621
885.274	14781
885.399	14682
885.524	14667
885.65	14552
885.775	14549
885.9	14495
886.025	14758
886.15	14651
886.275	14583
886.4	14438
886.525	14465
886.65	14434
886.775	14526
886.9	14773
887.025	14857
887.149	14610
887.274	14511
887.399	14446
887.523	14320
887.648	14381
887.773	14278
887.897	14465
888.021	14431
888.146	14404
888.27	14522
888.395	14606
888.519	14473
888.643	14530
888.767	14499
888.891	14267
889.015	14210
889.139	14351
889.263	14233
889.387	14404
889.511	14454
889.635	14438
889.759	14313
889.883	14366
890.006	14256
890.13	14396
890.254	14195
890.377	14225
890.501	14134
890.624	14054
890.748	14149
890.871	13997
890.995	13989
891.118	13883
891.241	14012
891.364	14081
891.488	14062
891.611	13967
891.734	14062
891.857	14077
891.98	14039
892.103	13997
892.226	14001
892.349	13871
892.471	13849
892.594	14005
892.717	13951
892.839	13928
892.962	14016
893.085	14115
893.207	14050
893.33	13814
893.452	13951
893.575	14138
893.697	13932
893.819	14218
893.941	14123
894.064	14180
894.186	13932
894.308	13921
894.43	14149
894.552	14157
894.674	14195
894.796	14012
894.918	14024
895.04	13989
895.161	14138
895.283	14138
895.405	14054
895.526	14073
895.648	14043
895.769	14092
895.891	14214
896.012	14210
896.134	14233
896.255	14195
896.376	14229
896.498	14176
896.619	14115
896.74	14191
896.861	14218
896.982	14473
897.103	14663
897.224	14446
897.345	14427
897.466	14423
897.587	14495
897.708	14552
897.828	14568
897.949	14457
898.07	14358
898.19	14396
898.311	14564
898.431	14469
898.552	14526
898.672	14617
898.792	14594
898.913	14522
899.033	14503
899.153	14385
899.273	14210
899.393	14351
899.513	14457
899.633	14488
899.753	14495
899.873	14423
899.993	14393
900.113	14290
900.232	14446
900.352	14351
900.472	14294
900.591	14237
900.711	14362
900.83	14225
900.95	14351
901.069	14408
901.189	14218
901.308	13955
901.427	13898
901.546	13978
901.665	13913
901.784	13947
901.904	13769
902.023	13738
902.141	13696
902.26	13491
902.379	13616
902.498	13556
902.617	13407
902.735	13537
902.854	13620
902.973	13400
903.091	13282
903.21	13194
903.328	13236
903.446	13198
903.565	13110
903.683	13129
903.801	13027
903.919	13046
904.038	13156
904.156	12951
904.274	13019
904.392	12970
904.51	12875
904.627	12878
904.745	13065
904.863	12973
904.981	12696
905.098	12639
905.216	12673
905.334	12757
905.451	12654
905.569	12574
905.686	12654
905.803	12642
905.921	12467
906.038	12555
906.155	12429
906.272	12372
906.389	12350
906.506	12243
906.623	12296
906.74	12159
906.857	12095
906.974	12133
907.091	12334
907.208	12380
907.324	12152
907.441	12186
907.557	12015
907.674	11935
907.79	11912
907.907	11939
908.023	11980
908.139	11901
908.256	12003
908.372	11996
908.488	11794
908.604	11756
908.72	11646
908.836	11726
908.952	11630
909.068	11779
909.184	11798
909.3	11695
909.415	11809
909.531	11733
909.647	11532
909.762	11528
909.878	11444
909.993	11490
910.108	11474
910.224	11334
910.339	11402
910.454	11387
910.57	11315
910.685	11242
910.8	11509
910.915	11505
911.03	11303
911.145	11284
911.259	11185
911.374	11227
911.489	11083
911.604	11052
911.718	10923
911.833	10965
911.947	10831
912.062	10767
912.176	10858
912.291	10972
912.405	10854
912.519	11140
912.633	11216
912.748	11052
912.862	10919
912.976	10824
913.09	10778
913.204	10759
913.318	10793
913.431	10889
913.545	10866
913.659	10953
913.772	10866
913.886	10649
914	10679
914.113	10771
914.226	10812
914.34	10835
914.453	10588
914.566	10729
914.68	10615
914.793	10599
914.906	10455
915.019	10474
915.132	10390
915.245	10462
915.358	10409
915.47	10470
915.583	10440
915.696	10558
915.809	10641
915.921	10569
916.034	10462
916.146	10409
916.259	10306
916.371	10538
916.483	10478
916.595	10417
916.708	10413
916.82	10341
916.932	10394
917.044	10356
917.156	10329
917.268	10306
917.38	10261
917.491	10238
917.603	10238
917.715	10318
917.826	10405
917.938	10352
918.049	10185
918.161	10253
918.272	10424
918.384	10360
918.495	10314
918.606	10147
918.717	10082
918.828	10154
918.939	10204
919.05	10036
919.161	10227
919.272	10010
919.383	9972
919.494	10207
919.604	10379
919.715	10166
919.826	10097
919.936	10154
920.047	10166
920.157	10158
920.267	10352
920.378	10211
920.488	10143
920.598	10432
920.708	10459
920.818	10356
920.928	10409
921.038	10523
921.148	10558
921.258	10211
921.368	10143
921.477	9983
921.587	10032
921.697	9888
921.806	10025
921.916	9895
922.025	9800
922.134	9759
922.244	9766
922.353	9800
922.462	9606
922.571	9652
922.68	9447
922.789	9450
922.898	9492
923.007	9473
923.116	9488
923.224	9500
923.333	9424
923.442	9340
923.55	9336
923.659	9310
923.767	9370
923.876	9291
923.984	9378
924.092	9230
924.201	9302
924.309	9272
924.417	9294
924.525	9230
924.633	9294
924.741	10246
924.849	9043
924.956	9203
925.064	9161
925.172	9028
925.279	9066
925.387	9146
925.494	9188
925.602	9272
925.709	9199
925.816	9001
925.924	9127
926.031	9161
926.138	9112
926.245	9161
926.352	9055
926.459	9176
926.566	9131
926.673	9036
926.779	8944
926.886	8952
926.993	8861
927.099	8895
927.206	8686
927.312	8739
927.419	8857
927.525	8773
927.631	8944
927.737	8724
927.843	8739
927.95	8590
928.056	8739
928.162	8739
928.267	8815
928.373	9249
928.479	8811
928.585	8575
928.69	8754
928.796	8826
928.901	8648
929.007	8499
929.112	8632
929.218	8568
929.323	8606
929.428	8522
929.533	8659
929.638	8434
929.743	8442
929.848	8549
929.953	8457
930.058	8484
930.163	8332
930.267	8282
930.372	8492
930.477	8263
930.581	8511
930.685	8362
930.79	8214
930.894	8355
930.998	8191
931.103	8324
931.207	8001
931.311	7955
931.415	7898
931.519	7792
931.623	7712
