Data from test_V78500241_316.txt Node
Date: Fri Mar 25 14:35:55 CST 2022
User: usil
Spectrometer: V785-0024
Trigger mode: 0
Integration Time (sec): 4.000000E-1
Scans to average: 1
Nonlinearity correction enabled: false
Boxcar width: 0
Storing dark spectrum: false
XAxis mode: Wavelengths
Number of Pixels in Spectrum: 1024
>>>>>Begin Spectral Data<<<<<
801.071	26979
801.214	27195
801.356	26826
801.499	26724
801.641	26651
801.783	26377
801.926	26507
802.068	26389
802.211	26393
802.353	26427
802.496	26214
802.638	26016
802.78	26084
802.923	25947
803.065	26062
803.208	25989
803.35	25993
803.492	26138
803.635	26149
803.777	26100
803.919	26050
804.061	26351
804.204	26202
804.346	25959
804.488	26069
804.63	26096
804.773	25887
804.915	25868
805.057	26012
805.199	25951
805.341	26016
805.483	25951
805.626	26073
805.768	26027
805.91	26103
806.052	26149
806.194	26016
806.336	26210
806.478	26024
806.62	25970
806.762	26130
806.904	26309
807.046	26564
807.188	26366
807.33	26442
807.472	26374
807.614	26339
807.756	26389
807.898	26271
808.04	26282
808.182	26347
808.324	26298
808.465	26210
808.607	26457
808.749	26476
808.891	26781
809.033	26640
809.174	26621
809.316	26549
809.458	26571
809.6	26629
809.741	26613
809.883	26507
810.025	26739
810.166	26788
810.308	26811
810.45	26678
810.591	26564
810.733	26518
810.875	26427
811.016	26473
811.158	26400
811.299	26415
811.441	26590
811.582	26644
811.724	26457
811.865	26324
812.007	26514
812.148	26366
812.29	26465
812.431	26674
812.573	26560
812.714	26746
812.855	26956
812.997	26925
813.138	27093
813.279	27017
813.421	26925
813.562	26830
813.703	26750
813.845	26594
813.986	26339
814.127	26084
814.268	25970
814.41	25997
814.551	25989
814.692	26001
814.833	25822
814.974	25898
815.115	25928
815.256	25868
815.397	25890
815.539	25845
815.68	25666
815.821	25624
815.962	25624
816.103	25651
816.244	25548
816.385	25537
816.526	25358
816.666	25365
816.807	25084
816.948	25148
817.089	25179
817.23	25110
817.371	25168
817.512	25065
817.653	25072
817.793	25034
817.934	25141
818.075	25038
818.216	25065
818.356	25050
818.497	24977
818.638	24802
818.778	24764
818.919	24817
819.06	24844
819.2	24947
819.341	24894
819.481	25072
819.622	25198
819.762	25293
819.903	25259
820.043	25209
820.184	25190
820.324	25141
820.465	25129
820.605	25095
820.746	25076
820.886	24844
821.026	25000
821.167	24996
821.307	25057
821.447	25023
821.588	25000
821.728	24623
821.868	24616
822.008	24426
822.149	24437
822.289	24372
822.429	24201
822.569	24098
822.709	23977
822.849	23969
822.99	23863
823.13	23859
823.27	23805
823.41	23665
823.55	23634
823.69	23680
823.83	23630
823.97	23627
824.11	23467
824.25	23497
824.389	23421
824.529	23570
824.669	23421
824.809	23497
824.949	23474
825.089	23478
825.228	23444
825.368	23258
825.508	23315
825.648	23242
825.787	23235
825.927	23273
826.067	23193
826.206	23181
826.346	23273
826.485	23345
826.625	23223
826.765	23231
826.904	23288
827.044	23044
827.183	23044
827.323	22748
827.462	23056
827.601	22999
827.741	22805
827.88	22972
828.02	22881
828.159	22892
828.298	22946
828.437	22953
828.577	22896
828.716	23022
828.855	22786
828.994	22535
829.134	22592
829.273	22474
829.412	22580
829.551	22535
829.69	22440
829.829	22592
829.968	22782
830.107	22641
830.246	22554
830.385	22497
830.524	22405
830.663	22325
830.802	22295
830.941	22131
831.08	22196
831.219	22181
831.357	22211
831.496	22436
831.635	22086
831.774	22006
831.913	22082
832.051	21960
832.19	21907
832.329	21922
832.467	21922
832.606	21755
832.744	21762
832.883	21854
833.022	21770
833.16	21724
833.299	21831
833.437	21831
833.576	21945
833.714	21861
833.852	21797
833.991	21983
834.129	21880
834.267	21945
834.406	21728
834.544	21755
834.682	21816
834.821	21873
834.959	21937
835.097	21682
835.235	21975
835.373	21732
835.511	21789
835.65	21568
835.788	21587
835.926	21469
836.064	21397
836.202	21591
836.34	21660
836.478	21682
836.615	21530
836.753	21568
836.891	21736
837.029	21637
837.167	21622
837.305	21526
837.443	21405
837.58	21378
837.718	21576
837.856	21553
837.993	21492
838.131	21450
838.269	21241
838.406	21458
838.544	21302
838.681	21184
838.819	21028
838.956	20948
839.094	20842
839.231	21066
839.369	21108
839.506	21233
839.643	21024
839.781	20902
839.918	20887
840.055	20807
840.193	20777
840.33	20800
840.467	20731
840.604	20876
840.742	21066
840.879	20739
841.016	20842
841.153	20720
841.29	20914
841.427	20800
841.564	20796
841.701	20682
841.838	20743
841.975	20663
842.112	20674
842.249	20541
842.385	20682
842.522	20697
842.659	20667
842.796	20518
842.933	20606
843.069	20518
843.206	20602
843.343	20686
843.479	20549
843.616	20423
843.752	20362
843.889	20328
844.025	20355
844.162	20240
844.298	20377
844.435	20259
844.571	20305
844.708	20351
844.844	20415
844.98	20446
845.117	20370
845.253	20404
845.389	20267
845.525	20229
845.661	20259
845.798	20130
845.934	20092
846.07	20145
846.206	20206
846.342	20347
846.478	20259
846.614	19913
846.75	19841
846.886	19894
847.022	19860
847.158	19803
847.294	19734
847.429	19837
847.565	19731
847.701	19947
847.837	19571
847.972	19419
848.108	19533
848.244	19620
848.379	19392
848.515	19293
848.65	19354
848.786	19312
848.921	19278
849.057	19495
849.192	19540
849.328	19396
849.463	19373
849.598	19278
849.734	19263
849.869	19183
850.004	19057
850.14	19080
850.275	19171
850.41	19050
850.545	18985
850.68	19065
850.815	19023
850.95	19091
851.085	19354
851.22	19232
851.355	19072
851.49	19000
851.625	18977
851.76	18977
851.895	18901
852.03	18966
852.165	19023
852.299	19103
852.434	19110
852.569	19046
852.703	19034
852.838	19183
852.973	19103
853.107	19213
853.242	19050
853.376	18878
853.511	18738
853.645	18798
853.78	18966
853.914	18901
854.048	18798
854.183	18802
854.317	18848
854.451	18996
854.585	18821
854.72	18802
854.854	18947
854.988	18829
855.122	18863
855.256	18829
855.39	18856
855.524	18951
855.658	18890
855.792	18798
855.926	18996
856.06	18844
856.194	18905
856.327	18829
856.461	18829
856.595	18821
856.729	18837
856.862	18886
856.996	18810
857.13	18943
857.263	18993
857.397	18989
857.53	18806
857.664	18913
857.797	18954
857.931	18947
858.064	18989
858.197	18913
858.331	18829
858.464	18795
858.597	18802
858.731	18810
858.864	18658
858.997	18787
859.13	18833
859.263	18905
859.396	18909
859.529	18738
859.662	18791
859.795	18757
859.928	18844
860.061	18989
860.194	18951
860.327	18867
860.46	18875
860.592	18962
860.725	18954
860.858	18871
860.99	18913
861.123	18722
861.256	18772
861.388	18814
861.521	19468
861.653	18711
861.786	18490
861.918	18604
862.05	18772
862.183	18787
862.315	18791
862.447	19015
862.58	18852
862.712	18669
862.844	18559
862.976	18631
863.108	18650
863.24	18932
863.372	18467
863.504	18502
863.636	18479
863.768	18589
863.9	18502
864.032	18395
864.164	18563
864.296	18486
864.428	18726
864.559	18635
864.691	18559
864.823	18692
864.954	18445
865.086	18517
865.217	18403
865.349	18441
865.48	18429
865.612	18418
865.743	18578
865.875	18380
866.006	18346
866.137	18479
866.269	18433
866.4	18494
866.531	18486
866.662	18353
866.793	18308
866.924	18384
867.055	18448
867.186	18308
867.317	18357
867.448	18262
867.579	18384
867.71	18258
867.841	18194
867.972	18365
868.103	18483
868.233	18414
868.364	18353
868.495	18467
868.625	18658
868.756	18768
868.886	18608
869.017	18544
869.147	18776
869.278	18768
869.408	18547
869.539	18582
869.669	18692
869.799	18768
869.929	18650
870.06	18650
870.19	18909
870.32	18776
870.45	18802
870.58	19053
870.71	19084
870.84	19076
870.97	19057
871.1	18977
871.23	19168
871.36	19206
871.489	19080
871.619	19187
871.749	19152
871.879	19175
872.008	19285
872.138	19278
872.267	19274
872.397	18973
872.526	18993
872.656	19027
872.785	19069
872.915	19129
873.044	19327
873.173	19145
873.303	19282
873.432	19331
873.561	19316
873.69	19194
873.819	19278
873.948	19236
874.077	19335
874.206	19217
874.335	19354
874.464	19331
874.593	19400
874.722	19457
874.851	19567
874.979	19491
875.108	19472
875.237	19331
875.365	19499
875.494	19434
875.623	19590
875.751	19495
875.88	19495
876.008	19670
876.136	19624
876.265	20016
876.393	20081
876.521	20031
876.65	20115
876.778	20035
876.906	19921
877.034	19830
877.162	19925
877.29	19845
877.418	19898
877.546	19909
877.674	19909
877.802	19906
877.93	19845
878.058	19928
878.185	19791
878.313	19845
878.441	19894
878.568	19890
878.696	19803
878.824	19887
878.951	19963
879.079	20122
879.206	20259
879.333	20100
879.461	19986
879.588	19921
879.715	20111
879.842	20286
879.97	19989
880.097	19753
880.224	19738
880.351	19776
880.478	19791
880.605	19727
880.732	19746
880.859	19833
880.986	19795
881.112	19727
881.239	19594
881.366	19578
881.493	19544
881.619	19396
881.746	19388
881.872	19285
881.999	19312
882.125	19301
882.252	19373
882.378	19460
882.505	19487
882.631	19327
882.757	19145
882.883	19183
883.01	19160
883.136	19004
883.262	19057
883.388	18951
883.514	19190
883.64	19183
883.766	19012
883.892	19031
884.018	18924
884.143	18928
884.269	19148
884.395	18817
884.52	18734
884.646	18730
884.772	18787
884.897	18608
885.023	18719
885.148	18916
885.274	18924
885.399	18802
885.524	18821
885.65	18802
885.775	18802
885.9	18703
886.025	18901
886.15	18825
886.275	18783
886.4	18631
886.525	18688
886.65	18627
886.775	18589
886.9	18909
887.025	18947
887.149	18696
887.274	18623
887.399	18536
887.523	18642
887.648	18445
887.773	18467
887.897	18627
888.021	18464
888.146	18494
888.27	18559
888.395	18677
888.519	18540
888.643	18612
888.767	18616
888.891	18399
889.015	18289
889.139	18429
889.263	18308
889.387	18407
889.511	18604
889.635	18369
889.759	18281
889.883	18304
890.006	18350
890.13	18372
890.254	18152
890.377	18201
890.501	18159
890.624	18083
890.748	18201
890.871	18072
890.995	17859
891.118	17923
891.241	17942
891.364	18003
891.488	18106
891.611	17988
891.734	17908
891.857	18007
891.98	17920
892.103	17965
892.226	18011
892.349	17878
892.471	17752
892.594	17950
892.717	17874
892.839	17855
892.962	17821
893.085	17920
893.207	18011
893.33	17843
893.452	17794
893.575	17961
893.697	17870
893.819	18022
893.941	18106
894.064	17946
894.186	17840
894.308	17729
894.43	18038
894.552	17954
894.674	18068
894.796	17756
894.918	17901
895.04	17912
895.161	18015
895.283	17939
895.405	17885
895.526	17996
895.648	17901
895.769	18011
895.891	17954
896.012	17984
896.134	18007
896.255	17988
896.376	17996
896.498	18049
896.619	18095
896.74	18019
896.861	18076
896.982	18353
897.103	18429
897.224	18334
897.345	18106
897.466	18038
897.587	18213
897.708	18311
897.828	18232
897.949	18152
898.07	18038
898.19	18117
898.311	18243
898.431	18159
898.552	18178
898.672	18311
898.792	18224
898.913	18125
899.033	18148
899.153	17904
899.273	17851
899.393	17999
899.513	17878
899.633	17965
899.753	17950
899.873	17885
899.993	17977
900.113	17916
900.232	17847
900.352	17840
900.472	17901
900.591	17714
900.711	17813
900.83	17710
900.95	17889
901.069	17977
901.189	17771
901.308	17440
901.427	17440
901.546	17459
901.665	17341
901.784	17395
901.904	17311
902.023	17159
902.141	17029
902.26	16877
902.379	17083
902.498	16961
902.617	16927
902.735	16934
902.854	16824
902.973	16710
903.091	16542
903.21	16645
903.328	16607
903.446	16493
903.565	16455
903.683	16478
903.801	16329
903.919	16375
904.038	16428
904.156	16169
904.274	16242
904.392	16219
904.51	16135
904.627	16249
904.745	16173
904.863	16261
904.981	15945
905.098	15816
905.216	15850
905.334	15899
905.451	15918
905.569	15774
905.686	15857
905.803	15895
905.921	15728
906.038	15831
906.155	15690
906.272	15549
906.389	15652
906.506	15515
906.623	15424
906.74	15393
906.857	15321
906.974	15325
907.091	15428
907.208	15534
907.324	15287
907.441	15336
907.557	15211
907.674	15127
907.79	15100
907.907	15112
908.023	15165
908.139	15123
908.256	15020
908.372	15020
908.488	15039
908.604	14849
908.72	14834
908.836	14826
908.952	14834
909.068	14853
909.184	14933
909.3	14834
909.415	14804
909.531	14845
909.647	14602
909.762	14663
909.878	14465
909.993	14549
910.108	14450
910.224	14526
910.339	14537
910.454	14355
910.57	14385
910.685	14339
910.8	14488
910.915	14518
911.03	14320
911.145	14275
911.259	14168
911.374	14183
911.489	14073
911.604	14027
911.718	13909
911.833	13989
911.947	13830
912.062	13700
912.176	13993
912.291	13860
912.405	13803
912.519	14043
912.633	14088
912.748	13898
912.862	13856
912.976	13769
913.09	13601
913.204	13715
913.318	13791
913.431	13765
913.545	13780
913.659	13791
913.772	13677
913.886	13571
914	13575
914.113	13616
914.226	13719
914.34	13632
914.453	13518
914.566	13586
914.68	13510
914.793	13430
914.906	13270
915.019	13221
915.132	13209
915.245	13293
915.358	13339
915.47	13255
915.583	13274
915.696	13263
915.809	13320
915.921	13346
916.034	13164
916.146	13156
916.259	13133
916.371	13244
916.483	13259
916.595	13061
916.708	13080
916.82	13057
916.932	13057
917.044	13114
917.156	13004
917.268	12890
917.38	12996
917.491	12924
917.603	12943
917.715	13088
917.826	12943
917.938	12890
918.049	12840
918.161	12932
918.272	13095
918.384	13015
918.495	12932
918.606	12753
918.717	12688
918.828	12764
918.939	12760
919.05	12654
919.161	12749
919.272	12547
919.383	12585
919.494	12768
919.604	12905
919.715	12745
919.826	12597
919.936	12688
920.047	12787
920.157	12662
920.267	12932
920.378	12787
920.488	12620
920.598	12852
920.708	13019
920.818	12806
920.928	12833
921.038	13099
921.148	12935
921.258	12688
921.368	12623
921.477	12467
921.587	12475
921.697	12285
921.806	12547
921.916	12296
922.025	12140
922.134	12144
922.244	12216
922.353	12243
922.462	12019
922.571	11977
922.68	11889
922.789	11824
922.898	11870
923.007	11729
923.116	11859
923.224	11733
923.333	11821
923.442	11756
923.55	11573
923.659	11649
923.767	11649
923.876	11627
923.984	11634
924.092	11524
924.201	11676
924.309	11566
924.417	11596
924.525	11554
924.633	11474
924.741	12281
924.849	11299
924.956	11493
925.064	11341
925.172	11254
925.279	11269
925.387	11280
925.494	11353
925.602	11436
925.709	11376
925.816	11212
925.924	11288
926.031	11277
926.138	11299
926.245	11318
926.352	11143
926.459	11280
926.566	11322
926.673	11288
926.779	11185
926.886	11090
926.993	10892
927.099	10968
927.206	10850
927.312	10892
927.419	11010
927.525	11010
927.631	10908
927.737	10869
927.843	10786
927.95	10755
928.056	10752
928.162	10771
928.267	10828
928.373	11372
928.479	10938
928.585	10554
928.69	10812
928.796	10850
928.901	10622
929.007	10523
929.112	10733
929.218	10637
929.323	10615
929.428	10523
929.533	10649
929.638	10474
929.743	10531
929.848	10573
929.953	10546
930.058	10375
930.163	10261
930.267	10261
930.372	10360
930.477	10242
930.581	10405
930.685	10379
930.79	10173
930.894	10188
930.998	10067
931.103	10299
931.207	9926
931.311	9838
931.415	9766
931.519	9599
931.623	9633
