Data from test_V78500241_3390.txt Node
Date: Fri Mar 25 14:57:19 CST 2022
User: usil
Spectrometer: V785-0024
Trigger mode: 0
Integration Time (sec): 4.000000E-1
Scans to average: 1
Nonlinearity correction enabled: false
Boxcar width: 0
Storing dark spectrum: false
XAxis mode: Wavelengths
Number of Pixels in Spectrum: 1024
>>>>>Begin Spectral Data<<<<<
801.071	21918
801.214	21720
801.356	21462
801.499	21420
801.641	21344
801.783	21321
801.926	21306
802.068	21230
802.211	21214
802.353	21108
802.496	20925
802.638	20849
802.78	20823
802.923	20807
803.065	20590
803.208	20602
803.35	20579
803.492	20739
803.635	20758
803.777	20629
803.919	20655
804.061	21001
804.204	20697
804.346	20606
804.488	20537
804.63	20590
804.773	20423
804.915	20579
805.057	20552
805.199	20457
805.341	20575
805.483	20701
805.626	20670
805.768	20495
805.91	20530
806.052	20579
806.194	20423
806.336	20552
806.478	20499
806.62	20381
806.762	20587
806.904	20644
807.046	20868
807.188	20773
807.33	20819
807.472	20982
807.614	20629
807.756	20689
807.898	20617
808.04	20514
808.182	20579
808.324	20602
808.465	20590
808.607	20659
808.749	20864
808.891	20914
809.033	21028
809.174	20819
809.316	20785
809.458	20902
809.6	20830
809.741	20811
809.883	20845
810.025	20967
810.166	21024
810.308	20937
810.45	20906
810.591	20823
810.733	20670
810.875	20629
811.016	20617
811.158	20522
811.299	20762
811.441	20689
811.582	20731
811.724	20602
811.865	20640
812.007	20556
812.148	20636
812.29	20651
812.431	20941
812.573	20777
812.714	21096
812.855	21085
812.997	21173
813.138	21435
813.279	21180
813.421	21146
813.562	21055
813.703	20811
813.845	20701
813.986	20503
814.127	20301
814.268	20237
814.41	20157
814.551	20092
814.692	20161
814.833	20107
814.974	20149
815.115	20035
815.256	20020
815.397	19955
815.539	19967
815.68	19974
815.821	19784
815.962	19947
816.103	19750
816.244	19734
816.385	19582
816.526	19552
816.666	19400
816.807	19160
816.948	19384
817.089	19384
817.23	19388
817.371	19228
817.512	19171
817.653	19308
817.793	19160
817.934	19266
818.075	19289
818.216	19343
818.356	19232
818.497	19084
818.638	18973
818.778	18939
818.919	19053
819.06	19019
819.2	19084
819.341	19209
819.481	19198
819.622	19255
819.762	19468
819.903	19449
820.043	19358
820.184	19358
820.324	19213
820.465	19362
820.605	19312
820.746	19270
820.886	19046
821.026	19148
821.167	19168
821.307	19137
821.447	19187
821.588	19187
821.728	19015
821.868	18817
822.008	18726
822.149	18692
822.289	18700
822.429	18517
822.569	18391
822.709	18319
822.849	18182
822.99	18167
823.13	18228
823.27	18190
823.41	18098
823.55	17950
823.69	18007
823.83	17992
823.97	17942
824.11	17733
824.25	17691
824.389	17836
824.529	17836
824.669	17745
824.809	17878
824.949	17828
825.089	17821
825.228	17824
825.368	17558
825.508	17657
825.648	17490
825.787	17532
825.927	17646
826.067	17493
826.206	17459
826.346	17615
826.485	17608
826.625	17516
826.765	17611
826.904	17471
827.044	17261
827.183	17337
827.323	17197
827.462	17235
827.601	17220
827.741	17162
827.88	17227
828.02	17079
828.159	17231
828.298	17277
828.437	17349
828.577	17216
828.716	17391
828.855	17155
828.994	17014
829.134	16991
829.273	17109
829.412	16968
829.551	16892
829.69	16949
829.829	16976
829.968	17128
830.107	17022
830.246	17079
830.385	16957
830.524	16946
830.663	16805
830.802	16653
830.941	16744
831.08	16546
831.219	16660
831.357	16755
831.496	16828
831.635	16596
831.774	16611
831.913	16500
832.051	16413
832.19	16291
832.329	16398
832.467	16344
832.606	16261
832.744	16436
832.883	16230
833.022	16261
833.16	16303
833.299	16272
833.437	16344
833.576	16322
833.714	16447
833.852	16360
833.991	16440
834.129	16386
834.267	16470
834.406	16390
834.544	16367
834.682	16356
834.821	16268
834.959	16535
835.097	16314
835.235	16455
835.373	16497
835.511	16455
835.65	16352
835.788	16261
835.926	16055
836.064	16044
836.202	16090
836.34	16363
836.478	16398
836.615	16268
836.753	16375
836.891	16310
837.029	16386
837.167	16257
837.305	16188
837.443	16188
837.58	16139
837.718	16223
837.856	16177
837.993	16128
838.131	16139
838.269	16036
838.406	16173
838.544	15956
838.681	15895
838.819	15850
838.956	15739
839.094	15781
839.231	15720
839.369	15876
839.506	16120
839.643	15915
839.781	15770
839.918	15675
840.055	15671
840.193	15762
840.33	15698
840.467	15675
840.604	15751
840.742	15922
840.879	15629
841.016	15671
841.153	15542
841.29	15876
841.427	15751
841.564	15652
841.701	15732
841.838	15660
841.975	15660
842.112	15713
842.249	15542
842.385	15412
842.522	15652
842.659	15534
842.796	15344
842.933	15572
843.069	15496
843.206	15450
843.343	15625
843.479	15507
843.616	15401
843.752	15313
843.889	15294
844.025	15481
844.162	15226
844.298	15367
844.435	15268
844.571	15230
844.708	15355
844.844	15424
844.98	15481
845.117	15378
845.253	15317
845.389	15237
845.525	15252
845.661	15131
845.798	15157
845.934	15195
846.07	15062
846.206	15154
846.342	15169
846.478	15020
846.614	14914
846.75	14807
846.886	14842
847.022	14929
847.158	14910
847.294	14887
847.429	14902
847.565	14906
847.701	15085
847.837	14727
847.972	14571
848.108	14785
848.244	14708
848.379	14419
848.515	14454
848.65	14412
848.786	14480
848.921	14560
849.057	14610
849.192	14583
849.328	14476
849.463	14480
849.598	14484
849.734	14362
849.869	14393
850.004	14221
850.14	14305
850.275	14332
850.41	14294
850.545	14130
850.68	14218
850.815	14298
850.95	14336
851.085	14343
851.22	14423
851.355	14221
851.49	14206
851.625	14218
851.76	14248
851.895	14259
852.03	14157
852.165	14183
852.299	14248
852.434	14320
852.569	14221
852.703	14286
852.838	14336
852.973	14389
853.107	14347
853.242	14244
853.376	14081
853.511	14008
853.645	14046
853.78	14244
853.914	14065
854.048	14062
854.183	14130
854.317	14191
854.451	14301
854.585	14092
854.72	14069
854.854	14294
854.988	14054
855.122	14111
855.256	14001
855.39	14069
855.524	14183
855.658	14123
855.792	14142
855.926	14267
856.06	14180
856.194	14259
856.327	14073
856.461	14081
856.595	13989
856.729	14035
856.862	14244
856.996	14092
857.13	14134
857.263	14225
857.397	14206
857.53	14077
857.664	14111
857.797	14324
857.931	14161
858.064	14206
858.197	14263
858.331	14187
858.464	14164
858.597	14001
858.731	14100
858.864	14046
858.997	14062
859.13	14130
859.263	14142
859.396	14142
859.529	14119
859.662	14103
859.795	13989
859.928	14240
860.061	14248
860.194	14259
860.327	14126
860.46	14142
860.592	14278
860.725	14149
860.858	14138
860.99	14062
861.123	13936
861.256	14020
861.388	14210
861.521	14788
861.653	14039
861.786	14065
861.918	13993
862.05	13997
862.183	14069
862.315	14183
862.447	14149
862.58	14077
862.712	13887
862.844	13913
862.976	13978
863.108	13959
863.24	14290
863.372	13860
863.504	13932
863.636	13951
863.768	14050
863.9	13917
864.032	13803
864.164	13822
864.296	13883
864.428	14096
864.559	13932
864.691	14084
864.823	13928
864.954	13944
865.086	14096
865.217	13841
865.349	13826
865.48	13894
865.612	13913
865.743	14062
865.875	13833
866.006	13837
866.137	13887
866.269	13822
866.4	13852
866.531	13906
866.662	13780
866.793	13811
866.924	13936
867.055	13982
867.186	13928
867.317	13883
867.448	13803
867.579	13837
867.71	13734
867.841	13841
867.972	13845
868.103	13841
868.233	13871
868.364	13822
868.495	13967
868.625	14233
868.756	14183
868.886	14107
869.017	14172
869.147	14164
869.278	14339
869.408	14259
869.539	14199
869.669	14313
869.799	14206
869.929	14244
870.06	14271
870.19	14454
870.32	14431
870.45	14495
870.58	14556
870.71	14670
870.84	14590
870.97	14533
871.1	14507
871.23	14640
871.36	14716
871.489	14651
871.619	14705
871.749	14758
871.879	14788
872.008	14853
872.138	14689
872.267	14727
872.397	14621
872.526	14549
872.656	14560
872.785	14556
872.915	14769
873.044	14842
873.173	14785
873.303	14811
873.432	14796
873.561	14883
873.69	14838
873.819	14807
873.948	14948
874.077	14823
874.206	14697
874.335	14804
874.464	14918
874.593	15112
874.722	15032
874.851	15233
874.979	15150
875.108	15123
875.237	14975
875.365	15024
875.494	15157
875.623	15184
875.751	15146
875.88	15195
876.008	15135
876.136	15291
876.265	15572
876.393	15652
876.521	15591
876.65	15534
876.778	15584
876.906	15492
877.034	15439
877.162	15450
877.29	15526
877.418	15488
877.546	15507
877.674	15477
877.802	15458
877.93	15519
878.058	15488
878.185	15363
878.313	15420
878.441	15507
878.568	15462
878.696	15439
878.824	15641
878.951	15580
879.079	15743
879.206	15808
879.333	15705
879.461	15545
879.588	15599
879.715	15663
879.842	15880
879.97	15671
880.097	15325
880.224	15363
880.351	15431
880.478	15488
880.605	15317
880.732	15325
880.859	15576
880.986	15389
881.112	15477
881.239	15351
881.366	15184
881.493	15093
881.619	15047
881.746	15036
881.872	15017
881.999	14986
882.125	14990
882.252	15085
882.378	15112
882.505	15264
882.631	14998
882.757	14826
882.883	14891
883.01	14868
883.136	14861
883.262	14724
883.388	14682
883.514	14777
883.64	14902
883.766	14811
883.892	14621
884.018	14716
884.143	14830
884.269	14853
884.395	14701
884.52	14583
884.646	14594
884.772	14476
884.897	14465
885.023	14526
885.148	14708
885.274	14705
885.399	14651
885.524	14686
885.65	14514
885.775	14648
885.9	14590
886.025	14727
886.15	14613
886.275	14533
886.4	14511
886.525	14484
886.65	14514
886.775	14495
886.9	14746
887.025	14800
887.149	14518
887.274	14339
887.399	14290
887.523	14446
887.648	14385
887.773	14229
887.897	14537
888.021	14480
888.146	14370
888.27	14514
888.395	14507
888.519	14454
888.643	14461
888.767	14530
888.891	14404
889.015	14267
889.139	14465
889.263	14210
889.387	14366
889.511	14503
889.635	14427
889.759	14237
889.883	14153
890.006	14275
890.13	14362
890.254	14229
890.377	14214
890.501	14088
890.624	13997
890.748	14100
890.871	14005
890.995	13845
891.118	13890
891.241	14069
891.364	13887
891.488	14020
891.611	13947
891.734	13993
891.857	14020
891.98	13986
892.103	14046
892.226	14039
892.349	14039
892.471	13765
892.594	13967
892.717	13978
892.839	13955
892.962	14035
893.085	13993
893.207	13944
893.33	13852
893.452	13818
893.575	14005
893.697	13947
893.819	14130
893.941	14149
894.064	14134
894.186	13925
894.308	13963
894.43	14031
894.552	14191
894.674	13989
894.796	13932
894.918	14081
895.04	13959
895.161	14035
895.283	14142
895.405	14031
895.526	14088
895.648	14050
895.769	14161
895.891	14149
896.012	14183
896.134	14149
896.255	14214
896.376	14088
896.498	14206
896.619	14157
896.74	14191
896.861	14145
896.982	14488
897.103	14750
897.224	14389
897.345	14469
897.466	14400
897.587	14393
897.708	14484
897.828	14324
897.949	14415
898.07	14393
898.19	14404
898.311	14682
898.431	14457
898.552	14545
898.672	14629
898.792	14594
898.913	14632
899.033	14518
899.153	14294
899.273	14256
899.393	14298
899.513	14385
899.633	14347
899.753	14317
899.873	14404
899.993	14412
900.113	14393
900.232	14351
900.352	14339
900.472	14252
900.591	14168
900.711	14183
900.83	14062
900.95	14195
901.069	14286
901.189	14084
901.308	13902
901.427	13875
901.546	13822
901.665	13871
901.784	13963
901.904	13727
902.023	13643
902.141	13556
902.26	13487
902.379	13525
902.498	13483
902.617	13396
902.735	13510
902.854	13559
902.973	13373
903.091	13247
903.21	13133
903.328	13171
903.446	13118
903.565	13076
903.683	13103
903.801	12966
903.919	13000
904.038	12966
904.156	12852
904.274	13023
904.392	12859
904.51	12795
904.627	12878
904.745	12909
904.863	12867
904.981	12639
905.098	12650
905.216	12566
905.334	12597
905.451	12513
905.569	12471
905.686	12559
905.803	12544
905.921	12445
906.038	12486
906.155	12612
906.272	12289
906.389	12338
906.506	12197
906.623	12205
906.74	12083
906.857	12102
906.974	12140
907.091	12232
907.208	12300
907.324	12178
907.441	12216
907.557	11939
907.674	11885
907.79	11840
907.907	11866
908.023	11878
908.139	11946
908.256	11821
908.372	11859
908.488	11783
908.604	11745
908.72	11653
908.836	11703
908.952	11653
909.068	11707
909.184	11794
909.3	11729
909.415	11722
909.531	11783
909.647	11471
909.762	11459
909.878	11425
909.993	11497
910.108	11436
910.224	11474
910.339	11581
910.454	11364
910.57	11280
910.685	11201
910.8	11512
910.915	11402
911.03	11360
911.145	11197
911.259	11231
911.374	11102
911.489	11029
911.604	11132
911.718	10904
911.833	10923
911.947	10816
912.062	10801
912.176	10915
912.291	10908
912.405	10904
912.519	11098
912.633	11124
912.748	11045
912.862	11022
912.976	10793
913.09	10755
913.204	10698
913.318	10805
913.431	10934
913.545	10877
913.659	10862
913.772	10854
913.886	10694
914	10687
914.113	10809
914.226	10812
914.34	10687
914.453	10596
914.566	10778
914.68	10599
914.793	10634
914.906	10451
915.019	10470
915.132	10379
915.245	10386
915.358	10405
915.47	10405
915.583	10421
915.696	10459
915.809	10577
915.921	10535
916.034	10421
916.146	10466
916.259	10322
916.371	10493
916.483	10375
916.595	10299
916.708	10303
916.82	10390
916.932	10341
917.044	10382
917.156	10306
917.268	10227
917.38	10253
917.491	10219
917.603	10257
917.715	10360
917.826	10405
917.938	10318
918.049	10109
918.161	10207
918.272	10371
918.384	10352
918.495	10223
918.606	10143
918.717	10032
918.828	10105
918.939	10150
919.05	10067
919.161	10048
919.272	9968
919.383	9968
919.494	10204
919.604	10356
919.715	10169
919.826	10124
919.936	10116
920.047	10287
920.157	10211
920.267	10405
920.378	10249
920.488	10246
920.598	10272
920.708	10550
920.818	10337
920.928	10348
921.038	10500
921.148	10485
921.258	10200
921.368	10139
921.477	10013
921.587	9964
921.697	9903
921.806	10002
921.916	9937
922.025	9736
922.134	9679
922.244	9629
922.353	9781
922.462	9652
922.571	9542
922.68	9412
922.789	9405
922.898	9473
923.007	9325
923.116	9481
923.224	9348
923.333	9397
923.442	9329
923.55	9344
923.659	9329
923.767	9359
923.876	9184
923.984	9344
924.092	9256
924.201	9203
924.309	9256
924.417	9207
924.525	9165
924.633	9211
924.741	10143
924.849	9123
924.956	9233
925.064	9100
925.172	8990
925.279	9013
925.387	9062
925.494	9112
925.602	9138
925.709	9119
925.816	9001
925.924	9100
926.031	9214
926.138	8982
926.245	9176
926.352	9043
926.459	9131
926.566	9165
926.673	8986
926.779	8925
926.886	8967
926.993	8838
927.099	8731
927.206	8746
927.312	8766
927.419	8838
927.525	8819
927.631	8853
927.737	8693
927.843	8724
927.95	8590
928.056	8670
928.162	8708
928.267	8724
928.373	9420
928.479	8815
928.585	8484
928.69	8712
928.796	8739
928.901	8670
929.007	8438
929.112	8522
929.218	8648
929.323	8549
929.428	8571
929.533	8606
929.638	8408
929.743	8514
929.848	8526
929.953	8465
930.058	8438
930.163	8210
930.267	8309
930.372	8446
930.477	8275
930.581	8473
930.685	8381
930.79	8195
930.894	8279
930.998	8263
931.103	8389
931.207	8039
931.311	7967
931.415	7868
931.519	7761
931.623	7719
