Data from test_V78500241_3203.txt Node
Date: Fri Mar 25 14:56:01 CST 2022
User: usil
Spectrometer: V785-0024
Trigger mode: 0
Integration Time (sec): 4.000000E-1
Scans to average: 1
Nonlinearity correction enabled: false
Boxcar width: 0
Storing dark spectrum: false
XAxis mode: Wavelengths
Number of Pixels in Spectrum: 1024
>>>>>Begin Spectral Data<<<<<
801.071	22032
801.214	21915
801.356	21614
801.499	21603
801.641	21302
801.783	21393
801.926	21466
802.068	21344
802.211	21218
802.353	21112
802.496	20975
802.638	20941
802.78	20857
802.923	20811
803.065	20769
803.208	20674
803.35	20785
803.492	20716
803.635	20838
803.777	20621
803.919	20880
804.061	21058
804.204	20845
804.346	20613
804.488	20598
804.63	20739
804.773	20556
804.915	20621
805.057	20762
805.199	20434
805.341	20720
805.483	20796
805.626	20712
805.768	20575
805.91	20705
806.052	20693
806.194	20552
806.336	20697
806.478	20632
806.62	20765
806.762	20743
806.904	20842
807.046	21074
807.188	20952
807.33	20933
807.472	21127
807.614	20906
807.756	20937
807.898	20613
808.04	20663
808.182	20739
808.324	20670
808.465	20689
808.607	20910
808.749	21062
808.891	21146
809.033	21188
809.174	21062
809.316	20914
809.458	21024
809.6	20887
809.741	21039
809.883	21142
810.025	21173
810.166	21142
810.308	21161
810.45	21195
810.591	21036
810.733	20769
810.875	20762
811.016	20705
811.158	20629
811.299	20944
811.441	20880
811.582	20842
811.724	20838
811.865	20762
812.007	20716
812.148	20739
812.29	20678
812.431	20914
812.573	21096
812.714	21233
812.855	21302
812.997	21389
813.138	21488
813.279	21287
813.421	21275
813.562	21279
813.703	20971
813.845	20933
813.986	20705
814.127	20427
814.268	20412
814.41	20275
814.551	20309
814.692	20278
814.833	20282
814.974	20278
815.115	20339
815.256	20244
815.397	20172
815.539	20202
815.68	20073
815.821	20012
815.962	19974
816.103	20035
816.244	19887
816.385	19803
816.526	19822
816.666	19597
816.807	19495
816.948	19460
817.089	19658
817.23	19582
817.371	19392
817.512	19460
817.653	19499
817.793	19327
817.934	19407
818.075	19426
818.216	19476
818.356	19343
818.497	19255
818.638	19084
818.778	19126
818.919	19168
819.06	19107
819.2	19206
819.341	19362
819.481	19270
819.622	19426
819.762	19624
819.903	19510
820.043	19453
820.184	19415
820.324	19339
820.465	19472
820.605	19373
820.746	19377
820.886	19160
821.026	19419
821.167	19350
821.307	19426
821.447	19365
821.588	19278
821.728	19091
821.868	18985
822.008	18920
822.149	18821
822.289	18821
822.429	18597
822.569	18445
822.709	18536
822.849	18448
822.99	18346
823.13	18273
823.27	18315
823.41	18098
823.55	18049
823.69	18174
823.83	18171
823.97	18064
824.11	17824
824.25	17954
824.389	17798
824.529	17878
824.669	17908
824.809	17889
824.949	18053
825.089	17992
825.228	17817
825.368	17737
825.508	17661
825.648	17691
825.787	17733
825.927	17707
826.067	17562
826.206	17642
826.346	17676
826.485	17684
826.625	17558
826.765	17805
826.904	17703
827.044	17395
827.183	17425
827.323	17387
827.462	17406
827.601	17242
827.741	17334
827.88	17395
828.02	17250
828.159	17379
828.298	17410
828.437	17261
828.577	17258
828.716	17406
828.855	17334
828.994	17109
829.134	17159
829.273	17166
829.412	17041
829.551	16908
829.69	17041
829.829	17071
829.968	17121
830.107	17166
830.246	17067
830.385	17178
830.524	16984
830.663	16938
830.802	16828
830.941	16656
831.08	16683
831.219	16740
831.357	16771
831.496	16881
831.635	16660
831.774	16660
831.913	16603
832.051	16485
832.19	16428
832.329	16558
832.467	16451
832.606	16272
832.744	16295
832.883	16413
833.022	16310
833.16	16413
833.299	16573
833.437	16371
833.576	16424
833.714	16356
833.852	16478
833.991	16542
834.129	16519
834.267	16546
834.406	16466
834.544	16550
834.682	16424
834.821	16504
834.959	16637
835.097	16386
835.235	16466
835.373	16508
835.511	16413
835.65	16348
835.788	16379
835.926	16303
836.064	16230
836.202	16223
836.34	16287
836.478	16402
836.615	16325
836.753	16375
836.891	16421
837.029	16394
837.167	16310
837.305	16318
837.443	16242
837.58	16306
837.718	16287
837.856	16310
837.993	16173
838.131	16268
838.269	16207
838.406	16147
838.544	16055
838.681	15930
838.819	15937
838.956	15755
839.094	15800
839.231	15747
839.369	15884
839.506	16215
839.643	16143
839.781	15846
839.918	15743
840.055	15800
840.193	15785
840.33	15747
840.467	15766
840.604	15770
840.742	15972
840.879	15637
841.016	15595
841.153	15625
841.29	15846
841.427	15808
841.564	15705
841.701	15751
841.838	15755
841.975	15766
842.112	15705
842.249	15644
842.385	15545
842.522	15667
842.659	15652
842.796	15511
842.933	15553
843.069	15454
843.206	15641
843.343	15606
843.479	15469
843.616	15587
843.752	15340
843.889	15325
844.025	15386
844.162	15344
844.298	15576
844.435	15370
844.571	15287
844.708	15332
844.844	15549
844.98	15466
845.117	15469
845.253	15393
845.389	15230
845.525	15329
845.661	15226
845.798	14998
845.934	15165
846.07	15112
846.206	15154
846.342	15302
846.478	15176
846.614	14963
846.75	14853
846.886	14960
847.022	15024
847.158	14914
847.294	14998
847.429	14937
847.565	14868
847.701	15146
847.837	14705
847.972	14739
848.108	14830
848.244	14693
848.379	14541
848.515	14556
848.65	14522
848.786	14575
848.921	14556
849.057	14594
849.192	14610
849.328	14549
849.463	14537
849.598	14507
849.734	14473
849.869	14385
850.004	14286
850.14	14404
850.275	14305
850.41	14225
850.545	14244
850.68	14237
850.815	14328
850.95	14240
851.085	14492
851.22	14469
851.355	14301
851.49	14317
851.625	14164
851.76	14263
851.895	14187
852.03	14145
852.165	14305
852.299	14320
852.434	14469
852.569	14320
852.703	14374
852.838	14423
852.973	14465
853.107	14408
853.242	14282
853.376	14153
853.511	14050
853.645	14065
853.78	14286
853.914	14119
854.048	14077
854.183	14157
854.317	14138
854.451	14332
854.585	14119
854.72	14027
854.854	14210
854.988	14107
855.122	14157
855.256	13970
855.39	14142
855.524	14218
855.658	14191
855.792	14202
855.926	14202
856.06	14248
856.194	14164
856.327	14081
856.461	14035
856.595	14176
856.729	14077
856.862	14313
856.996	14195
857.13	14210
857.263	14278
857.397	14256
857.53	14191
857.664	14195
857.797	14351
857.931	14244
858.064	14092
858.197	14339
858.331	14130
858.464	14103
858.597	14096
858.731	14115
858.864	14210
858.997	14062
859.13	14221
859.263	14263
859.396	14252
859.529	14081
859.662	14111
859.795	14229
859.928	14161
860.061	14282
860.194	14400
860.327	14225
860.46	14088
860.592	14313
860.725	14336
860.858	14298
860.99	14180
861.123	14145
861.256	14069
861.388	14161
861.521	14975
861.653	14016
861.786	13932
861.918	14020
862.05	14050
862.183	14134
862.315	14100
862.447	14221
862.58	14096
862.712	13890
862.844	13940
862.976	14069
863.108	14020
863.24	14199
863.372	13917
863.504	13928
863.636	13883
863.768	14024
863.9	13879
864.032	13906
864.164	13928
864.296	13978
864.428	13906
864.559	14043
864.691	14081
864.823	13970
864.954	13940
865.086	14005
865.217	13875
865.349	13841
865.48	13894
865.612	13986
865.743	14008
865.875	13932
866.006	13871
866.137	13955
866.269	13906
866.4	13898
866.531	13879
866.662	13841
866.793	13959
866.924	13845
867.055	13913
867.186	13898
867.317	13868
867.448	13845
867.579	13936
867.71	13757
867.841	13814
867.972	13978
868.103	14012
868.233	13894
868.364	13982
868.495	14046
868.625	14218
868.756	14202
868.886	14092
869.017	14134
869.147	14263
869.278	14237
869.408	14164
869.539	14126
869.669	14259
869.799	14206
869.929	14355
870.06	14278
870.19	14518
870.32	14503
870.45	14457
870.58	14545
870.71	14693
870.84	14739
870.97	14507
871.1	14549
871.23	14754
871.36	14792
871.489	14648
871.619	14777
871.749	14712
871.879	14762
872.008	14773
872.138	14781
872.267	14678
872.397	14552
872.526	14625
872.656	14511
872.785	14610
872.915	14811
873.044	14956
873.173	14895
873.303	14861
873.432	14842
873.561	14838
873.69	14845
873.819	14834
873.948	14952
874.077	14842
874.206	14834
874.335	14842
874.464	14967
874.593	15161
874.722	15070
874.851	15344
874.979	15138
875.108	15173
875.237	15070
875.365	15070
875.494	14986
875.623	15275
875.751	15131
875.88	15184
876.008	15291
876.136	15306
876.265	15584
876.393	15622
876.521	15610
876.65	15717
876.778	15709
876.906	15545
877.034	15492
877.162	15408
877.29	15496
877.418	15549
877.546	15641
877.674	15618
877.802	15667
877.93	15538
878.058	15526
878.185	15549
878.313	15599
878.441	15481
878.568	15488
878.696	15447
878.824	15561
878.951	15637
879.079	15774
879.206	15926
879.333	15698
879.461	15572
879.588	15690
879.715	15682
879.842	15827
879.97	15618
880.097	15359
880.224	15412
880.351	15496
880.478	15481
880.605	15256
880.732	15370
880.859	15736
880.986	15420
881.112	15553
881.239	15439
881.366	15077
881.493	15108
881.619	15036
881.746	14982
881.872	15138
881.999	15028
882.125	15024
882.252	15135
882.378	15089
882.505	15146
882.631	15043
882.757	14838
882.883	14891
883.01	14849
883.136	14845
883.262	14762
883.388	14632
883.514	14982
883.64	14982
883.766	14880
883.892	14625
884.018	14724
884.143	14872
884.269	14971
884.395	14686
884.52	14537
884.646	14670
884.772	14442
884.897	14415
885.023	14606
885.148	14655
885.274	14762
885.399	14670
885.524	14617
885.65	14590
885.775	14590
885.9	14568
886.025	14670
886.15	14731
886.275	14552
886.4	14404
886.525	14610
886.65	14530
886.775	14579
886.9	14716
887.025	14762
887.149	14648
887.274	14404
887.399	14313
887.523	14351
887.648	14358
887.773	14336
887.897	14454
888.021	14495
888.146	14320
888.27	14461
888.395	14530
888.519	14492
888.643	14587
888.767	14556
888.891	14355
889.015	14332
889.139	14374
889.263	14271
889.387	14396
889.511	14427
889.635	14389
889.759	14278
889.883	14290
890.006	14256
890.13	14404
890.254	14168
890.377	14267
890.501	14096
890.624	14138
890.748	14084
890.871	14081
890.995	13936
891.118	13856
891.241	13970
891.364	14020
891.488	14153
891.611	14001
891.734	13974
891.857	14031
891.98	14001
892.103	14119
892.226	14046
892.349	14031
892.471	13837
892.594	14020
892.717	13967
892.839	13932
892.962	14005
893.085	14008
893.207	13967
893.33	13993
893.452	13982
893.575	14012
893.697	13986
893.819	14240
893.941	14183
894.064	14218
894.186	14054
894.308	13951
894.43	14092
894.552	14240
894.674	14100
894.796	13940
894.918	14107
895.04	14016
895.161	14145
895.283	14187
895.405	14046
895.526	14031
895.648	14153
895.769	14107
895.891	14187
896.012	14282
896.134	14221
896.255	14214
896.376	14134
896.498	14202
896.619	14206
896.74	14134
896.861	14282
896.982	14427
897.103	14667
897.224	14423
897.345	14419
897.466	14355
897.587	14438
897.708	14533
897.828	14427
897.949	14377
898.07	14294
898.19	14442
898.311	14632
898.431	14431
898.552	14537
898.672	14617
898.792	14606
898.913	14613
899.033	14404
899.153	14393
899.273	14351
899.393	14332
899.513	14370
899.633	14374
899.753	14400
899.873	14324
899.993	14412
900.113	14366
900.232	14427
900.352	14271
900.472	14271
900.591	14256
900.711	14252
900.83	14157
900.95	14214
901.069	14313
901.189	14088
901.308	14005
901.427	13906
901.546	13921
901.665	13940
901.784	13909
901.904	13894
902.023	13681
902.141	13506
902.26	13426
902.379	13575
902.498	13430
902.617	13407
902.735	13571
902.854	13445
902.973	13419
903.091	13209
903.21	13168
903.328	13225
903.446	13061
903.565	13091
903.683	13057
903.801	12966
903.919	13065
904.038	12981
904.156	12909
904.274	12928
904.392	12863
904.51	12802
904.627	12856
904.745	12916
904.863	12924
904.981	12623
905.098	12566
905.216	12677
905.334	12585
905.451	12608
905.569	12525
905.686	12559
905.803	12544
905.921	12380
906.038	12426
906.155	12486
906.272	12285
906.389	12353
906.506	12209
906.623	12133
906.74	12125
906.857	12072
906.974	12064
907.091	12239
907.208	12254
907.324	12133
907.441	12152
907.557	11904
907.674	11969
907.79	11828
907.907	11878
908.023	11939
908.139	11977
908.256	11916
908.372	11859
908.488	11893
908.604	11676
908.72	11611
908.836	11638
908.952	11589
909.068	11688
909.184	11828
909.3	11703
909.415	11695
909.531	11680
909.647	11414
909.762	11471
909.878	11398
909.993	11398
910.108	11406
910.224	11368
910.339	11372
910.454	11330
910.57	11197
910.685	11254
910.8	11501
910.915	11547
911.03	11292
911.145	11056
911.259	11124
911.374	11121
911.489	11022
911.604	11025
911.718	11018
911.833	10953
911.947	10828
912.062	10702
912.176	10976
912.291	10900
912.405	10904
912.519	11041
912.633	11067
912.748	11025
912.862	10965
912.976	10866
913.09	10687
913.204	10687
913.318	10694
913.431	10809
913.545	10839
913.659	10957
913.772	10828
913.886	10630
914	10679
914.113	10767
914.226	10774
914.34	10755
914.453	10645
914.566	10767
914.68	10603
914.793	10618
914.906	10413
915.019	10367
915.132	10303
915.245	10341
915.358	10371
915.47	10405
915.583	10417
915.696	10481
915.809	10599
915.921	10531
916.034	10466
916.146	10341
916.259	10333
916.371	10428
916.483	10394
916.595	10421
916.708	10443
916.82	10314
916.932	10405
917.044	10299
917.156	10337
917.268	10227
917.38	10348
917.491	10227
917.603	10310
917.715	10371
917.826	10421
917.938	10227
918.049	10162
918.161	10188
918.272	10382
918.384	10424
918.495	10333
918.606	10116
918.717	10082
918.828	10200
918.939	10128
919.05	10048
919.161	10150
919.272	9926
919.383	10044
919.494	10207
919.604	10367
919.715	10120
919.826	10055
919.936	10055
920.047	10223
920.157	10200
920.267	10291
920.378	10143
920.488	10227
920.598	10322
920.708	10550
920.818	10432
920.928	10314
921.038	10523
921.148	10554
921.258	10196
921.368	10029
921.477	9998
921.587	9907
921.697	9884
921.806	9937
921.916	9861
922.025	9732
922.134	9762
922.244	9648
922.353	9751
922.462	9564
922.571	9553
922.68	9397
922.789	9351
922.898	9420
923.007	9386
923.116	9450
923.224	9336
923.333	9424
923.442	9291
923.55	9287
923.659	9287
923.767	9332
923.876	9222
923.984	9325
924.092	9192
924.201	9348
924.309	9294
924.417	9230
924.525	9165
924.633	9169
924.741	10112
924.849	9024
924.956	9188
925.064	9028
925.172	8952
925.279	9051
925.387	9119
925.494	9039
925.602	9211
925.709	9116
925.816	8982
925.924	9013
926.031	9161
926.138	9093
926.245	9131
926.352	8952
926.459	9116
926.566	9138
926.673	9032
926.779	8925
926.886	8929
926.993	8868
927.099	8705
927.206	8762
927.312	8766
927.419	8762
927.525	8792
927.631	8815
927.737	8708
927.843	8686
927.95	8590
928.056	8648
928.162	8701
928.267	8746
928.373	9279
928.479	8788
928.585	8533
928.69	8659
928.796	8648
928.901	8587
929.007	8495
929.112	8617
929.218	8518
929.323	8518
929.428	8518
929.533	8640
929.638	8465
929.743	8450
929.848	8492
929.953	8499
930.058	8419
930.163	8233
930.267	8317
930.372	8396
930.477	8233
930.581	8434
930.685	8347
930.79	8244
930.894	8256
930.998	8225
931.103	8320
931.207	7955
931.311	7883
931.415	7906
931.519	7727
931.623	7704
