Data from test_V78500241_1455.txt Node
Date: Fri Mar 25 14:43:50 CST 2022
User: usil
Spectrometer: V785-0024
Trigger mode: 0
Integration Time (sec): 4.000000E-1
Scans to average: 1
Nonlinearity correction enabled: false
Boxcar width: 0
Storing dark spectrum: false
XAxis mode: Wavelengths
Number of Pixels in Spectrum: 1024
>>>>>Begin Spectral Data<<<<<
801.071	22455
801.214	22276
801.356	22249
801.499	22025
801.641	21861
801.783	21701
801.926	21850
802.068	21762
802.211	21591
802.353	21629
802.496	21393
802.638	21329
802.78	21275
802.923	21279
803.065	21066
803.208	21188
803.35	21218
803.492	21275
803.635	21272
803.777	21066
803.919	21233
804.061	21382
804.204	21169
804.346	21123
804.488	21093
804.63	21119
804.773	20944
804.915	21055
805.057	21154
805.199	21036
805.341	21207
805.483	21112
805.626	21180
805.768	21032
805.91	21119
806.052	21047
806.194	20994
806.336	21214
806.478	20979
806.62	21058
806.762	21165
806.904	21306
807.046	21507
807.188	21310
807.33	21408
807.472	21393
807.614	21374
807.756	21367
807.898	21222
808.04	21203
808.182	21176
808.324	21199
808.465	21370
808.607	21553
808.749	21660
808.891	21819
809.033	21945
809.174	21682
809.316	21614
809.458	21603
809.6	21526
809.741	21587
809.883	21519
810.025	21774
810.166	21633
810.308	21644
810.45	21572
810.591	21458
810.733	21367
810.875	21264
811.016	21180
811.158	21165
811.299	21237
811.441	21401
811.582	21344
811.724	21165
811.865	21188
812.007	21214
812.148	21272
812.29	21252
812.431	21321
812.573	21469
812.714	21595
812.855	21625
812.997	21850
813.138	21979
813.279	21899
813.421	21781
813.562	21694
813.703	21397
813.845	21515
813.986	21249
814.127	20948
814.268	20899
814.41	20788
814.551	20796
814.692	20800
814.833	20689
814.974	20697
815.115	20731
815.256	20640
815.397	20629
815.539	20697
815.68	20465
815.821	20385
815.962	20465
816.103	20575
816.244	20423
816.385	20256
816.526	20271
816.666	20115
816.807	19906
816.948	19993
817.089	20100
817.23	20024
817.371	19944
817.512	19917
817.653	19913
817.793	19788
817.934	19997
818.075	20008
818.216	19955
818.356	19818
818.497	19849
818.638	19620
818.778	19609
818.919	19575
819.06	19681
819.2	19681
819.341	19769
819.481	19715
819.622	19986
819.762	20180
819.903	20039
820.043	19978
820.184	19906
820.324	19856
820.465	19932
820.605	20001
820.746	19837
820.886	19776
821.026	19826
821.167	19837
821.307	19913
821.447	19795
821.588	19647
821.728	19544
821.868	19373
822.008	19289
822.149	19373
822.289	19175
822.429	19027
822.569	18943
822.709	18939
822.849	18848
822.99	18757
823.13	18757
823.27	18787
823.41	18665
823.55	18517
823.69	18650
823.83	18566
823.97	18616
824.11	18445
824.25	18308
824.389	18361
824.529	18380
824.669	18490
824.809	18532
824.949	18483
825.089	18323
825.228	18502
825.368	18209
825.508	18125
825.648	18174
825.787	18220
825.927	18167
826.067	18194
826.206	18213
826.346	18155
826.485	18266
826.625	18098
826.765	18315
826.904	18228
827.044	17996
827.183	17935
827.323	17741
827.462	17851
827.601	17931
827.741	17859
827.88	17889
828.02	17680
828.159	17920
828.298	17855
828.437	17775
828.577	17771
828.716	18030
828.855	17790
828.994	17653
829.134	17566
829.273	17691
829.412	17566
829.551	17573
829.69	17634
829.829	17611
829.968	17722
830.107	17657
830.246	17611
830.385	17592
830.524	17581
830.663	17471
830.802	17433
830.941	17143
831.08	17170
831.219	17318
831.357	17337
831.496	17490
831.635	17204
831.774	17121
831.913	17121
832.051	17083
832.19	17025
832.329	17098
832.467	17018
832.606	16930
832.744	16915
832.883	16866
833.022	16911
833.16	16816
833.299	16942
833.437	16923
833.576	17041
833.714	16953
833.852	17048
833.991	17056
834.129	17102
834.267	17052
834.406	16972
834.544	17041
834.682	16934
834.821	16968
834.959	17227
835.097	16915
835.235	17052
835.373	16923
835.511	17006
835.65	16862
835.788	16869
835.926	16660
836.064	16710
836.202	16702
836.34	16953
836.478	17025
836.615	16847
836.753	16824
836.891	17067
837.029	16862
837.167	16771
837.305	16763
837.443	16778
837.58	16653
837.718	16736
837.856	16805
837.993	16740
838.131	16801
838.269	16706
838.406	16626
838.544	16558
838.681	16493
838.819	16421
838.956	16291
839.094	16337
839.231	16341
839.369	16428
839.506	16622
839.643	16558
839.781	16318
839.918	16192
840.055	16356
840.193	16265
840.33	16196
840.467	16306
840.604	16249
840.742	16542
840.879	16181
841.016	16204
841.153	16215
841.29	16394
841.427	16398
841.564	16394
841.701	16196
841.838	16177
841.975	16147
842.112	16192
842.249	16059
842.385	16010
842.522	16284
842.659	16082
842.796	15907
842.933	16025
843.069	15953
843.206	15945
843.343	16055
843.479	16002
843.616	16029
843.752	15797
843.889	15800
844.025	15983
844.162	15861
844.298	15918
844.435	15739
844.571	15835
844.708	15854
844.844	16029
844.98	16029
845.117	15987
845.253	15865
845.389	15865
845.525	15827
845.661	15827
845.798	15812
845.934	15880
846.07	15934
846.206	15941
846.342	16051
846.478	15747
846.614	15618
846.75	15397
846.886	15351
847.022	15557
847.158	15408
847.294	15336
847.429	15363
847.565	15332
847.701	15587
847.837	15146
847.972	15188
848.108	15294
848.244	15214
848.379	15058
848.515	14952
848.65	14975
848.786	14986
848.921	15108
849.057	15100
849.192	15093
849.328	15032
849.463	14998
849.598	14979
849.734	14872
849.869	14925
850.004	14823
850.14	14788
850.275	14800
850.41	14579
850.545	14731
850.68	14735
850.815	14689
850.95	14743
851.085	14994
851.22	14861
851.355	14697
851.49	14743
851.625	14606
851.76	14682
851.895	14788
852.03	14632
852.165	14689
852.299	14705
852.434	14731
852.569	14773
852.703	14765
852.838	14826
852.973	14902
853.107	14857
853.242	14785
853.376	14632
853.511	14518
853.645	14549
853.78	14754
853.914	14625
854.048	14473
854.183	14613
854.317	14686
854.451	14750
854.585	14594
854.72	14511
854.854	14724
854.988	14480
855.122	14537
855.256	14499
855.39	14636
855.524	14750
855.658	14636
855.792	14621
855.926	14636
856.06	14670
856.194	14640
856.327	14651
856.461	14526
856.595	14575
856.729	14648
856.862	14686
856.996	14606
857.13	14686
857.263	14781
857.397	14785
857.53	14712
857.664	14697
857.797	14674
857.931	14838
858.064	14651
858.197	14659
858.331	14617
858.464	14644
858.597	14545
858.731	14606
858.864	14594
858.997	14549
859.13	14640
859.263	14549
859.396	14701
859.529	14610
859.662	14655
859.795	14533
859.928	14556
860.061	14773
860.194	14731
860.327	14579
860.46	14644
860.592	14682
860.725	14804
860.858	14667
860.99	14518
861.123	14556
861.256	14560
861.388	14560
861.521	15287
861.653	14488
861.786	14484
861.918	14465
862.05	14469
862.183	14579
862.315	14598
862.447	14625
862.58	14613
862.712	14473
862.844	14347
862.976	14552
863.108	14427
863.24	14941
863.372	14339
863.504	14377
863.636	14332
863.768	14476
863.9	14377
864.032	14343
864.164	14438
864.296	14442
864.428	14446
864.559	14385
864.691	14469
864.823	14408
864.954	14427
865.086	14366
865.217	14400
865.349	14305
865.48	14320
865.612	14290
865.743	14560
865.875	14396
866.006	14343
866.137	14412
866.269	14358
866.4	14206
866.531	14195
866.662	14275
866.793	14237
866.924	14244
867.055	14370
867.186	14476
867.317	14252
867.448	14195
867.579	14282
867.71	14229
867.841	14233
867.972	14328
868.103	14301
868.233	14446
868.364	14389
868.495	14427
868.625	14552
868.756	14705
868.886	14575
869.017	14533
869.147	14724
869.278	14807
869.408	14636
869.539	14689
869.669	14754
869.799	14587
869.929	14849
870.06	14743
870.19	14868
870.32	14902
870.45	14933
870.58	15089
870.71	15028
870.84	15135
870.97	15036
871.1	15028
871.23	15214
871.36	15188
871.489	15157
871.619	15154
871.749	15161
871.879	15264
872.008	15466
872.138	15294
872.267	15241
872.397	15062
872.526	15024
872.656	15108
872.785	15028
872.915	15207
873.044	15256
873.173	15355
873.303	15256
873.432	15370
873.561	15279
873.69	15275
873.819	15291
873.948	15298
874.077	15287
874.206	15195
874.335	15340
874.464	15363
874.593	15473
874.722	15538
874.851	15641
874.979	15591
875.108	15587
875.237	15500
875.365	15462
875.494	15477
875.623	15580
875.751	15447
875.88	15629
876.008	15823
876.136	15823
876.265	16036
876.393	16147
876.521	16143
876.65	16059
876.778	16029
876.906	15934
877.034	15861
877.162	15960
877.29	15975
877.418	16017
877.546	15972
877.674	15987
877.802	15918
877.93	15937
878.058	15972
878.185	15869
878.313	16002
878.441	15918
878.568	15865
878.696	16017
878.824	16078
878.951	16177
879.079	16341
879.206	16371
879.333	16238
879.461	16166
879.588	16154
879.715	16398
879.842	16417
879.97	16249
880.097	15907
880.224	15869
880.351	15930
880.478	15956
880.605	15899
880.732	15869
880.859	16071
880.986	15873
881.112	15972
881.239	15701
881.366	15701
881.493	15603
881.619	15496
881.746	15545
881.872	15545
881.999	15595
882.125	15542
882.252	15557
882.378	15507
882.505	15656
882.631	15401
882.757	15370
882.883	15332
883.01	15382
883.136	15268
883.262	15230
883.388	15222
883.514	15401
883.64	15344
883.766	15268
883.892	15066
884.018	15203
884.143	15233
884.269	15382
884.395	15131
884.52	15013
884.646	15020
884.772	14971
884.897	14914
885.023	15104
885.148	15169
885.274	15245
885.399	15157
885.524	15138
885.65	15077
885.775	15028
885.9	14937
886.025	15157
886.15	15081
886.275	14990
886.4	14952
886.525	14967
886.65	14960
886.775	14929
886.9	15173
887.025	15180
887.149	15024
887.274	14792
887.399	14819
887.523	14815
887.648	14804
887.773	14792
887.897	14868
888.021	14899
888.146	14819
888.27	14982
888.395	14967
888.519	14895
888.643	14914
888.767	14849
888.891	14758
889.015	14610
889.139	14735
889.263	14648
889.387	14762
889.511	14864
889.635	14739
889.759	14731
889.883	14663
890.006	14727
890.13	14762
890.254	14492
890.377	14697
890.501	14530
890.624	14450
890.748	14606
890.871	14480
890.995	14370
891.118	14252
891.241	14313
891.364	14339
891.488	14446
891.611	14396
891.734	14446
891.857	14530
891.98	14457
892.103	14446
892.226	14294
892.349	14412
892.471	14248
892.594	14385
892.717	14415
892.839	14381
892.962	14412
893.085	14328
893.207	14442
893.33	14149
893.452	14347
893.575	14469
893.697	14415
893.819	14503
893.941	14613
894.064	14560
894.186	14298
894.308	14358
894.43	14442
894.552	14480
894.674	14484
894.796	14286
894.918	14450
895.04	14404
895.161	14533
895.283	14484
895.405	14362
895.526	14431
895.648	14495
895.769	14526
895.891	14473
896.012	14610
896.134	14484
896.255	14530
896.376	14549
896.498	14560
896.619	14537
896.74	14617
896.861	14575
896.982	14872
897.103	14990
897.224	14845
897.345	14781
897.466	14781
897.587	14796
897.708	14952
897.828	14868
897.949	14765
898.07	14689
898.19	14796
898.311	14944
898.431	14693
898.552	14861
898.672	14986
898.792	15024
898.913	14941
899.033	14731
899.153	14743
899.273	14663
899.393	14701
899.513	14674
899.633	14712
899.753	14750
899.873	14670
899.993	14826
900.113	14724
900.232	14739
900.352	14826
900.472	14579
900.591	14587
900.711	14556
900.83	14613
900.95	14648
901.069	14670
901.189	14564
901.308	14317
901.427	14339
901.546	14271
901.665	14328
901.784	14328
901.904	14164
902.023	14096
902.141	13944
902.26	13811
902.379	13940
902.498	13868
902.617	13799
902.735	13833
902.854	13811
902.973	13788
903.091	13605
903.21	13537
903.328	13563
903.446	13468
903.565	13358
903.683	13502
903.801	13377
903.919	13407
904.038	13324
904.156	13327
904.274	13228
904.392	13160
904.51	13156
904.627	13198
904.745	13244
904.863	13365
904.981	13019
905.098	12856
905.216	12977
905.334	12928
905.451	12878
905.569	12875
905.686	12970
905.803	12924
905.921	12764
906.038	12848
906.155	12817
906.272	12555
906.389	12639
906.506	12464
906.623	12547
906.74	12506
906.857	12403
906.974	12315
907.091	12570
907.208	12631
907.324	12547
907.441	12456
907.557	12281
907.674	12178
907.79	12125
907.907	12251
908.023	12315
908.139	12338
908.256	12266
908.372	12224
908.488	12068
908.604	12015
908.72	12049
908.836	11984
908.952	11939
909.068	11977
909.184	12083
909.3	12045
909.415	12083
909.531	12011
909.647	11752
909.762	11843
909.878	11748
909.993	11783
910.108	11764
910.224	11756
910.339	11779
910.454	11668
910.57	11688
910.685	11634
910.8	11870
910.915	11828
911.03	11611
911.145	11493
911.259	11524
911.374	11490
911.489	11414
911.604	11391
911.718	11288
911.833	11269
911.947	11075
912.062	11067
912.176	11227
912.291	11239
912.405	11208
912.519	11360
912.633	11421
912.748	11269
912.862	11246
912.976	11121
913.09	11010
913.204	11033
913.318	11083
913.431	11326
913.545	11174
913.659	11258
913.772	11067
913.886	10919
914	10957
914.113	11041
914.226	11025
914.34	11185
914.453	10911
914.566	11033
914.68	10889
914.793	10923
914.906	10835
915.019	10660
915.132	10645
915.245	10721
915.358	10706
915.47	10714
915.583	10793
915.696	10801
915.809	10835
915.921	10908
916.034	10767
916.146	10717
916.259	10645
916.371	10759
916.483	10774
916.595	10637
916.708	10592
916.82	10611
916.932	10759
917.044	10653
917.156	10603
917.268	10535
917.38	10577
917.491	10485
917.603	10527
917.715	10645
917.826	10580
917.938	10500
918.049	10535
918.161	10580
918.272	10630
918.384	10649
918.495	10588
918.606	10432
918.717	10379
918.828	10424
918.939	10542
919.05	10310
919.161	10409
919.272	10246
919.383	10177
919.494	10455
919.604	10645
919.715	10390
919.826	10367
919.936	10348
920.047	10542
920.157	10462
920.267	10672
920.378	10504
920.488	10481
920.598	10672
920.708	10847
920.818	10694
920.928	10691
921.038	10801
921.148	10778
921.258	10474
921.368	10367
921.477	10291
921.587	10344
921.697	10120
921.806	10322
921.916	10166
922.025	9968
922.134	10029
922.244	9968
922.353	9922
922.462	9888
922.571	9846
922.68	9759
922.789	9603
922.898	9663
923.007	9686
923.116	9797
923.224	9682
923.333	9568
923.442	9542
923.55	9538
923.659	9572
923.767	9671
923.876	9488
923.984	9595
924.092	9534
924.201	9572
924.309	9485
924.417	9492
924.525	9420
924.633	9538
924.741	10367
924.849	9283
924.956	9424
925.064	9310
925.172	9253
925.279	9336
925.387	9310
925.494	9329
925.602	9416
925.709	9405
925.816	9310
925.924	9302
926.031	9408
926.138	9363
926.245	9370
926.352	9298
926.459	9386
926.566	9412
926.673	9241
926.779	9222
926.886	9241
926.993	9093
927.099	9093
927.206	8967
927.312	9017
927.419	9081
927.525	9070
927.631	9070
927.737	8918
927.843	8937
927.95	8788
928.056	8864
928.162	8857
928.267	8937
928.373	9542
928.479	9001
928.585	8796
928.69	8948
928.796	8967
928.901	8838
929.007	8773
929.112	8769
929.218	8819
929.323	8743
929.428	8773
929.533	8876
929.638	8743
929.743	8678
929.848	8731
929.953	8754
930.058	8682
930.163	8545
930.267	8461
930.372	8625
930.477	8476
930.581	8655
930.685	8568
930.79	8473
930.894	8480
930.998	8446
931.103	8579
931.207	8248
931.311	8180
931.415	8100
931.519	7864
931.623	7963
