Data from test_V78500241_738.txt Node
Date: Fri Mar 25 14:38:51 CST 2022
User: usil
Spectrometer: V785-0024
Trigger mode: 0
Integration Time (sec): 4.000000E-1
Scans to average: 1
Nonlinearity correction enabled: false
Boxcar width: 0
Storing dark spectrum: false
XAxis mode: Wavelengths
Number of Pixels in Spectrum: 1024
>>>>>Begin Spectral Data<<<<<
801.071	27469
801.214	27150
801.356	27005
801.499	26944
801.641	26651
801.783	26522
801.926	26640
802.068	26568
802.211	26518
802.353	26377
802.496	26286
802.638	26039
802.78	26183
802.923	26043
803.065	26016
803.208	26058
803.35	26119
803.492	26385
803.635	26351
803.777	26221
803.919	26328
804.061	26465
804.204	26351
804.346	26381
804.488	26149
804.63	26374
804.773	26240
804.915	26495
805.057	26762
805.199	26533
805.341	26746
805.483	26838
805.626	26918
805.768	26967
805.91	26910
806.052	27100
806.194	27249
806.336	27492
806.478	27633
806.62	27736
806.762	28196
806.904	28459
807.046	29178
807.188	29326
807.33	29824
807.472	30597
807.614	31194
807.756	31982
807.898	33150
808.04	34934
808.182	36905
808.324	39587
808.465	42665
808.607	46192
808.749	49133
808.891	51184
809.033	51389
809.174	49670
809.316	46645
809.458	42951
809.6	39450
809.741	36601
809.883	34276
810.025	32724
810.166	31571
810.308	30604
810.45	29984
810.591	29436
810.733	28873
810.875	28398
811.016	28158
811.158	27941
811.299	27770
811.441	27747
811.582	27519
811.724	27336
811.865	27138
812.007	27093
812.148	27104
812.29	27173
812.431	27062
812.573	27077
812.714	27089
812.855	27173
812.997	27287
813.138	27435
813.279	27264
813.421	27066
813.562	27001
813.703	26625
813.845	26632
813.986	26248
814.127	25951
814.268	26008
814.41	25921
814.551	25871
814.692	25963
814.833	25769
814.974	25818
815.115	25719
815.256	25677
815.397	25506
815.539	25491
815.68	25533
815.821	25301
815.962	25198
816.103	25247
816.244	25141
816.385	25175
816.526	25084
816.666	24878
816.807	24673
816.948	24703
817.089	24795
817.23	24772
817.371	24642
817.512	24616
817.653	24509
817.793	24433
817.934	24616
818.075	24620
818.216	24585
818.356	24555
818.497	24353
818.638	24152
818.778	24323
818.919	24273
819.06	24243
819.2	24342
819.341	24517
819.481	24467
819.622	24525
819.762	24738
819.903	24616
820.043	24528
820.184	24505
820.324	24346
820.465	24509
820.605	24357
820.746	24353
820.886	24194
821.026	24311
821.167	24281
821.307	24186
821.447	24376
821.588	24174
821.728	23980
821.868	23737
822.008	23707
822.149	23668
822.289	23509
822.429	23349
822.569	23299
822.709	23261
822.849	23090
822.99	23200
823.13	23079
823.27	22923
823.41	22854
823.55	22752
823.69	22953
823.83	22828
823.97	22812
824.11	22618
824.25	22660
824.389	22668
824.529	22668
824.669	22660
824.809	22649
824.949	22850
825.089	22835
825.228	22668
825.368	22565
825.508	22516
825.648	22474
825.787	22489
825.927	22523
826.067	22363
826.206	22493
826.346	22474
826.485	22428
826.625	22371
826.765	22656
826.904	22516
827.044	22200
827.183	22249
827.323	22105
827.462	22246
827.601	22124
827.741	21972
827.88	22120
828.02	21968
828.159	21983
828.298	22048
828.437	22234
828.577	21987
828.716	22090
828.855	22059
828.994	21869
829.134	21793
829.273	21857
829.412	21717
829.551	21793
829.69	21648
829.829	21641
829.968	21816
830.107	21755
830.246	21816
830.385	21804
830.524	21663
830.663	21629
830.802	21538
830.941	21507
831.08	21306
831.219	21431
831.357	21382
831.496	21538
831.635	21439
831.774	21233
831.913	21367
832.051	21291
832.19	21222
832.329	21237
832.467	21317
832.606	21249
832.744	21313
832.883	21386
833.022	21344
833.16	21485
833.299	21705
833.437	21728
833.576	21850
833.714	21998
833.852	22211
833.991	22367
834.129	22398
834.267	22337
834.406	22360
834.544	22291
834.682	22234
834.821	21991
834.959	22128
835.097	21667
835.235	21732
835.373	21466
835.511	21359
835.65	21272
835.788	21207
835.926	20998
836.064	20929
836.202	20887
836.34	21009
836.478	21047
836.615	20853
836.753	20979
836.891	20891
837.029	21173
837.167	20971
837.305	20777
837.443	20746
837.58	20716
837.718	20876
837.856	20781
837.993	20571
838.131	20746
838.269	20625
838.406	20450
838.544	20530
838.681	20396
838.819	20320
838.956	20240
839.094	20176
839.231	20180
839.369	20339
839.506	20560
839.643	20301
839.781	20138
839.918	20039
840.055	20172
840.193	20088
840.33	19978
840.467	20065
840.604	20176
840.742	20362
840.879	19909
841.016	20050
841.153	20043
841.29	20210
841.427	19967
841.564	20157
841.701	20134
841.838	20039
841.975	20103
842.112	19925
842.249	19856
842.385	19879
842.522	20138
842.659	19993
842.796	19909
842.933	19951
843.069	20001
843.206	19936
843.343	20069
843.479	20119
843.616	20214
843.752	20008
843.889	19978
844.025	20199
844.162	20100
844.298	20305
844.435	20446
844.571	20545
844.708	20910
844.844	21302
844.98	21823
845.117	22440
845.253	23425
845.389	25422
845.525	29258
845.661	35490
845.798	42582
845.934	47836
846.07	49845
846.206	48114
846.342	43209
846.478	35999
846.614	29843
846.75	26122
846.886	23512
847.022	22223
847.158	21252
847.294	20686
847.429	20355
847.565	20073
847.701	20191
847.837	19514
847.972	19518
848.108	19407
848.244	19388
848.379	19080
848.515	18916
848.65	18973
848.786	19057
848.921	19023
849.057	19031
849.192	18951
849.328	18939
849.463	18913
849.598	18753
849.734	18806
849.869	18551
850.004	18715
850.14	18604
850.275	18601
850.41	18441
850.545	18525
850.68	18479
850.815	18566
850.95	18570
851.085	18688
851.22	18608
851.355	18502
851.49	18433
851.625	18357
851.76	18578
851.895	18456
852.03	18376
852.165	18635
852.299	18559
852.434	18722
852.569	18585
852.703	18585
852.838	18722
852.973	18852
853.107	18734
853.242	18620
853.376	18635
853.511	18483
853.645	18551
853.78	18837
853.914	18749
854.048	18738
854.183	18719
854.317	18897
854.451	18951
854.585	18783
854.72	18791
854.854	18871
854.988	18681
855.122	18810
855.256	18452
855.39	18620
855.524	18608
855.658	18570
855.792	18574
855.926	18498
856.06	18479
856.194	18506
856.327	18532
856.461	18365
856.595	18403
856.729	18353
856.862	18471
856.996	18357
857.13	18429
857.263	18502
857.397	18483
857.53	18334
857.664	18376
857.797	18361
857.931	18426
858.064	18357
858.197	18448
858.331	18194
858.464	18342
858.597	18117
858.731	18292
858.864	18330
858.997	18273
859.13	18232
859.263	18220
859.396	18292
859.529	18190
859.662	18186
859.795	18213
859.928	18220
860.061	18311
860.194	18361
860.327	18254
860.46	18270
860.592	18277
860.725	18334
860.858	18350
860.99	18209
861.123	18163
861.256	18041
861.388	18285
861.521	18905
861.653	17984
861.786	17954
861.918	18041
862.05	17980
862.183	18190
862.315	18155
862.447	18205
862.58	18076
862.712	17973
862.844	17805
862.976	17920
863.108	17935
863.24	18350
863.372	17836
863.504	17901
863.636	17870
863.768	17923
863.9	17878
864.032	17824
864.164	17847
864.296	17824
864.428	17882
864.559	17863
864.691	17916
864.823	17935
864.954	17916
865.086	17878
865.217	17870
865.349	17691
865.48	17779
865.612	17927
865.743	17923
865.875	17783
866.006	17718
866.137	17783
866.269	17775
866.4	17756
866.531	17756
866.662	17760
866.793	17726
866.924	17615
867.055	17741
867.186	17718
867.317	17680
867.448	17710
867.579	17684
867.71	17608
867.841	17707
867.972	17912
868.103	17729
868.233	17752
868.364	17779
868.495	17859
868.625	17996
868.756	18053
868.886	17885
869.017	18068
869.147	18163
869.278	18144
869.408	18064
869.539	18022
869.669	18003
869.799	18034
869.929	18007
870.06	18155
870.19	18292
870.32	18376
870.45	18380
870.58	18372
870.71	18540
870.84	18574
870.97	18445
871.1	18540
871.23	18700
871.36	18715
871.489	18642
871.619	18585
871.749	18677
871.879	18741
872.008	18844
872.138	18749
872.267	18776
872.397	18787
872.526	18623
872.656	18734
872.785	18734
872.915	18928
873.044	18973
873.173	18844
873.303	18924
873.432	19008
873.561	18962
873.69	19065
873.819	19088
873.948	19099
874.077	19122
874.206	19034
874.335	19160
874.464	19255
874.593	19422
874.722	19373
874.851	19521
874.979	19567
875.108	19559
875.237	19487
875.365	19548
875.494	19662
875.623	19799
875.751	19658
875.88	19814
876.008	20005
876.136	20195
876.265	20339
876.393	20560
876.521	20613
876.65	20720
876.778	20564
876.906	20609
877.034	20758
877.162	20674
877.29	20807
877.418	20929
877.546	20982
877.674	21173
877.802	21207
877.93	21428
878.058	21606
878.185	21496
878.313	22097
878.441	22356
878.568	22630
878.696	23376
878.824	24239
878.951	25384
879.079	26967
879.206	29197
879.333	31263
879.461	32994
879.588	34261
879.715	34291
879.842	33325
879.97	31358
880.097	29383
880.224	27344
880.351	26225
880.478	25354
880.605	24631
880.732	24155
880.859	24266
880.986	23817
881.112	23790
881.239	23554
881.366	23444
881.493	23387
881.619	23326
881.746	23284
881.872	23345
881.999	23330
882.125	23273
882.252	23448
882.378	23554
882.505	23691
882.631	23531
882.757	23444
882.883	23402
883.01	23345
883.136	23436
883.262	23208
883.388	23132
883.514	23368
883.64	23318
883.766	23288
883.892	23083
884.018	23060
884.143	23212
884.269	23311
884.395	23060
884.52	22957
884.646	23147
884.772	23029
884.897	22949
885.023	22976
885.148	23117
885.274	23090
885.399	23037
885.524	22774
885.65	22755
885.775	22675
885.9	22402
886.025	22470
886.15	22253
886.275	21823
886.4	21736
886.525	21690
886.65	21431
886.775	21386
886.9	21553
887.025	21389
887.149	21112
887.274	20819
887.399	20788
887.523	20541
887.648	20492
887.773	20271
887.897	20351
888.021	20248
888.146	20206
888.27	20290
888.395	20221
888.519	20103
888.643	19917
888.767	20084
888.891	19887
889.015	19746
889.139	19662
889.263	19468
889.387	19696
889.511	19750
889.635	19727
889.759	19605
889.883	19476
890.006	19445
890.13	19438
890.254	19259
890.377	19156
890.501	19137
890.624	19061
890.748	18993
890.871	18856
890.995	18726
891.118	18757
891.241	18867
891.364	18707
891.488	18753
891.611	18661
891.734	18654
891.857	18620
891.98	18650
892.103	18608
892.226	18528
892.349	18334
892.471	18384
892.594	18460
892.717	18433
892.839	18319
892.962	18327
893.085	18437
893.207	18224
893.33	18205
893.452	18190
893.575	18224
893.697	18091
893.819	18220
893.941	18300
894.064	18277
894.186	18041
894.308	17961
894.43	18045
894.552	18190
894.674	18125
894.796	17878
894.918	17950
895.04	17916
895.161	17942
895.283	17950
895.405	17885
895.526	17920
895.648	17920
895.769	17859
895.891	17832
896.012	17874
896.134	17863
896.255	17775
896.376	17809
896.498	17707
896.619	17802
896.74	17794
896.861	17859
896.982	18015
897.103	18213
897.224	17935
897.345	17980
897.466	17999
897.587	17908
897.708	18038
897.828	18076
897.949	17980
898.07	17813
898.19	17863
898.311	17980
898.431	17874
898.552	17969
898.672	18011
898.792	17920
898.913	18064
899.033	17832
899.153	17813
899.273	17752
899.393	17809
899.513	17786
899.633	17741
899.753	17699
899.873	17661
899.993	17851
900.113	17665
900.232	17748
900.352	17623
900.472	17596
900.591	17592
900.711	17566
900.83	17516
900.95	17532
901.069	17665
901.189	17444
901.308	17223
901.427	17159
901.546	17022
901.665	17159
901.784	17079
901.904	16908
902.023	16968
902.141	16710
902.26	16713
902.379	16607
902.498	16531
902.617	16603
902.735	16538
902.854	16500
902.973	16493
903.091	16280
903.21	16169
903.328	16200
903.446	16074
903.565	16044
903.683	15975
903.801	15880
903.919	15930
904.038	16002
904.156	15736
904.274	15835
904.392	15690
904.51	15785
904.627	15667
904.745	15857
904.863	15831
904.981	15477
905.098	15485
905.216	15511
905.334	15454
905.451	15351
905.569	15378
905.686	15439
905.803	15424
905.921	15222
906.038	15268
906.155	15154
906.272	15119
906.389	15108
906.506	14861
906.623	14971
906.74	14845
906.857	14724
906.974	14868
907.091	14868
907.208	15058
907.324	14960
907.441	14845
907.557	14739
907.674	14583
907.79	14522
907.907	14560
908.023	14568
908.139	14606
908.256	14571
908.372	14575
908.488	14503
908.604	14377
908.72	14271
908.836	14362
908.952	14248
909.068	14389
909.184	14442
909.3	14336
909.415	14393
909.531	14263
909.647	14111
909.762	14054
909.878	14069
909.993	14039
910.108	14046
910.224	13993
910.339	14092
910.454	13940
910.57	13951
910.685	13849
910.8	14077
910.915	14054
911.03	13788
911.145	13712
911.259	13761
911.374	13753
911.489	13727
911.604	13651
911.718	13480
911.833	13441
911.947	13335
912.062	13263
912.176	13426
912.291	13415
912.405	13422
912.519	13616
912.633	13746
912.748	13502
912.862	13377
912.976	13339
913.09	13164
913.204	13240
913.318	13358
913.431	13445
913.545	13415
913.659	13381
913.772	13251
913.886	13217
914	13107
914.113	13263
914.226	13236
914.34	13255
914.453	13053
914.566	13194
914.68	13152
914.793	12989
914.906	12848
915.019	12848
915.132	12795
915.245	12810
915.358	12958
915.47	12909
915.583	12878
915.696	12844
915.809	13000
915.921	13038
916.034	12753
916.146	12783
916.259	12863
916.371	12947
916.483	12886
916.595	12848
916.708	12806
916.82	12798
916.932	12779
917.044	12787
917.156	12741
917.268	12589
917.38	12627
917.491	12574
917.603	12658
917.715	12681
917.826	12791
917.938	12574
918.049	12456
918.161	12532
918.272	12745
918.384	12677
918.495	12604
918.606	12403
918.717	12315
918.828	12456
918.939	12483
919.05	12281
919.161	12338
919.272	12194
919.383	12262
919.494	12388
919.604	12574
919.715	12380
919.826	12235
919.936	12258
920.047	12380
920.157	12342
920.267	12536
920.378	12289
920.488	12292
920.598	12525
920.708	12688
920.818	12456
920.928	12460
921.038	12604
921.148	12563
921.258	12224
921.368	12205
921.477	12163
921.587	12125
921.697	12007
921.806	12049
921.916	12053
922.025	11836
922.134	11737
922.244	11901
922.353	11741
922.462	11638
922.571	11615
922.68	11417
922.789	11444
922.898	11440
923.007	11402
923.116	11505
923.224	11463
923.333	11474
923.442	11349
923.55	11265
923.659	11235
923.767	11368
923.876	11204
923.984	11273
924.092	11159
924.201	11185
924.309	11242
924.417	11261
924.525	11227
924.633	11220
924.741	11904
924.849	10999
924.956	11170
925.064	11090
925.172	10965
925.279	10965
925.387	10968
925.494	10919
925.602	11083
925.709	11064
925.816	10809
925.924	10908
926.031	11105
926.138	11006
926.245	11029
926.352	10858
926.459	10965
926.566	10976
926.673	10904
926.779	10744
926.886	10812
926.993	10603
927.099	10580
927.206	10573
927.312	10542
927.419	10790
927.525	10649
927.631	10660
927.737	10535
927.843	10436
927.95	10398
928.056	10440
928.162	10504
928.267	10523
928.373	11067
928.479	10645
928.585	10280
928.69	10424
928.796	10462
928.901	10348
929.007	10177
929.112	10363
929.218	10276
929.323	10314
929.428	10246
929.533	10417
929.638	10196
929.743	10249
929.848	10299
929.953	10272
930.058	10139
930.163	9876
930.267	10017
930.372	10135
930.477	9911
930.581	10188
930.685	10044
930.79	9922
930.894	9937
930.998	9869
931.103	9934
931.207	9720
931.311	9595
931.415	9545
931.519	9359
931.623	9401
