Data from test_V78500241_2841.txt Node
Date: Fri Mar 25 14:53:29 CST 2022
User: usil
Spectrometer: V785-0024
Trigger mode: 0
Integration Time (sec): 4.000000E-1
Scans to average: 1
Nonlinearity correction enabled: false
Boxcar width: 0
Storing dark spectrum: false
XAxis mode: Wavelengths
Number of Pixels in Spectrum: 1024
>>>>>Begin Spectral Data<<<<<
801.071	22112
801.214	21960
801.356	21743
801.499	21625
801.641	21538
801.783	21424
801.926	21408
802.068	21367
802.211	21424
802.353	21123
802.496	21062
802.638	20948
802.78	20883
802.923	20807
803.065	20667
803.208	20807
803.35	20872
803.492	20823
803.635	20906
803.777	20750
803.919	20872
804.061	21207
804.204	20872
804.346	20731
804.488	20678
804.63	20758
804.773	20632
804.915	20781
805.057	20765
805.199	20682
805.341	20765
805.483	20887
805.626	20689
805.768	20632
805.91	20689
806.052	20781
806.194	20545
806.336	20811
806.478	20697
806.62	20587
806.762	20670
806.904	20941
807.046	21093
807.188	21013
807.33	20952
807.472	21043
807.614	20880
807.756	20891
807.898	20792
808.04	20849
808.182	20857
808.324	20781
808.465	20705
808.607	20933
808.749	21020
808.891	21165
809.033	21264
809.174	21081
809.316	21252
809.458	20937
809.6	20971
809.741	21096
809.883	21192
810.025	21256
810.166	21089
810.308	21135
810.45	21169
810.591	20971
810.733	20982
810.875	21036
811.016	20758
811.158	20746
811.299	20842
811.441	20876
811.582	21020
811.724	20880
811.865	20853
812.007	20838
812.148	20708
812.29	20899
812.431	21066
812.573	21135
812.714	21226
812.855	21252
812.997	21469
813.138	21564
813.279	21519
813.421	21336
813.562	21294
813.703	21100
813.845	20929
813.986	20632
814.127	20488
814.268	20370
814.41	20377
814.551	20263
814.692	20412
814.833	20271
814.974	20259
815.115	20366
815.256	20252
815.397	20309
815.539	20263
815.68	20012
815.821	20187
815.962	20050
816.103	20081
816.244	19837
816.385	19860
816.526	19795
816.666	19731
816.807	19677
816.948	19582
817.089	19677
817.23	19628
817.371	19464
817.512	19540
817.653	19434
817.793	19403
817.934	19480
818.075	19533
818.216	19518
818.356	19533
818.497	19335
818.638	19168
818.778	19228
818.919	19198
819.06	19168
819.2	19259
819.341	19373
819.481	19346
819.622	19544
819.762	19655
819.903	19601
820.043	19521
820.184	19521
820.324	19457
820.465	19510
820.605	19518
820.746	19472
820.886	19285
821.026	19426
821.167	19373
821.307	19491
821.447	19445
821.588	19194
821.728	19069
821.868	18985
822.008	18863
822.149	18806
822.289	18848
822.429	18688
822.569	18578
822.709	18532
822.849	18418
822.99	18296
823.13	18418
823.27	18426
823.41	18140
823.55	18178
823.69	18258
823.83	18022
823.97	18235
824.11	17847
824.25	17999
824.389	17893
824.529	18030
824.669	17961
824.809	18003
824.949	18011
825.089	17988
825.228	17942
825.368	17764
825.508	17710
825.648	17840
825.787	17771
825.927	17836
826.067	17657
826.206	17680
826.346	17764
826.485	17741
826.625	17638
826.765	17855
826.904	17859
827.044	17554
827.183	17474
827.323	17410
827.462	17417
827.601	17376
827.741	17349
827.88	17459
828.02	17239
828.159	17368
828.298	17436
828.437	17478
828.577	17341
828.716	17512
828.855	17334
828.994	17117
829.134	17071
829.273	17200
829.412	17117
829.551	17041
829.69	17178
829.829	17048
829.968	17307
830.107	17193
830.246	17136
830.385	17124
830.524	17140
830.663	17075
830.802	16896
830.941	16812
831.08	16774
831.219	16873
831.357	16828
831.496	17045
831.635	16733
831.774	16675
831.913	16546
832.051	16618
832.19	16637
832.329	16592
832.467	16569
832.606	16382
832.744	16447
832.883	16485
833.022	16367
833.16	16440
833.299	16596
833.437	16504
833.576	16459
833.714	16538
833.852	16512
833.991	16481
834.129	16504
834.267	16550
834.406	16485
834.544	16466
834.682	16470
834.821	16413
834.959	16672
835.097	16519
835.235	16569
835.373	16558
835.511	16432
835.65	16478
835.788	16451
835.926	16322
836.064	16303
836.202	16287
836.34	16455
836.478	16565
836.615	16333
836.753	16470
836.891	16478
837.029	16455
837.167	16379
837.305	16348
837.443	16421
837.58	16192
837.718	16310
837.856	16379
837.993	16261
838.131	16166
838.269	16234
838.406	16329
838.544	16154
838.681	15994
838.819	15998
838.956	15816
839.094	15823
839.231	15789
839.369	16093
839.506	16207
839.643	16010
839.781	15903
839.918	15797
840.055	15861
840.193	15823
840.33	15808
840.467	15880
840.604	15728
840.742	16147
840.879	15622
841.016	15709
841.153	15766
841.29	15941
841.427	15842
841.564	15880
841.701	15827
841.838	15808
841.975	15694
842.112	15800
842.249	15675
842.385	15633
842.522	15842
842.659	15614
842.796	15534
842.933	15701
843.069	15648
843.206	15667
843.343	15667
843.479	15618
843.616	15633
843.752	15492
843.889	15332
844.025	15606
844.162	15363
844.298	15564
844.435	15431
844.571	15359
844.708	15462
844.844	15523
844.98	15591
845.117	15553
845.253	15336
845.389	15241
845.525	15363
845.661	15298
845.798	15249
845.934	15340
846.07	15081
846.206	15199
846.342	15401
846.478	15218
846.614	15093
846.75	14918
846.886	15005
847.022	15112
847.158	14952
847.294	14891
847.429	15108
847.565	14937
847.701	15256
847.837	14811
847.972	14632
848.108	14883
848.244	14727
848.379	14640
848.515	14648
848.65	14499
848.786	14587
848.921	14602
849.057	14579
849.192	14663
849.328	14674
849.463	14499
849.598	14492
849.734	14473
849.869	14412
850.004	14374
850.14	14355
850.275	14324
850.41	14248
850.545	14294
850.68	14282
850.815	14450
850.95	14244
851.085	14579
851.22	14541
851.355	14377
851.49	14320
851.625	14301
851.76	14290
851.895	14275
852.03	14263
852.165	14362
852.299	14454
852.434	14332
852.569	14396
852.703	14419
852.838	14454
852.973	14450
853.107	14488
853.242	14362
853.376	14218
853.511	14210
853.645	14252
853.78	14320
853.914	14256
854.048	14191
854.183	14191
854.317	14225
854.451	14385
854.585	14206
854.72	14161
854.854	14381
854.988	14218
855.122	14149
855.256	14096
855.39	14172
855.524	14339
855.658	14263
855.792	14320
855.926	14233
856.06	14191
856.194	14317
856.327	14233
856.461	14210
856.595	14214
856.729	14313
856.862	14366
856.996	14317
857.13	14336
857.263	14374
857.397	14317
857.53	14286
857.664	14332
857.797	14317
857.931	14374
858.064	14320
858.197	14355
858.331	14191
858.464	14271
858.597	14081
858.731	14206
858.864	14339
858.997	14180
859.13	14225
859.263	14275
859.396	14298
859.529	14259
859.662	14237
859.795	14149
859.928	14309
860.061	14396
860.194	14499
860.327	14218
860.46	14259
860.592	14320
860.725	14328
860.858	14393
860.99	14199
861.123	14142
861.256	14172
861.388	14183
861.521	14887
861.653	14115
861.786	14058
861.918	14073
862.05	14149
862.183	14248
862.315	14248
862.447	14244
862.58	14168
862.712	14050
862.844	13955
862.976	14096
863.108	14123
863.24	14305
863.372	13959
863.504	14115
863.636	14012
863.768	14103
863.9	14016
864.032	13944
864.164	14027
864.296	14031
864.428	14142
864.559	14115
864.691	14142
864.823	14065
864.954	14062
865.086	14024
865.217	14012
865.349	13982
865.48	14039
865.612	14008
865.743	14046
865.875	13940
866.006	13898
866.137	13982
866.269	13978
866.4	13940
866.531	13917
866.662	13986
866.793	13951
866.924	14043
867.055	13978
867.186	14005
867.317	13883
867.448	13913
867.579	13944
867.71	14001
867.841	14008
867.972	14043
868.103	14035
868.233	14043
868.364	13944
868.495	14123
868.625	14237
868.756	14320
868.886	14153
869.017	14183
869.147	14393
869.278	14457
869.408	14195
869.539	14237
869.669	14393
869.799	14267
869.929	14374
870.06	14362
870.19	14537
870.32	14560
870.45	14552
870.58	14678
870.71	14754
870.84	14701
870.97	14701
871.1	14670
871.23	14727
871.36	14845
871.489	14788
871.619	14811
871.749	14811
871.879	14899
872.008	14842
872.138	14845
872.267	14861
872.397	14648
872.526	14754
872.656	14598
872.785	14693
872.915	14845
873.044	14842
873.173	14823
873.303	14979
873.432	14956
873.561	14830
873.69	14845
873.819	14990
873.948	15032
874.077	14880
874.206	14826
874.335	14925
874.464	15043
874.593	15287
874.722	15039
874.851	15306
874.979	15249
875.108	15138
875.237	15184
875.365	15184
875.494	15165
875.623	15268
875.751	15173
875.88	15291
876.008	15405
876.136	15454
876.265	15671
876.393	15675
876.521	15690
876.65	15686
876.778	15618
876.906	15557
877.034	15629
877.162	15671
877.29	15500
877.418	15530
877.546	15667
877.674	15584
877.802	15675
877.93	15641
878.058	15667
878.185	15599
878.313	15663
878.441	15679
878.568	15530
878.696	15523
878.824	15641
878.951	15667
879.079	15835
879.206	15857
879.333	15819
879.461	15644
879.588	15690
879.715	15793
879.842	15869
879.97	15618
880.097	15481
880.224	15405
880.351	15405
880.478	15572
880.605	15481
880.732	15507
880.859	15679
880.986	15477
881.112	15488
881.239	15351
881.366	15275
881.493	15131
881.619	15108
881.746	15154
881.872	15112
881.999	15089
882.125	15081
882.252	15214
882.378	15161
882.505	15226
882.631	15154
882.757	14994
882.883	15024
883.01	15024
883.136	14933
883.262	14739
883.388	14826
883.514	14925
883.64	14967
883.766	14902
883.892	14830
884.018	14781
884.143	14960
884.269	15074
884.395	14735
884.52	14613
884.646	14739
884.772	14636
884.897	14518
885.023	14735
885.148	14796
885.274	14743
885.399	14765
885.524	14682
885.65	14644
885.775	14663
885.9	14511
886.025	14762
886.15	14781
886.275	14636
886.4	14594
886.525	14651
886.65	14552
886.775	14644
886.9	14796
887.025	14853
887.149	14632
887.274	14446
887.399	14469
887.523	14492
887.648	14442
887.773	14328
887.897	14541
888.021	14598
888.146	14434
888.27	14488
888.395	14629
888.519	14594
888.643	14514
888.767	14583
888.891	14545
889.015	14271
889.139	14339
889.263	14275
889.387	14450
889.511	14522
889.635	14389
889.759	14362
889.883	14343
890.006	14396
890.13	14358
890.254	14301
890.377	14218
890.501	14195
890.624	14100
890.748	14191
890.871	14065
890.995	14027
891.118	13947
891.241	14107
891.364	14134
891.488	14107
891.611	14035
891.734	14069
891.857	14176
891.98	14119
892.103	14100
892.226	14168
892.349	13997
892.471	13963
892.594	14046
892.717	14077
892.839	14020
892.962	14020
893.085	14157
893.207	14100
893.33	13959
893.452	13959
893.575	14157
893.697	14024
893.819	14187
893.941	14267
894.064	14202
894.186	14126
894.308	14005
894.43	14164
894.552	14298
894.674	14298
894.796	13989
894.918	14119
895.04	14031
895.161	14256
895.283	14077
895.405	14039
895.526	14161
895.648	14210
895.769	14240
895.891	14191
896.012	14237
896.134	14343
896.255	14164
896.376	14240
896.498	14221
896.619	14259
896.74	14290
896.861	14317
896.982	14632
897.103	14648
897.224	14499
897.345	14518
897.466	14480
897.587	14484
897.708	14598
897.828	14602
897.949	14434
898.07	14290
898.19	14446
898.311	14636
898.431	14488
898.552	14667
898.672	14670
898.792	14727
898.913	14613
899.033	14465
899.153	14347
899.273	14358
899.393	14488
899.513	14457
899.633	14522
899.753	14495
899.873	14324
899.993	14423
900.113	14431
900.232	14457
900.352	14415
900.472	14317
900.591	14282
900.711	14317
900.83	14244
900.95	14374
901.069	14450
901.189	14309
901.308	14046
901.427	14005
901.546	14024
901.665	13993
901.784	14008
901.904	13856
902.023	13811
902.141	13628
902.26	13537
902.379	13597
902.498	13563
902.617	13480
902.735	13655
902.854	13483
902.973	13480
903.091	13263
903.21	13263
903.328	13236
903.446	13343
903.565	13110
903.683	13156
903.801	13046
903.919	13091
904.038	13046
904.156	12935
904.274	12973
904.392	12993
904.51	12943
904.627	12947
904.745	12989
904.863	13000
904.981	12772
905.098	12623
905.216	12642
905.334	12677
905.451	12608
905.569	12578
905.686	12745
905.803	12669
905.921	12464
906.038	12612
906.155	12433
906.272	12292
906.389	12357
906.506	12152
906.623	12163
906.74	12190
906.857	12098
906.974	12076
907.091	12311
907.208	12388
907.324	12239
907.441	12114
907.557	11939
907.674	11935
907.79	11920
907.907	11901
908.023	12019
908.139	11942
908.256	11863
908.372	11882
908.488	11805
908.604	11836
908.72	11729
908.836	11703
908.952	11592
909.068	11745
909.184	11813
909.3	11566
909.415	11824
909.531	11680
909.647	11554
909.762	11520
909.878	11490
909.993	11474
910.108	11505
910.224	11414
910.339	11448
910.454	11406
910.57	11376
910.685	11250
910.8	11585
910.915	11493
911.03	11315
911.145	11124
911.259	11212
911.374	11193
911.489	11223
911.604	11033
911.718	10938
911.833	10866
911.947	10862
912.062	10816
912.176	10934
912.291	10995
912.405	10892
912.519	11170
912.633	11185
912.748	11025
912.862	10965
912.976	10835
913.09	10698
913.204	10698
913.318	10847
913.431	10946
913.545	10927
913.659	10900
913.772	10752
913.886	10683
914	10717
914.113	10835
914.226	10862
914.34	10729
914.453	10664
914.566	10839
914.68	10717
914.793	10611
914.906	10535
915.019	10390
915.132	10409
915.245	10447
915.358	10348
915.47	10447
915.583	10451
915.696	10523
915.809	10615
915.921	10592
916.034	10333
916.146	10360
916.259	10382
916.371	10462
916.483	10402
916.595	10333
916.708	10402
916.82	10356
916.932	10379
917.044	10379
917.156	10363
917.268	10268
917.38	10299
917.491	10253
917.603	10428
917.715	10402
917.826	10424
917.938	10257
918.049	10188
918.161	10291
918.272	10466
918.384	10367
918.495	10341
918.606	10200
918.717	10128
918.828	10128
918.939	10204
919.05	10086
919.161	10135
919.272	9964
919.383	10044
919.494	10196
919.604	10432
919.715	10147
919.826	10055
919.936	10128
920.047	10272
920.157	10223
920.267	10287
920.378	10265
920.488	10192
920.598	10303
920.708	10497
920.818	10451
920.928	10386
921.038	10531
921.148	10519
921.258	10200
921.368	10150
921.477	10021
921.587	9987
921.697	9903
921.806	10040
921.916	9918
922.025	9789
922.134	9728
922.244	9713
922.353	9800
922.462	9610
922.571	9633
922.68	9496
922.789	9428
922.898	9431
923.007	9450
923.116	9450
923.224	9386
923.333	9435
923.442	9291
923.55	9302
923.659	9321
923.767	9367
923.876	9253
923.984	9393
924.092	9237
924.201	9363
924.309	9340
924.417	9329
924.525	9310
924.633	9325
924.741	10200
924.849	9123
924.956	9188
925.064	9051
925.172	9017
925.279	9036
925.387	9100
925.494	9051
925.602	9214
925.709	9176
925.816	8982
925.924	9058
926.031	9188
926.138	9093
926.245	9138
926.352	9036
926.459	9260
926.566	9230
926.673	9013
926.779	8960
926.886	8986
926.993	8925
927.099	8815
927.206	8766
927.312	8708
927.419	8899
927.525	8815
927.631	8861
927.737	8689
927.843	8689
927.95	8659
928.056	8625
928.162	8716
928.267	8731
928.373	9279
928.479	8807
928.585	8625
928.69	8670
928.796	8769
928.901	8678
929.007	8514
929.112	8606
929.218	8629
929.323	8545
929.428	8541
929.533	8735
929.638	8351
929.743	8511
929.848	8602
929.953	8450
930.058	8351
930.163	8206
930.267	8256
930.372	8408
930.477	8317
930.581	8469
930.685	8415
930.79	8233
930.894	8301
930.998	8206
931.103	8427
931.207	8027
931.311	7959
931.415	7921
931.519	7814
931.623	7757
