Data from test_V78500241_2233.txt Node
Date: Fri Mar 25 14:49:15 CST 2022
User: usil
Spectrometer: V785-0024
Trigger mode: 0
Integration Time (sec): 4.000000E-1
Scans to average: 1
Nonlinearity correction enabled: false
Boxcar width: 0
Storing dark spectrum: false
XAxis mode: Wavelengths
Number of Pixels in Spectrum: 1024
>>>>>Begin Spectral Data<<<<<
801.071	22207
801.214	22021
801.356	21926
801.499	21587
801.641	21564
801.783	21515
801.926	21504
802.068	21507
802.211	21443
802.353	21264
802.496	21142
802.638	20902
802.78	20975
802.923	20876
803.065	20804
803.208	20765
803.35	20697
803.492	20979
803.635	20986
803.777	20705
803.919	20876
804.061	21089
804.204	20861
804.346	20872
804.488	20746
804.63	20883
804.773	20686
804.915	20819
805.057	20933
805.199	20796
805.341	20727
805.483	20967
805.626	20887
805.768	20857
805.91	20785
806.052	20864
806.194	20769
806.336	20918
806.478	20792
806.62	20750
806.762	20823
806.904	21020
807.046	21218
807.188	21104
807.33	21039
807.472	21123
807.614	21005
807.756	21116
807.898	20823
808.04	20823
808.182	20781
808.324	20804
808.465	20975
808.607	21100
808.749	21169
808.891	21310
809.033	21393
809.174	21214
809.316	21146
809.458	21211
809.6	21135
809.741	21291
809.883	21260
810.025	21310
810.166	21287
810.308	21310
810.45	21268
810.591	21176
810.733	20998
810.875	21017
811.016	20967
811.158	20933
811.299	20921
811.441	21032
811.582	21119
811.724	20941
811.865	20887
812.007	20933
812.148	20914
812.29	21047
812.431	21150
812.573	21154
812.714	21329
812.855	21332
812.997	21622
813.138	21599
813.279	21572
813.421	21370
813.562	21382
813.703	21249
813.845	21047
813.986	20693
814.127	20629
814.268	20568
814.41	20537
814.551	20568
814.692	20419
814.833	20560
814.974	20362
815.115	20408
815.256	20282
815.397	20301
815.539	20362
815.68	20180
815.821	20058
815.962	20301
816.103	20214
816.244	20100
816.385	19970
816.526	19917
816.666	19803
816.807	19655
816.948	19769
817.089	19788
817.23	19651
817.371	19620
817.512	19674
817.653	19616
817.793	19476
817.934	19525
818.075	19559
818.216	19559
818.356	19491
818.497	19430
818.638	19312
818.778	19346
818.919	19373
819.06	19282
819.2	19487
819.341	19419
819.481	19506
819.622	19613
819.762	19909
819.903	19772
820.043	19761
820.184	19540
820.324	19544
820.465	19639
820.605	19597
820.746	19510
820.886	19400
821.026	19552
821.167	19445
821.307	19609
821.447	19575
821.588	19415
821.728	19270
821.868	19122
822.008	19000
822.149	18954
822.289	18920
822.429	18726
822.569	18673
822.709	18677
822.849	18464
822.99	18502
823.13	18471
823.27	18452
823.41	18285
823.55	18174
823.69	18178
823.83	18296
823.97	18243
824.11	18129
824.25	18049
824.389	18110
824.529	18083
824.669	17996
824.809	18167
824.949	18133
825.089	18110
825.228	17984
825.368	17863
825.508	17836
825.648	17786
825.787	17882
825.927	17897
826.067	17718
826.206	17878
826.346	17809
826.485	17916
826.625	17805
826.765	17920
826.904	17965
827.044	17611
827.183	17596
827.323	17509
827.462	17501
827.601	17585
827.741	17440
827.88	17585
828.02	17493
828.159	17417
828.298	17604
828.437	17566
828.577	17585
828.716	17596
828.855	17463
828.994	17387
829.134	17273
829.273	17307
829.412	17284
829.551	17200
829.69	17204
829.829	17372
829.968	17326
830.107	17189
830.246	17273
830.385	17151
830.524	17075
830.663	17090
830.802	17010
830.941	16862
831.08	16847
831.219	16900
831.357	16911
831.496	17014
831.635	16820
831.774	16862
831.913	16687
832.051	16683
832.19	16622
832.329	16733
832.467	16634
832.606	16485
832.744	16569
832.883	16542
833.022	16569
833.16	16504
833.299	16546
833.437	16531
833.576	16603
833.714	16519
833.852	16573
833.991	16649
834.129	16675
834.267	16649
834.406	16573
834.544	16603
834.682	16698
834.821	16500
834.959	16729
835.097	16538
835.235	16687
835.373	16592
835.511	16599
835.65	16565
835.788	16497
835.926	16367
836.064	16268
836.202	16295
836.34	16421
836.478	16603
836.615	16497
836.753	16554
836.891	16565
837.029	16615
837.167	16508
837.305	16470
837.443	16375
837.58	16344
837.718	16535
837.856	16375
837.993	16310
838.131	16390
838.269	16318
838.406	16344
838.544	16268
838.681	16040
838.819	16029
838.956	15842
839.094	15968
839.231	16017
839.369	15975
839.506	16344
839.643	16169
839.781	15972
839.918	15842
840.055	15991
840.193	15922
840.33	15922
840.467	15854
840.604	16013
840.742	16211
840.879	15865
841.016	15835
841.153	15774
841.29	16048
841.427	16010
841.564	15884
841.701	15873
841.838	15842
841.975	15895
842.112	15747
842.249	15720
842.385	15629
842.522	15838
842.659	15751
842.796	15701
842.933	15671
843.069	15675
843.206	15633
843.343	15842
843.479	15713
843.616	15671
843.752	15523
843.889	15561
844.025	15568
844.162	15492
844.298	15595
844.435	15496
844.571	15462
844.708	15587
844.844	15637
844.98	15599
845.117	15481
845.253	15439
845.389	15382
845.525	15420
845.661	15336
845.798	15237
845.934	15230
846.07	15165
846.206	15310
846.342	15431
846.478	15222
846.614	15135
846.75	14998
846.886	15024
847.022	15173
847.158	14990
847.294	15127
847.429	15116
847.565	14998
847.701	15272
847.837	14842
847.972	14781
848.108	14906
848.244	14914
848.379	14697
848.515	14739
848.65	14674
848.786	14659
848.921	14621
849.057	14697
849.192	14826
849.328	14686
849.463	14720
849.598	14731
849.734	14594
849.869	14461
850.004	14480
850.14	14514
850.275	14438
850.41	14328
850.545	14309
850.68	14343
850.815	14415
850.95	14442
851.085	14575
851.22	14495
851.355	14499
851.49	14385
851.625	14343
851.76	14415
851.895	14317
852.03	14298
852.165	14332
852.299	14415
852.434	14514
852.569	14419
852.703	14488
852.838	14507
852.973	14610
853.107	14473
853.242	14419
853.376	14309
853.511	14237
853.645	14176
853.78	14419
853.914	14161
854.048	14263
854.183	14263
854.317	14290
854.451	14450
854.585	14328
854.72	14351
854.854	14389
854.988	14229
855.122	14225
855.256	14153
855.39	14252
855.524	14259
855.658	14294
855.792	14362
855.926	14275
856.06	14240
856.194	14469
856.327	14309
856.461	14248
856.595	14233
856.729	14199
856.862	14355
856.996	14415
857.13	14339
857.263	14480
857.397	14385
857.53	14282
857.664	14305
857.797	14271
857.931	14423
858.064	14252
858.197	14419
858.331	14290
858.464	14240
858.597	14202
858.731	14237
858.864	14309
858.997	14282
859.13	14271
859.263	14381
859.396	14389
859.529	14275
859.662	14256
859.795	14206
859.928	14282
860.061	14355
860.194	14442
860.327	14358
860.46	14267
860.592	14351
860.725	14336
860.858	14332
860.99	14320
861.123	14161
861.256	14180
861.388	14271
861.521	14834
861.653	14199
861.786	14123
861.918	14153
862.05	14176
862.183	14210
862.315	14278
862.447	14366
862.58	14229
862.712	14065
862.844	13909
862.976	14145
863.108	14084
863.24	14457
863.372	14016
863.504	14107
863.636	14058
863.768	14069
863.9	14100
864.032	14005
864.164	13989
864.296	14092
864.428	14195
864.559	14199
864.691	14168
864.823	14130
864.954	14081
865.086	14123
865.217	14065
865.349	14012
865.48	14016
865.612	14012
865.743	14092
865.875	14157
866.006	14088
866.137	13974
866.269	14008
866.4	14073
866.531	14027
866.662	13993
866.793	13940
866.924	14084
867.055	14054
867.186	13993
867.317	13959
867.448	14035
867.579	14016
867.71	13955
867.841	14035
867.972	14069
868.103	13944
868.233	14058
868.364	14058
868.495	14123
868.625	14294
868.756	14404
868.886	14233
869.017	14237
869.147	14404
869.278	14351
869.408	14347
869.539	14328
869.669	14412
869.799	14396
869.929	14362
870.06	14347
870.19	14629
870.32	14575
870.45	14621
870.58	14727
870.71	14807
870.84	14773
870.97	14701
871.1	14678
871.23	14838
871.36	14967
871.489	14727
871.619	14765
871.749	14883
871.879	14963
872.008	14921
872.138	14925
872.267	14921
872.397	14807
872.526	14701
872.656	14758
872.785	14777
872.915	14872
873.044	14948
873.173	14891
873.303	14948
873.432	14982
873.561	15062
873.69	14998
873.819	14868
873.948	15051
874.077	14933
874.206	14876
874.335	14986
874.464	15055
874.593	15374
874.722	14998
874.851	15233
874.979	15291
875.108	15329
875.237	15321
875.365	15188
875.494	15260
875.623	15275
875.751	15230
875.88	15367
876.008	15401
876.136	15405
876.265	15724
876.393	15732
876.521	15762
876.65	15736
876.778	15701
876.906	15614
877.034	15523
877.162	15663
877.29	15652
877.418	15698
877.546	15713
877.674	15652
877.802	15637
877.93	15671
878.058	15515
878.185	15572
878.313	15633
878.441	15690
878.568	15523
878.696	15648
878.824	15717
878.951	15663
879.079	15854
879.206	15964
879.333	15850
879.461	15762
879.588	15804
879.715	15865
879.842	15968
879.97	15774
880.097	15515
880.224	15542
880.351	15553
880.478	15523
880.605	15545
880.732	15545
880.859	15713
880.986	15542
881.112	15580
881.239	15412
881.366	15374
881.493	15298
881.619	15256
881.746	15157
881.872	15146
881.999	15119
882.125	15192
882.252	15218
882.378	15256
882.505	15393
882.631	15207
882.757	14994
882.883	15013
883.01	15077
883.136	15009
883.262	14849
883.388	14880
883.514	14937
883.64	14963
883.766	14941
883.892	14845
884.018	14861
884.143	15062
884.269	15024
884.395	14731
884.52	14686
884.646	14701
884.772	14571
884.897	14602
885.023	14727
885.148	14720
885.274	14891
885.399	14857
885.524	14667
885.65	14746
885.775	14743
885.9	14754
886.025	14792
886.15	14777
886.275	14651
886.4	14598
886.525	14644
886.65	14549
886.775	14530
886.9	14891
887.025	14967
887.149	14640
887.274	14602
887.399	14415
887.523	14560
887.648	14415
887.773	14377
887.897	14659
888.021	14492
888.146	14568
888.27	14724
888.395	14701
888.519	14602
888.643	14621
888.767	14651
888.891	14419
889.015	14332
889.139	14370
889.263	14366
889.387	14476
889.511	14590
889.635	14465
889.759	14362
889.883	14476
890.006	14461
890.13	14454
890.254	14404
890.377	14328
890.501	14168
890.624	14153
890.748	14263
890.871	14050
890.995	14039
891.118	13921
891.241	14149
891.364	14153
891.488	14168
891.611	14084
891.734	14145
891.857	14077
891.98	14119
892.103	14119
892.226	14153
892.349	14058
892.471	14024
892.594	13986
892.717	14161
892.839	14145
892.962	14100
893.085	14172
893.207	14069
893.33	13921
893.452	14046
893.575	14218
893.697	14168
893.819	14275
893.941	14259
894.064	14328
894.186	14046
894.308	14008
894.43	14252
894.552	14336
894.674	14240
894.796	14020
894.918	14130
895.04	14161
895.161	14259
895.283	14180
895.405	14062
895.526	14180
895.648	14237
895.769	14259
895.891	14199
896.012	14317
896.134	14404
896.255	14161
896.376	14256
896.498	14206
896.619	14408
896.74	14259
896.861	14309
896.982	14545
897.103	14724
897.224	14552
897.345	14511
897.466	14450
897.587	14583
897.708	14712
897.828	14590
897.949	14537
898.07	14336
898.19	14530
898.311	14621
898.431	14644
898.552	14602
898.672	14731
898.792	14769
898.913	14648
899.033	14476
899.153	14457
899.273	14446
899.393	14537
899.513	14446
899.633	14442
899.753	14476
899.873	14545
899.993	14552
900.113	14503
900.232	14484
900.352	14438
900.472	14473
900.591	14366
900.711	14423
900.83	14328
900.95	14457
901.069	14412
901.189	14237
901.308	13974
901.427	13989
901.546	14119
901.665	14107
901.784	13902
901.904	13974
902.023	13780
902.141	13715
902.26	13597
902.379	13639
902.498	13563
902.617	13540
902.735	13620
902.854	13578
902.973	13590
903.091	13335
903.21	13255
903.328	13350
903.446	13354
903.565	13110
903.683	13171
903.801	12989
903.919	13110
904.038	13034
904.156	12981
904.274	13091
904.392	12943
904.51	12989
904.627	12954
904.745	12973
904.863	13004
904.981	12757
905.098	12635
905.216	12719
905.334	12700
905.451	12673
905.569	12635
905.686	12700
905.803	12650
905.921	12437
906.038	12578
906.155	12555
906.272	12395
906.389	12433
906.506	12308
906.623	12235
906.74	12121
906.857	12155
906.974	12163
907.091	12308
907.208	12399
907.324	12273
907.441	12121
907.557	11988
907.674	12030
907.79	11980
907.907	11958
908.023	12030
908.139	12015
908.256	11973
908.372	11908
908.488	11821
908.604	11798
908.72	11764
908.836	11767
908.952	11828
909.068	11794
909.184	11821
909.3	11764
909.415	11764
909.531	11790
909.647	11524
909.762	11558
909.878	11516
909.993	11551
910.108	11482
910.224	11493
910.339	11509
910.454	11414
910.57	11360
910.685	11322
910.8	11589
910.915	11520
911.03	11433
911.145	11204
911.259	11220
911.374	11197
911.489	11197
911.604	11083
911.718	10999
911.833	11045
911.947	10854
912.062	10824
912.176	10930
912.291	11006
912.405	11052
912.519	11189
912.633	11151
912.748	11006
912.862	10934
912.976	10824
913.09	10778
913.204	10816
913.318	10820
913.431	10915
913.545	10976
913.659	10908
913.772	10900
913.886	10755
914	10725
914.113	10782
914.226	10934
914.34	10801
914.453	10714
914.566	10790
914.68	10615
914.793	10607
914.906	10485
915.019	10417
915.132	10394
915.245	10504
915.358	10535
915.47	10523
915.583	10443
915.696	10500
915.809	10607
915.921	10615
916.034	10516
916.146	10379
916.259	10375
916.371	10584
916.483	10504
916.595	10394
916.708	10451
916.82	10424
916.932	10405
917.044	10386
917.156	10375
917.268	10333
917.38	10322
917.491	10261
917.603	10367
917.715	10344
917.826	10367
917.938	10291
918.049	10128
918.161	10295
918.272	10516
918.384	10436
918.495	10287
918.606	10131
918.717	10059
918.828	10295
918.939	10238
919.05	10124
919.161	10154
919.272	10002
919.383	9983
919.494	10287
919.604	10436
919.715	10192
919.826	10128
919.936	10181
920.047	10284
920.157	10242
920.267	10466
920.378	10284
920.488	10215
920.598	10386
920.708	10580
920.818	10318
920.928	10417
921.038	10561
921.148	10485
921.258	10272
921.368	10166
921.477	10063
921.587	10013
921.697	9918
921.806	10063
921.916	9979
922.025	9838
922.134	9740
922.244	9774
922.353	9747
922.462	9663
922.571	9663
922.68	9553
922.789	9481
922.898	9519
923.007	9435
923.116	9393
923.224	9488
923.333	9435
923.442	9294
923.55	9245
923.659	9370
923.767	9424
923.876	9298
923.984	9359
924.092	9241
924.201	9332
924.309	9355
924.417	9313
924.525	9313
924.633	9253
924.741	10188
924.849	9112
924.956	9218
925.064	9138
925.172	9047
925.279	9116
925.387	9077
925.494	9161
925.602	9241
925.709	9222
925.816	9058
925.924	9138
926.031	9279
926.138	9138
926.245	9138
926.352	9081
926.459	9199
926.566	9154
926.673	9100
926.779	8971
926.886	8982
926.993	8899
927.099	8857
927.206	8777
927.312	8807
927.419	8899
927.525	8800
927.631	8849
927.737	8785
927.843	8731
927.95	8587
928.056	8674
928.162	8766
928.267	8750
928.373	9405
928.479	8807
928.585	8560
928.69	8693
928.796	8781
928.901	8674
929.007	8465
929.112	8636
929.218	8644
929.323	8579
929.428	8518
929.533	8735
929.638	8492
929.743	8568
929.848	8541
929.953	8526
930.058	8469
930.163	8290
930.267	8362
930.372	8465
930.477	8317
930.581	8568
930.685	8446
930.79	8336
930.894	8385
930.998	8313
931.103	8480
931.207	8149
931.311	8046
931.415	8016
931.519	7750
931.623	7803
