Data from test_V78500241_3677.txt Node
Date: Fri Mar 25 14:59:19 CST 2022
User: usil
Spectrometer: V785-0024
Trigger mode: 0
Integration Time (sec): 4.000000E-1
Scans to average: 1
Nonlinearity correction enabled: false
Boxcar width: 0
Storing dark spectrum: false
XAxis mode: Wavelengths
Number of Pixels in Spectrum: 1024
>>>>>Begin Spectral Data<<<<<
801.071	21953
801.214	21797
801.356	21610
801.499	21526
801.641	21435
801.783	21245
801.926	21329
802.068	21184
802.211	21203
802.353	20986
802.496	20754
802.638	20762
802.78	20788
802.923	20663
803.065	20648
803.208	20606
803.35	20571
803.492	20750
803.635	20796
803.777	20670
803.919	20613
804.061	20960
804.204	20739
804.346	20469
804.488	20598
804.63	20568
804.773	20339
804.915	20454
805.057	20651
805.199	20484
805.341	20465
805.483	20632
805.626	20644
805.768	20419
805.91	20511
806.052	20522
806.194	20389
806.336	20602
806.478	20583
806.62	20473
806.762	20606
806.904	20625
807.046	20902
807.188	20857
807.33	20864
807.472	21001
807.614	20716
807.756	20720
807.898	20602
808.04	20602
808.182	20495
808.324	20609
808.465	20613
808.607	20697
808.749	20937
808.891	20929
809.033	21188
809.174	20864
809.316	20769
809.458	20849
809.6	20792
809.741	20849
809.883	21020
810.025	20998
810.166	21047
810.308	20986
810.45	21077
810.591	20895
810.733	20705
810.875	20629
811.016	20621
811.158	20552
811.299	20560
811.441	20792
811.582	20731
811.724	20689
811.865	20632
812.007	20659
812.148	20606
812.29	20682
812.431	20796
812.573	21024
812.714	20998
812.855	21203
812.997	21161
813.138	21351
813.279	21233
813.421	21146
813.562	21051
813.703	20785
813.845	20880
813.986	20396
814.127	20298
814.268	20256
814.41	20183
814.551	20111
814.692	20332
814.833	20157
814.974	20092
815.115	20263
815.256	19997
815.397	19989
815.539	20058
815.68	19894
815.821	19757
815.962	19921
816.103	19776
816.244	19917
816.385	19712
816.526	19495
816.666	19495
816.807	19324
816.948	19480
817.089	19346
817.23	19419
817.371	19247
817.512	19274
817.653	19217
817.793	19247
817.934	19388
818.075	19259
818.216	19324
818.356	19331
818.497	19187
818.638	18954
818.778	18932
818.919	19031
819.06	18970
819.2	19065
819.341	19076
819.481	19251
819.622	19236
819.762	19506
819.903	19495
820.043	19403
820.184	19213
820.324	19263
820.465	19396
820.605	19320
820.746	19145
820.886	19137
821.026	19156
821.167	19232
821.307	19297
821.447	19198
821.588	19110
821.728	18966
821.868	18875
822.008	18692
822.149	18783
822.289	18661
822.429	18483
822.569	18464
822.709	18376
822.849	18209
822.99	18205
823.13	18182
823.27	18167
823.41	17923
823.55	17923
823.69	18015
823.83	17999
823.97	17942
824.11	17771
824.25	17703
824.389	17733
824.529	17775
824.669	17828
824.809	17916
824.949	17874
825.089	17878
825.228	17722
825.368	17577
825.508	17592
825.648	17608
825.787	17554
825.927	17577
826.067	17573
826.206	17524
826.346	17577
826.485	17482
826.625	17562
826.765	17668
826.904	17528
827.044	17296
827.183	17395
827.323	17246
827.462	17303
827.601	17231
827.741	17246
827.88	17280
828.02	17220
828.159	17220
828.298	17330
828.437	17368
828.577	17200
828.716	17311
828.855	17204
828.994	16934
829.134	17006
829.273	17105
829.412	16976
829.551	16904
829.69	16911
829.829	17067
829.968	17064
830.107	17003
830.246	16972
830.385	16949
830.524	16953
830.663	16774
830.802	16767
830.941	16630
831.08	16618
831.219	16713
831.357	16580
831.496	16748
831.635	16698
831.774	16538
831.913	16508
832.051	16382
832.19	16337
832.329	16413
832.467	16284
832.606	16246
832.744	16268
832.883	16268
833.022	16341
833.16	16367
833.299	16291
833.437	16276
833.576	16348
833.714	16352
833.852	16413
833.991	16481
834.129	16436
834.267	16459
834.406	16371
834.544	16428
834.682	16493
834.821	16394
834.959	16516
835.097	16291
835.235	16367
835.373	16417
835.511	16424
835.65	16341
835.788	16211
835.926	16196
836.064	16169
836.202	16128
836.34	16230
836.478	16375
836.615	16268
836.753	16325
836.891	16291
837.029	16348
837.167	16352
837.305	16242
837.443	16158
837.58	16135
837.718	16363
837.856	16257
837.993	16131
838.131	16177
838.269	16093
838.406	16139
838.544	16074
838.681	15918
838.819	15724
838.956	15743
839.094	15751
839.231	15804
839.369	15949
839.506	16166
839.643	15956
839.781	15831
839.918	15717
840.055	15739
840.193	15622
840.33	15656
840.467	15732
840.604	15766
840.742	15953
840.879	15606
841.016	15682
841.153	15633
841.29	15816
841.427	15728
841.564	15785
841.701	15724
841.838	15747
841.975	15599
842.112	15671
842.249	15488
842.385	15526
842.522	15694
842.659	15542
842.796	15530
842.933	15511
843.069	15496
843.206	15492
843.343	15576
843.479	15511
843.616	15568
843.752	15272
843.889	15351
844.025	15504
844.162	15195
844.298	15405
844.435	15321
844.571	15294
844.708	15344
844.844	15412
844.98	15477
845.117	15481
845.253	15268
845.389	15226
845.525	15237
845.661	15135
845.798	15154
845.934	15108
846.07	15020
846.206	15146
846.342	15195
846.478	15097
846.614	14918
846.75	14876
846.886	14800
847.022	14937
847.158	14887
847.294	14842
847.429	14925
847.565	14876
847.701	15176
847.837	14670
847.972	14583
848.108	14686
848.244	14613
848.379	14552
848.515	14476
848.65	14454
848.786	14503
848.921	14465
849.057	14613
849.192	14564
849.328	14514
849.463	14415
849.598	14476
849.734	14332
849.869	14259
850.004	14343
850.14	14259
850.275	14317
850.41	14214
850.545	14172
850.68	14164
850.815	14294
850.95	14195
851.085	14351
851.22	14309
851.355	14290
851.49	14225
851.625	14271
851.76	14149
851.895	14229
852.03	14168
852.165	14180
852.299	14286
852.434	14332
852.569	14328
852.703	14202
852.838	14366
852.973	14415
853.107	14343
853.242	14191
853.376	14111
853.511	14008
853.645	14096
853.78	14259
853.914	14142
854.048	14096
854.183	14130
854.317	14065
854.451	14256
854.585	14050
854.72	14142
854.854	14248
854.988	14084
855.122	14092
855.256	13982
855.39	14123
855.524	14275
855.658	14187
855.792	14176
855.926	14195
856.06	14161
856.194	14237
856.327	14172
856.461	14062
856.595	14062
856.729	14138
856.862	14172
856.996	14157
857.13	14077
857.263	14221
857.397	14206
857.53	14088
857.664	14123
857.797	14218
857.931	14298
858.064	14142
858.197	14290
858.331	14096
858.464	14012
858.597	13959
858.731	14084
858.864	14126
858.997	14157
859.13	14092
859.263	14183
859.396	14233
859.529	14050
859.662	14107
859.795	14054
859.928	14210
860.061	14263
860.194	14237
860.327	14111
860.46	14161
860.592	14176
860.725	14252
860.858	14225
860.99	14062
861.123	13978
861.256	14054
861.388	14054
861.521	14773
861.653	13936
861.786	14027
861.918	14012
862.05	14058
862.183	14103
862.315	14031
862.447	14134
862.58	14046
862.712	13959
862.844	13879
862.976	13894
863.108	13917
863.24	14271
863.372	13769
863.504	13921
863.636	13860
863.768	14008
863.9	13871
864.032	13799
864.164	13974
864.296	13921
864.428	14005
864.559	13997
864.691	13928
864.823	13944
864.954	13875
865.086	14039
865.217	13868
865.349	13776
865.48	13940
865.612	13906
865.743	14062
865.875	13906
866.006	13780
866.137	13788
866.269	13887
866.4	13898
866.531	13894
866.662	13898
866.793	13898
866.924	13837
867.055	13871
867.186	13875
867.317	13879
867.448	13765
867.579	13856
867.71	13849
867.841	13837
867.972	13856
868.103	13951
868.233	13852
868.364	13856
868.495	14008
868.625	14081
868.756	14275
868.886	14062
869.017	14119
869.147	14256
869.278	14271
869.408	14123
869.539	14145
869.669	14305
869.799	14168
869.929	14282
870.06	14237
870.19	14522
870.32	14454
870.45	14358
870.58	14495
870.71	14587
870.84	14549
870.97	14488
871.1	14457
871.23	14785
871.36	14762
871.489	14640
871.619	14754
871.749	14746
871.879	14800
872.008	14902
872.138	14785
872.267	14773
872.397	14663
872.526	14697
872.656	14583
872.785	14564
872.915	14765
873.044	14792
873.173	14731
873.303	14815
873.432	14823
873.561	14857
873.69	14746
873.819	14792
873.948	14868
874.077	14861
874.206	14716
874.335	14781
874.464	14944
874.593	15097
874.722	15036
874.851	15142
874.979	15203
875.108	15104
875.237	15055
875.365	15020
875.494	15131
875.623	15131
875.751	15104
875.88	15188
876.008	15226
876.136	15275
876.265	15507
876.393	15709
876.521	15622
876.65	15614
876.778	15500
876.906	15492
877.034	15477
877.162	15599
877.29	15428
877.418	15614
877.546	15599
877.674	15526
877.802	15576
877.93	15538
878.058	15507
878.185	15504
878.313	15443
878.441	15485
878.568	15351
878.696	15519
878.824	15595
878.951	15504
879.079	15739
879.206	15781
879.333	15724
879.461	15610
879.588	15587
879.715	15610
879.842	15694
879.97	15671
880.097	15420
880.224	15397
880.351	15401
880.478	15424
880.605	15386
880.732	15466
880.859	15622
880.986	15424
881.112	15355
881.239	15218
881.366	15131
881.493	15100
881.619	14982
881.746	15131
881.872	15119
881.999	14914
882.125	14963
882.252	15028
882.378	15150
882.505	15127
882.631	15043
882.757	14918
882.883	14918
883.01	14899
883.136	14845
883.262	14716
883.388	14678
883.514	14963
883.64	14826
883.766	14777
883.892	14632
884.018	14705
884.143	14838
884.269	15039
884.395	14636
884.52	14583
884.646	14610
884.772	14457
884.897	14431
885.023	14640
885.148	14598
885.274	14792
885.399	14579
885.524	14560
885.65	14575
885.775	14511
885.9	14511
886.025	14720
886.15	14564
886.275	14465
886.4	14438
886.525	14473
886.65	14492
886.775	14465
886.9	14701
887.025	14716
887.149	14629
887.274	14415
887.399	14317
887.523	14446
887.648	14374
887.773	14343
887.897	14438
888.021	14465
888.146	14332
888.27	14438
888.395	14488
888.519	14492
888.643	14393
888.767	14488
888.891	14305
889.015	14256
889.139	14351
889.263	14157
889.387	14271
889.511	14579
889.635	14412
889.759	14282
889.883	14229
890.006	14278
890.13	14381
890.254	14259
890.377	14138
890.501	14107
890.624	14065
890.748	14130
890.871	14035
890.995	13940
891.118	13887
891.241	14035
891.364	13925
891.488	14119
891.611	14005
891.734	14016
891.857	14081
891.98	14027
892.103	13997
892.226	13963
892.349	13928
892.471	13852
892.594	13887
892.717	14050
892.839	14012
892.962	13879
893.085	14058
893.207	13944
893.33	13871
893.452	13887
893.575	14081
893.697	13921
893.819	14081
893.941	14183
894.064	14134
894.186	13925
894.308	13917
894.43	14092
894.552	14191
894.674	14111
894.796	13902
894.918	13978
895.04	14031
895.161	14111
895.283	13974
895.405	14043
895.526	14027
895.648	14130
895.769	14065
895.891	14107
896.012	14229
896.134	14210
896.255	14153
896.376	14115
896.498	14126
896.619	14180
896.74	14054
896.861	14153
896.982	14438
897.103	14678
897.224	14461
897.345	14362
897.466	14298
897.587	14412
897.708	14537
897.828	14480
897.949	14393
898.07	14263
898.19	14347
898.311	14579
898.431	14400
898.552	14469
898.672	14564
898.792	14594
898.913	14473
899.033	14446
899.153	14381
899.273	14313
899.393	14229
899.513	14328
899.633	14377
899.753	14343
899.873	14324
899.993	14446
900.113	14286
900.232	14423
900.352	14187
900.472	14252
900.591	14092
900.711	14248
900.83	14180
900.95	14267
901.069	14256
901.189	14218
901.308	13974
901.427	13860
901.546	13868
901.665	13944
901.784	13978
901.904	13765
902.023	13639
902.141	13537
902.26	13457
902.379	13453
902.498	13449
902.617	13514
902.735	13510
902.854	13434
902.973	13312
903.091	13217
903.21	13171
903.328	13129
903.446	13076
903.565	12928
903.683	13076
903.801	12935
903.919	13053
904.038	12935
904.156	12760
904.274	12859
904.392	12852
904.51	12802
904.627	12890
904.745	12962
904.863	12894
904.981	12726
905.098	12486
905.216	12532
905.334	12559
905.451	12506
905.569	12532
905.686	12677
905.803	12604
905.921	12422
906.038	12471
906.155	12399
906.272	12220
906.389	12258
906.506	12159
906.623	12136
906.74	12125
906.857	12015
906.974	12034
907.091	12171
907.208	12194
907.324	12167
907.441	12129
907.557	11946
907.674	11878
907.79	11779
907.907	11859
908.023	11863
908.139	11866
908.256	11916
908.372	11828
908.488	11752
908.604	11642
908.72	11600
908.836	11661
908.952	11657
909.068	11714
909.184	11752
909.3	11661
909.415	11688
909.531	11668
909.647	11505
909.762	11372
909.878	11353
909.993	11474
910.108	11395
910.224	11368
910.339	11414
910.454	11349
910.57	11326
910.685	11223
910.8	11516
910.915	11490
911.03	11299
911.145	11132
911.259	11090
911.374	11102
911.489	11083
911.604	11003
911.718	10968
911.833	10858
911.947	10786
912.062	10698
912.176	10820
912.291	10866
912.405	10892
912.519	11094
912.633	11083
912.748	10968
912.862	10854
912.976	10767
913.09	10634
913.204	10763
913.318	10801
913.431	10873
913.545	10824
913.659	10850
913.772	10774
913.886	10630
914	10626
914.113	10694
914.226	10816
914.34	10710
914.453	10485
914.566	10694
914.68	10596
914.793	10626
914.906	10424
915.019	10333
915.132	10337
915.245	10375
915.358	10390
915.47	10466
915.583	10424
915.696	10466
915.809	10573
915.921	10519
916.034	10356
916.146	10303
916.259	10360
916.371	10405
916.483	10371
916.595	10257
916.708	10246
916.82	10310
916.932	10329
917.044	10352
917.156	10287
917.268	10139
917.38	10185
917.491	10257
917.603	10337
917.715	10234
917.826	10360
917.938	10257
918.049	10177
918.161	10238
918.272	10329
918.384	10394
918.495	10253
918.606	10101
918.717	10051
918.828	10143
918.939	10158
919.05	10112
919.161	10048
919.272	9895
919.383	10006
919.494	10169
919.604	10322
919.715	10090
919.826	9953
919.936	10097
920.047	10169
920.157	10055
920.267	10287
920.378	10188
920.488	10124
920.598	10306
920.708	10596
920.818	10329
920.928	10322
921.038	10527
921.148	10493
921.258	10120
921.368	10097
921.477	9975
921.587	9930
921.697	9808
921.806	9949
921.916	9880
922.025	9736
922.134	9648
922.244	9591
922.353	9747
922.462	9557
922.571	9534
922.68	9378
922.789	9348
922.898	9340
923.007	9294
923.116	9408
923.224	9439
923.333	9374
923.442	9264
923.55	9233
923.659	9253
923.767	9355
923.876	9249
923.984	9336
924.092	9150
924.201	9211
924.309	9180
924.417	9272
924.525	9161
924.633	9256
924.741	9918
924.849	9066
924.956	9138
925.064	9032
925.172	8971
925.279	9013
925.387	9051
925.494	9142
925.602	9081
925.709	9081
925.816	8982
925.924	9119
926.031	9173
926.138	8960
926.245	9032
926.352	8960
926.459	9161
926.566	9176
926.673	9001
926.779	8902
926.886	8891
926.993	8800
927.099	8785
927.206	8697
927.312	8724
927.419	8823
927.525	8701
927.631	8849
927.737	8697
927.843	8640
927.95	8571
928.056	8590
928.162	8640
928.267	8667
928.373	9169
928.479	8777
928.585	8465
928.69	8610
928.796	8636
928.901	8575
929.007	8488
929.112	8549
929.218	8537
929.323	8469
929.428	8499
929.533	8621
929.638	8423
929.743	8465
929.848	8469
929.953	8419
930.058	8343
930.163	8256
930.267	8256
930.372	8450
930.477	8187
930.581	8450
930.685	8294
930.79	8134
930.894	8267
930.998	8240
931.103	8377
931.207	8005
931.311	7940
931.415	7902
931.519	7696
931.623	7681
