Data from test_V78500241_161.txt Node
Date: Fri Mar 25 14:34:50 CST 2022
User: usil
Spectrometer: V785-0024
Trigger mode: 0
Integration Time (sec): 4.000000E-1
Scans to average: 1
Nonlinearity correction enabled: false
Boxcar width: 0
Storing dark spectrum: false
XAxis mode: Wavelengths
Number of Pixels in Spectrum: 1024
>>>>>Begin Spectral Data<<<<<
801.071	29341
801.214	29124
801.356	28957
801.499	28866
801.641	28862
801.783	28694
801.926	28660
802.068	28577
802.211	28557
802.353	28436
802.496	28386
802.638	28379
802.78	28253
802.923	28177
803.065	28105
803.208	28238
803.35	28295
803.492	28265
803.635	28493
803.777	28500
803.919	28535
804.061	28710
804.204	28424
804.346	28234
804.488	28242
804.63	28124
804.773	28230
804.915	28428
805.057	28656
805.199	28421
805.341	28421
805.483	28675
805.626	28569
805.768	28409
805.91	28611
806.052	28542
806.194	28485
806.336	28812
806.478	28649
806.62	28634
806.762	28828
806.904	29071
807.046	29364
807.188	29296
807.33	29379
807.472	29649
807.614	29687
807.756	29889
807.898	29927
808.04	30346
808.182	30681
808.324	31236
808.465	31742
808.607	32693
808.749	33260
808.891	33728
809.033	33743
809.174	33192
809.316	32549
809.458	31947
809.6	31183
809.741	30734
809.883	30551
810.025	30319
810.166	30106
810.308	29855
810.45	29680
810.591	29589
810.733	29356
810.875	29261
811.016	29029
811.158	28934
811.299	29071
811.441	29079
811.582	29003
811.724	28816
811.865	28847
812.007	28946
812.148	28793
812.29	28885
812.431	28968
812.573	29212
812.714	29220
812.855	29330
812.997	29406
813.138	29657
813.279	29383
813.421	29273
813.562	29284
813.703	29041
813.845	28938
813.986	28565
814.127	28500
814.268	28535
814.41	28398
814.551	28344
814.692	28386
814.833	28287
814.974	28337
815.115	28249
815.256	28310
815.397	28230
815.539	28093
815.68	27945
815.821	27975
815.962	28055
816.103	27956
816.244	27701
816.385	27644
816.526	27755
816.666	27599
816.807	27549
816.948	27485
817.089	27469
817.23	27424
817.371	27412
817.512	27336
817.653	27249
817.793	27355
817.934	27279
818.075	27374
818.216	27256
818.356	27268
818.497	27131
818.638	26975
818.778	26986
818.919	27013
819.06	27146
819.2	27192
819.341	27268
819.481	27256
819.622	27443
819.762	27583
819.903	27496
820.043	27431
820.184	27241
820.324	27245
820.465	27458
820.605	27310
820.746	27188
820.886	27017
821.026	27192
821.167	27176
821.307	27302
821.447	27214
821.588	27020
821.728	26929
821.868	26674
822.008	26522
822.149	26598
822.289	26651
822.429	26259
822.569	26256
822.709	26248
822.849	26122
822.99	26058
823.13	26187
823.27	25978
823.41	25791
823.55	25674
823.69	25940
823.83	25871
823.97	25894
824.11	25605
824.25	25643
824.389	25620
824.529	25807
824.669	25533
824.809	25731
824.949	25639
825.089	25628
825.228	25723
825.368	25430
825.508	25419
825.648	25426
825.787	25495
825.927	25358
826.067	25422
826.206	25502
826.346	25369
826.485	25259
826.625	25274
826.765	25476
826.904	25369
827.044	25179
827.183	25076
827.323	25088
827.462	25175
827.601	25145
827.741	25027
827.88	25126
828.02	24958
828.159	25088
828.298	25027
828.437	25076
828.577	24943
828.716	25202
828.855	25053
828.994	24863
829.134	24639
829.273	24623
829.412	24779
829.551	24711
829.69	24757
829.829	24692
829.968	24722
830.107	24882
830.246	24783
830.385	24574
830.524	24650
830.663	24494
830.802	24452
830.941	24327
831.08	24258
831.219	24273
831.357	24452
831.496	24422
831.635	24266
831.774	24251
831.913	24083
832.051	24098
832.19	24087
832.329	24068
832.467	23965
832.606	23961
832.744	23992
832.883	24030
833.022	23901
833.16	23908
833.299	23927
833.437	23999
833.576	24087
833.714	24129
833.852	24136
833.991	24213
834.129	24155
834.267	24254
834.406	24163
834.544	24247
834.682	24155
834.821	24110
834.959	24239
835.097	23908
835.235	24057
835.373	23946
835.511	23946
835.65	23809
835.788	23988
835.926	23680
836.064	23566
836.202	23627
836.34	23802
836.478	23809
836.615	23760
836.753	23619
836.891	23752
837.029	23726
837.167	23703
837.305	23501
837.443	23558
837.58	23676
837.718	23467
837.856	23539
837.993	23349
838.131	23516
838.269	23459
838.406	23429
838.544	23341
838.681	23136
838.819	23185
838.956	23037
839.094	22889
839.231	23010
839.369	23117
839.506	23311
839.643	23136
839.781	22797
839.918	22805
840.055	22862
840.193	22805
840.33	22755
840.467	22771
840.604	22877
840.742	23094
840.879	22664
841.016	22771
841.153	22660
841.29	22873
841.427	22793
841.564	22915
841.701	22755
841.838	22725
841.975	22706
842.112	22603
842.249	22565
842.385	22675
842.522	22683
842.659	22618
842.796	22470
842.933	22478
843.069	22443
843.206	22440
843.343	22481
843.479	22546
843.616	22523
843.752	22337
843.889	22318
844.025	22455
844.162	22310
844.298	22421
844.435	22432
844.571	22329
844.708	22500
844.844	22660
844.98	22763
845.117	22930
845.253	22938
845.389	23162
845.525	23760
845.661	24863
845.798	26237
845.934	27431
846.07	27854
846.206	27644
846.342	26895
846.478	25350
846.614	24045
846.75	23090
846.886	22573
847.022	22402
847.158	22371
847.294	22051
847.429	21972
847.565	21800
847.701	21983
847.837	21447
847.972	21610
848.108	21545
848.244	21488
848.379	21378
848.515	21370
848.65	21218
848.786	21264
848.921	21306
849.057	21249
849.192	21344
849.328	21252
849.463	21260
849.598	21093
849.734	21173
849.869	21150
850.004	21096
850.14	20899
850.275	21024
850.41	20990
850.545	20853
850.68	20967
850.815	20902
850.95	20994
851.085	21036
851.22	21013
851.355	21017
851.49	20849
851.625	20979
851.76	20952
851.895	20746
852.03	20804
852.165	20960
852.299	20887
852.434	21093
852.569	20979
852.703	20895
852.838	21005
852.973	21058
853.107	21066
853.242	20914
853.376	20796
853.511	20644
853.645	20788
853.78	20990
853.914	20788
854.048	20834
854.183	20769
854.317	20845
854.451	21062
854.585	20849
854.72	20819
854.854	20895
854.988	20762
855.122	20705
855.256	20579
855.39	20807
855.524	20853
855.658	20769
855.792	20743
855.926	20788
856.06	20880
856.194	20929
856.327	20716
856.461	20693
856.595	20686
856.729	20743
856.862	20792
856.996	20689
857.13	20781
857.263	20807
857.397	20815
857.53	20754
857.664	20773
857.797	20834
857.931	20811
858.064	20708
858.197	20921
858.331	20674
858.464	20629
858.597	20594
858.731	20541
858.864	20617
858.997	20556
859.13	20670
859.263	20644
859.396	20765
859.529	20598
859.662	20545
859.795	20503
859.928	20659
860.061	20765
860.194	20758
860.327	20678
860.46	20606
860.592	20701
860.725	20792
860.858	20845
860.99	20731
861.123	20495
861.256	20533
861.388	20621
861.521	21321
861.653	20454
861.786	20480
861.918	20415
862.05	20644
862.183	20689
862.315	20651
862.447	20708
862.58	20678
862.712	20419
862.844	20324
862.976	20537
863.108	20412
863.24	20663
863.372	20294
863.504	20206
863.636	20408
863.768	20393
863.9	20438
864.032	20210
864.164	20237
864.296	20336
864.428	20415
864.559	20404
864.691	20476
864.823	20339
864.954	20301
865.086	20385
865.217	20149
865.349	20206
865.48	20237
865.612	20233
865.743	20427
865.875	20278
866.006	20237
866.137	20195
866.269	20138
866.4	20339
866.531	20145
866.662	20168
866.793	20183
866.924	20168
867.055	20176
867.186	20271
867.317	20180
867.448	20081
867.579	20081
867.71	20024
867.841	20024
867.972	20252
868.103	20142
868.233	20256
868.364	20240
868.495	20305
868.625	20374
868.756	20537
868.886	20278
869.017	20446
869.147	20465
869.278	20473
869.408	20374
869.539	20438
869.669	20370
869.799	20400
869.929	20457
870.06	20495
870.19	20674
870.32	20651
870.45	20651
870.58	20788
870.71	20906
870.84	20842
870.97	20708
871.1	20746
871.23	20960
871.36	20876
871.489	20887
871.619	20952
871.749	20975
871.879	21024
872.008	21024
872.138	21001
872.267	21058
872.397	20819
872.526	20807
872.656	20887
872.785	20765
872.915	21218
873.044	21192
873.173	21100
873.303	21036
873.432	21119
873.561	21081
873.69	21058
873.819	21112
873.948	21100
874.077	21119
874.206	21070
874.335	21013
874.464	21237
874.593	21272
874.722	21370
874.851	21378
874.979	21355
875.108	21431
875.237	21416
875.365	21241
875.494	21340
875.623	21488
875.751	21329
875.88	21370
876.008	21515
876.136	21599
876.265	21804
876.393	21941
876.521	22021
876.65	21953
876.778	22021
876.906	21876
877.034	21823
877.162	21956
877.29	21861
877.418	21987
877.546	22029
877.674	22032
877.802	22048
877.93	21987
878.058	21922
878.185	22021
878.313	22226
878.441	22211
878.568	22059
878.696	22402
878.824	22615
878.951	22835
879.079	23212
879.206	23748
879.333	24098
879.461	24311
879.588	24658
879.715	24681
879.842	24574
879.97	24133
880.097	23436
880.224	22930
880.351	22816
880.478	22626
880.605	22630
880.732	22440
880.859	22535
880.986	22356
881.112	22299
881.239	22188
881.366	22090
881.493	21975
881.619	21884
881.746	21903
881.872	21895
881.999	21865
882.125	21857
882.252	21991
882.378	21846
882.505	22067
882.631	21869
882.757	21675
882.883	21899
883.01	21751
883.136	21625
883.262	21591
883.388	21549
883.514	21720
883.64	21671
883.766	21663
883.892	21477
884.018	21466
884.143	21587
884.269	21705
884.395	21321
884.52	21351
884.646	21310
884.772	21370
884.897	21214
885.023	21424
885.148	21374
885.274	21492
885.399	21355
885.524	21207
885.65	21211
885.775	21218
885.9	21283
886.025	21237
886.15	21138
886.275	20963
886.4	20956
886.525	20963
886.65	21032
886.775	20849
886.9	21020
887.025	21233
887.149	21039
887.274	20743
887.399	20697
887.523	20765
887.648	20579
887.773	20613
887.897	20769
888.021	20697
888.146	20560
888.27	20609
888.395	20609
888.519	20541
888.643	20552
888.767	20609
888.891	20476
889.015	20301
889.139	20400
889.263	20271
889.387	20381
889.511	20442
889.635	20499
889.759	20202
889.883	20210
890.006	20225
890.13	20320
890.254	20081
890.377	20161
890.501	19997
890.624	19970
890.748	20043
890.871	19898
890.995	19769
891.118	19799
891.241	19845
891.364	19807
891.488	19894
891.611	19890
891.734	19822
891.857	19784
891.98	19677
892.103	19826
892.226	19830
892.349	19651
892.471	19533
892.594	19616
892.717	19700
892.839	19597
892.962	19609
893.085	19689
893.207	19689
893.33	19567
893.452	19518
893.575	19616
893.697	19559
893.819	19761
893.941	19795
894.064	19715
894.186	19567
894.308	19472
894.43	19689
894.552	19769
894.674	19582
894.796	19472
894.918	19510
895.04	19464
895.161	19632
895.283	19681
895.405	19407
895.526	19537
895.648	19502
895.769	19605
895.891	19594
896.012	19616
896.134	19708
896.255	19643
896.376	19616
896.498	19537
896.619	19643
896.74	19559
896.861	19628
896.982	19974
897.103	20126
897.224	19928
897.345	19788
897.466	19772
897.587	19647
897.708	19803
897.828	19803
897.949	19708
898.07	19597
898.19	19784
898.311	19894
898.431	19700
898.552	19761
898.672	19856
898.792	19734
898.913	19658
899.033	19658
899.153	19643
899.273	19559
899.393	19487
899.513	19609
899.633	19468
899.753	19594
899.873	19510
899.993	19453
900.113	19487
900.232	19453
900.352	19499
900.472	19244
900.591	19236
900.711	19285
900.83	19350
900.95	19377
901.069	19438
901.189	19126
901.308	19065
901.427	18894
901.546	18875
901.665	18996
901.784	18859
901.904	18764
902.023	18738
902.141	18429
902.26	18528
902.379	18528
902.498	18506
902.617	18384
902.735	18467
902.854	18266
902.973	18338
903.091	17992
903.21	18087
903.328	18026
903.446	17904
903.565	17726
903.683	17821
903.801	17802
903.919	17779
904.038	17832
904.156	17695
904.274	17649
904.392	17566
904.51	17585
904.627	17551
904.745	17672
904.863	17600
904.981	17311
905.098	17204
905.216	17242
905.334	17212
905.451	17105
905.569	17235
905.686	17250
905.803	17204
905.921	16934
906.038	17117
906.155	16961
906.272	16866
906.389	16938
906.506	16656
906.623	16721
906.74	16691
906.857	16679
906.974	16622
907.091	16774
907.208	16873
907.324	16816
907.441	16622
907.557	16421
907.674	16523
907.79	16299
907.907	16337
908.023	16333
908.139	16447
908.256	16333
908.372	16280
908.488	16299
908.604	16143
908.72	15953
908.836	16090
908.952	16135
909.068	16048
909.184	16192
909.3	16128
909.415	16071
909.531	16074
909.647	15766
909.762	15869
909.878	15774
909.993	15667
910.108	15778
910.224	15698
910.339	15743
910.454	15694
910.57	15595
910.685	15496
910.8	15667
910.915	15778
911.03	15584
911.145	15496
911.259	15367
911.374	15321
911.489	15359
911.604	15199
911.718	15135
911.833	15207
911.947	15036
912.062	14944
912.176	15127
912.291	15157
912.405	15085
912.519	15272
912.633	15195
912.748	15100
912.862	15066
912.976	14944
913.09	14807
913.204	14773
913.318	14971
913.431	15024
913.545	14910
913.659	15100
913.772	14918
913.886	14769
914	14724
914.113	14807
914.226	14956
914.34	14807
914.453	14629
914.566	14697
914.68	14651
914.793	14594
914.906	14507
915.019	14431
915.132	14305
915.245	14415
915.358	14381
915.47	14366
915.583	14358
915.696	14431
915.809	14454
915.921	14442
916.034	14320
916.146	14267
916.259	14351
916.371	14351
916.483	14278
916.595	14240
916.708	14332
916.82	14221
916.932	14191
917.044	14237
917.156	14161
917.268	14043
917.38	14103
917.491	13993
917.603	14046
917.715	14126
917.826	14130
917.938	14043
918.049	13875
918.161	13944
918.272	14119
918.384	14107
918.495	13925
918.606	13925
918.717	13788
918.828	13769
918.939	13852
919.05	13605
919.161	13784
919.272	13582
919.383	13639
919.494	13712
919.604	13940
919.715	13746
919.826	13761
919.936	13719
920.047	13807
920.157	13772
920.267	13921
920.378	13841
920.488	13674
920.598	13898
920.708	14081
920.818	13879
920.928	13978
921.038	13955
921.148	13993
921.258	13662
921.368	13723
921.477	13403
921.587	13472
921.697	13392
921.806	13540
921.916	13324
922.025	13217
922.134	13110
922.244	13076
922.353	13183
922.462	13031
922.571	12859
922.68	12886
922.789	12738
922.898	12749
923.007	12722
923.116	12806
923.224	12753
923.333	12779
923.442	12604
923.55	12684
923.659	12642
923.767	12688
923.876	12467
923.984	12582
924.092	12532
924.201	12540
924.309	12502
924.417	12517
924.525	12475
924.633	12448
924.741	13453
924.849	12205
924.956	12369
925.064	12308
925.172	12258
925.279	12251
925.387	12251
925.494	12239
925.602	12304
925.709	12296
925.816	12152
925.924	12254
926.031	12228
926.138	12201
926.245	12228
926.352	12178
926.459	12209
926.566	12281
926.673	12072
926.779	12011
926.886	11996
926.993	11832
927.099	11840
927.206	11790
927.312	11745
927.419	11870
927.525	11794
927.631	11893
927.737	11767
927.843	11672
927.95	11585
928.056	11657
928.162	11707
928.267	11707
928.373	12243
928.479	11809
928.585	11509
928.69	11570
928.796	11634
928.901	11657
929.007	11318
929.112	11505
929.218	11436
929.323	11341
929.428	11334
929.533	11539
929.638	11296
929.743	11395
929.848	11387
929.953	11299
930.058	11307
930.163	11022
930.267	11147
930.372	11181
930.477	11052
930.581	11273
930.685	11124
930.79	11010
930.894	10999
930.998	10885
931.103	11056
931.207	10763
931.311	10664
931.415	10615
931.519	10367
931.623	10371
