Data from test_V78500241_974.txt Node
Date: Fri Mar 25 14:40:30 CST 2022
User: usil
Spectrometer: V785-0024
Trigger mode: 0
Integration Time (sec): 4.000000E-1
Scans to average: 1
Nonlinearity correction enabled: false
Boxcar width: 0
Storing dark spectrum: false
XAxis mode: Wavelengths
Number of Pixels in Spectrum: 1024
>>>>>Begin Spectral Data<<<<<
801.071	23448
801.214	23280
801.356	23067
801.499	22987
801.641	22774
801.783	22748
801.926	22691
802.068	22641
802.211	22508
802.353	22417
802.496	22169
802.638	22204
802.78	22093
802.923	22101
803.065	22051
803.208	21941
803.35	22029
803.492	22090
803.635	22268
803.777	22082
803.919	22257
804.061	22394
804.204	22166
804.346	21998
804.488	21994
804.63	21998
804.773	21888
804.915	22025
805.057	22185
805.199	21979
805.341	22097
805.483	22173
805.626	22086
805.768	22002
805.91	22010
806.052	22166
806.194	21854
806.336	22253
806.478	22013
806.62	22070
806.762	22169
806.904	22436
807.046	22645
807.188	22561
807.33	22538
807.472	22664
807.614	22672
807.756	22641
807.898	22660
808.04	22630
808.182	22938
808.324	23113
808.465	23280
808.607	23547
808.749	23855
808.891	24076
809.033	24186
809.174	24011
809.316	23836
809.458	23322
809.6	23235
809.741	23193
809.883	22961
810.025	22999
810.166	22896
810.308	22850
810.45	22611
810.591	22691
810.733	22569
810.875	22367
811.016	22272
811.158	22413
811.299	22398
811.441	22447
811.582	22504
811.724	22284
811.865	22211
812.007	22166
812.148	22303
812.29	22230
812.431	22523
812.573	22580
812.714	22557
812.855	22805
812.997	22839
813.138	22927
813.279	22843
813.421	22862
813.562	22649
813.703	22481
813.845	22470
813.986	22040
814.127	21865
814.268	21812
814.41	21907
814.551	21812
814.692	21797
814.833	21835
814.974	21755
815.115	21747
815.256	21545
815.397	21561
815.539	21648
815.68	21485
815.821	21397
815.962	21515
816.103	21355
816.244	21348
816.385	21142
816.526	21157
816.666	21051
816.807	20864
816.948	21013
817.089	21192
817.23	20921
817.371	20899
817.512	20933
817.653	20906
817.793	20895
817.934	20929
818.075	20971
818.216	20838
818.356	20864
818.497	20716
818.638	20556
818.778	20495
818.919	20560
819.06	20640
819.2	20632
819.341	20689
819.481	20819
819.622	20918
819.762	21081
819.903	21036
820.043	21066
820.184	20967
820.324	20823
820.465	20880
820.605	20887
820.746	20842
820.886	20659
821.026	20777
821.167	20792
821.307	20868
821.447	20834
821.588	20609
821.728	20708
821.868	20427
822.008	20206
822.149	20206
822.289	20119
822.429	19959
822.569	19852
822.709	20012
822.849	19772
822.99	19719
823.13	19700
823.27	19750
823.41	19609
823.55	19362
823.69	19468
823.83	19609
823.97	19472
824.11	19297
824.25	19259
824.389	19327
824.529	19396
824.669	19278
824.809	19365
824.949	19335
825.089	19426
825.228	19392
825.368	19137
825.508	19103
825.648	19065
825.787	19171
825.927	19046
826.067	19110
826.206	19084
826.346	19099
826.485	19152
826.625	19099
826.765	19133
826.904	19088
827.044	18837
827.183	18875
827.323	18719
827.462	18798
827.601	18684
827.741	18802
827.88	18798
828.02	18570
828.159	18821
828.298	18677
828.437	18791
828.577	18753
828.716	18795
828.855	18635
828.994	18544
829.134	18517
829.273	18639
829.412	18467
829.551	18574
829.69	18593
829.829	18540
829.968	18528
830.107	18555
830.246	18517
830.385	18338
830.524	18433
830.663	18380
830.802	18247
830.941	18171
831.08	18038
831.219	18213
831.357	18228
831.496	18330
831.635	18053
831.774	17999
831.913	18038
832.051	18034
832.19	17954
832.329	17980
832.467	17824
832.606	17771
832.744	17821
832.883	17847
833.022	17821
833.16	17802
833.299	18038
833.437	17764
833.576	17969
833.714	17908
833.852	17946
833.991	17901
834.129	17973
834.267	18087
834.406	17931
834.544	17996
834.682	17847
834.821	17790
834.959	18076
835.097	17824
835.235	18011
835.373	17939
835.511	17878
835.65	17699
835.788	17710
835.926	17509
836.064	17516
836.202	17535
836.34	17703
836.478	17726
836.615	17710
836.753	17676
836.891	17889
837.029	17813
837.167	17661
837.305	17703
837.443	17634
837.58	17539
837.718	17691
837.856	17604
837.993	17467
838.131	17668
838.269	17539
838.406	17566
838.544	17482
838.681	17239
838.819	17170
838.956	17136
839.094	17014
839.231	17166
839.369	17254
839.506	17524
839.643	17406
839.781	17124
839.918	17124
840.055	17143
840.193	17064
840.33	17090
840.467	16984
840.604	17143
840.742	17360
840.879	16896
841.016	16965
841.153	16995
841.29	17121
841.427	17083
841.564	17010
841.701	17140
841.838	17071
841.975	16934
842.112	16961
842.249	16820
842.385	16725
842.522	17098
842.659	16862
842.796	16797
842.933	16778
843.069	16877
843.206	16786
843.343	16995
843.479	16835
843.616	16965
843.752	16622
843.889	16713
844.025	16843
844.162	16611
844.298	16755
844.435	16748
844.571	16675
844.708	16656
844.844	16915
844.98	16980
845.117	16938
845.253	16721
845.389	16919
845.525	17124
845.661	17459
845.798	17843
845.934	18384
846.07	18403
846.206	18536
846.342	18213
846.478	17672
846.614	17033
846.75	16653
846.886	16519
847.022	16421
847.158	16280
847.294	16356
847.429	16257
847.565	16090
847.701	16500
847.837	15975
847.972	15838
848.108	16055
848.244	15934
848.379	15998
848.515	15747
848.65	15751
848.786	15728
848.921	15888
849.057	15850
849.192	15880
849.328	15808
849.463	15743
849.598	15800
849.734	15781
849.869	15774
850.004	15553
850.14	15587
850.275	15603
850.41	15507
850.545	15450
850.68	15454
850.815	15428
850.95	15511
851.085	15694
851.22	15591
851.355	15534
851.49	15507
851.625	15667
851.76	15450
851.895	15408
852.03	15401
852.165	15485
852.299	15553
852.434	15587
852.569	15618
852.703	15500
852.838	15530
852.973	15641
853.107	15732
853.242	15416
853.376	15454
853.511	15298
853.645	15424
853.78	15534
853.914	15454
854.048	15336
854.183	15466
854.317	15477
854.451	15564
854.585	15351
854.72	15424
854.854	15458
854.988	15275
855.122	15408
855.256	15256
855.39	15348
855.524	15439
855.658	15507
855.792	15412
855.926	15382
856.06	15473
856.194	15469
856.327	15466
856.461	15321
856.595	15401
856.729	15321
856.862	15443
856.996	15473
857.13	15477
857.263	15530
857.397	15469
857.53	15431
857.664	15439
857.797	15462
857.931	15580
858.064	15348
858.197	15496
858.331	15416
858.464	15317
858.597	15298
858.731	15363
858.864	15401
858.997	15302
859.13	15332
859.263	15428
859.396	15412
859.529	15382
859.662	15237
859.795	15294
859.928	15424
860.061	15492
860.194	15523
860.327	15473
860.46	15370
860.592	15447
860.725	15397
860.858	15454
860.99	15401
861.123	15431
861.256	15329
861.388	15405
861.521	15953
861.653	15226
861.786	15161
861.918	15199
862.05	15329
862.183	15321
862.315	15389
862.447	15389
862.58	15199
862.712	15165
862.844	15100
862.976	15275
863.108	15108
863.24	15580
863.372	15127
863.504	15108
863.636	15070
863.768	15081
863.9	15089
864.032	15119
864.164	15093
864.296	15169
864.428	15199
864.559	15214
864.691	15226
864.823	15211
864.954	15154
865.086	15108
865.217	15089
865.349	15032
865.48	15116
865.612	15188
865.743	15275
865.875	15157
866.006	15058
866.137	15104
866.269	15081
866.4	15032
866.531	15074
866.662	15009
866.793	15116
866.924	15024
867.055	15142
867.186	15119
867.317	15039
867.448	14941
867.579	15138
867.71	14990
867.841	15085
867.972	15138
868.103	15131
868.233	14967
868.364	15009
868.495	15119
868.625	15329
868.756	15378
868.886	15313
869.017	15287
869.147	15431
869.278	15435
869.408	15336
869.539	15313
869.669	15374
869.799	15420
869.929	15530
870.06	15367
870.19	15705
870.32	15660
870.45	15660
870.58	15644
870.71	15762
870.84	15854
870.97	15713
871.1	15724
871.23	15869
871.36	15895
871.489	15812
871.619	15941
871.749	15922
871.879	15876
872.008	16055
872.138	15800
872.267	15987
872.397	15823
872.526	15800
872.656	15633
872.785	15724
872.915	15991
873.044	16055
873.173	15968
873.303	16017
873.432	16025
873.561	16044
873.69	16010
873.819	16071
873.948	16131
874.077	15987
874.206	16010
874.335	15994
874.464	16124
874.593	16291
874.722	16169
874.851	16322
874.979	16348
875.108	16299
875.237	16337
875.365	16185
875.494	16284
875.623	16386
875.751	16386
875.88	16409
876.008	16516
876.136	16584
876.265	16786
876.393	16968
876.521	16733
876.65	16995
876.778	16828
876.906	16733
877.034	16771
877.162	16805
877.29	16653
877.418	16618
877.546	16805
877.674	16892
877.802	16793
877.93	16759
878.058	16771
878.185	16618
878.313	16778
878.441	16911
878.568	16790
878.696	16896
878.824	16984
878.951	17155
879.079	17303
879.206	17684
879.333	17665
879.461	17695
879.588	17714
879.715	17927
879.842	17893
879.97	17524
880.097	17299
880.224	17079
880.351	16980
880.478	17014
880.605	16812
880.732	16809
880.859	17098
880.986	16881
881.112	16908
881.239	16759
881.366	16637
881.493	16527
881.619	16360
881.746	16421
881.872	16432
881.999	16386
882.125	16333
882.252	16535
882.378	16508
882.505	16577
882.631	16432
882.757	16386
882.883	16417
883.01	16337
883.136	16291
883.262	16169
883.388	16166
883.514	16287
883.64	16386
883.766	16261
883.892	16017
884.018	16131
884.143	16261
884.269	16394
884.395	16013
884.52	15930
884.646	16032
884.772	15922
884.897	15880
885.023	15850
885.148	16082
885.274	16093
885.399	16021
885.524	15956
885.65	15953
885.775	16051
885.9	16002
886.025	15930
886.15	16013
886.275	15873
886.4	15819
886.525	15922
886.65	15911
886.775	15838
886.9	16013
887.025	16090
887.149	15869
887.274	15736
887.399	15641
887.523	15641
887.648	15549
887.773	15587
887.897	15804
888.021	15679
888.146	15637
888.27	15713
888.395	15835
888.519	15671
888.643	15614
888.767	15599
888.891	15515
889.015	15469
889.139	15496
889.263	15408
889.387	15526
889.511	15686
889.635	15629
889.759	15450
889.883	15435
890.006	15534
890.13	15557
890.254	15431
890.377	15340
890.501	15294
890.624	15180
890.748	15233
890.871	15123
890.995	15146
891.118	14963
891.241	15051
891.364	15077
891.488	15214
891.611	15089
891.734	15077
891.857	15214
891.98	15070
892.103	15184
892.226	15100
892.349	15116
892.471	14990
892.594	15108
892.717	15074
892.839	15005
892.962	14990
893.085	15127
893.207	15039
893.33	15005
893.452	15039
893.575	15062
893.697	14921
893.819	15218
893.941	15287
894.064	15241
894.186	15081
894.308	14952
894.43	15161
894.552	15237
894.674	15127
894.796	15009
894.918	15161
895.04	15017
895.161	15249
895.283	15199
895.405	15028
895.526	15146
895.648	15218
895.769	15173
895.891	15104
896.012	15287
896.134	15123
896.255	15188
896.376	15138
896.498	15127
896.619	15146
896.74	15142
896.861	15287
896.982	15405
897.103	15671
897.224	15466
897.345	15496
897.466	15431
897.587	15454
897.708	15564
897.828	15473
897.949	15355
898.07	15382
898.19	15431
898.311	15538
898.431	15412
898.552	15492
898.672	15568
898.792	15694
898.913	15454
899.033	15458
899.153	15466
899.273	15321
899.393	15336
899.513	15416
899.633	15412
899.753	15477
899.873	15344
899.993	15420
900.113	15370
900.232	15340
900.352	15351
900.472	15336
900.591	15211
900.711	15287
900.83	15176
900.95	15351
901.069	15302
901.189	15165
901.308	14941
901.427	14819
901.546	14880
901.665	14910
901.784	14872
901.904	14777
902.023	14708
902.141	14514
902.26	14419
902.379	14533
902.498	14473
902.617	14450
902.735	14480
902.854	14461
902.973	14393
903.091	14088
903.21	14214
903.328	14214
903.446	14100
903.565	13993
903.683	13970
903.801	13913
903.919	13940
904.038	13955
904.156	13750
904.274	13852
904.392	13845
904.51	13814
904.627	13803
904.745	13799
904.863	13807
904.981	13628
905.098	13537
905.216	13483
905.334	13540
905.451	13476
905.569	13472
905.686	13426
905.803	13495
905.921	13228
906.038	13365
906.155	13270
906.272	13114
906.389	13278
906.506	13084
906.623	13042
906.74	12970
906.857	13008
906.974	13000
907.091	13053
907.208	13118
907.324	13141
907.441	12970
907.557	12730
907.674	12768
907.79	12604
907.907	12715
908.023	12856
908.139	12688
908.256	12673
908.372	12642
908.488	12715
908.604	12536
908.72	12566
908.836	12563
908.952	12467
909.068	12509
909.184	12616
909.3	12445
909.415	12582
909.531	12528
909.647	12254
909.762	12232
909.878	12129
909.993	12304
910.108	12239
910.224	12232
910.339	12232
910.454	12186
910.57	12064
910.685	12007
910.8	12376
910.915	12201
911.03	12205
911.145	11961
911.259	11973
911.374	11996
911.489	11855
911.604	11855
911.718	11630
911.833	11760
911.947	11596
912.062	11512
912.176	11608
912.291	11764
912.405	11668
912.519	11939
912.633	11904
912.748	11653
912.862	11676
912.976	11585
913.09	11478
913.204	11547
913.318	11543
913.431	11665
913.545	11665
913.659	11703
913.772	11532
913.886	11433
914	11429
914.113	11490
914.226	11467
914.34	11509
914.453	11307
914.566	11436
914.68	11410
914.793	11330
914.906	11151
915.019	11071
915.132	11060
915.245	11143
915.358	11239
915.47	11265
915.583	11128
915.696	11193
915.809	11246
915.921	11334
916.034	11064
916.146	11071
916.259	11025
916.371	11121
916.483	11201
916.595	11136
916.708	11094
916.82	11128
916.932	11109
917.044	11090
917.156	11052
917.268	11037
917.38	10942
917.491	11018
917.603	11075
917.715	11033
917.826	11132
917.938	10949
918.049	10850
918.161	10961
918.272	11193
918.384	11193
918.495	10953
918.606	10885
918.717	10767
918.828	10923
918.939	10843
919.05	10729
919.161	10850
919.272	10660
919.383	10687
919.494	10908
919.604	11128
919.715	10786
919.826	10831
919.936	10858
920.047	11041
920.157	10869
920.267	11067
920.378	10900
920.488	10828
920.598	11067
920.708	11212
920.818	11006
920.928	11064
921.038	11189
921.148	11185
921.258	10885
921.368	10820
921.477	10725
921.587	10714
921.697	10599
921.806	10721
921.916	10561
922.025	10451
922.134	10443
922.244	10325
922.353	10428
922.462	10261
922.571	10234
922.68	10120
922.789	10051
922.898	10109
923.007	10025
923.116	10139
923.224	10101
923.333	10082
923.442	9975
923.55	10010
923.659	10040
923.767	10071
923.876	9930
923.984	10044
924.092	9945
924.201	9991
924.309	9915
924.417	9972
924.525	9903
924.633	9937
924.741	10797
924.849	9728
924.956	9869
925.064	9641
925.172	9599
925.279	9705
925.387	9698
925.494	9728
925.602	9793
925.709	9816
925.816	9652
925.924	9675
926.031	9850
926.138	9701
926.245	9785
926.352	9595
926.459	9778
926.566	9861
926.673	9675
926.779	9599
926.886	9584
926.993	9523
927.099	9408
927.206	9382
927.312	9397
927.419	9439
927.525	9450
927.631	9386
927.737	9302
927.843	9317
927.95	9241
928.056	9275
928.162	9283
928.267	9332
928.373	9846
928.479	9405
928.585	9150
928.69	9344
928.796	9306
928.901	9150
929.007	9066
929.112	9253
929.218	9203
929.323	9123
929.428	9104
929.533	9214
929.638	9043
929.743	9085
929.848	9112
929.953	9039
930.058	8990
930.163	8792
930.267	8883
930.372	9036
930.477	8849
930.581	9085
930.685	8921
930.79	8769
930.894	8849
930.998	8853
931.103	8941
931.207	8571
931.311	8568
931.415	8434
931.519	8332
931.623	8313
