Data from test_V78500241_1299.txt Node
Date: Fri Mar 25 14:42:45 CST 2022
User: usil
Spectrometer: V785-0024
Trigger mode: 0
Integration Time (sec): 4.000000E-1
Scans to average: 1
Nonlinearity correction enabled: false
Boxcar width: 0
Storing dark spectrum: false
XAxis mode: Wavelengths
Number of Pixels in Spectrum: 1024
>>>>>Begin Spectral Data<<<<<
801.071	22360
801.214	22306
801.356	21895
801.499	21895
801.641	21804
801.783	21595
801.926	21781
802.068	21713
802.211	21606
802.353	21583
802.496	21363
802.638	21294
802.78	21252
802.923	21112
803.065	20952
803.208	20990
803.35	21074
803.492	21138
803.635	21207
803.777	21093
803.919	21188
804.061	21447
804.204	21237
804.346	21043
804.488	21039
804.63	21005
804.773	20971
804.915	21066
805.057	21104
805.199	21028
805.341	21085
805.483	21138
805.626	21085
805.768	21100
805.91	21074
806.052	20998
806.194	20902
806.336	21138
806.478	20971
806.62	20944
806.762	21119
806.904	21112
807.046	21420
807.188	21351
807.33	21252
807.472	21370
807.614	21370
807.756	21336
807.898	21131
808.04	21093
808.182	21207
808.324	21226
808.465	21169
808.607	21405
808.749	21488
808.891	21644
809.033	21686
809.174	21561
809.316	21450
809.458	21450
809.6	21542
809.741	21454
809.883	21641
810.025	21641
810.166	21534
810.308	21648
810.45	21534
810.591	21348
810.733	21340
810.875	21058
811.016	21123
811.158	21093
811.299	21222
811.441	21412
811.582	21332
811.724	21081
811.865	21173
812.007	21074
812.148	21161
812.29	21165
812.431	21298
812.573	21462
812.714	21549
812.855	21694
812.997	21816
813.138	21850
813.279	21652
813.421	21606
813.562	21644
813.703	21477
813.845	21332
813.986	20979
814.127	20849
814.268	20769
814.41	20891
814.551	20609
814.692	20720
814.833	20765
814.974	20617
815.115	20769
815.256	20583
815.397	20503
815.539	20644
815.68	20374
815.821	20461
815.962	20446
816.103	20419
816.244	20374
816.385	20206
816.526	20138
816.666	20024
816.807	19936
816.948	19959
817.089	20020
817.23	19909
817.371	19978
817.512	19776
817.653	19795
817.793	19791
817.934	19906
818.075	19906
818.216	19902
818.356	19841
818.497	19670
818.638	19476
818.778	19559
818.919	19563
819.06	19601
819.2	19731
819.341	19772
819.481	19715
819.622	19925
819.762	20069
819.903	20046
820.043	19925
820.184	19909
820.324	19811
820.465	19837
820.605	19879
820.746	19894
820.886	19693
821.026	19811
821.167	19811
821.307	19978
821.447	19803
821.588	19734
821.728	19712
821.868	19426
822.008	19289
822.149	19209
822.289	19179
822.429	19019
822.569	19012
822.709	18875
822.849	18726
822.99	18776
823.13	18646
823.27	18741
823.41	18585
823.55	18456
823.69	18688
823.83	18620
823.97	18525
824.11	18433
824.25	18304
824.389	18327
824.529	18403
824.669	18407
824.809	18418
824.949	18365
825.089	18296
825.228	18311
825.368	18201
825.508	18140
825.648	18163
825.787	18079
825.927	18209
826.067	18110
826.206	18019
826.346	18060
826.485	18163
826.625	18095
826.765	18258
826.904	18102
827.044	18015
827.183	17707
827.323	17805
827.462	17821
827.601	17802
827.741	17851
827.88	17836
828.02	17756
828.159	17783
828.298	17802
828.437	17889
828.577	17668
828.716	17961
828.855	17646
828.994	17532
829.134	17611
829.273	17619
829.412	17558
829.551	17573
829.69	17554
829.829	17524
829.968	17729
830.107	17665
830.246	17573
830.385	17490
830.524	17471
830.663	17318
830.802	17239
830.941	17223
831.08	17197
831.219	17315
831.357	17269
831.496	17512
831.635	17220
831.774	17143
831.913	17128
832.051	17003
832.19	16835
832.329	17075
832.467	16965
832.606	16900
832.744	16869
832.883	16801
833.022	16866
833.16	16953
833.299	16965
833.437	16953
833.576	16953
833.714	16991
833.852	16999
833.991	16972
834.129	17064
834.267	16946
834.406	16946
834.544	17025
834.682	16987
834.821	16801
834.959	17189
835.097	16885
835.235	17071
835.373	16972
835.511	16930
835.65	16801
835.788	16835
835.926	16812
836.064	16588
836.202	16824
836.34	16771
836.478	16968
836.615	16862
836.753	16793
836.891	16961
837.029	16839
837.167	16812
837.305	16733
837.443	16733
837.58	16668
837.718	16797
837.856	16736
837.993	16736
838.131	16744
838.269	16641
838.406	16615
838.544	16622
838.681	16440
838.819	16402
838.956	16204
839.094	16261
839.231	16284
839.369	16405
839.506	16656
839.643	16512
839.781	16352
839.918	16215
840.055	16257
840.193	16284
840.33	16246
840.467	16295
840.604	16379
840.742	16493
840.879	16147
841.016	16143
841.153	16150
841.29	16413
841.427	16314
841.564	16299
841.701	16314
841.838	16200
841.975	16169
842.112	16173
842.249	16059
842.385	16059
842.522	16131
842.659	16124
842.796	15964
842.933	16101
843.069	15979
843.206	15979
843.343	16150
843.479	16017
843.616	16040
843.752	15873
843.889	15899
844.025	15998
844.162	15789
844.298	15960
844.435	15747
844.571	15846
844.708	15937
844.844	15911
844.98	16002
845.117	15960
845.253	15774
845.389	15778
845.525	15781
845.661	15873
845.798	15804
845.934	15816
846.07	15812
846.206	15797
846.342	15975
846.478	15816
846.614	15557
846.75	15443
846.886	15416
847.022	15511
847.158	15439
847.294	15466
847.429	15488
847.565	15382
847.701	15542
847.837	15222
847.972	15112
848.108	15214
848.244	15207
848.379	15161
848.515	14944
848.65	15009
848.786	15097
848.921	15009
849.057	15036
849.192	15062
849.328	15024
849.463	14967
849.598	14963
849.734	14937
849.869	14838
850.004	14838
850.14	14864
850.275	14762
850.41	14663
850.545	14689
850.68	14777
850.815	14731
850.95	14735
851.085	14883
851.22	14781
851.355	14815
851.49	14724
851.625	14697
851.76	14708
851.895	14651
852.03	14731
852.165	14735
852.299	14788
852.434	14811
852.569	14762
852.703	14811
852.838	14891
852.973	15058
853.107	14857
853.242	14735
853.376	14708
853.511	14465
853.645	14613
853.78	14777
853.914	14636
854.048	14670
854.183	14583
854.317	14651
854.451	14845
854.585	14697
854.72	14564
854.854	14727
854.988	14587
855.122	14511
855.256	14571
855.39	14686
855.524	14712
855.658	14667
855.792	14659
855.926	14750
856.06	14670
856.194	14720
856.327	14621
856.461	14629
856.595	14587
856.729	14625
856.862	14777
856.996	14708
857.13	14632
857.263	14830
857.397	14739
857.53	14804
857.664	14739
857.797	14739
857.931	14754
858.064	14724
858.197	14773
858.331	14640
858.464	14629
858.597	14613
858.731	14598
858.864	14530
858.997	14640
859.13	14670
859.263	14689
859.396	14686
859.529	14583
859.662	14587
859.795	14499
859.928	14632
860.061	14807
860.194	14796
860.327	14682
860.46	14613
860.592	14689
860.725	14758
860.858	14792
860.99	14610
861.123	14552
861.256	14552
861.388	14632
861.521	15279
861.653	14560
861.786	14415
861.918	14461
862.05	14564
862.183	14560
862.315	14636
862.447	14667
862.58	14511
862.712	14396
862.844	14370
862.976	14476
863.108	14454
863.24	14887
863.372	14442
863.504	14450
863.636	14336
863.768	14511
863.9	14313
864.032	14332
864.164	14351
864.296	14400
864.428	14480
864.559	14469
864.691	14537
864.823	14381
864.954	14473
865.086	14381
865.217	14438
865.349	14309
865.48	14351
865.612	14419
865.743	14541
865.875	14377
866.006	14343
866.137	14415
866.269	14408
866.4	14301
866.531	14438
866.662	14332
866.793	14263
866.924	14431
867.055	14438
867.186	14343
867.317	14332
867.448	14286
867.579	14336
867.71	14275
867.841	14301
867.972	14381
868.103	14442
868.233	14366
868.364	14339
868.495	14412
868.625	14632
868.756	14716
868.886	14495
869.017	14575
869.147	14758
869.278	14754
869.408	14686
869.539	14655
869.669	14632
869.799	14815
869.929	14792
870.06	14762
870.19	14971
870.32	14826
870.45	14914
870.58	14986
870.71	15119
870.84	15043
870.97	14960
871.1	15009
871.23	15173
871.36	15264
871.489	15085
871.619	15184
871.749	15214
871.879	15283
872.008	15325
872.138	15256
872.267	15214
872.397	15074
872.526	15028
872.656	14990
872.785	15024
872.915	15344
873.044	15283
873.173	15317
873.303	15329
873.432	15287
873.561	15310
873.69	15233
873.819	15211
873.948	15344
874.077	15355
874.206	15218
874.335	15298
874.464	15332
874.593	15545
874.722	15329
874.851	15603
874.979	15637
875.108	15637
875.237	15534
875.365	15542
875.494	15682
875.623	15709
875.751	15500
875.88	15595
876.008	15770
876.136	15793
876.265	16013
876.393	15994
876.521	16090
876.65	16006
876.778	15934
876.906	15934
877.034	15899
877.162	15994
877.29	15949
877.418	15949
877.546	16150
877.674	16017
877.802	15998
877.93	16067
878.058	15899
878.185	15857
878.313	16044
878.441	15998
878.568	15793
878.696	15930
878.824	16059
878.951	16105
879.079	16314
879.206	16337
879.333	16246
879.461	16192
879.588	16234
879.715	16265
879.842	16360
879.97	16177
880.097	15960
880.224	15994
880.351	16040
880.478	15846
880.605	15934
880.732	15953
880.859	16082
880.986	15888
881.112	15934
881.239	15698
881.366	15584
881.493	15648
881.619	15481
881.746	15515
881.872	15454
881.999	15488
882.125	15435
882.252	15564
882.378	15629
882.505	15709
882.631	15485
882.757	15310
882.883	15439
883.01	15306
883.136	15298
883.262	15294
883.388	15207
883.514	15325
883.64	15408
883.766	15351
883.892	15233
884.018	15093
884.143	15351
884.269	15416
884.395	15142
884.52	15074
884.646	15055
884.772	14933
884.897	14956
885.023	15024
885.148	15222
885.274	15260
885.399	15169
885.524	15055
885.65	15097
885.775	15058
885.9	15081
886.025	15176
886.15	15093
886.275	14994
886.4	14944
886.525	15077
886.65	14918
886.775	14956
886.9	15157
887.025	15321
887.149	15070
887.274	14895
887.399	14838
887.523	14868
887.648	14773
887.773	14785
887.897	14937
888.021	15017
888.146	14758
888.27	14941
888.395	14975
888.519	14861
888.643	14929
888.767	14921
888.891	14773
889.015	14773
889.139	14796
889.263	14636
889.387	14853
889.511	14944
889.635	14819
889.759	14667
889.883	14606
890.006	14682
890.13	14796
890.254	14682
890.377	14678
890.501	14499
890.624	14431
890.748	14632
890.871	14431
890.995	14423
891.118	14389
891.241	14377
891.364	14484
891.488	14530
891.611	14427
891.734	14415
891.857	14415
891.98	14396
892.103	14575
892.226	14461
892.349	14358
892.471	14259
892.594	14366
892.717	14415
892.839	14290
892.962	14404
893.085	14465
893.207	14336
893.33	14278
893.452	14366
893.575	14499
893.697	14362
893.819	14560
893.941	14526
894.064	14492
894.186	14389
894.308	14374
894.43	14560
894.552	14571
894.674	14621
894.796	14351
894.918	14370
895.04	14385
895.161	14492
895.283	14556
895.405	14427
895.526	14484
895.648	14465
895.769	14480
895.891	14541
896.012	14590
896.134	14564
896.255	14617
896.376	14503
896.498	14499
896.619	14579
896.74	14655
896.861	14739
896.982	14910
897.103	15020
897.224	14944
897.345	14838
897.466	14804
897.587	14876
897.708	14910
897.828	14823
897.949	14758
898.07	14701
898.19	14746
898.311	14918
898.431	14823
898.552	14899
898.672	15020
898.792	14925
898.913	14948
899.033	14788
899.153	14777
899.273	14632
899.393	14663
899.513	14899
899.633	14720
899.753	14815
899.873	14830
899.993	14853
900.113	14804
900.232	14773
900.352	14788
900.472	14693
900.591	14488
900.711	14552
900.83	14602
900.95	14758
901.069	14735
901.189	14514
901.308	14347
901.427	14336
901.546	14282
901.665	14358
901.784	14351
901.904	14164
902.023	14050
902.141	13928
902.26	13921
902.379	13978
902.498	13909
902.617	13803
902.735	13959
902.854	13776
902.973	13757
903.091	13578
903.21	13544
903.328	13624
903.446	13396
903.565	13362
903.683	13438
903.801	13263
903.919	13343
904.038	13392
904.156	13327
904.274	13293
904.392	13247
904.51	13168
904.627	13225
904.745	13255
904.863	13236
904.981	13088
905.098	12867
905.216	12875
905.334	12962
905.451	12996
905.569	12875
905.686	12951
905.803	12867
905.921	12753
906.038	12772
906.155	12745
906.272	12722
906.389	12745
906.506	12475
906.623	12551
906.74	12532
906.857	12433
906.974	12418
907.091	12563
907.208	12623
907.324	12620
907.441	12414
907.557	12338
907.674	12243
907.79	12178
907.907	12216
908.023	12232
908.139	12327
908.256	12186
908.372	12133
908.488	12152
908.604	12030
908.72	11958
908.836	11984
908.952	11885
909.068	11973
909.184	12079
909.3	11916
909.415	12095
909.531	12041
909.647	11813
909.762	11767
909.878	11688
909.993	11680
910.108	11737
910.224	11699
910.339	11775
910.454	11752
910.57	11676
910.685	11509
910.8	11817
910.915	11809
911.03	11543
911.145	11448
911.259	11551
911.374	11429
911.489	11414
911.604	11364
911.718	11250
911.833	11258
911.947	11132
912.062	11048
912.176	11212
912.291	11178
912.405	11166
912.519	11433
912.633	11448
912.748	11368
912.862	11277
912.976	11083
913.09	10949
913.204	10934
913.318	11067
913.431	11178
913.545	11132
913.659	11201
913.772	11079
913.886	10995
914	10976
914.113	11071
914.226	11128
914.34	11060
914.453	10824
914.566	11022
914.68	10915
914.793	10919
914.906	10717
915.019	10683
915.132	10634
915.245	10710
915.358	10649
915.47	10672
915.583	10763
915.696	10717
915.809	10854
915.921	10824
916.034	10744
916.146	10641
916.259	10630
916.371	10752
916.483	10714
916.595	10641
916.708	10656
916.82	10641
916.932	10580
917.044	10679
917.156	10588
917.268	10485
917.38	10558
917.491	10462
917.603	10615
917.715	10645
917.826	10653
917.938	10577
918.049	10386
918.161	10523
918.272	10702
918.384	10649
918.495	10569
918.606	10375
918.717	10337
918.828	10409
918.939	10504
919.05	10337
919.161	10402
919.272	10166
919.383	10352
919.494	10424
919.604	10577
919.715	10462
919.826	10341
919.936	10432
920.047	10607
920.157	10428
920.267	10656
920.378	10447
920.488	10440
920.598	10573
920.708	10771
920.818	10645
920.928	10607
921.038	10706
921.148	10767
921.258	10428
921.368	10333
921.477	10287
921.587	10265
921.697	10230
921.806	10242
921.916	10192
922.025	10006
922.134	9937
922.244	10029
922.353	9991
922.462	9808
922.571	9865
922.68	9686
922.789	9637
922.898	9652
923.007	9644
923.116	9671
923.224	9698
923.333	9652
923.442	9526
923.55	9568
923.659	9637
923.767	9614
923.876	9492
923.984	9534
924.092	9447
924.201	9580
924.309	9523
924.417	9458
924.525	9389
924.633	9523
924.741	10215
924.849	9302
924.956	9469
925.064	9275
925.172	9207
925.279	9233
925.387	9355
925.494	9351
925.602	9405
925.709	9359
925.816	9214
925.924	9317
926.031	9416
926.138	9264
926.245	9367
926.352	9218
926.459	9351
926.566	9469
926.673	9268
926.779	9173
926.886	9123
926.993	9017
927.099	8982
927.206	8960
927.312	9009
927.419	9047
927.525	9017
927.631	9047
927.737	8895
927.843	8880
927.95	8781
928.056	8941
928.162	8933
928.267	8921
928.373	9572
928.479	9009
928.585	8746
928.69	8880
928.796	8918
928.901	8727
929.007	8705
929.112	8773
929.218	8750
929.323	8689
929.428	8701
929.533	8845
929.638	8705
929.743	8663
929.848	8697
929.953	8720
930.058	8632
930.163	8461
930.267	8545
930.372	8613
930.477	8503
930.581	8667
930.685	8514
930.79	8415
930.894	8446
930.998	8457
931.103	8514
931.207	8248
931.311	8145
931.415	8084
931.519	7894
931.623	7932
