Data from test_V78500241_1725.txt Node
Date: Fri Mar 25 14:45:43 CST 2022
User: usil
Spectrometer: V785-0024
Trigger mode: 0
Integration Time (sec): 4.000000E-1
Scans to average: 1
Nonlinearity correction enabled: false
Boxcar width: 0
Storing dark spectrum: false
XAxis mode: Wavelengths
Number of Pixels in Spectrum: 1024
>>>>>Begin Spectral Data<<<<<
801.071	22367
801.214	22055
801.356	21785
801.499	21774
801.641	21709
801.783	21545
801.926	21614
802.068	21469
802.211	21462
802.353	21325
802.496	21112
802.638	21051
802.78	21085
802.923	20994
803.065	21070
803.208	20918
803.35	21066
803.492	21081
803.635	21119
803.777	20948
803.919	20906
804.061	21279
804.204	21043
804.346	20941
804.488	20777
804.63	20876
804.773	20941
804.915	20834
805.057	20994
805.199	20933
805.341	20933
805.483	20990
805.626	20944
805.768	20899
805.91	20899
806.052	20823
806.194	20716
806.336	21020
806.478	20857
806.62	20899
806.762	20876
806.904	21074
807.046	21260
807.188	21226
807.33	21359
807.472	21291
807.614	21001
807.756	21081
807.898	20971
808.04	20880
808.182	20876
808.324	20834
808.465	21001
808.607	21123
808.749	21313
808.891	21389
809.033	21431
809.174	21378
809.316	21233
809.458	21260
809.6	21237
809.741	21226
809.883	21374
810.025	21405
810.166	21412
810.308	21435
810.45	21386
810.591	21439
810.733	21138
810.875	21146
811.016	20986
811.158	20967
811.299	21074
811.441	21279
811.582	21184
811.724	21024
811.865	21081
812.007	20963
812.148	20975
812.29	21123
812.431	21230
812.573	21313
812.714	21348
812.855	21549
812.997	21545
813.138	21739
813.279	21564
813.421	21507
813.562	21275
813.703	21447
813.845	21161
813.986	20811
814.127	20606
814.268	20731
814.41	20693
814.551	20575
814.692	20705
814.833	20492
814.974	20571
815.115	20556
815.256	20457
815.397	20408
815.539	20499
815.68	20366
815.821	20374
815.962	20324
816.103	20404
816.244	20199
816.385	20062
816.526	20012
816.666	19830
816.807	19750
816.948	19780
817.089	19925
817.23	19791
817.371	19750
817.512	19765
817.653	19788
817.793	19750
817.934	19753
818.075	19624
818.216	19788
818.356	19632
818.497	19552
818.638	19377
818.778	19381
818.919	19472
819.06	19396
819.2	19628
819.341	19582
819.481	19499
819.622	19803
819.762	19833
819.903	19856
820.043	19666
820.184	19757
820.324	19567
820.465	19750
820.605	19704
820.746	19674
820.886	19590
821.026	19651
821.167	19651
821.307	19761
821.447	19658
821.588	19438
821.728	19480
821.868	19187
822.008	19072
822.149	19042
822.289	19099
822.429	18783
822.569	18795
822.709	18772
822.849	18593
822.99	18540
823.13	18513
823.27	18555
823.41	18502
823.55	18327
823.69	18395
823.83	18410
823.97	18327
824.11	18121
824.25	18110
824.389	18197
824.529	18209
824.669	18171
824.809	18350
824.949	18391
825.089	18247
825.228	18201
825.368	17988
825.508	17980
825.648	18026
825.787	17961
825.927	17973
826.067	17931
826.206	17821
826.346	18034
826.485	18041
826.625	17980
826.765	18045
826.904	17935
827.044	17783
827.183	17775
827.323	17672
827.462	17600
827.601	17646
827.741	17619
827.88	17657
828.02	17604
828.159	17600
828.298	17600
828.437	17737
828.577	17611
828.716	17741
828.855	17630
828.994	17440
829.134	17398
829.273	17391
829.412	17189
829.551	17303
829.69	17326
829.829	17372
829.968	17440
830.107	17547
830.246	17395
830.385	17334
830.524	17330
830.663	17212
830.802	17170
830.941	17025
831.08	16942
831.219	17048
831.357	16995
831.496	17242
831.635	16915
831.774	16908
831.913	16896
832.051	16843
832.19	16790
832.329	16782
832.467	16672
832.606	16694
832.744	16706
832.883	16744
833.022	16771
833.16	16740
833.299	16733
833.437	16721
833.576	16755
833.714	16713
833.852	16683
833.991	16778
834.129	16820
834.267	16831
834.406	16622
834.544	16717
834.682	16759
834.821	16778
834.959	16991
835.097	16596
835.235	16862
835.373	16816
835.511	16759
835.65	16725
835.788	16702
835.926	16565
836.064	16394
836.202	16428
836.34	16656
836.478	16786
836.615	16641
836.753	16725
836.891	16710
837.029	16622
837.167	16637
837.305	16596
837.443	16493
837.58	16466
837.718	16584
837.856	16584
837.993	16481
838.131	16478
838.269	16398
838.406	16508
838.544	16421
838.681	16276
838.819	16207
838.956	16154
839.094	16051
839.231	16097
839.369	16234
839.506	16451
839.643	16314
839.781	16082
839.918	16063
840.055	16135
840.193	16086
840.33	16101
840.467	16135
840.604	16116
840.742	16249
840.879	15880
841.016	16025
841.153	15998
841.29	16147
841.427	16059
841.564	16135
841.701	16082
841.838	15994
841.975	16036
842.112	15926
842.249	15922
842.385	15785
842.522	15972
842.659	15880
842.796	15808
842.933	15876
843.069	15884
843.206	15797
843.343	15907
843.479	15838
843.616	15888
843.752	15728
843.889	15595
844.025	15770
844.162	15584
844.298	15705
844.435	15599
844.571	15656
844.708	15713
844.844	15876
844.98	15835
845.117	15739
845.253	15538
845.389	15511
845.525	15595
845.661	15481
845.798	15378
845.934	15488
846.07	15397
846.206	15473
846.342	15542
846.478	15466
846.614	15131
846.75	15100
846.886	15188
847.022	15268
847.158	15192
847.294	15123
847.429	15230
847.565	15176
847.701	15447
847.837	14929
847.972	14815
848.108	15032
848.244	15028
848.379	14857
848.515	14830
848.65	14918
848.786	14857
848.921	14834
849.057	14914
849.192	14872
849.328	14804
849.463	14792
849.598	14667
849.734	14811
849.869	14651
850.004	14495
850.14	14667
850.275	14575
850.41	14556
850.545	14518
850.68	14446
850.815	14575
850.95	14560
851.085	14678
851.22	14598
851.355	14560
851.49	14469
851.625	14594
851.76	14503
851.895	14522
852.03	14442
852.165	14556
852.299	14530
852.434	14583
852.569	14560
852.703	14556
852.838	14507
852.973	14769
853.107	14720
853.242	14571
853.376	14469
853.511	14282
853.645	14412
853.78	14514
853.914	14423
854.048	14351
854.183	14480
854.317	14492
854.451	14552
854.585	14404
854.72	14324
854.854	14583
854.988	14366
855.122	14431
855.256	14229
855.39	14404
855.524	14564
855.658	14473
855.792	14499
855.926	14507
856.06	14495
856.194	14469
856.327	14427
856.461	14434
856.595	14370
856.729	14408
856.862	14571
856.996	14511
857.13	14495
857.263	14511
857.397	14590
857.53	14415
857.664	14408
857.797	14381
857.931	14575
858.064	14552
858.197	14507
858.331	14362
858.464	14381
858.597	14328
858.731	14362
858.864	14423
858.997	14454
859.13	14427
859.263	14423
859.396	14484
859.529	14537
859.662	14423
859.795	14431
859.928	14556
860.061	14560
860.194	14621
860.327	14503
860.46	14355
860.592	14610
860.725	14526
860.858	14507
860.99	14393
861.123	14358
861.256	14336
861.388	14480
861.521	15157
861.653	14320
861.786	14290
861.918	14358
862.05	14366
862.183	14282
862.315	14351
862.447	14454
862.58	14343
862.712	14202
862.844	14180
862.976	14221
863.108	14221
863.24	14526
863.372	14123
863.504	14218
863.636	14183
863.768	14267
863.9	14168
864.032	14202
864.164	14130
864.296	14210
864.428	14355
864.559	14271
864.691	14305
864.823	14229
864.954	14259
865.086	14240
865.217	14142
865.349	14199
865.48	14244
865.612	14168
865.743	14328
865.875	14195
866.006	14119
866.137	14206
866.269	14195
866.4	14176
866.531	14225
866.662	14157
866.793	14130
866.924	14149
867.055	14294
867.186	14123
867.317	14218
867.448	14096
867.579	14115
867.71	14062
867.841	14103
867.972	14172
868.103	14107
868.233	14233
868.364	14191
868.495	14305
868.625	14393
868.756	14469
868.886	14324
869.017	14400
869.147	14613
869.278	14598
869.408	14514
869.539	14301
869.669	14533
869.799	14488
869.929	14522
870.06	14530
870.19	14781
870.32	14785
870.45	14788
870.58	14834
870.71	14982
870.84	14971
870.97	14815
871.1	14819
871.23	15005
871.36	14998
871.489	14952
871.619	14994
871.749	15013
871.879	15066
872.008	15127
872.138	15036
872.267	14994
872.397	14921
872.526	14902
872.656	14861
872.785	14933
872.915	15142
873.044	15218
873.173	15013
873.303	15028
873.432	15150
873.561	15211
873.69	15142
873.819	15005
873.948	15180
874.077	15039
874.206	15051
874.335	15062
874.464	15100
874.593	15412
874.722	15329
874.851	15351
874.979	15329
875.108	15450
875.237	15359
875.365	15325
875.494	15348
875.623	15393
875.751	15469
875.88	15374
876.008	15443
876.136	15549
876.265	15892
876.393	15953
876.521	15922
876.65	15861
876.778	15899
876.906	15663
877.034	15732
877.162	15838
877.29	15743
877.418	15728
877.546	15865
877.674	15743
877.802	15785
877.93	15804
878.058	15800
878.185	15701
878.313	15717
878.441	15846
878.568	15671
878.696	15770
878.824	15785
878.951	15854
879.079	16048
879.206	15998
879.333	15960
879.461	15937
879.588	15915
879.715	16051
879.842	16112
879.97	15823
880.097	15736
880.224	15679
880.351	15759
880.478	15644
880.605	15603
880.732	15732
880.859	15865
880.986	15641
881.112	15679
881.239	15603
881.366	15538
881.493	15363
881.619	15233
881.746	15313
881.872	15123
881.999	15363
882.125	15306
882.252	15306
882.378	15325
882.505	15477
882.631	15252
882.757	15043
882.883	15135
883.01	15195
883.136	15146
883.262	15070
883.388	14933
883.514	15104
883.64	15116
883.766	14994
883.892	14925
884.018	15009
884.143	15131
884.269	15184
884.395	14883
884.52	14887
884.646	14948
884.772	14716
884.897	14754
885.023	14838
885.148	14857
885.274	14960
885.399	14902
885.524	14861
885.65	14842
885.775	14815
885.9	14781
886.025	14826
886.15	14986
886.275	14697
886.4	14800
886.525	14899
886.65	14765
886.775	14796
886.9	14941
887.025	14994
887.149	14918
887.274	14735
887.399	14541
887.523	14598
887.648	14621
887.773	14533
887.897	14746
888.021	14701
888.146	14678
888.27	14739
888.395	14792
888.519	14754
888.643	14659
888.767	14720
888.891	14606
889.015	14484
889.139	14514
889.263	14476
889.387	14629
889.511	14678
889.635	14617
889.759	14404
889.883	14484
890.006	14549
890.13	14560
890.254	14431
890.377	14530
890.501	14309
890.624	14271
890.748	14396
890.871	14317
890.995	14145
891.118	14153
891.241	14233
891.364	14240
891.488	14381
891.611	14202
891.734	14244
891.857	14301
891.98	14396
892.103	14324
892.226	14244
892.349	14202
892.471	14046
892.594	14240
892.717	14142
892.839	14176
892.962	14206
893.085	14202
893.207	14149
893.33	14107
893.452	14187
893.575	14183
893.697	14157
893.819	14377
893.941	14370
894.064	14358
894.186	14107
894.308	14214
894.43	14294
894.552	14465
894.674	14305
894.796	14191
894.918	14240
895.04	14237
895.161	14267
895.283	14400
895.405	14225
895.526	14351
895.648	14358
895.769	14309
895.891	14404
896.012	14438
896.134	14408
896.255	14400
896.376	14317
896.498	14305
896.619	14400
896.74	14381
896.861	14480
896.982	14689
897.103	14819
897.224	14682
897.345	14674
897.466	14476
897.587	14590
897.708	14796
897.828	14731
897.949	14571
898.07	14533
898.19	14674
898.311	14754
898.431	14720
898.552	14659
898.672	14872
898.792	14811
898.913	14781
899.033	14686
899.153	14552
899.273	14480
899.393	14560
899.513	14533
899.633	14568
899.753	14621
899.873	14568
899.993	14571
900.113	14564
900.232	14621
900.352	14522
900.472	14450
900.591	14408
900.711	14461
900.83	14400
900.95	14560
901.069	14667
901.189	14309
901.308	14233
901.427	14054
901.546	14058
901.665	14172
901.784	14149
901.904	14058
902.023	13894
902.141	13708
902.26	13704
902.379	13784
902.498	13685
902.617	13609
902.735	13734
902.854	13677
902.973	13624
903.091	13434
903.21	13472
903.328	13388
903.446	13289
903.565	13240
903.683	13285
903.801	13187
903.919	13293
904.038	13343
904.156	13160
904.274	13137
904.392	13084
904.51	13050
904.627	13061
904.745	13129
904.863	13057
904.981	12916
905.098	12745
905.216	12798
905.334	12821
905.451	12825
905.569	12833
905.686	12745
905.803	12768
905.921	12627
906.038	12734
906.155	12700
906.272	12612
906.389	12563
906.506	12460
906.623	12357
906.74	12418
906.857	12296
906.974	12330
907.091	12475
907.208	12521
907.324	12437
907.441	12338
907.557	12163
907.674	12121
907.79	12098
907.907	12110
908.023	12178
908.139	12167
908.256	12163
908.372	12030
908.488	11973
908.604	11832
908.72	11912
908.836	11939
908.952	11897
909.068	11999
909.184	12022
909.3	11855
909.415	12060
909.531	11931
909.647	11680
909.762	11676
909.878	11627
909.993	11691
910.108	11680
910.224	11718
910.339	11592
910.454	11554
910.57	11573
910.685	11391
910.8	11718
910.915	11688
911.03	11585
911.145	11326
911.259	11360
911.374	11379
911.489	11265
911.604	11220
911.718	11075
911.833	11124
911.947	11064
912.062	10968
912.176	11041
912.291	11067
912.405	11166
912.519	11258
912.633	11296
912.748	11204
912.862	11170
912.976	10968
913.09	10980
913.204	10961
913.318	11037
913.431	11060
913.545	11067
913.659	11048
913.772	11041
913.886	10843
914	10850
914.113	10984
914.226	10995
914.34	10980
914.453	10835
914.566	10953
914.68	10843
914.793	10774
914.906	10626
915.019	10611
915.132	10580
915.245	10561
915.358	10599
915.47	10630
915.583	10706
915.696	10668
915.809	10725
915.921	10752
916.034	10588
916.146	10599
916.259	10607
916.371	10615
916.483	10702
916.595	10512
916.708	10546
916.82	10489
916.932	10443
917.044	10481
917.156	10462
917.268	10348
917.38	10409
917.491	10451
917.603	10466
917.715	10615
917.826	10516
917.938	10417
918.049	10363
918.161	10474
918.272	10531
918.384	10527
918.495	10421
918.606	10204
918.717	10204
918.828	10443
918.939	10310
919.05	10272
919.161	10249
919.272	10048
919.383	10188
919.494	10325
919.604	10554
919.715	10295
919.826	10303
919.936	10276
920.047	10382
920.157	10402
920.267	10565
920.378	10398
920.488	10272
920.598	10497
920.708	10645
920.818	10599
920.928	10550
921.038	10683
921.148	10653
921.258	10352
921.368	10318
921.477	10223
921.587	10188
921.697	10017
921.806	10303
921.916	10074
922.025	9956
922.134	9915
922.244	9846
922.353	9911
922.462	9850
922.571	9751
922.68	9606
922.789	9538
922.898	9542
923.007	9477
923.116	9656
923.224	9553
923.333	9500
923.442	9534
923.55	9466
923.659	9435
923.767	9481
923.876	9389
923.984	9534
924.092	9443
924.201	9428
924.309	9447
924.417	9412
924.525	9374
924.633	9443
924.741	10447
924.849	9203
924.956	9420
925.064	9272
925.172	9081
925.279	9245
925.387	9230
925.494	9222
925.602	9397
925.709	9336
925.816	9199
925.924	9245
926.031	9340
926.138	9203
926.245	9188
926.352	9135
926.459	9325
926.566	9294
926.673	9123
926.779	9135
926.886	9089
926.993	8979
927.099	8944
927.206	8941
927.312	8857
927.419	8948
927.525	8948
927.631	9036
927.737	8853
927.843	8838
927.95	8705
928.056	8830
928.162	8876
928.267	8887
928.373	9488
928.479	8979
928.585	8659
928.69	8823
928.796	8906
928.901	8781
929.007	8629
929.112	8766
929.218	8766
929.323	8701
929.428	8655
929.533	8830
929.638	8549
929.743	8594
929.848	8727
929.953	8594
930.058	8522
930.163	8476
930.267	8469
930.372	8598
930.477	8370
930.581	8610
930.685	8484
930.79	8267
930.894	8355
930.998	8412
931.103	8450
931.207	8161
931.311	8077
931.415	8100
931.519	7902
931.623	7799
