Data from test_V78500241_2634.txt Node
Date: Fri Mar 25 14:52:03 CST 2022
User: usil
Spectrometer: V785-0024
Trigger mode: 0
Integration Time (sec): 4.000000E-1
Scans to average: 1
Nonlinearity correction enabled: false
Boxcar width: 0
Storing dark spectrum: false
XAxis mode: Wavelengths
Number of Pixels in Spectrum: 1024
>>>>>Begin Spectral Data<<<<<
801.071	22029
801.214	21892
801.356	21705
801.499	21545
801.641	21332
801.783	21374
801.926	21424
802.068	21363
802.211	21272
802.353	21230
802.496	21028
802.638	20914
802.78	20891
802.923	20746
803.065	20674
803.208	20708
803.35	20598
803.492	20887
803.635	20883
803.777	20788
803.919	20773
804.061	21013
804.204	20769
804.346	20617
804.488	20495
804.63	20815
804.773	20571
804.915	20632
805.057	20644
805.199	20507
805.341	20659
805.483	20659
805.626	20606
805.768	20533
805.91	20590
806.052	20636
806.194	20507
806.336	20762
806.478	20583
806.62	20541
806.762	20716
806.904	20872
807.046	21005
807.188	20895
807.33	20902
807.472	20990
807.614	20845
807.756	20895
807.898	20682
808.04	20640
808.182	20720
808.324	20727
808.465	20716
808.607	20929
808.749	20952
808.891	21123
809.033	21192
809.174	21074
809.316	20963
809.458	21017
809.6	20895
809.741	20975
809.883	21032
810.025	21119
810.166	21192
810.308	21081
810.45	21074
810.591	20933
810.733	20785
810.875	20727
811.016	20796
811.158	20739
811.299	20708
811.441	20834
811.582	20918
811.724	20712
811.865	20716
812.007	20804
812.148	20682
812.29	20716
812.431	20842
812.573	20994
812.714	21112
812.855	21154
812.997	21393
813.138	21526
813.279	21283
813.421	21245
813.562	21142
813.703	21055
813.845	20899
813.986	20480
814.127	20381
814.268	20309
814.41	20301
814.551	20214
814.692	20374
814.833	20134
814.974	20282
815.115	20309
815.256	20180
815.397	20115
815.539	20145
815.68	20008
815.821	19951
815.962	19947
816.103	19909
816.244	19940
816.385	19620
816.526	19696
816.666	19597
816.807	19266
816.948	19510
817.089	19552
817.23	19438
817.371	19518
817.512	19460
817.653	19441
817.793	19460
817.934	19331
818.075	19358
818.216	19377
818.356	19381
818.497	19259
818.638	18996
818.778	19080
818.919	19080
819.06	19187
819.2	19266
819.341	19266
819.481	19304
819.622	19392
819.762	19647
819.903	19616
820.043	19441
820.184	19354
820.324	19335
820.465	19457
820.605	19346
820.746	19430
820.886	19274
821.026	19362
821.167	19244
821.307	19449
821.447	19373
821.588	19160
821.728	19126
821.868	18886
822.008	18787
822.149	18779
822.289	18795
822.429	18646
822.569	18563
822.709	18536
822.849	18281
822.99	18334
823.13	18251
823.27	18330
823.41	18117
823.55	18030
823.69	18163
823.83	18247
823.97	18011
824.11	17927
824.25	17939
824.389	17889
824.529	17992
824.669	17904
824.809	18026
824.949	18003
825.089	17965
825.228	17866
825.368	17657
825.508	17707
825.648	17752
825.787	17710
825.927	17813
826.067	17634
826.206	17608
826.346	17722
826.485	17665
826.625	17646
826.765	17703
826.904	17619
827.044	17406
827.183	17444
827.323	17273
827.462	17558
827.601	17353
827.741	17303
827.88	17277
828.02	17303
828.159	17459
828.298	17353
828.437	17410
828.577	17231
828.716	17429
828.855	17299
828.994	17018
829.134	17170
829.273	17174
829.412	17083
829.551	17109
829.69	17136
829.829	17200
829.968	17242
830.107	17170
830.246	17067
830.385	17105
830.524	16991
830.663	16923
830.802	16923
830.941	16778
831.08	16694
831.219	16793
831.357	16755
831.496	16911
831.635	16706
831.774	16672
831.913	16653
832.051	16592
832.19	16474
832.329	16607
832.467	16440
832.606	16440
832.744	16409
832.883	16432
833.022	16436
833.16	16466
833.299	16546
833.437	16577
833.576	16493
833.714	16542
833.852	16375
833.991	16596
834.129	16561
834.267	16535
834.406	16531
834.544	16607
834.682	16459
834.821	16447
834.959	16687
835.097	16565
835.235	16573
835.373	16554
835.511	16561
835.65	16478
835.788	16436
835.926	16150
836.064	16246
836.202	16291
836.34	16356
836.478	16478
836.615	16390
836.753	16542
836.891	16535
837.029	16405
837.167	16360
837.305	16303
837.443	16329
837.58	16169
837.718	16417
837.856	16253
837.993	16276
838.131	16341
838.269	16211
838.406	16230
838.544	16086
838.681	15987
838.819	16090
838.956	15888
839.094	15888
839.231	15949
839.369	16036
839.506	16238
839.643	16105
839.781	15911
839.918	15690
840.055	15953
840.193	15888
840.33	15705
840.467	15876
840.604	15934
840.742	16109
840.879	15724
841.016	15785
841.153	15831
841.29	15922
841.427	15709
841.564	15781
841.701	15789
841.838	15838
841.975	15603
842.112	15671
842.249	15652
842.385	15618
842.522	15705
842.659	15542
842.796	15523
842.933	15622
843.069	15648
843.206	15530
843.343	15755
843.479	15641
843.616	15580
843.752	15367
843.889	15523
844.025	15526
844.162	15382
844.298	15538
844.435	15420
844.571	15329
844.708	15591
844.844	15557
844.98	15610
845.117	15507
845.253	15500
845.389	15252
845.525	15344
845.661	15317
845.798	15184
845.934	15272
846.07	15256
846.206	15321
846.342	15336
846.478	15214
846.614	15127
846.75	14944
846.886	14967
847.022	15104
847.158	14944
847.294	14990
847.429	14986
847.565	14998
847.701	15218
847.837	14712
847.972	14693
848.108	14826
848.244	14663
848.379	14594
848.515	14560
848.65	14610
848.786	14587
848.921	14625
849.057	14705
849.192	14720
849.328	14659
849.463	14575
849.598	14590
849.734	14480
849.869	14438
850.004	14343
850.14	14400
850.275	14400
850.41	14309
850.545	14309
850.68	14480
850.815	14313
850.95	14358
851.085	14507
851.22	14450
851.355	14434
851.49	14313
851.625	14400
851.76	14343
851.895	14195
852.03	14237
852.165	14294
852.299	14351
852.434	14514
852.569	14332
852.703	14240
852.838	14480
852.973	14431
853.107	14457
853.242	14385
853.376	14244
853.511	14168
853.645	14157
853.78	14362
853.914	14298
854.048	14168
854.183	14214
854.317	14225
854.451	14473
854.585	14206
854.72	14195
854.854	14248
854.988	14183
855.122	14218
855.256	14065
855.39	14301
855.524	14309
855.658	14298
855.792	14252
855.926	14271
856.06	14339
856.194	14290
856.327	14221
856.461	14218
856.595	14180
856.729	14214
856.862	14427
856.996	14320
857.13	14305
857.263	14412
857.397	14355
857.53	14187
857.664	14218
857.797	14389
857.931	14343
858.064	14339
858.197	14355
858.331	14206
858.464	14134
858.597	14126
858.731	14161
858.864	14187
858.997	14218
859.13	14252
859.263	14252
859.396	14275
859.529	14092
859.662	14240
859.795	14115
859.928	14324
860.061	14461
860.194	14400
860.327	14317
860.46	14183
860.592	14381
860.725	14317
860.858	14298
860.99	14206
861.123	14229
861.256	14100
861.388	14161
861.521	14769
861.653	14187
861.786	14058
861.918	14107
862.05	14172
862.183	14149
862.315	14233
862.447	14237
862.58	14275
862.712	13967
862.844	13967
862.976	14081
863.108	14058
863.24	14469
863.372	13936
863.504	13913
863.636	13906
863.768	14069
863.9	13997
864.032	13955
864.164	13974
864.296	13986
864.428	14103
864.559	14123
864.691	14096
864.823	14001
864.954	14050
865.086	14084
865.217	13989
865.349	13974
865.48	13974
865.612	14046
865.743	14115
865.875	14005
866.006	13894
866.137	14058
866.269	13997
866.4	14088
866.531	13959
866.662	14001
866.793	13906
866.924	13947
867.055	14096
867.186	13982
867.317	13940
867.448	13932
867.579	13986
867.71	13898
867.841	13875
867.972	14016
868.103	13989
868.233	14123
868.364	13993
868.495	14065
868.625	14210
868.756	14389
868.886	14195
869.017	14248
869.147	14317
869.278	14305
869.408	14286
869.539	14210
869.669	14309
869.799	14370
869.929	14358
870.06	14389
870.19	14533
870.32	14594
870.45	14648
870.58	14571
870.71	14644
870.84	14765
870.97	14629
871.1	14655
871.23	14838
871.36	14788
871.489	14769
871.619	14830
871.749	14823
871.879	14853
872.008	14921
872.138	14838
872.267	14899
872.397	14705
872.526	14712
872.656	14678
872.785	14762
872.915	14815
873.044	15039
873.173	14883
873.303	14872
873.432	14948
873.561	14948
873.69	14952
873.819	14982
873.948	15051
874.077	14842
874.206	14925
874.335	14868
874.464	15077
874.593	15188
874.722	15131
874.851	15279
874.979	15192
875.108	15157
875.237	15252
875.365	15138
875.494	15233
875.623	15287
875.751	15203
875.88	15287
876.008	15401
876.136	15420
876.265	15648
876.393	15770
876.521	15766
876.65	15698
876.778	15637
876.906	15591
877.034	15564
877.162	15629
877.29	15542
877.418	15690
877.546	15629
877.674	15622
877.802	15534
877.93	15660
878.058	15591
878.185	15625
878.313	15545
878.441	15599
878.568	15477
878.696	15515
878.824	15641
878.951	15736
879.079	15873
879.206	16013
879.333	15907
879.461	15709
879.588	15648
879.715	15766
879.842	15861
879.97	15694
880.097	15519
880.224	15428
880.351	15515
880.478	15473
880.605	15435
880.732	15447
880.859	15736
880.986	15473
881.112	15553
881.239	15401
881.366	15355
881.493	15306
881.619	15039
881.746	15127
881.872	15108
881.999	15039
882.125	15104
882.252	15249
882.378	15176
882.505	15233
882.631	15070
882.757	15017
882.883	14990
883.01	14960
883.136	14830
883.262	14743
883.388	14682
883.514	14963
883.64	15024
883.766	14853
883.892	14781
884.018	14826
884.143	14891
884.269	15138
884.395	14769
884.52	14571
884.646	14632
884.772	14602
884.897	14507
885.023	14663
885.148	14720
885.274	14792
885.399	14781
885.524	14640
885.65	14731
885.775	14651
885.9	14663
886.025	14758
886.15	14701
886.275	14545
886.4	14606
886.525	14594
886.65	14659
886.775	14533
886.9	14765
887.025	14918
887.149	14678
887.274	14480
887.399	14469
887.523	14423
887.648	14438
887.773	14438
887.897	14705
888.021	14457
888.146	14385
888.27	14587
888.395	14537
888.519	14575
888.643	14564
888.767	14610
888.891	14400
889.015	14362
889.139	14385
889.263	14328
889.387	14476
889.511	14511
889.635	14446
889.759	14301
889.883	14355
890.006	14431
890.13	14377
890.254	14294
890.377	14339
890.501	14233
890.624	14111
890.748	14240
890.871	14084
890.995	14084
891.118	13955
891.241	14084
891.364	14039
891.488	14172
891.611	14016
891.734	14043
891.857	14084
891.98	14073
892.103	14240
892.226	14065
892.349	13970
892.471	13978
892.594	13986
892.717	14050
892.839	13982
892.962	14088
893.085	14157
893.207	14058
893.33	13913
893.452	13970
893.575	14084
893.697	14008
893.819	14161
893.941	14267
894.064	14225
894.186	14054
894.308	14035
894.43	14134
894.552	14267
894.674	14240
894.796	13997
894.918	14065
895.04	14126
895.161	14237
895.283	14252
895.405	14027
895.526	14195
895.648	14180
895.769	14305
895.891	14191
896.012	14362
896.134	14263
896.255	14233
896.376	14183
896.498	14172
896.619	14309
896.74	14206
896.861	14309
896.982	14507
897.103	14667
897.224	14598
897.345	14526
897.466	14400
897.587	14465
897.708	14640
897.828	14503
897.949	14465
898.07	14442
898.19	14530
898.311	14602
898.431	14507
898.552	14533
898.672	14746
898.792	14613
898.913	14579
899.033	14511
899.153	14336
899.273	14278
899.393	14336
899.513	14473
899.633	14473
899.753	14457
899.873	14404
899.993	14469
900.113	14389
900.232	14537
900.352	14404
900.472	14320
900.591	14191
900.711	14320
900.83	14278
900.95	14355
901.069	14366
901.189	14202
901.308	14008
901.427	13902
901.546	13967
901.665	13944
901.784	14008
901.904	13841
902.023	13772
902.141	13559
902.26	13521
902.379	13647
902.498	13514
902.617	13502
902.735	13510
902.854	13571
902.973	13445
903.091	13282
903.21	13381
903.328	13297
903.446	13156
903.565	13065
903.683	13145
903.801	13019
903.919	12996
904.038	13046
904.156	12939
904.274	13034
904.392	12916
904.51	12905
904.627	12977
904.745	12993
904.863	12871
904.981	12837
905.098	12665
905.216	12658
905.334	12623
905.451	12627
905.569	12623
905.686	12642
905.803	12665
905.921	12376
906.038	12540
906.155	12426
906.272	12304
906.389	12353
906.506	12213
906.623	12232
906.74	12216
906.857	12064
906.974	12159
907.091	12163
907.208	12361
907.324	12300
907.441	12216
907.557	11999
907.674	11984
907.79	11843
907.907	11874
908.023	12015
908.139	11920
908.256	11836
908.372	11840
908.488	11885
908.604	11745
908.72	11684
908.836	11745
908.952	11680
909.068	11737
909.184	11817
909.3	11745
909.415	11779
909.531	11733
909.647	11581
909.762	11554
909.878	11444
909.993	11486
910.108	11463
910.224	11448
910.339	11501
910.454	11436
910.57	11345
910.685	11311
910.8	11459
910.915	11387
911.03	11360
911.145	11227
911.259	11117
911.374	11174
911.489	11132
911.604	11075
911.718	10999
911.833	10942
911.947	10805
912.062	10778
912.176	10934
912.291	10968
912.405	10953
912.519	11105
912.633	11159
912.748	11014
912.862	10953
912.976	10820
913.09	10664
913.204	10740
913.318	10869
913.431	10938
913.545	10930
913.659	10965
913.772	10869
913.886	10831
914	10733
914.113	10767
914.226	10816
914.34	10812
914.453	10668
914.566	10725
914.68	10729
914.793	10717
914.906	10527
915.019	10481
915.132	10424
915.245	10470
915.358	10447
915.47	10455
915.583	10535
915.696	10470
915.809	10569
915.921	10645
916.034	10497
916.146	10348
916.259	10402
916.371	10485
916.483	10474
916.595	10363
916.708	10440
916.82	10360
916.932	10409
917.044	10428
917.156	10375
917.268	10291
917.38	10310
917.491	10291
917.603	10249
917.715	10390
917.826	10367
917.938	10306
918.049	10177
918.161	10322
918.272	10493
918.384	10447
918.495	10333
918.606	10124
918.717	10021
918.828	10147
918.939	10105
919.05	10055
919.161	10105
919.272	9926
919.383	10021
919.494	10196
919.604	10405
919.715	10150
919.826	10181
919.936	10143
920.047	10242
920.157	10135
920.267	10360
920.378	10200
920.488	10215
920.598	10386
920.708	10470
920.818	10417
920.928	10291
921.038	10561
921.148	10432
921.258	10204
921.368	10169
921.477	10048
921.587	10044
921.697	9979
921.806	10105
921.916	9903
922.025	9724
922.134	9648
922.244	9698
922.353	9819
922.462	9641
922.571	9641
922.68	9424
922.789	9393
922.898	9435
923.007	9431
923.116	9458
923.224	9435
923.333	9420
923.442	9348
923.55	9313
923.659	9363
923.767	9359
923.876	9367
923.984	9355
924.092	9283
924.201	9283
924.309	9363
924.417	9382
924.525	9253
924.633	9310
924.741	9945
924.849	9077
924.956	9245
925.064	9089
925.172	8990
925.279	9085
925.387	9089
925.494	9119
925.602	9165
925.709	9230
925.816	9036
925.924	9032
926.031	9131
926.138	9089
926.245	9150
926.352	8925
926.459	9085
926.566	9108
926.673	9081
926.779	8941
926.886	9039
926.993	8773
927.099	8785
927.206	8731
927.312	8758
927.419	8857
927.525	8804
927.631	8887
927.737	8754
927.843	8743
927.95	8564
928.056	8663
928.162	8731
928.267	8845
928.373	9370
928.479	8823
928.585	8522
928.69	8689
928.796	8670
928.901	8697
929.007	8492
929.112	8579
929.218	8518
929.323	8564
929.428	8518
929.533	8625
929.638	8476
929.743	8522
929.848	8556
929.953	8457
930.058	8469
930.163	8214
930.267	8313
930.372	8457
930.477	8221
930.581	8511
930.685	8320
930.79	8214
930.894	8229
930.998	8233
931.103	8377
931.207	8024
931.311	7993
931.415	7902
931.519	7776
931.623	7750
