Data from test_V78500241_609.txt Node
Date: Fri Mar 25 14:37:57 CST 2022
User: usil
Spectrometer: V785-0024
Trigger mode: 0
Integration Time (sec): 4.000000E-1
Scans to average: 1
Nonlinearity correction enabled: false
Boxcar width: 0
Storing dark spectrum: false
XAxis mode: Wavelengths
Number of Pixels in Spectrum: 1024
>>>>>Begin Spectral Data<<<<<
801.071	27949
801.214	27960
801.356	27686
801.499	27492
801.641	27481
801.783	27450
801.926	27458
802.068	27275
802.211	27218
802.353	27123
802.496	26925
802.638	26971
802.78	26826
802.923	27047
803.065	26800
803.208	26880
803.35	26906
803.492	27009
803.635	26940
803.777	26921
803.919	27039
804.061	27302
804.204	27207
804.346	27066
804.488	27005
804.63	27039
804.773	27070
804.915	27154
805.057	27325
805.199	27233
805.341	27367
805.483	27526
805.626	27382
805.768	27382
805.91	27515
806.052	27614
806.194	27641
806.336	28032
806.478	28086
806.62	28124
806.762	28386
806.904	28687
807.046	29098
807.188	29349
807.33	29615
807.472	30110
807.614	30369
807.756	31027
807.898	31723
808.04	33096
808.182	34382
808.324	36361
808.465	38518
808.607	40725
808.749	42787
808.891	43856
809.033	44069
809.174	42795
809.316	40919
809.458	38309
809.6	35996
809.741	34021
809.883	32564
810.025	31597
810.166	30726
810.308	30125
810.45	29771
810.591	29395
810.733	29041
810.875	28660
811.016	28413
811.158	28116
811.299	28265
811.441	28207
811.582	28074
811.724	27994
811.865	27831
812.007	27709
812.148	27606
812.29	27739
812.431	27812
812.573	27838
812.714	27934
812.855	27953
812.997	28063
813.138	28154
813.279	28036
813.421	27934
813.562	27781
813.703	27545
813.845	27530
813.986	27100
814.127	26857
814.268	26891
814.41	26887
814.551	26697
814.692	26899
814.833	26693
814.974	26674
815.115	26655
815.256	26552
815.397	26507
815.539	26522
815.68	26431
815.821	26271
815.962	26461
816.103	26244
816.244	26069
816.385	25989
816.526	26005
816.666	25887
816.807	25643
816.948	25837
817.089	25738
817.23	25643
817.371	25597
817.512	25567
817.653	25567
817.793	25537
817.934	25601
818.075	25556
818.216	25708
818.356	25491
818.497	25365
818.638	25168
818.778	25335
818.919	25263
819.06	25308
819.2	25476
819.341	25521
819.481	25422
819.622	25586
819.762	25803
819.903	25677
820.043	25655
820.184	25620
820.324	25514
820.465	25567
820.605	25403
820.746	25609
820.886	25213
821.026	25411
821.167	25266
821.307	25377
821.447	25289
821.588	25099
821.728	25099
821.868	24776
822.008	24646
822.149	24749
822.289	24745
822.429	24422
822.569	24315
822.709	24304
822.849	24091
822.99	24174
823.13	24129
823.27	24083
823.41	23996
823.55	23771
823.69	23958
823.83	24053
823.97	23874
824.11	23764
824.25	23737
824.389	23672
824.529	23847
824.669	23703
824.809	23809
824.949	23771
825.089	23893
825.228	23695
825.368	23520
825.508	23410
825.648	23581
825.787	23493
825.927	23695
826.067	23558
826.206	23414
826.346	23577
826.485	23490
826.625	23383
826.765	23653
826.904	23516
827.044	23151
827.183	23311
827.323	23086
827.462	23185
827.601	23025
827.741	23223
827.88	23155
828.02	23056
828.159	23109
828.298	23212
828.437	23151
828.577	22987
828.716	23166
828.855	22923
828.994	22839
829.134	22877
829.273	22900
829.412	22809
829.551	22733
829.69	22755
829.829	22744
829.968	22755
830.107	22801
830.246	22736
830.385	22828
830.524	22694
830.663	22584
830.802	22462
830.941	22394
831.08	22409
831.219	22481
831.357	22580
831.496	22664
831.635	22265
831.774	22337
831.913	22234
832.051	22192
832.19	22295
832.329	22196
832.467	22200
832.606	22207
832.744	22116
832.883	22211
833.022	22097
833.16	22261
833.299	22447
833.437	22489
833.576	22721
833.714	22554
833.852	22748
833.991	22953
834.129	22908
834.267	22889
834.406	22782
834.544	22892
834.682	22885
834.821	22622
834.959	22706
835.097	22493
835.235	22504
835.373	22386
835.511	22177
835.65	22185
835.788	22074
835.926	21911
836.064	21793
836.202	21838
836.34	22029
836.478	21880
836.615	21846
836.753	21922
836.891	22010
837.029	21819
837.167	21846
837.305	21759
837.443	21842
837.58	21717
837.718	21838
837.856	21713
837.993	21614
838.131	21686
838.269	21629
838.406	21549
838.544	21481
838.681	21249
838.819	21245
838.956	21142
839.094	21032
839.231	21291
839.369	21306
839.506	21492
839.643	21405
839.781	21146
839.918	20986
840.055	21157
840.193	21055
840.33	21188
840.467	21020
840.604	21055
840.742	21272
840.879	20845
841.016	21005
841.153	20929
841.29	21195
841.427	21043
841.564	21074
841.701	20956
841.838	21005
841.975	21058
842.112	20956
842.249	20796
842.385	20686
842.522	21100
842.659	20929
842.796	20788
842.933	20937
843.069	20792
843.206	20956
843.343	20902
843.479	20773
843.616	20956
843.752	20746
843.889	20765
844.025	21043
844.162	20739
844.298	21093
844.435	21093
844.571	21096
844.708	21424
844.844	21732
844.98	22002
845.117	22493
845.253	23102
845.389	24121
845.525	26689
845.661	30817
845.798	35493
845.934	39435
846.07	40892
846.206	39774
846.342	36753
846.478	31906
846.614	27625
846.75	24722
846.886	23212
847.022	22147
847.158	21557
847.294	21165
847.429	20849
847.565	20667
847.701	20678
847.837	20103
847.972	20119
848.108	20111
848.244	20005
848.379	19883
848.515	19883
848.65	19700
848.786	19811
848.921	19696
849.057	19833
849.192	19803
849.328	19799
849.463	19655
849.598	19681
849.734	19635
849.869	19483
850.004	19438
850.14	19468
850.275	19445
850.41	19308
850.545	19434
850.68	19384
850.815	19480
850.95	19274
851.085	19533
851.22	19616
851.355	19320
851.49	19335
851.625	19381
851.76	19316
851.895	19358
852.03	19232
852.165	19411
852.299	19388
852.434	19540
852.569	19510
852.703	19335
852.838	19552
852.973	19510
853.107	19544
853.242	19362
853.376	19396
853.511	19263
853.645	19377
853.78	19362
853.914	19502
854.048	19381
854.183	19468
854.317	19476
854.451	19662
854.585	19506
854.72	19506
854.854	19529
854.988	19384
855.122	19350
855.256	19320
855.39	19354
855.524	19362
855.658	19312
855.792	19358
855.926	19297
856.06	19244
856.194	19327
856.327	19259
856.461	19194
856.595	19164
856.729	19198
856.862	19331
856.996	19179
857.13	19282
857.263	19221
857.397	19266
857.53	19164
857.664	19099
857.797	19293
857.931	19221
858.064	19164
858.197	19278
858.331	19141
858.464	19034
858.597	18989
858.731	19080
858.864	19061
858.997	19164
859.13	19095
859.263	19209
859.396	19221
859.529	19103
859.662	19095
859.795	19008
859.928	19095
860.061	19228
860.194	19251
860.327	19114
860.46	19042
860.592	19266
860.725	19232
860.858	19137
860.99	19000
861.123	18973
861.256	18924
861.388	19065
861.521	19715
861.653	18962
861.786	18730
861.918	18947
862.05	18958
862.183	19004
862.315	19031
862.447	19156
862.58	19084
862.712	18661
862.844	18741
862.976	18833
863.108	18810
863.24	19080
863.372	18677
863.504	18722
863.636	18726
863.768	18806
863.9	18764
864.032	18658
864.164	18658
864.296	18867
864.428	18848
864.559	18745
864.691	18764
864.823	18753
864.954	18741
865.086	18753
865.217	18711
865.349	18612
865.48	18631
865.612	18578
865.743	18722
865.875	18669
866.006	18612
866.137	18582
866.269	18639
866.4	18559
866.531	18650
866.662	18551
866.793	18623
866.924	18635
867.055	18551
867.186	18521
867.317	18513
867.448	18521
867.579	18426
867.71	18483
867.841	18456
867.972	18669
868.103	18521
868.233	18642
868.364	18589
868.495	18703
868.625	18753
868.756	18973
868.886	18859
869.017	18734
869.147	18928
869.278	18890
869.408	18947
869.539	18840
869.669	19034
869.799	18859
869.929	19015
870.06	19019
870.19	19278
870.32	19118
870.45	19236
870.58	19278
870.71	19403
870.84	19266
870.97	19282
871.1	19339
871.23	19411
871.36	19559
871.489	19400
871.619	19502
871.749	19400
871.879	19563
872.008	19643
872.138	19616
872.267	19514
872.397	19468
872.526	19476
872.656	19384
872.785	19457
872.915	19552
873.044	19715
873.173	19670
873.303	19700
873.432	19765
873.561	19791
873.69	19780
873.819	19795
873.948	19803
874.077	19868
874.206	19727
874.335	19849
874.464	19955
874.593	20069
874.722	20039
874.851	20157
874.979	20183
875.108	20195
875.237	20176
875.365	20062
875.494	20248
875.623	20358
875.751	20347
875.88	20362
876.008	20606
876.136	20495
876.265	20849
876.393	21001
876.521	20971
876.65	20994
876.778	21032
876.906	21013
877.034	20990
877.162	21241
877.29	21043
877.418	21154
877.546	21306
877.674	21325
877.802	21496
877.93	21553
878.058	21549
878.185	21667
878.313	21975
878.441	22082
878.568	22405
878.696	22820
878.824	23535
878.951	24190
879.079	25320
879.206	26914
879.333	28390
879.461	29512
879.588	30323
879.715	30220
879.842	29756
879.97	28401
880.097	26754
880.224	25476
880.351	24776
880.478	24106
880.605	23668
880.732	23539
880.859	23493
880.986	23296
881.112	23162
881.239	22854
881.366	22736
881.493	22744
881.619	22653
881.746	22717
881.872	22637
881.999	22641
882.125	22748
882.252	22748
882.378	22835
882.505	22869
882.631	22645
882.757	22603
882.883	22672
883.01	22535
883.136	22557
883.262	22413
883.388	22344
883.514	22546
883.64	22691
883.766	22451
883.892	22226
884.018	22371
884.143	22561
884.269	22615
884.395	22375
884.52	22268
884.646	22375
884.772	22150
884.897	22291
885.023	22303
885.148	22314
885.274	22322
885.399	22204
885.524	22017
885.65	21903
885.775	21903
885.9	21888
886.025	21861
886.15	21701
886.275	21519
886.4	21367
886.525	21359
886.65	21165
886.775	21039
886.9	21131
887.025	21367
887.149	20963
887.274	20716
887.399	20587
887.523	20648
887.648	20400
887.773	20446
887.897	20393
888.021	20396
888.146	20191
888.27	20278
888.395	20393
888.519	20221
888.643	19974
888.767	20206
888.891	19936
889.015	19921
889.139	19955
889.263	19883
889.387	19928
889.511	19978
889.635	19868
889.759	19529
889.883	19662
890.006	19791
890.13	19655
890.254	19521
890.377	19613
890.501	19422
890.624	19350
890.748	19415
890.871	19171
890.995	19088
891.118	19076
891.241	19095
891.364	19088
891.488	19156
891.611	19179
891.734	19019
891.857	18977
891.98	18947
892.103	19072
892.226	18932
892.349	18886
892.471	18745
892.594	18833
892.717	18741
892.839	18867
892.962	18688
893.085	18791
893.207	18757
893.33	18684
893.452	18669
893.575	18692
893.697	18646
893.819	18837
893.941	18844
894.064	18776
894.186	18574
894.308	18467
894.43	18642
894.552	18795
894.674	18650
894.796	18483
894.918	18544
895.04	18414
895.161	18448
895.283	18544
895.405	18346
895.526	18448
895.648	18540
895.769	18490
895.891	18521
896.012	18521
896.134	18471
896.255	18429
896.376	18445
896.498	18323
896.619	18536
896.74	18391
896.861	18452
896.982	18696
897.103	18867
897.224	18677
897.345	18646
897.466	18563
897.587	18623
897.708	18738
897.828	18566
897.949	18513
898.07	18547
898.19	18513
898.311	18506
898.431	18608
898.552	18635
898.672	18681
898.792	18688
898.913	18506
899.033	18467
899.153	18441
899.273	18342
899.393	18357
899.513	18330
899.633	18304
899.753	18300
899.873	18407
899.993	18441
900.113	18254
900.232	18334
900.352	18311
900.472	18224
900.591	18209
900.711	18182
900.83	18190
900.95	18266
901.069	18266
901.189	18072
901.308	17874
901.427	17855
901.546	17805
901.665	17737
901.784	17714
901.904	17695
902.023	17497
902.141	17379
902.26	17189
902.379	17284
902.498	17204
902.617	17200
902.735	17254
902.854	17242
902.973	17067
903.091	16797
903.21	16801
903.328	16816
903.446	16733
903.565	16626
903.683	16691
903.801	16637
903.919	16615
904.038	16561
904.156	16447
904.274	16409
904.392	16462
904.51	16337
904.627	16379
904.745	16489
904.863	16481
904.981	16166
905.098	16055
905.216	16010
905.334	16044
905.451	16097
905.569	16150
905.686	16051
905.803	16021
905.921	15895
906.038	15941
906.155	15915
906.272	15724
906.389	15728
906.506	15690
906.623	15576
906.74	15614
906.857	15447
906.974	15519
907.091	15637
907.208	15553
907.324	15576
907.441	15439
907.557	15313
907.674	15207
907.79	15199
907.907	15173
908.023	15252
908.139	15249
908.256	15199
908.372	15112
908.488	15135
908.604	14960
908.72	15017
908.836	14979
908.952	14899
909.068	14960
909.184	15085
909.3	14899
909.415	14925
909.531	14902
909.647	14697
909.762	14765
909.878	14697
909.993	14705
910.108	14651
910.224	14674
910.339	14651
910.454	14629
910.57	14526
910.685	14442
910.8	14750
910.915	14629
911.03	14393
911.145	14320
911.259	14343
911.374	14343
911.489	14191
911.604	14168
911.718	14065
911.833	14012
911.947	13963
912.062	13906
912.176	13989
912.291	14096
912.405	14024
912.519	14237
912.633	14233
912.748	14092
912.862	13970
912.976	13913
913.09	13795
913.204	13833
913.318	13906
913.431	13928
913.545	14039
913.659	14012
913.772	13917
913.886	13757
914	13708
914.113	13807
914.226	13887
914.34	13890
914.453	13609
914.566	13807
914.68	13605
914.793	13601
914.906	13480
915.019	13369
915.132	13289
915.245	13464
915.358	13453
915.47	13369
915.583	13460
915.696	13419
915.809	13472
915.921	13613
916.034	13502
916.146	13324
916.259	13339
916.371	13415
916.483	13392
916.595	13327
916.708	13335
916.82	13411
916.932	13403
917.044	13316
917.156	13278
917.268	13206
917.38	13156
917.491	13122
917.603	13221
917.715	13209
917.826	13255
917.938	13080
918.049	13004
918.161	13076
918.272	13247
918.384	13179
918.495	13072
918.606	12913
918.717	12939
918.828	12909
918.939	12951
919.05	12821
919.161	12913
919.272	12703
919.383	12722
919.494	12905
919.604	13110
919.715	12859
919.826	12833
919.936	12875
920.047	12901
920.157	12901
920.267	13053
920.378	12905
920.488	12909
920.598	13004
920.708	13240
920.818	13004
920.928	13012
921.038	13175
921.148	13080
921.258	12840
921.368	12700
921.477	12662
921.587	12700
921.697	12544
921.806	12726
921.916	12536
922.025	12384
922.134	12304
922.244	12239
922.353	12327
922.462	12262
922.571	12117
922.68	12015
922.789	12034
922.898	11988
923.007	11992
923.116	11973
923.224	11969
923.333	11885
923.442	11794
923.55	11779
923.659	11843
923.767	11878
923.876	11699
923.984	11824
924.092	11665
924.201	11714
924.309	11718
924.417	11771
924.525	11691
924.633	11649
924.741	12304
924.849	11463
924.956	11653
925.064	11535
925.172	11414
925.279	11463
925.387	11497
925.494	11516
925.602	11585
925.709	11509
925.816	11372
925.924	11429
926.031	11421
926.138	11455
926.245	11585
926.352	11284
926.459	11448
926.566	11459
926.673	11364
926.779	11296
926.886	11261
926.993	11083
927.099	11056
927.206	11014
927.312	11071
927.419	11037
927.525	11090
927.631	11151
927.737	10900
927.843	10908
927.95	10869
928.056	10911
928.162	10987
928.267	10972
928.373	11558
928.479	11029
928.585	10892
928.69	10873
928.796	11029
928.901	10820
929.007	10736
929.112	10797
929.218	10820
929.323	10702
929.428	10653
929.533	10873
929.638	10569
929.743	10672
929.848	10717
929.953	10714
930.058	10618
930.163	10379
930.267	10493
930.372	10531
930.477	10299
930.581	10630
930.685	10489
930.79	10367
930.894	10265
930.998	10211
931.103	10405
931.207	10093
931.311	9998
931.415	9930
931.519	9747
931.623	9713
