Data from test_V78500241_3491.txt Node
Date: Fri Mar 25 14:58:01 CST 2022
User: usil
Spectrometer: V785-0024
Trigger mode: 0
Integration Time (sec): 4.000000E-1
Scans to average: 1
Nonlinearity correction enabled: false
Boxcar width: 0
Storing dark spectrum: false
XAxis mode: Wavelengths
Number of Pixels in Spectrum: 1024
>>>>>Begin Spectral Data<<<<<
801.071	22029
801.214	21895
801.356	21641
801.499	21420
801.641	21367
801.783	21241
801.926	21340
802.068	21157
802.211	21218
802.353	20998
802.496	20823
802.638	20788
802.78	20758
802.923	20781
803.065	20560
803.208	20629
803.35	20552
803.492	20731
803.635	20724
803.777	20522
803.919	20678
804.061	20887
804.204	20693
804.346	20594
804.488	20336
804.63	20640
804.773	20400
804.915	20613
805.057	20674
805.199	20438
805.341	20484
805.483	20609
805.626	20495
805.768	20511
805.91	20632
806.052	20556
806.194	20355
806.336	20727
806.478	20522
806.62	20446
806.762	20617
806.904	20785
807.046	20895
807.188	20739
807.33	20899
807.472	20956
807.614	20708
807.756	20845
807.898	20670
808.04	20606
808.182	20533
808.324	20476
808.465	20644
808.607	20735
808.749	21055
808.891	20929
809.033	21062
809.174	20872
809.316	20644
809.458	20864
809.6	20838
809.741	20861
809.883	20921
810.025	20975
810.166	21039
810.308	21043
810.45	20777
810.591	20910
810.733	20640
810.875	20670
811.016	20514
811.158	20545
811.299	20727
811.441	20792
811.582	20678
811.724	20651
811.865	20659
812.007	20522
812.148	20571
812.29	20659
812.431	20788
812.573	20895
812.714	21013
812.855	21157
812.997	21351
813.138	21256
813.279	21203
813.421	21154
813.562	21020
813.703	20952
813.845	20743
813.986	20488
814.127	20393
814.268	20263
814.41	20256
814.551	20172
814.692	20343
814.833	20126
814.974	20142
815.115	20199
815.256	20062
815.397	20024
815.539	19921
815.68	19917
815.821	19887
815.962	19989
816.103	19928
816.244	19742
816.385	19738
816.526	19639
816.666	19487
816.807	19304
816.948	19400
817.089	19384
817.23	19324
817.371	19327
817.512	19202
817.653	19308
817.793	19343
817.934	19255
818.075	19377
818.216	19373
818.356	19346
818.497	19065
818.638	18993
818.778	19065
818.919	18993
819.06	19031
819.2	19080
819.341	19137
819.481	19156
819.622	19460
819.762	19384
819.903	19480
820.043	19293
820.184	19304
820.324	19308
820.465	19339
820.605	19301
820.746	19304
820.886	19110
821.026	19122
821.167	19335
821.307	19266
821.447	19118
821.588	19107
821.728	18977
821.868	18840
822.008	18768
822.149	18681
822.289	18623
822.429	18464
822.569	18300
822.709	18311
822.849	18155
822.99	18201
823.13	18148
823.27	18182
823.41	18049
823.55	17965
823.69	17893
823.83	17923
823.97	17946
824.11	17847
824.25	17794
824.389	17748
824.529	17767
824.669	17653
824.809	17920
824.949	17794
825.089	17885
825.228	17665
825.368	17634
825.508	17615
825.648	17528
825.787	17642
825.927	17463
826.067	17520
826.206	17577
826.346	17615
826.485	17623
826.625	17543
826.765	17608
826.904	17505
827.044	17239
827.183	17353
827.323	17189
827.462	17261
827.601	17181
827.741	17356
827.88	17223
828.02	17162
828.159	17113
828.298	17303
828.437	17250
828.577	17280
828.716	17402
828.855	17261
828.994	17010
829.134	16949
829.273	17056
829.412	17033
829.551	16972
829.69	16900
829.829	17086
829.968	16980
830.107	17079
830.246	17075
830.385	16991
830.524	16957
830.663	16831
830.802	16713
830.941	16569
831.08	16653
831.219	16683
831.357	16702
831.496	16812
831.635	16675
831.774	16519
831.913	16531
832.051	16451
832.19	16284
832.329	16379
832.467	16215
832.606	16265
832.744	16367
832.883	16257
833.022	16200
833.16	16360
833.299	16371
833.437	16344
833.576	16394
833.714	16337
833.852	16280
833.991	16329
834.129	16512
834.267	16409
834.406	16440
834.544	16341
834.682	16363
834.821	16436
834.959	16622
835.097	16341
835.235	16341
835.373	16367
835.511	16440
835.65	16230
835.788	16211
835.926	16268
836.064	16082
836.202	16101
836.34	16344
836.478	16329
836.615	16261
836.753	16287
836.891	16428
837.029	16367
837.167	16265
837.305	16207
837.443	16192
837.58	16223
837.718	16348
837.856	16131
837.993	16131
838.131	16158
838.269	16101
838.406	16120
838.544	16074
838.681	15884
838.819	15835
838.956	15739
839.094	15717
839.231	15732
839.369	15873
839.506	16109
839.643	16067
839.781	15850
839.918	15778
840.055	15743
840.193	15667
840.33	15724
840.467	15739
840.604	15797
840.742	15922
840.879	15587
841.016	15603
841.153	15622
841.29	15854
841.427	15739
841.564	15781
841.701	15812
841.838	15652
841.975	15633
842.112	15728
842.249	15568
842.385	15515
842.522	15682
842.659	15633
842.796	15496
842.933	15610
843.069	15466
843.206	15466
843.343	15454
843.479	15500
843.616	15504
843.752	15298
843.889	15287
844.025	15511
844.162	15195
844.298	15435
844.435	15272
844.571	15424
844.708	15370
844.844	15485
844.98	15469
845.117	15504
845.253	15260
845.389	15241
845.525	15135
845.661	15249
845.798	15077
845.934	15192
846.07	15005
846.206	15157
846.342	15298
846.478	15188
846.614	14971
846.75	14937
846.886	14830
847.022	15001
847.158	14883
847.294	14933
847.429	14838
847.565	14925
847.701	15138
847.837	14590
847.972	14575
848.108	14800
848.244	14807
848.379	14560
848.515	14541
848.65	14495
848.786	14602
848.921	14549
849.057	14575
849.192	14575
849.328	14621
849.463	14533
849.598	14438
849.734	14358
849.869	14385
850.004	14199
850.14	14393
850.275	14339
850.41	14172
850.545	14225
850.68	14168
850.815	14332
850.95	14214
851.085	14412
851.22	14305
851.355	14229
851.49	14305
851.625	14161
851.76	14275
851.895	14195
852.03	14027
852.165	14263
852.299	14263
852.434	14423
852.569	14248
852.703	14237
852.838	14385
852.973	14404
853.107	14457
853.242	14183
853.376	14111
853.511	14035
853.645	14103
853.78	14126
853.914	14073
854.048	14096
854.183	13978
854.317	14164
854.451	14275
854.585	14111
854.72	14126
854.854	14191
854.988	14073
855.122	14145
855.256	14012
855.39	14084
855.524	14206
855.658	14157
855.792	14088
855.926	14191
856.06	14043
856.194	14225
856.327	14138
856.461	14081
856.595	14035
856.729	14138
856.862	14225
856.996	14149
857.13	14191
857.263	14248
857.397	14202
857.53	14081
857.664	14130
857.797	14191
857.931	14195
858.064	14206
858.197	14218
858.331	14077
858.464	14123
858.597	13959
858.731	14145
858.864	14054
858.997	14058
859.13	14126
859.263	14244
859.396	14229
859.529	14054
859.662	14054
859.795	14107
859.928	14115
860.061	14339
860.194	14320
860.327	14134
860.46	14164
860.592	14138
860.725	14286
860.858	14142
860.99	14153
861.123	14103
861.256	14088
861.388	14119
861.521	14861
861.653	13993
861.786	13970
861.918	13928
862.05	13974
862.183	14073
862.315	14001
862.447	14119
862.58	14027
862.712	13909
862.844	13822
862.976	13959
863.108	13928
863.24	14313
863.372	13849
863.504	13849
863.636	13860
863.768	13951
863.9	13963
864.032	13765
864.164	13845
864.296	13989
864.428	14031
864.559	13932
864.691	14001
864.823	13993
864.954	14012
865.086	14001
865.217	13970
865.349	13902
865.48	13898
865.612	13993
865.743	13951
865.875	13951
866.006	13868
866.137	13917
866.269	13830
866.4	13860
866.531	13791
866.662	13822
866.793	13909
866.924	13890
867.055	13890
867.186	13947
867.317	13807
867.448	13845
867.579	13826
867.71	13830
867.841	13807
867.972	13940
868.103	13856
868.233	13811
868.364	13925
868.495	13963
868.625	14180
868.756	14309
868.886	13986
869.017	14046
869.147	14256
869.278	14252
869.408	14320
869.539	14199
869.669	14145
869.799	14252
869.929	14301
870.06	14248
870.19	14549
870.32	14495
870.45	14469
870.58	14632
870.71	14644
870.84	14602
870.97	14503
871.1	14389
871.23	14693
871.36	14716
871.489	14693
871.619	14682
871.749	14785
871.879	14781
872.008	14800
872.138	14788
872.267	14720
872.397	14644
872.526	14594
872.656	14560
872.785	14659
872.915	14792
873.044	14906
873.173	14838
873.303	14800
873.432	14864
873.561	14845
873.69	14842
873.819	14754
873.948	14906
874.077	14853
874.206	14739
874.335	14887
874.464	14925
874.593	15138
874.722	15036
874.851	15055
874.979	15161
875.108	15150
875.237	15074
875.365	15081
875.494	15032
875.623	15108
875.751	15085
875.88	15135
876.008	15332
876.136	15294
876.265	15656
876.393	15739
876.521	15549
876.65	15743
876.778	15485
876.906	15519
877.034	15443
877.162	15587
877.29	15492
877.418	15660
877.546	15694
877.674	15507
877.802	15507
877.93	15603
878.058	15473
878.185	15435
878.313	15519
878.441	15504
878.568	15420
878.696	15507
878.824	15641
878.951	15614
879.079	15762
879.206	15854
879.333	15720
879.461	15523
879.588	15599
879.715	15766
879.842	15903
879.97	15587
880.097	15313
880.224	15469
880.351	15393
880.478	15393
880.605	15302
880.732	15359
880.859	15694
880.986	15428
881.112	15481
881.239	15249
881.366	15150
881.493	15161
881.619	15005
881.746	15039
881.872	15039
881.999	15009
882.125	15013
882.252	15036
882.378	15066
882.505	15184
882.631	15009
882.757	14864
882.883	14887
883.01	14982
883.136	14895
883.262	14758
883.388	14663
883.514	14876
883.64	14963
883.766	14823
883.892	14629
884.018	14651
884.143	14891
884.269	14975
884.395	14663
884.52	14541
884.646	14594
884.772	14492
884.897	14442
885.023	14602
885.148	14629
885.274	14708
885.399	14701
885.524	14587
885.65	14526
885.775	14613
885.9	14495
886.025	14739
886.15	14693
886.275	14541
886.4	14530
886.525	14450
886.65	14575
886.775	14507
886.9	14682
887.025	14834
887.149	14659
887.274	14469
887.399	14549
887.523	14389
887.648	14393
887.773	14259
887.897	14469
888.021	14442
888.146	14404
888.27	14389
888.395	14575
888.519	14389
888.643	14454
888.767	14389
888.891	14358
889.015	14191
889.139	14252
889.263	14286
889.387	14454
889.511	14427
889.635	14370
889.759	14233
889.883	14320
890.006	14351
890.13	14438
890.254	14168
890.377	14256
890.501	14065
890.624	13993
890.748	14176
890.871	14024
890.995	13921
891.118	13906
891.241	14035
891.364	13951
891.488	14138
891.611	13978
891.734	14039
891.857	14050
891.98	13989
892.103	14065
892.226	14077
892.349	13894
892.471	13879
892.594	14035
892.717	13986
892.839	13875
892.962	13986
893.085	14031
893.207	14012
893.33	13772
893.452	13951
893.575	14012
893.697	13986
893.819	14206
893.941	14191
894.064	14115
894.186	13921
894.308	13974
894.43	14016
894.552	14199
894.674	14130
894.796	13959
894.918	13997
895.04	13974
895.161	14043
895.283	14130
895.405	14008
895.526	14145
895.648	14050
895.769	14073
895.891	14221
896.012	14145
896.134	14202
896.255	14100
896.376	14050
896.498	14123
896.619	14176
896.74	14161
896.861	14244
896.982	14530
897.103	14674
897.224	14446
897.345	14362
897.466	14366
897.587	14442
897.708	14594
897.828	14469
897.949	14317
898.07	14187
898.19	14393
898.311	14495
898.431	14461
898.552	14423
898.672	14533
898.792	14549
898.913	14549
899.033	14389
899.153	14347
899.273	14324
899.393	14347
899.513	14385
899.633	14324
899.753	14336
899.873	14271
899.993	14381
900.113	14408
900.232	14339
900.352	14290
900.472	14252
900.591	14119
900.711	14202
900.83	14138
900.95	14278
901.069	14229
901.189	14100
901.308	13818
901.427	13917
901.546	13776
901.665	13963
901.784	13955
901.904	13860
902.023	13647
902.141	13495
902.26	13495
902.379	13491
902.498	13476
902.617	13422
902.735	13422
902.854	13381
902.973	13354
903.091	13126
903.21	13202
903.328	13213
903.446	13156
903.565	13122
903.683	12970
903.801	12954
903.919	12989
904.038	13027
904.156	12901
904.274	12943
904.392	12806
904.51	12817
904.627	12806
904.745	12837
904.863	12920
904.981	12563
905.098	12616
905.216	12475
905.334	12525
905.451	12559
905.569	12555
905.686	12585
905.803	12544
905.921	12342
906.038	12502
906.155	12418
906.272	12235
906.389	12353
906.506	12140
906.623	12167
906.74	12076
906.857	11954
906.974	12053
907.091	12148
907.208	12243
907.324	12091
907.441	12064
907.557	11897
907.674	11855
907.79	11863
907.907	11863
908.023	11866
908.139	11855
908.256	11809
908.372	11764
908.488	11832
908.604	11733
908.72	11551
908.836	11642
908.952	11619
909.068	11649
909.184	11767
909.3	11619
909.415	11760
909.531	11657
909.647	11417
909.762	11486
909.878	11436
909.993	11425
910.108	11463
910.224	11440
910.339	11391
910.454	11368
910.57	11254
910.685	11181
910.8	11448
910.915	11421
911.03	11341
911.145	11079
911.259	11193
911.374	11128
911.489	11033
911.604	10972
911.718	10839
911.833	10862
911.947	10866
912.062	10702
912.176	10847
912.291	10866
912.405	10968
912.519	11140
912.633	11121
912.748	10987
912.862	10904
912.976	10801
913.09	10622
913.204	10656
913.318	10843
913.431	10904
913.545	10839
913.659	10915
913.772	10862
913.886	10717
914	10634
914.113	10702
914.226	10805
914.34	10752
914.453	10481
914.566	10729
914.68	10653
914.793	10569
914.906	10417
915.019	10417
915.132	10356
915.245	10363
915.358	10352
915.47	10322
915.583	10352
915.696	10489
915.809	10512
915.921	10554
916.034	10394
916.146	10375
916.259	10379
916.371	10360
916.483	10409
916.595	10333
916.708	10306
916.82	10325
916.932	10432
917.044	10314
917.156	10360
917.268	10166
917.38	10192
917.491	10227
917.603	10280
917.715	10329
917.826	10306
917.938	10299
918.049	10109
918.161	10249
918.272	10379
918.384	10333
918.495	10204
918.606	10078
918.717	10051
918.828	10124
918.939	10090
919.05	10013
919.161	10063
919.272	9991
919.383	10013
919.494	10147
919.604	10344
919.715	10150
919.826	10021
919.936	10093
920.047	10242
920.157	10177
920.267	10310
920.378	10044
920.488	10166
920.598	10363
920.708	10440
920.818	10413
920.928	10280
921.038	10497
921.148	10432
921.258	10207
921.368	10169
921.477	10086
921.587	9972
921.697	9892
921.806	10002
921.916	9876
922.025	9747
922.134	9701
922.244	9644
922.353	9728
922.462	9599
922.571	9485
922.68	9363
922.789	9370
922.898	9439
923.007	9340
923.116	9344
923.224	9340
923.333	9386
923.442	9336
923.55	9260
923.659	9249
923.767	9310
923.876	9275
923.984	9310
924.092	9169
924.201	9226
924.309	9272
924.417	9287
924.525	9264
924.633	9253
924.741	9991
924.849	9043
924.956	9180
925.064	9036
925.172	8952
925.279	9009
925.387	9032
925.494	9074
925.602	9199
925.709	9157
925.816	9020
925.924	9017
926.031	9161
926.138	9036
926.245	9097
926.352	8990
926.459	9169
926.566	9104
926.673	9024
926.779	8944
926.886	8883
926.993	8792
927.099	8750
927.206	8697
927.312	8773
927.419	8804
927.525	8724
927.631	8819
927.737	8743
927.843	8667
927.95	8530
928.056	8663
928.162	8697
928.267	8697
928.373	9325
928.479	8819
928.585	8442
928.69	8701
928.796	8735
928.901	8530
929.007	8476
929.112	8514
929.218	8564
929.323	8526
929.428	8518
929.533	8617
929.638	8473
929.743	8438
929.848	8602
929.953	8427
930.058	8423
930.163	8240
930.267	8294
930.372	8381
930.477	8168
930.581	8434
930.685	8374
930.79	8214
930.894	8153
930.998	8161
931.103	8374
931.207	8035
931.311	7887
931.415	7879
931.519	7769
931.623	7689
