Data from test_V78500241_2780.txt Node
Date: Fri Mar 25 14:53:04 CST 2022
User: usil
Spectrometer: V785-0024
Trigger mode: 0
Integration Time (sec): 4.000000E-1
Scans to average: 1
Nonlinearity correction enabled: false
Boxcar width: 0
Storing dark spectrum: false
XAxis mode: Wavelengths
Number of Pixels in Spectrum: 1024
>>>>>Begin Spectral Data<<<<<
801.071	22021
801.214	21926
801.356	21717
801.499	21656
801.641	21466
801.783	21412
801.926	21424
802.068	21378
802.211	21317
802.353	21222
802.496	20937
802.638	20880
802.78	20906
802.923	20857
803.065	20716
803.208	20712
803.35	20807
803.492	20853
803.635	20899
803.777	20712
803.919	20815
804.061	21173
804.204	20807
804.346	20815
804.488	20655
804.63	20773
804.773	20575
804.915	20556
805.057	20731
805.199	20495
805.341	20613
805.483	20724
805.626	20629
805.768	20667
805.91	20541
806.052	20651
806.194	20598
806.336	20750
806.478	20655
806.62	20533
806.762	20705
806.904	20895
807.046	21093
807.188	20842
807.33	20937
807.472	21055
807.614	20857
807.756	20891
807.898	20792
808.04	20659
808.182	20716
808.324	20788
808.465	20864
808.607	20914
808.749	21062
808.891	21077
809.033	21169
809.174	21039
809.316	20944
809.458	21039
809.6	21032
809.741	21104
809.883	21119
810.025	21127
810.166	21127
810.308	21074
810.45	21112
810.591	20937
810.733	20914
810.875	20796
811.016	20727
811.158	20632
811.299	20750
811.441	20838
811.582	20781
811.724	20853
811.865	20640
812.007	20708
812.148	20788
812.29	20868
812.431	20967
812.573	21108
812.714	21100
812.855	21317
812.997	21298
813.138	21507
813.279	21439
813.421	21203
813.562	21184
813.703	21108
813.845	20914
813.986	20606
814.127	20469
814.268	20415
814.41	20419
814.551	20343
814.692	20404
814.833	20259
814.974	20271
815.115	20351
815.256	20267
815.397	20229
815.539	20271
815.68	20046
815.821	19909
815.962	20111
816.103	20035
816.244	19989
816.385	19894
816.526	19753
816.666	19594
816.807	19407
816.948	19559
817.089	19521
817.23	19438
817.371	19422
817.512	19521
817.653	19419
817.793	19369
817.934	19457
818.075	19480
818.216	19438
818.356	19419
818.497	19312
818.638	19080
818.778	19133
818.919	19118
819.06	19152
819.2	19282
819.341	19381
819.481	19339
819.622	19453
819.762	19628
819.903	19480
820.043	19464
820.184	19400
820.324	19308
820.465	19407
820.605	19506
820.746	19510
820.886	19198
821.026	19327
821.167	19331
821.307	19434
821.447	19377
821.588	19274
821.728	19141
821.868	19008
822.008	18882
822.149	18897
822.289	18833
822.429	18646
822.569	18540
822.709	18574
822.849	18357
822.99	18395
823.13	18342
823.27	18273
823.41	18087
823.55	18064
823.69	18174
823.83	18232
823.97	18019
824.11	17878
824.25	17901
824.389	18011
824.529	18133
824.669	17935
824.809	17996
824.949	18034
825.089	18026
825.228	17813
825.368	17847
825.508	17707
825.648	17638
825.787	17748
825.927	17798
826.067	17707
826.206	17619
826.346	17710
826.485	17687
826.625	17741
826.765	17832
826.904	17775
827.044	17554
827.183	17467
827.323	17410
827.462	17425
827.601	17368
827.741	17421
827.88	17516
828.02	17292
828.159	17326
828.298	17334
828.437	17349
828.577	17292
828.716	17433
828.855	17315
828.994	17200
829.134	17227
829.273	17299
829.412	17258
829.551	17132
829.69	17113
829.829	17109
829.968	17360
830.107	17197
830.246	17140
830.385	17170
830.524	17056
830.663	16885
830.802	16805
830.941	16877
831.08	16622
831.219	16873
831.357	16767
831.496	16991
831.635	16805
831.774	16710
831.913	16672
832.051	16561
832.19	16573
832.329	16622
832.467	16577
832.606	16409
832.744	16527
832.883	16436
833.022	16455
833.16	16470
833.299	16603
833.437	16546
833.576	16588
833.714	16516
833.852	16580
833.991	16512
834.129	16607
834.267	16565
834.406	16519
834.544	16504
834.682	16550
834.821	16512
834.959	16698
835.097	16554
835.235	16664
835.373	16573
835.511	16538
835.65	16382
835.788	16459
835.926	16314
836.064	16280
836.202	16333
836.34	16535
836.478	16443
836.615	16466
836.753	16508
836.891	16531
837.029	16485
837.167	16485
837.305	16382
837.443	16257
837.58	16284
837.718	16299
837.856	16382
837.993	16158
838.131	16295
838.269	16276
838.406	16253
838.544	16253
838.681	16013
838.819	15998
838.956	15930
839.094	15880
839.231	15854
839.369	15956
839.506	16337
839.643	16116
839.781	15797
839.918	15789
840.055	15869
840.193	15911
840.33	15838
840.467	15888
840.604	15895
840.742	16055
840.879	15747
841.016	15698
841.153	15800
841.29	15892
841.427	15888
841.564	15854
841.701	15854
841.838	15816
841.975	15770
842.112	15827
842.249	15724
842.385	15622
842.522	15724
842.659	15603
842.796	15671
842.933	15713
843.069	15553
843.206	15561
843.343	15641
843.479	15656
843.616	15644
843.752	15389
843.889	15382
844.025	15557
844.162	15492
844.298	15549
844.435	15500
844.571	15397
844.708	15450
844.844	15663
844.98	15553
845.117	15542
845.253	15393
845.389	15340
845.525	15355
845.661	15363
845.798	15226
845.934	15268
846.07	15230
846.206	15249
846.342	15306
846.478	15161
846.614	14963
846.75	14982
846.886	14979
847.022	15176
847.158	14994
847.294	15001
847.429	15047
847.565	14990
847.701	15180
847.837	14765
847.972	14697
848.108	14845
848.244	14807
848.379	14636
848.515	14716
848.65	14632
848.786	14568
848.921	14545
849.057	14682
849.192	14693
849.328	14640
849.463	14617
849.598	14575
849.734	14587
849.869	14556
850.004	14446
850.14	14446
850.275	14374
850.41	14404
850.545	14286
850.68	14263
850.815	14320
850.95	14278
851.085	14522
851.22	14476
851.355	14404
851.49	14408
851.625	14267
851.76	14389
851.895	14305
852.03	14168
852.165	14377
852.299	14404
852.434	14488
852.569	14457
852.703	14343
852.838	14442
852.973	14560
853.107	14533
853.242	14294
853.376	14168
853.511	14164
853.645	14172
853.78	14339
853.914	14252
854.048	14172
854.183	14187
854.317	14278
854.451	14423
854.585	14153
854.72	14191
854.854	14324
854.988	14142
855.122	14271
855.256	14096
855.39	14214
855.524	14305
855.658	14187
855.792	14415
855.926	14305
856.06	14313
856.194	14271
856.327	14259
856.461	14202
856.595	14138
856.729	14256
856.862	14370
856.996	14256
857.13	14286
857.263	14301
857.397	14328
857.53	14244
857.664	14301
857.797	14278
857.931	14328
858.064	14278
858.197	14278
858.331	14164
858.464	14142
858.597	14092
858.731	14180
858.864	14153
858.997	14244
859.13	14290
859.263	14370
859.396	14278
859.529	14187
859.662	14145
859.795	14103
859.928	14301
860.061	14343
860.194	14446
860.327	14267
860.46	14206
860.592	14301
860.725	14278
860.858	14275
860.99	14142
861.123	14210
861.256	14176
861.388	14282
861.521	14872
861.653	14134
861.786	14096
861.918	14100
862.05	14092
862.183	14142
862.315	14229
862.447	14362
862.58	14176
862.712	14058
862.844	13951
862.976	14046
863.108	14069
863.24	14389
863.372	14046
863.504	14008
863.636	14024
863.768	14103
863.9	14016
864.032	13944
864.164	13997
864.296	14092
864.428	14229
864.559	14073
864.691	14062
864.823	14126
864.954	13993
865.086	14054
865.217	14012
865.349	13947
865.48	13909
865.612	13993
865.743	14195
865.875	13955
866.006	14001
866.137	14050
866.269	14020
866.4	13993
866.531	14065
866.662	13925
866.793	13917
866.924	13932
867.055	13963
867.186	13921
867.317	14001
867.448	13879
867.579	13925
867.71	13974
867.841	14024
867.972	14050
868.103	13921
868.233	14016
868.364	14050
868.495	14153
868.625	14210
868.756	14244
868.886	14282
869.017	14229
869.147	14389
869.278	14313
869.408	14404
869.539	14233
869.669	14343
869.799	14328
869.929	14415
870.06	14313
870.19	14549
870.32	14495
870.45	14625
870.58	14632
870.71	14613
870.84	14804
870.97	14617
871.1	14579
871.23	14819
871.36	14929
871.489	14792
871.619	14830
871.749	14853
871.879	14876
872.008	14941
872.138	14815
872.267	14792
872.397	14769
872.526	14739
872.656	14731
872.785	14659
872.915	14823
873.044	14887
873.173	14910
873.303	14933
873.432	14906
873.561	15020
873.69	14861
873.819	14971
873.948	14967
874.077	14910
874.206	14857
874.335	14929
874.464	14944
874.593	15245
874.722	15097
874.851	15298
874.979	15195
875.108	15256
875.237	15192
875.365	15112
875.494	15199
875.623	15256
875.751	15154
875.88	15214
876.008	15439
876.136	15462
876.265	15599
876.393	15842
876.521	15717
876.65	15732
876.778	15526
876.906	15622
877.034	15629
877.162	15675
877.29	15557
877.418	15610
877.546	15641
877.674	15591
877.802	15671
877.93	15542
878.058	15671
878.185	15511
878.313	15599
878.441	15656
878.568	15462
878.696	15591
878.824	15660
878.951	15720
879.079	15682
879.206	15987
879.333	15846
879.461	15698
879.588	15743
879.715	15873
879.842	15911
879.97	15743
880.097	15428
880.224	15408
880.351	15496
880.478	15397
880.605	15416
880.732	15587
880.859	15660
880.986	15481
881.112	15587
881.239	15355
881.366	15306
881.493	15081
881.619	15077
881.746	15138
881.872	15146
881.999	15097
882.125	15005
882.252	15180
882.378	15131
882.505	15302
882.631	15081
882.757	14956
882.883	14998
883.01	14971
883.136	14887
883.262	14739
883.388	14792
883.514	14933
883.64	15055
883.766	14933
883.892	14682
884.018	14819
884.143	14948
884.269	15017
884.395	14739
884.52	14602
884.646	14670
884.772	14594
884.897	14602
885.023	14667
885.148	14701
885.274	14845
885.399	14765
885.524	14663
885.65	14613
885.775	14648
885.9	14636
886.025	14834
886.15	14701
886.275	14610
886.4	14522
886.525	14594
886.65	14537
886.775	14613
886.9	14838
887.025	14842
887.149	14636
887.274	14492
887.399	14400
887.523	14400
887.648	14366
887.773	14438
887.897	14530
888.021	14587
888.146	14480
888.27	14625
888.395	14663
888.519	14556
888.643	14533
888.767	14552
888.891	14408
889.015	14309
889.139	14431
889.263	14385
889.387	14488
889.511	14560
889.635	14450
889.759	14328
889.883	14347
890.006	14267
890.13	14419
890.254	14275
890.377	14309
890.501	14183
890.624	14183
890.748	14153
890.871	14054
890.995	13986
891.118	13925
891.241	14084
891.364	14058
891.488	14092
891.611	14073
891.734	14084
891.857	14088
891.98	14069
892.103	14126
892.226	14119
892.349	13993
892.471	13837
892.594	14031
892.717	14005
892.839	13997
892.962	14054
893.085	14107
893.207	14046
893.33	13974
893.452	14008
893.575	14088
893.697	13986
893.819	14244
893.941	14168
894.064	14240
894.186	13974
894.308	13974
894.43	14130
894.552	14214
894.674	14218
894.796	14073
894.918	14145
895.04	14088
895.161	14199
895.283	14244
895.405	14092
895.526	14081
895.648	14119
895.769	14119
895.891	14176
896.012	14214
896.134	14248
896.255	14355
896.376	14183
896.498	14248
896.619	14339
896.74	14290
896.861	14374
896.982	14556
897.103	14682
897.224	14484
897.345	14545
897.466	14442
897.587	14461
897.708	14640
897.828	14545
897.949	14518
898.07	14339
898.19	14514
898.311	14564
898.431	14499
898.552	14552
898.672	14663
898.792	14594
898.913	14545
899.033	14484
899.153	14355
899.273	14343
899.393	14275
899.513	14396
899.633	14507
899.753	14492
899.873	14412
899.993	14438
900.113	14400
900.232	14362
900.352	14400
900.472	14256
900.591	14195
900.711	14278
900.83	14351
900.95	14442
901.069	14404
901.189	14123
901.308	14001
901.427	13959
901.546	13925
901.665	14054
901.784	14005
901.904	13967
902.023	13708
902.141	13582
902.26	13540
902.379	13636
902.498	13525
902.617	13491
902.735	13548
902.854	13502
902.973	13495
903.091	13251
903.21	13346
903.328	13255
903.446	13145
903.565	13072
903.683	13152
903.801	13031
903.919	13046
904.038	13114
904.156	12958
904.274	13053
904.392	12894
904.51	12894
904.627	12916
904.745	13004
904.863	12993
904.981	12722
905.098	12585
905.216	12563
905.334	12566
905.451	12623
905.569	12593
905.686	12612
905.803	12646
905.921	12437
906.038	12551
906.155	12429
906.272	12369
906.389	12338
906.506	12114
906.623	12136
906.74	12197
906.857	12045
906.974	12163
907.091	12247
907.208	12369
907.324	12281
907.441	12190
907.557	11916
907.674	11984
907.79	11904
907.907	11950
908.023	12026
908.139	12019
908.256	11901
908.372	11748
908.488	11794
908.604	11824
908.72	11646
908.836	11752
908.952	11680
909.068	11718
909.184	11802
909.3	11672
909.415	11821
909.531	11592
909.647	11509
909.762	11528
909.878	11421
909.993	11520
910.108	11505
910.224	11391
910.339	11383
910.454	11334
910.57	11296
910.685	11246
910.8	11566
910.915	11516
911.03	11414
911.145	11128
911.259	11124
911.374	11193
911.489	11216
911.604	11041
911.718	10953
911.833	10915
911.947	10835
912.062	10729
912.176	10942
912.291	11010
912.405	10850
912.519	11147
912.633	11109
912.748	10995
912.862	10953
912.976	10873
913.09	10630
913.204	10725
913.318	10767
913.431	10877
913.545	10873
913.659	10946
913.772	10774
913.886	10656
914	10675
914.113	10786
914.226	10820
914.34	10801
914.453	10565
914.566	10801
914.68	10668
914.793	10565
914.906	10390
915.019	10459
915.132	10356
915.245	10390
915.358	10432
915.47	10470
915.583	10538
915.696	10443
915.809	10523
915.921	10599
916.034	10481
916.146	10360
916.259	10363
916.371	10493
916.483	10455
916.595	10337
916.708	10386
916.82	10424
916.932	10363
917.044	10325
917.156	10375
917.268	10265
917.38	10268
917.491	10314
917.603	10333
917.715	10348
917.826	10367
917.938	10265
918.049	10135
918.161	10238
918.272	10409
918.384	10405
918.495	10280
918.606	10188
918.717	10082
918.828	10128
918.939	10242
919.05	9994
919.161	10166
919.272	9915
919.383	10002
919.494	10192
919.604	10344
919.715	10242
919.826	10150
919.936	10109
920.047	10242
920.157	10185
920.267	10402
920.378	10147
920.488	10131
920.598	10367
920.708	10531
920.818	10367
920.928	10402
921.038	10436
921.148	10424
921.258	10253
921.368	10135
921.477	10055
921.587	10025
921.697	9926
921.806	9998
921.916	9876
922.025	9778
922.134	9690
922.244	9709
922.353	9785
922.462	9595
922.571	9530
922.68	9454
922.789	9473
922.898	9469
923.007	9389
923.116	9408
923.224	9412
923.333	9374
923.442	9329
923.55	9306
923.659	9291
923.767	9389
923.876	9279
923.984	9348
924.092	9218
924.201	9233
924.309	9302
924.417	9332
924.525	9268
924.633	9241
924.741	10082
924.849	9074
924.956	9268
925.064	9043
925.172	9032
925.279	9032
925.387	9077
925.494	9017
925.602	9275
925.709	9150
925.816	9036
925.924	8986
926.031	9249
926.138	9188
926.245	9123
926.352	9001
926.459	9142
926.566	9218
926.673	8998
926.779	8937
926.886	8933
926.993	8800
927.099	8796
927.206	8670
927.312	8693
927.419	8891
927.525	8796
927.631	8792
927.737	8754
927.843	8735
927.95	8568
928.056	8648
928.162	8644
928.267	8705
928.373	9272
928.479	8792
928.585	8533
928.69	8670
928.796	8724
928.901	8632
929.007	8488
929.112	8610
929.218	8636
929.323	8579
929.428	8480
929.533	8670
929.638	8465
929.743	8507
929.848	8575
929.953	8564
930.058	8419
930.163	8259
930.267	8267
930.372	8381
930.477	8206
930.581	8503
930.685	8339
930.79	8256
930.894	8259
930.998	8210
931.103	8320
931.207	8088
931.311	7986
931.415	7940
931.519	7738
931.623	7765
