Data from test_V78500241_1780.txt Node
Date: Fri Mar 25 14:46:06 CST 2022
User: usil
Spectrometer: V785-0024
Trigger mode: 0
Integration Time (sec): 4.000000E-1
Scans to average: 1
Nonlinearity correction enabled: false
Boxcar width: 0
Storing dark spectrum: false
XAxis mode: Wavelengths
Number of Pixels in Spectrum: 1024
>>>>>Begin Spectral Data<<<<<
801.071	22322
801.214	22082
801.356	21926
801.499	21789
801.641	21663
801.783	21549
801.926	21526
802.068	21652
802.211	21359
802.353	21428
802.496	21085
802.638	21070
802.78	21039
802.923	20952
803.065	20944
803.208	20872
803.35	20941
803.492	20952
803.635	21119
803.777	20872
803.919	20986
804.061	21192
804.204	20914
804.346	20887
804.488	20796
804.63	20823
804.773	20826
804.915	20914
805.057	20921
805.199	20796
805.341	20819
805.483	21036
805.626	20845
805.768	20823
805.91	20861
806.052	20746
806.194	20773
806.336	21104
806.478	20872
806.62	20720
806.762	20944
806.904	21055
807.046	21302
807.188	21176
807.33	21275
807.472	21249
807.614	21108
807.756	21093
807.898	20929
808.04	20895
808.182	20918
808.324	21066
808.465	20845
808.607	21165
808.749	21336
808.891	21226
809.033	21336
809.174	21302
809.316	21104
809.458	21260
809.6	21161
809.741	21108
809.883	21363
810.025	21336
810.166	21306
810.308	21351
810.45	21302
810.591	21252
810.733	21112
810.875	21081
811.016	20872
811.158	20902
811.299	21093
811.441	21123
811.582	21062
811.724	20929
811.865	21043
812.007	20887
812.148	20975
812.29	21100
812.431	21116
812.573	21363
812.714	21340
812.855	21481
812.997	21618
813.138	21599
813.279	21663
813.421	21389
813.562	21435
813.703	21268
813.845	21135
813.986	20815
814.127	20678
814.268	20564
814.41	20689
814.551	20412
814.692	20625
814.833	20461
814.974	20434
815.115	20495
815.256	20374
815.397	20332
815.539	20427
815.68	20225
815.821	20145
815.962	20271
816.103	20164
816.244	20134
816.385	20008
816.526	19928
816.666	19868
816.807	19731
816.948	19814
817.089	19822
817.23	19849
817.371	19677
817.512	19719
817.653	19647
817.793	19700
817.934	19738
818.075	19666
818.216	19677
818.356	19601
818.497	19487
818.638	19369
818.778	19422
818.919	19392
819.06	19270
819.2	19624
819.341	19559
819.481	19590
819.622	19651
819.762	19906
819.903	19761
820.043	19643
820.184	19674
820.324	19605
820.465	19753
820.605	19723
820.746	19559
820.886	19441
821.026	19613
821.167	19590
821.307	19727
821.447	19635
821.588	19441
821.728	19438
821.868	19122
822.008	18977
822.149	19133
822.289	18913
822.429	18692
822.569	18856
822.709	18787
822.849	18559
822.99	18604
823.13	18574
823.27	18513
823.41	18407
823.55	18220
823.69	18353
823.83	18376
823.97	18292
824.11	18209
824.25	18155
824.389	18079
824.529	18213
824.669	18079
824.809	18201
824.949	18266
825.089	18277
825.228	18144
825.368	17996
825.508	17916
825.648	17939
825.787	18068
825.927	17992
826.067	17832
826.206	17836
826.346	17870
826.485	17889
826.625	17889
826.765	17977
826.904	17980
827.044	17748
827.183	17608
827.323	17505
827.462	17707
827.601	17623
827.741	17608
827.88	17604
828.02	17467
828.159	17524
828.298	17554
828.437	17676
828.577	17455
828.716	17684
828.855	17520
828.994	17288
829.134	17303
829.273	17471
829.412	17318
829.551	17258
829.69	17322
829.829	17406
829.968	17436
830.107	17341
830.246	17402
830.385	17280
830.524	17220
830.663	17083
830.802	17048
830.941	17025
831.08	16976
831.219	17117
831.357	17022
831.496	17151
831.635	16915
831.774	16774
831.913	16942
832.051	16706
832.19	16729
832.329	16801
832.467	16694
832.606	16565
832.744	16733
832.883	16736
833.022	16645
833.16	16668
833.299	16675
833.437	16683
833.576	16740
833.714	16786
833.852	16759
833.991	16759
834.129	16683
834.267	16835
834.406	16710
834.544	16797
834.682	16801
834.821	16752
834.959	16774
835.097	16668
835.235	16927
835.373	16778
835.511	16816
835.65	16687
835.788	16550
835.926	16474
836.064	16409
836.202	16424
836.34	16755
836.478	16729
836.615	16618
836.753	16527
836.891	16691
837.029	16641
837.167	16615
837.305	16512
837.443	16470
837.58	16538
837.718	16683
837.856	16428
837.993	16440
838.131	16432
838.269	16360
838.406	16447
838.544	16390
838.681	16188
838.819	16082
838.956	16097
839.094	16128
839.231	16036
839.369	16143
839.506	16500
839.643	16169
839.781	16090
839.918	16124
840.055	16185
840.193	16063
840.33	16044
840.467	15998
840.604	16025
840.742	16303
840.879	16044
841.016	15876
841.153	15956
841.29	16169
841.427	16135
841.564	16078
841.701	16002
841.838	15956
841.975	15869
842.112	15842
842.249	15778
842.385	15751
842.522	16048
842.659	15899
842.796	15800
842.933	15876
843.069	15781
843.206	15766
843.343	15850
843.479	15827
843.616	15816
843.752	15568
843.889	15584
844.025	15701
844.162	15587
844.298	15637
844.435	15641
844.571	15564
844.708	15584
844.844	15808
844.98	15739
845.117	15682
845.253	15507
845.389	15439
845.525	15549
845.661	15488
845.798	15428
845.934	15469
846.07	15389
846.206	15507
846.342	15485
846.478	15355
846.614	15207
846.75	15154
846.886	15184
847.022	15268
847.158	15100
847.294	15085
847.429	15173
847.565	15176
847.701	15428
847.837	14880
847.972	14948
848.108	14986
848.244	15043
848.379	14788
848.515	14796
848.65	14819
848.786	14724
848.921	14788
849.057	14883
849.192	14838
849.328	14788
849.463	14682
849.598	14583
849.734	14648
849.869	14640
850.004	14507
850.14	14579
850.275	14590
850.41	14549
850.545	14545
850.68	14484
850.815	14503
850.95	14556
851.085	14727
851.22	14598
851.355	14556
851.49	14556
851.625	14454
851.76	14549
851.895	14389
852.03	14366
852.165	14526
852.299	14594
852.434	14575
852.569	14552
852.703	14579
852.838	14545
852.973	14686
853.107	14720
853.242	14526
853.376	14461
853.511	14248
853.645	14396
853.78	14571
853.914	14434
854.048	14355
854.183	14385
854.317	14419
854.451	14583
854.585	14370
854.72	14309
854.854	14476
854.988	14218
855.122	14336
855.256	14210
855.39	14408
855.524	14484
855.658	14492
855.792	14442
855.926	14427
856.06	14381
856.194	14427
856.327	14393
856.461	14366
856.595	14362
856.729	14381
856.862	14461
856.996	14415
857.13	14366
857.263	14495
857.397	14629
857.53	14385
857.664	14511
857.797	14533
857.931	14488
858.064	14476
858.197	14404
858.331	14332
858.464	14431
858.597	14355
858.731	14343
858.864	14370
858.997	14347
859.13	14530
859.263	14522
859.396	14484
859.529	14415
859.662	14317
859.795	14282
859.928	14362
860.061	14533
860.194	14533
860.327	14511
860.46	14393
860.592	14503
860.725	14522
860.858	14583
860.99	14438
861.123	14320
861.256	14332
861.388	14355
861.521	15165
861.653	14233
861.786	14180
861.918	14225
862.05	14385
862.183	14374
862.315	14370
862.447	14396
862.58	14370
862.712	14183
862.844	14107
862.976	14157
863.108	14263
863.24	14511
863.372	14134
863.504	14107
863.636	14183
863.768	14195
863.9	14240
864.032	14058
864.164	14199
864.296	14191
864.428	14309
864.559	14339
864.691	14294
864.823	14199
864.954	14210
865.086	14111
865.217	14221
865.349	14161
865.48	14199
865.612	14210
865.743	14301
865.875	14191
866.006	14084
866.137	14199
866.269	14130
866.4	14145
866.531	14081
866.662	14130
866.793	14138
866.924	14123
867.055	14202
867.186	14172
867.317	14142
867.448	13989
867.579	14123
867.71	13989
867.841	14046
867.972	14164
868.103	14138
868.233	14134
868.364	14180
868.495	14252
868.625	14305
868.756	14560
868.886	14374
869.017	14332
869.147	14484
869.278	14450
869.408	14431
869.539	14480
869.669	14514
869.799	14415
869.929	14590
870.06	14492
870.19	14686
870.32	14682
870.45	14743
870.58	14785
870.71	14948
870.84	14895
870.97	14750
871.1	14773
871.23	14944
871.36	15039
871.489	14944
871.619	14891
871.749	14967
871.879	15001
872.008	15093
872.138	15074
872.267	15043
872.397	14819
872.526	14864
872.656	14834
872.785	14842
872.915	15036
873.044	15077
873.173	15017
873.303	15013
873.432	15089
873.561	15135
873.69	15028
873.819	15074
873.948	15169
874.077	15047
874.206	15039
874.335	15001
874.464	15249
874.593	15370
874.722	15325
874.851	15454
874.979	15370
875.108	15416
875.237	15249
875.365	15279
875.494	15363
875.623	15462
875.751	15466
875.88	15317
876.008	15466
876.136	15656
876.265	15789
876.393	15968
876.521	15876
876.65	15876
876.778	15842
876.906	15759
877.034	15656
877.162	15770
877.29	15728
877.418	15800
877.546	15854
877.674	15720
877.802	15793
877.93	15743
878.058	15785
878.185	15728
878.313	15835
878.441	15785
878.568	15610
878.696	15671
878.824	15857
878.951	15835
879.079	16006
879.206	16040
879.333	15926
879.461	15823
879.588	15865
879.715	15956
879.842	16128
879.97	15861
880.097	15576
880.224	15633
880.351	15656
880.478	15675
880.605	15591
880.732	15633
880.859	15873
880.986	15686
881.112	15728
881.239	15500
881.366	15329
881.493	15329
881.619	15211
881.746	15279
881.872	15264
881.999	15192
882.125	15237
882.252	15275
882.378	15340
882.505	15458
882.631	15241
882.757	15039
882.883	15176
883.01	15180
883.136	15009
883.262	15047
883.388	14975
883.514	15097
883.64	15176
883.766	14998
883.892	14857
884.018	14960
884.143	15116
884.269	15173
884.395	14796
884.52	14857
884.646	14705
884.772	14701
884.897	14716
885.023	14815
885.148	14857
885.274	14918
885.399	14899
885.524	14762
885.65	14819
885.775	14796
885.9	14815
886.025	14914
886.15	14906
886.275	14762
886.4	14720
886.525	14712
886.65	14648
886.775	14689
886.9	14921
887.025	15142
887.149	14815
887.274	14667
887.399	14606
887.523	14495
887.648	14541
887.773	14499
887.897	14590
888.021	14632
888.146	14568
888.27	14830
888.395	14674
888.519	14613
888.643	14693
888.767	14667
888.891	14514
889.015	14465
889.139	14473
889.263	14514
889.387	14530
889.511	14701
889.635	14579
889.759	14488
889.883	14511
890.006	14522
890.13	14640
890.254	14324
890.377	14503
890.501	14282
890.624	14332
890.748	14332
890.871	14233
890.995	14134
891.118	14115
891.241	14202
891.364	14237
891.488	14336
891.611	14214
891.734	14123
891.857	14199
891.98	14248
892.103	14263
892.226	14252
892.349	14180
892.471	13967
892.594	14157
892.717	14142
892.839	14149
892.962	14183
893.085	14176
893.207	14202
893.33	14096
893.452	14043
893.575	14244
893.697	14214
893.819	14320
893.941	14427
894.064	14396
894.186	14176
894.308	14149
894.43	14328
894.552	14454
894.674	14206
894.796	14233
894.918	14096
895.04	14214
895.161	14332
895.283	14191
895.405	14225
895.526	14358
895.648	14313
895.769	14240
895.891	14400
896.012	14328
896.134	14400
896.255	14324
896.376	14286
896.498	14301
896.619	14351
896.74	14400
896.861	14385
896.982	14739
897.103	14834
897.224	14686
897.345	14610
897.466	14518
897.587	14583
897.708	14754
897.828	14644
897.949	14594
898.07	14556
898.19	14648
898.311	14762
898.431	14621
898.552	14651
898.672	14712
898.792	14739
898.913	14735
899.033	14648
899.153	14636
899.273	14492
899.393	14613
899.513	14514
899.633	14602
899.753	14499
899.873	14511
899.993	14610
900.113	14632
900.232	14613
900.352	14571
900.472	14495
900.591	14423
900.711	14415
900.83	14317
900.95	14587
901.069	14587
901.189	14358
901.308	14221
901.427	14024
901.546	14100
901.665	14088
901.784	14145
901.904	13944
902.023	13909
902.141	13738
902.26	13620
902.379	13830
902.498	13613
902.617	13685
902.735	13712
902.854	13628
902.973	13601
903.091	13415
903.21	13346
903.328	13434
903.446	13331
903.565	13209
903.683	13316
903.801	13080
903.919	13244
904.038	13225
904.156	13088
904.274	13099
904.392	13084
904.51	12970
904.627	12939
904.745	13069
904.863	13122
904.981	12920
905.098	12787
905.216	12673
905.334	12798
905.451	12734
905.569	12730
905.686	12692
905.803	12776
905.921	12513
906.038	12642
906.155	12635
906.272	12521
906.389	12464
906.506	12308
906.623	12330
906.74	12281
906.857	12220
906.974	12270
907.091	12395
907.208	12582
907.324	12323
907.441	12205
907.557	12079
907.674	12121
907.79	11965
907.907	12011
908.023	12095
908.139	12064
908.256	11992
908.372	11988
908.488	11908
908.604	11836
908.72	11771
908.836	11874
908.952	11840
909.068	11920
909.184	11901
909.3	11802
909.415	11843
909.531	11859
909.647	11581
909.762	11600
909.878	11562
909.993	11623
910.108	11551
910.224	11558
910.339	11592
910.454	11509
910.57	11493
910.685	11440
910.8	11661
910.915	11608
911.03	11455
911.145	11307
911.259	11227
911.374	11387
911.489	11288
911.604	11128
911.718	11128
911.833	11025
911.947	10877
912.062	10835
912.176	11056
912.291	11105
912.405	11086
912.519	11208
912.633	11197
912.748	11178
912.862	11105
912.976	10938
913.09	10782
913.204	10812
913.318	10911
913.431	11037
913.545	11018
913.659	11048
913.772	10934
913.886	10801
914	10774
914.113	10919
914.226	10976
914.34	10843
914.453	10698
914.566	10934
914.68	10786
914.793	10801
914.906	10588
915.019	10443
915.132	10466
915.245	10554
915.358	10641
915.47	10558
915.583	10474
915.696	10561
915.809	10733
915.921	10687
916.034	10443
916.146	10516
916.259	10417
916.371	10588
916.483	10611
916.595	10466
916.708	10489
916.82	10470
916.932	10508
917.044	10493
917.156	10451
917.268	10443
917.38	10413
917.491	10382
917.603	10405
917.715	10417
917.826	10531
917.938	10462
918.049	10261
918.161	10405
918.272	10554
918.384	10428
918.495	10360
918.606	10246
918.717	10234
918.828	10337
918.939	10295
919.05	10200
919.161	10188
919.272	10010
919.383	10162
919.494	10344
919.604	10455
919.715	10246
919.826	10135
919.936	10333
920.047	10333
920.157	10272
920.267	10462
920.378	10314
920.488	10253
920.598	10531
920.708	10649
920.818	10474
920.928	10523
921.038	10618
921.148	10603
921.258	10337
921.368	10287
921.477	10135
921.587	10150
921.697	10055
921.806	10181
921.916	10055
922.025	9865
922.134	9831
922.244	9793
922.353	9873
922.462	9709
922.571	9724
922.68	9568
922.789	9477
922.898	9492
923.007	9466
923.116	9637
923.224	9526
923.333	9606
923.442	9359
923.55	9340
923.659	9462
923.767	9466
923.876	9389
923.984	9450
924.092	9340
924.201	9348
924.309	9447
924.417	9416
924.525	9329
924.633	9401
924.741	10219
924.849	9207
924.956	9340
925.064	9176
925.172	9077
925.279	9127
925.387	9157
925.494	9195
925.602	9329
925.709	9298
925.816	9146
925.924	9180
926.031	9317
926.138	9150
926.245	9222
926.352	9100
926.459	9218
926.566	9253
926.673	9058
926.779	9005
926.886	9005
926.993	8910
927.099	8933
927.206	8727
927.312	8849
927.419	8952
927.525	8925
927.631	8937
927.737	8838
927.843	8750
927.95	8727
928.056	8727
928.162	8834
928.267	8830
928.373	9367
928.479	8925
928.585	8636
928.69	8807
928.796	8792
928.901	8682
929.007	8568
929.112	8682
929.218	8655
929.323	8568
929.428	8556
929.533	8735
929.638	8533
929.743	8648
929.848	8632
929.953	8522
930.058	8541
930.163	8377
930.267	8309
930.372	8514
930.477	8298
930.581	8629
930.685	8431
930.79	8256
930.894	8385
930.998	8336
931.103	8408
931.207	8092
931.311	8100
931.415	8016
931.519	7837
931.623	7750
