Data from test_V78500241_2187.txt Node
Date: Fri Mar 25 14:48:56 CST 2022
User: usil
Spectrometer: V785-0024
Trigger mode: 0
Integration Time (sec): 4.000000E-1
Scans to average: 1
Nonlinearity correction enabled: false
Boxcar width: 0
Storing dark spectrum: false
XAxis mode: Wavelengths
Number of Pixels in Spectrum: 1024
>>>>>Begin Spectral Data<<<<<
801.071	22143
801.214	22029
801.356	21781
801.499	21789
801.641	21561
801.783	21477
801.926	21557
802.068	21431
802.211	21424
802.353	21268
802.496	21135
802.638	21081
802.78	21100
802.923	20902
803.065	20697
803.208	20823
803.35	20811
803.492	20925
803.635	21112
803.777	20891
803.919	20975
804.061	21188
804.204	20956
804.346	20758
804.488	20739
804.63	20857
804.773	20697
804.915	20807
805.057	20872
805.199	20861
805.341	20929
805.483	20910
805.626	20929
805.768	20731
805.91	20621
806.052	20880
806.194	20609
806.336	20876
806.478	20777
806.62	20773
806.762	20834
806.904	20967
807.046	21161
807.188	21188
807.33	21203
807.472	21184
807.614	20994
807.756	21036
807.898	20990
808.04	20921
808.182	20861
808.324	20895
808.465	20861
808.607	21096
808.749	21195
808.891	21169
809.033	21412
809.174	21169
809.316	21047
809.458	21150
809.6	21055
809.741	21188
809.883	21256
810.025	21279
810.166	21363
810.308	21386
810.45	21237
810.591	21230
810.733	21161
810.875	20990
811.016	20777
811.158	20830
811.299	21085
811.441	21131
811.582	21047
811.724	20933
811.865	20895
812.007	20925
812.148	20899
812.29	21005
812.431	21085
812.573	21127
812.714	21329
812.855	21450
812.997	21576
813.138	21667
813.279	21622
813.421	21416
813.562	21405
813.703	21161
813.845	21184
813.986	20788
814.127	20667
814.268	20636
814.41	20552
814.551	20503
814.692	20533
814.833	20442
814.974	20381
815.115	20434
815.256	20370
815.397	20457
815.539	20294
815.68	20256
815.821	20172
815.962	20096
816.103	20214
816.244	20035
816.385	20065
816.526	20039
816.666	19837
816.807	19689
816.948	19772
817.089	19780
817.23	19674
817.371	19677
817.512	19620
817.653	19715
817.793	19552
817.934	19514
818.075	19708
818.216	19552
818.356	19578
818.497	19457
818.638	19297
818.778	19320
818.919	19384
819.06	19346
819.2	19350
819.341	19582
819.481	19529
819.622	19647
819.762	19837
819.903	19761
820.043	19613
820.184	19529
820.324	19651
820.465	19674
820.605	19708
820.746	19556
820.886	19441
821.026	19567
821.167	19582
821.307	19658
821.447	19620
821.588	19483
821.728	19369
821.868	19194
822.008	18966
822.149	19038
822.289	18920
822.429	18829
822.569	18722
822.709	18722
822.849	18566
822.99	18490
823.13	18452
823.27	18467
823.41	18323
823.55	18270
823.69	18319
823.83	18342
823.97	18262
824.11	18197
824.25	18034
824.389	18007
824.529	18171
824.669	18022
824.809	18148
824.949	18098
825.089	18178
825.228	18087
825.368	17866
825.508	17885
825.648	17813
825.787	17954
825.927	17950
826.067	17779
826.206	17783
826.346	17885
826.485	17893
826.625	17771
826.765	17954
826.904	17855
827.044	17554
827.183	17547
827.323	17509
827.462	17585
827.601	17474
827.741	17493
827.88	17459
828.02	17436
828.159	17395
828.298	17516
828.437	17516
828.577	17433
828.716	17703
828.855	17459
828.994	17280
829.134	17299
829.273	17395
829.412	17258
829.551	17299
829.69	17250
829.829	17258
829.968	17448
830.107	17383
830.246	17303
830.385	17197
830.524	17231
830.663	17170
830.802	16976
830.941	16854
831.08	16816
831.219	16869
831.357	16999
831.496	17037
831.635	16862
831.774	16843
831.913	16820
832.051	16748
832.19	16691
832.329	16778
832.467	16687
832.606	16527
832.744	16519
832.883	16634
833.022	16622
833.16	16588
833.299	16717
833.437	16649
833.576	16710
833.714	16634
833.852	16637
833.991	16542
834.129	16668
834.267	16683
834.406	16702
834.544	16649
834.682	16774
834.821	16721
834.959	16805
835.097	16588
835.235	16592
835.373	16668
835.511	16774
835.65	16535
835.788	16531
835.926	16371
836.064	16348
836.202	16356
836.34	16569
836.478	16641
836.615	16428
836.753	16580
836.891	16493
837.029	16580
837.167	16459
837.305	16493
837.443	16508
837.58	16234
837.718	16554
837.856	16417
837.993	16405
838.131	16538
838.269	16223
838.406	16421
838.544	16280
838.681	16048
838.819	16055
838.956	15888
839.094	15850
839.231	16074
839.369	16067
839.506	16280
839.643	16230
839.781	16029
839.918	15975
840.055	15941
840.193	15865
840.33	15956
840.467	15979
840.604	16040
840.742	16131
840.879	15873
841.016	15831
841.153	15808
841.29	16112
841.427	16029
841.564	16002
841.701	15903
841.838	15797
841.975	15876
842.112	15888
842.249	15747
842.385	15667
842.522	15892
842.659	15785
842.796	15709
842.933	15812
843.069	15644
843.206	15682
843.343	15709
843.479	15644
843.616	15774
843.752	15534
843.889	15462
844.025	15633
844.162	15382
844.298	15599
844.435	15576
844.571	15462
844.708	15523
844.844	15572
844.98	15663
845.117	15633
845.253	15424
845.389	15405
845.525	15462
845.661	15374
845.798	15310
845.934	15439
846.07	15317
846.206	15351
846.342	15431
846.478	15317
846.614	15169
846.75	15032
846.886	15051
847.022	15154
847.158	15005
847.294	15024
847.429	15116
847.565	15013
847.701	15279
847.837	14864
847.972	14830
848.108	14948
848.244	14887
848.379	14758
848.515	14674
848.65	14686
848.786	14644
848.921	14708
849.057	14788
849.192	14743
849.328	14758
849.463	14758
849.598	14667
849.734	14537
849.869	14564
850.004	14522
850.14	14526
850.275	14492
850.41	14454
850.545	14412
850.68	14431
850.815	14476
850.95	14419
851.085	14678
851.22	14640
851.355	14473
851.49	14461
851.625	14282
851.76	14446
851.895	14343
852.03	14305
852.165	14370
852.299	14507
852.434	14617
852.569	14518
852.703	14495
852.838	14590
852.973	14522
853.107	14644
853.242	14473
853.376	14339
853.511	14191
853.645	14332
853.78	14412
853.914	14347
854.048	14282
854.183	14233
854.317	14374
854.451	14419
854.585	14320
854.72	14389
854.854	14301
854.988	14267
855.122	14282
855.256	14157
855.39	14427
855.524	14351
855.658	14370
855.792	14199
855.926	14343
856.06	14351
856.194	14450
856.327	14347
856.461	14248
856.595	14233
856.729	14275
856.862	14473
856.996	14271
857.13	14423
857.263	14495
857.397	14438
857.53	14328
857.664	14324
857.797	14377
857.931	14541
858.064	14256
858.197	14450
858.331	14408
858.464	14278
858.597	14180
858.731	14256
858.864	14252
858.997	14282
859.13	14309
859.263	14324
859.396	14442
859.529	14301
859.662	14286
859.795	14286
859.928	14282
860.061	14469
860.194	14511
860.327	14336
860.46	14385
860.592	14484
860.725	14442
860.858	14450
860.99	14339
861.123	14229
861.256	14305
861.388	14286
861.521	14944
861.653	14088
861.786	14005
861.918	14176
862.05	14176
862.183	14298
862.315	14244
862.447	14434
862.58	14271
862.712	14134
862.844	14012
862.976	14138
863.108	14176
863.24	14530
863.372	14050
863.504	14103
863.636	14168
863.768	14199
863.9	14145
864.032	14043
864.164	14119
864.296	13970
864.428	14294
864.559	14168
864.691	14145
864.823	14187
864.954	14050
865.086	14069
865.217	14111
865.349	14096
865.48	14069
865.612	14168
865.743	14256
865.875	14016
866.006	14012
866.137	13936
866.269	14126
866.4	14081
866.531	14092
866.662	14024
866.793	14031
866.924	13982
867.055	14058
867.186	14039
867.317	13947
867.448	14027
867.579	14046
867.71	14027
867.841	14024
867.972	13967
868.103	14096
868.233	14088
868.364	14065
868.495	14107
868.625	14339
868.756	14381
868.886	14275
869.017	14282
869.147	14412
869.278	14415
869.408	14347
869.539	14298
869.669	14339
869.799	14305
869.929	14355
870.06	14396
870.19	14629
870.32	14682
870.45	14621
870.58	14712
870.71	14807
870.84	14899
870.97	14632
871.1	14682
871.23	14944
871.36	15001
871.489	14853
871.619	14902
871.749	14967
871.879	15005
872.008	15032
872.138	14933
872.267	14933
872.397	14785
872.526	14823
872.656	14731
872.785	14807
872.915	14948
873.044	15055
873.173	14937
873.303	15017
873.432	15051
873.561	14975
873.69	15024
873.819	14975
873.948	15112
874.077	14868
874.206	14952
874.335	14990
874.464	15085
874.593	15256
874.722	15097
874.851	15237
874.979	15268
875.108	15321
875.237	15214
875.365	15089
875.494	15252
875.623	15443
875.751	15157
875.88	15397
876.008	15488
876.136	15454
876.265	15641
876.393	15869
876.521	15755
876.65	15823
876.778	15679
876.906	15709
877.034	15663
877.162	15709
877.29	15564
877.418	15652
877.546	15656
877.674	15656
877.802	15675
877.93	15675
878.058	15698
878.185	15644
878.313	15656
878.441	15705
878.568	15625
878.696	15599
878.824	15728
878.951	15778
879.079	15899
879.206	15983
879.333	15884
879.461	15743
879.588	15831
879.715	15915
879.842	15945
879.97	15854
880.097	15523
880.224	15492
880.351	15625
880.478	15488
880.605	15591
880.732	15564
880.859	15743
880.986	15576
881.112	15557
881.239	15389
881.366	15393
881.493	15252
881.619	15264
881.746	15180
881.872	15218
881.999	15226
882.125	15123
882.252	15283
882.378	15192
882.505	15325
882.631	15085
882.757	14998
882.883	14982
883.01	15116
883.136	14910
883.262	14952
883.388	14800
883.514	15085
883.64	15017
883.766	14975
883.892	14769
884.018	14849
884.143	14979
884.269	15104
884.395	14826
884.52	14610
884.646	14792
884.772	14682
884.897	14568
885.023	14682
885.148	14785
885.274	14948
885.399	14819
885.524	14781
885.65	14750
885.775	14708
885.9	14636
886.025	14788
886.15	14834
886.275	14640
886.4	14617
886.525	14678
886.65	14682
886.775	14724
886.9	14910
887.025	14963
887.149	14750
887.274	14602
887.399	14492
887.523	14518
887.648	14511
887.773	14552
887.897	14606
888.021	14655
888.146	14473
888.27	14678
888.395	14773
888.519	14610
888.643	14598
888.767	14522
888.891	14450
889.015	14374
889.139	14343
889.263	14412
889.387	14507
889.511	14708
889.635	14568
889.759	14324
889.883	14438
890.006	14393
890.13	14613
890.254	14370
890.377	14320
890.501	14183
890.624	14157
890.748	14259
890.871	14134
890.995	14031
891.118	14020
891.241	14145
891.364	14084
891.488	14107
891.611	14103
891.734	14126
891.857	14240
891.98	14058
892.103	14214
892.226	14107
892.349	14119
892.471	14005
892.594	14119
892.717	14130
892.839	14157
892.962	14058
893.085	14145
893.207	14107
893.33	14020
893.452	14035
893.575	14126
893.697	14084
893.819	14275
893.941	14431
894.064	14358
894.186	14065
894.308	14088
894.43	14199
894.552	14317
894.674	14259
894.796	14081
894.918	14142
895.04	14062
895.161	14191
895.283	14278
895.405	14107
895.526	14275
895.648	14210
895.769	14256
895.891	14275
896.012	14400
896.134	14263
896.255	14248
896.376	14199
896.498	14309
896.619	14343
896.74	14256
896.861	14404
896.982	14667
897.103	14743
897.224	14579
897.345	14457
897.466	14457
897.587	14549
897.708	14678
897.828	14549
897.949	14522
898.07	14476
898.19	14541
898.311	14640
898.431	14583
898.552	14560
898.672	14640
898.792	14868
898.913	14712
899.033	14617
899.153	14442
899.273	14442
899.393	14404
899.513	14495
899.633	14457
899.753	14469
899.873	14488
899.993	14495
900.113	14461
900.232	14537
900.352	14438
900.472	14370
900.591	14256
900.711	14309
900.83	14301
900.95	14465
901.069	14518
901.189	14191
901.308	14084
901.427	14046
901.546	13989
901.665	14096
901.784	14092
901.904	13871
902.023	13833
902.141	13601
902.26	13548
902.379	13731
902.498	13670
902.617	13605
902.735	13605
902.854	13620
902.973	13460
903.091	13365
903.21	13228
903.328	13316
903.446	13369
903.565	13137
903.683	13202
903.801	13053
903.919	13194
904.038	13175
904.156	13034
904.274	13000
904.392	13038
904.51	13000
904.627	12909
904.745	12951
904.863	13019
904.981	12700
905.098	12768
905.216	12700
905.334	12688
905.451	12760
905.569	12673
905.686	12715
905.803	12646
905.921	12506
906.038	12616
906.155	12521
906.272	12403
906.389	12361
906.506	12399
906.623	12308
906.74	12266
906.857	12117
906.974	12152
907.091	12311
907.208	12456
907.324	12296
907.441	12209
907.557	12079
907.674	12007
907.79	11958
907.907	11973
908.023	12041
908.139	12060
908.256	11950
908.372	11878
908.488	11923
908.604	11824
908.72	11756
908.836	11813
908.952	11718
909.068	11828
909.184	11904
909.3	11794
909.415	11851
909.531	11828
909.647	11619
909.762	11649
909.878	11532
909.993	11554
910.108	11493
910.224	11543
910.339	11547
910.454	11402
910.57	11383
910.685	11318
910.8	11638
910.915	11573
911.03	11330
911.145	11303
911.259	11296
911.374	11258
911.489	11201
911.604	11090
911.718	11052
911.833	10999
911.947	10919
912.062	10797
912.176	11018
912.291	10987
912.405	10999
912.519	11143
912.633	11204
912.748	11086
912.862	10999
912.976	10915
913.09	10793
913.204	10873
913.318	10896
913.431	10987
913.545	10961
913.659	10991
913.772	10854
913.886	10793
914	10744
914.113	10854
914.226	10915
914.34	10820
914.453	10668
914.566	10820
914.68	10607
914.793	10653
914.906	10561
915.019	10599
915.132	10409
915.245	10489
915.358	10527
915.47	10500
915.583	10504
915.696	10554
915.809	10679
915.921	10656
916.034	10489
916.146	10489
916.259	10394
916.371	10493
916.483	10550
916.595	10367
916.708	10455
916.82	10428
916.932	10371
917.044	10440
917.156	10386
917.268	10310
917.38	10367
917.491	10310
917.603	10333
917.715	10402
917.826	10451
917.938	10344
918.049	10196
918.161	10318
918.272	10386
918.384	10546
918.495	10375
918.606	10192
918.717	10143
918.828	10242
918.939	10284
919.05	10207
919.161	10215
919.272	10040
919.383	10109
919.494	10246
919.604	10386
919.715	10207
919.826	10169
919.936	10234
920.047	10280
920.157	10261
920.267	10443
920.378	10268
920.488	10200
920.598	10432
920.708	10592
920.818	10402
920.928	10485
921.038	10538
921.148	10558
921.258	10261
921.368	10196
921.477	10101
921.587	9975
921.697	9975
921.806	10124
921.916	10013
922.025	9888
922.134	9812
922.244	9759
922.353	9918
922.462	9755
922.571	9618
922.68	9435
922.789	9454
922.898	9435
923.007	9473
923.116	9500
923.224	9469
923.333	9466
923.442	9412
923.55	9348
923.659	9382
923.767	9397
923.876	9420
923.984	9439
924.092	9268
924.201	9370
924.309	9325
924.417	9351
924.525	9264
924.633	9302
924.741	10090
924.849	9108
924.956	9313
925.064	9161
925.172	9077
925.279	9138
925.387	9119
925.494	9104
925.602	9272
925.709	9245
925.816	9058
925.924	9184
926.031	9222
926.138	9131
926.245	9203
926.352	9070
926.459	9222
926.566	9233
926.673	9055
926.779	9066
926.886	9009
926.993	8895
927.099	8834
927.206	8796
927.312	8880
927.419	8944
927.525	8864
927.631	8906
927.737	8781
927.843	8708
927.95	8602
928.056	8766
928.162	8781
928.267	8800
928.373	9393
928.479	8872
928.585	8621
928.69	8754
928.796	8800
928.901	8655
929.007	8511
929.112	8674
929.218	8648
929.323	8602
929.428	8556
929.533	8686
929.638	8545
929.743	8575
929.848	8613
929.953	8522
930.058	8446
930.163	8400
930.267	8389
930.372	8492
930.477	8377
930.581	8541
930.685	8408
930.79	8252
930.894	8332
930.998	8221
931.103	8434
931.207	8039
931.311	8081
931.415	7894
931.519	7818
931.623	7849
