Data from test_V78500241_1907.txt Node
Date: Fri Mar 25 14:46:59 CST 2022
User: usil
Spectrometer: V785-0024
Trigger mode: 0
Integration Time (sec): 4.000000E-1
Scans to average: 1
Nonlinearity correction enabled: false
Boxcar width: 0
Storing dark spectrum: false
XAxis mode: Wavelengths
Number of Pixels in Spectrum: 1024
>>>>>Begin Spectral Data<<<<<
801.071	21998
801.214	22006
801.356	21747
801.499	21595
801.641	21481
801.783	21344
801.926	21466
802.068	21504
802.211	21340
802.353	21321
802.496	21150
802.638	20975
802.78	21024
802.923	20834
803.065	20872
803.208	20689
803.35	20769
803.492	20830
803.635	20937
803.777	20727
803.919	20804
804.061	21165
804.204	20804
804.346	20796
804.488	20659
804.63	20724
804.773	20731
804.915	20701
805.057	20807
805.199	20629
805.341	20800
805.483	20838
805.626	20796
805.768	20708
805.91	20674
806.052	20792
806.194	20594
806.336	20815
806.478	20693
806.62	20625
806.762	20777
806.904	20899
807.046	21146
807.188	21017
807.33	21001
807.472	20998
807.614	20998
807.756	20963
807.898	20754
808.04	20663
808.182	20724
808.324	20777
808.465	20868
808.607	20960
808.749	21066
808.891	21093
809.033	21184
809.174	21055
809.316	21020
809.458	21089
809.6	21062
809.741	21173
809.883	21188
810.025	21188
810.166	21222
810.308	21203
810.45	21230
810.591	21123
810.733	20952
810.875	20811
811.016	20773
811.158	20606
811.299	20845
811.441	21074
811.582	20887
811.724	20754
811.865	20804
812.007	20891
812.148	20724
812.29	20944
812.431	20960
812.573	21096
812.714	21294
812.855	21310
812.997	21416
813.138	21507
813.279	21382
813.421	21367
813.562	21317
813.703	21138
813.845	21085
813.986	20640
814.127	20606
814.268	20465
814.41	20484
814.551	20446
814.692	20377
814.833	20309
814.974	20294
815.115	20400
815.256	20248
815.397	20115
815.539	20267
815.68	20168
815.821	20088
815.962	20088
816.103	20050
816.244	19978
816.385	19887
816.526	19913
816.666	19689
816.807	19620
816.948	19525
817.089	19647
817.23	19544
817.371	19632
817.512	19495
817.653	19552
817.793	19468
817.934	19506
818.075	19571
818.216	19544
818.356	19487
818.497	19335
818.638	19168
818.778	19206
818.919	19232
819.06	19354
819.2	19358
819.341	19400
819.481	19537
819.622	19525
819.762	19738
819.903	19586
820.043	19582
820.184	19559
820.324	19480
820.465	19567
820.605	19426
820.746	19449
820.886	19403
821.026	19483
821.167	19396
821.307	19655
821.447	19377
821.588	19270
821.728	19065
821.868	19057
822.008	18943
822.149	18943
822.289	18871
822.429	18650
822.569	18681
822.709	18570
822.849	18407
822.99	18441
823.13	18403
823.27	18319
823.41	18091
823.55	18167
823.69	18194
823.83	18209
823.97	18194
824.11	17999
824.25	17946
824.389	17916
824.529	18060
824.669	18026
824.809	18057
824.949	18045
825.089	18190
825.228	17977
825.368	17802
825.508	17794
825.648	17802
825.787	17783
825.927	17866
826.067	17680
826.206	17726
826.346	17809
826.485	17809
826.625	17790
826.765	17950
826.904	17828
827.044	17581
827.183	17615
827.323	17425
827.462	17516
827.601	17585
827.741	17509
827.88	17467
828.02	17269
828.159	17376
828.298	17497
828.437	17707
828.577	17436
828.716	17562
828.855	17532
828.994	17326
829.134	17208
829.273	17299
829.412	17170
829.551	17284
829.69	17208
829.829	17292
829.968	17387
830.107	17307
830.246	17200
830.385	17178
830.524	17124
830.663	17045
830.802	16995
830.941	16892
831.08	16862
831.219	16866
831.357	16919
831.496	17178
831.635	16850
831.774	16744
831.913	16752
832.051	16698
832.19	16744
832.329	16744
832.467	16653
832.606	16565
832.744	16527
832.883	16519
833.022	16641
833.16	16599
833.299	16763
833.437	16645
833.576	16679
833.714	16672
833.852	16683
833.991	16668
834.129	16729
834.267	16656
834.406	16584
834.544	16729
834.682	16603
834.821	16630
834.959	16740
835.097	16554
835.235	16713
835.373	16691
835.511	16679
835.65	16531
835.788	16599
835.926	16523
836.064	16318
836.202	16436
836.34	16493
836.478	16599
836.615	16565
836.753	16577
836.891	16599
837.029	16577
837.167	16561
837.305	16497
837.443	16459
837.58	16394
837.718	16500
837.856	16485
837.993	16459
838.131	16516
838.269	16299
838.406	16299
838.544	16402
838.681	16143
838.819	16044
838.956	15987
839.094	15964
839.231	16013
839.369	16207
839.506	16386
839.643	16207
839.781	16071
839.918	15918
840.055	16006
840.193	15998
840.33	15934
840.467	15903
840.604	15911
840.742	16219
840.879	15876
841.016	15991
841.153	15899
841.29	15964
841.427	16013
841.564	15998
841.701	16002
841.838	15937
841.975	15827
842.112	15857
842.249	15747
842.385	15686
842.522	15892
842.659	15800
842.796	15751
842.933	15690
843.069	15713
843.206	15895
843.343	15911
843.479	15739
843.616	15812
843.752	15679
843.889	15564
844.025	15648
844.162	15500
844.298	15698
844.435	15549
844.571	15462
844.708	15732
844.844	15675
844.98	15701
845.117	15724
845.253	15500
845.389	15477
845.525	15511
845.661	15458
845.798	15378
845.934	15412
846.07	15252
846.206	15374
846.342	15576
846.478	15382
846.614	15188
846.75	14998
846.886	15116
847.022	15249
847.158	15074
847.294	15161
847.429	15104
847.565	15093
847.701	15317
847.837	14887
847.972	14861
848.108	14960
848.244	14826
848.379	14735
848.515	14762
848.65	14731
848.786	14754
848.921	14670
849.057	14864
849.192	14800
849.328	14792
849.463	14731
849.598	14735
849.734	14651
849.869	14655
850.004	14613
850.14	14484
850.275	14507
850.41	14457
850.545	14355
850.68	14423
850.815	14412
850.95	14473
851.085	14769
851.22	14621
851.355	14442
851.49	14465
851.625	14480
851.76	14457
851.895	14362
852.03	14415
852.165	14446
852.299	14473
852.434	14613
852.569	14514
852.703	14537
852.838	14598
852.973	14682
853.107	14564
853.242	14454
853.376	14328
853.511	14282
853.645	14351
853.78	14469
853.914	14267
854.048	14377
854.183	14393
854.317	14362
854.451	14560
854.585	14419
854.72	14347
854.854	14377
854.988	14298
855.122	14313
855.256	14218
855.39	14263
855.524	14465
855.658	14446
855.792	14396
855.926	14389
856.06	14393
856.194	14476
856.327	14355
856.461	14332
856.595	14294
856.729	14290
856.862	14408
856.996	14328
857.13	14438
857.263	14450
857.397	14427
857.53	14317
857.664	14499
857.797	14434
857.931	14465
858.064	14495
858.197	14404
858.331	14370
858.464	14301
858.597	14298
858.731	14381
858.864	14415
858.997	14396
859.13	14385
859.263	14412
859.396	14484
859.529	14286
859.662	14328
859.795	14259
859.928	14324
860.061	14571
860.194	14564
860.327	14355
860.46	14305
860.592	14575
860.725	14465
860.858	14579
860.99	14362
861.123	14324
861.256	14218
861.388	14358
861.521	15070
861.653	14248
861.786	14172
861.918	14221
862.05	14286
862.183	14275
862.315	14377
862.447	14457
862.58	14336
862.712	14172
862.844	13993
862.976	14191
863.108	14298
863.24	14461
863.372	14168
863.504	14088
863.636	14115
863.768	14172
863.9	14100
864.032	14077
864.164	14084
864.296	14149
864.428	14237
864.559	14286
864.691	14252
864.823	14290
864.954	14130
865.086	14218
865.217	14214
865.349	14058
865.48	14210
865.612	14157
865.743	14233
865.875	14168
866.006	14046
866.137	14180
866.269	14195
866.4	14153
866.531	14043
866.662	14103
866.793	14126
866.924	14012
867.055	14157
867.186	14183
867.317	14050
867.448	13947
867.579	14107
867.71	14103
867.841	14100
867.972	14050
868.103	14016
868.233	14153
868.364	14123
868.495	14183
868.625	14377
868.756	14507
868.886	14336
869.017	14336
869.147	14450
869.278	14396
869.408	14355
869.539	14328
869.669	14469
869.799	14465
869.929	14499
870.06	14526
870.19	14693
870.32	14663
870.45	14739
870.58	14785
870.71	14807
870.84	14853
870.97	14792
871.1	14758
871.23	14960
871.36	15013
871.489	14769
871.619	14918
871.749	14971
871.879	14921
872.008	15093
872.138	14921
872.267	14971
872.397	14826
872.526	14796
872.656	14796
872.785	14800
872.915	14941
873.044	15108
873.173	15043
873.303	15028
873.432	15047
873.561	15013
873.69	15074
873.819	15085
873.948	15074
874.077	15055
874.206	14937
874.335	14975
874.464	15089
874.593	15256
874.722	15230
874.851	15370
874.979	15348
875.108	15408
875.237	15317
875.365	15211
875.494	15264
875.623	15424
875.751	15272
875.88	15389
876.008	15542
876.136	15580
876.265	15759
876.393	15823
876.521	15899
876.65	15812
876.778	15713
876.906	15720
877.034	15667
877.162	15766
877.29	15682
877.418	15785
877.546	15671
877.674	15762
877.802	15720
877.93	15766
878.058	15724
878.185	15599
878.313	15671
878.441	15793
878.568	15591
878.696	15743
878.824	15831
878.951	15842
879.079	15998
879.206	15991
879.333	15884
879.461	15732
879.588	15766
879.715	15895
879.842	16116
879.97	15808
880.097	15576
880.224	15576
880.351	15641
880.478	15534
880.605	15431
880.732	15595
880.859	15720
880.986	15580
881.112	15625
881.239	15435
881.366	15420
881.493	15279
881.619	15222
881.746	15222
881.872	15150
881.999	15165
882.125	15298
882.252	15306
882.378	15321
882.505	15329
882.631	15157
882.757	15085
882.883	15104
883.01	15089
883.136	15081
883.262	15017
883.388	14887
883.514	15070
883.64	15123
883.766	15154
883.892	14826
884.018	14800
884.143	15135
884.269	15077
884.395	14731
884.52	14686
884.646	14762
884.772	14678
884.897	14762
885.023	14830
885.148	14994
885.274	14918
885.399	14883
885.524	14815
885.65	14819
885.775	14792
885.9	14667
886.025	14960
886.15	14880
886.275	14674
886.4	14617
886.525	14777
886.65	14689
886.775	14651
886.9	14902
887.025	14967
887.149	14773
887.274	14674
887.399	14667
887.523	14571
887.648	14594
887.773	14575
887.897	14682
888.021	14686
888.146	14473
888.27	14731
888.395	14625
888.519	14701
888.643	14663
888.767	14754
888.891	14530
889.015	14461
889.139	14522
889.263	14358
889.387	14484
889.511	14629
889.635	14587
889.759	14393
889.883	14408
890.006	14454
890.13	14522
890.254	14336
890.377	14423
890.501	14195
890.624	14328
890.748	14374
890.871	14244
890.995	13986
891.118	14103
891.241	14199
891.364	14199
891.488	14225
891.611	14157
891.734	14221
891.857	14267
891.98	14111
892.103	14343
892.226	14237
892.349	14119
892.471	14077
892.594	14172
892.717	14134
892.839	14081
892.962	14195
893.085	14317
893.207	14103
893.33	14050
893.452	14050
893.575	14183
893.697	14180
893.819	14267
893.941	14370
894.064	14271
894.186	14172
894.308	14088
894.43	14294
894.552	14366
894.674	14248
894.796	14084
894.918	14195
895.04	14157
895.161	14294
895.283	14271
895.405	14183
895.526	14309
895.648	14328
895.769	14286
895.891	14396
896.012	14412
896.134	14324
896.255	14412
896.376	14233
896.498	14351
896.619	14419
896.74	14332
896.861	14374
896.982	14743
897.103	14887
897.224	14602
897.345	14663
897.466	14507
897.587	14610
897.708	14701
897.828	14526
897.949	14606
898.07	14484
898.19	14575
898.311	14705
898.431	14598
898.552	14659
898.672	14750
898.792	14914
898.913	14659
899.033	14682
899.153	14530
899.273	14419
899.393	14507
899.513	14511
899.633	14499
899.753	14537
899.873	14518
899.993	14537
900.113	14400
900.232	14522
900.352	14480
900.472	14370
900.591	14301
900.711	14408
900.83	14427
900.95	14503
901.069	14514
901.189	14298
901.308	14153
901.427	14115
901.546	14008
901.665	14077
901.784	14073
901.904	13963
902.023	13856
902.141	13696
902.26	13594
902.379	13670
902.498	13616
902.617	13472
902.735	13571
902.854	13605
902.973	13563
903.091	13430
903.21	13354
903.328	13362
903.446	13251
903.565	13206
903.683	13129
903.801	13194
903.919	13183
904.038	13183
904.156	12958
904.274	13069
904.392	13012
904.51	12947
904.627	12996
904.745	13114
904.863	13050
904.981	12867
905.098	12707
905.216	12700
905.334	12757
905.451	12783
905.569	12642
905.686	12726
905.803	12791
905.921	12528
906.038	12696
906.155	12544
906.272	12445
906.389	12490
906.506	12247
906.623	12296
906.74	12353
906.857	12220
906.974	12224
907.091	12388
907.208	12452
907.324	12384
907.441	12220
907.557	12201
907.674	12121
907.79	12038
907.907	12045
908.023	12072
908.139	12152
908.256	12022
908.372	12072
908.488	11984
908.604	11874
908.72	11729
908.836	11779
908.952	11798
909.068	11786
909.184	11882
909.3	11847
909.415	11893
909.531	11802
909.647	11642
909.762	11646
909.878	11646
909.993	11630
910.108	11653
910.224	11600
910.339	11600
910.454	11512
910.57	11554
910.685	11478
910.8	11695
910.915	11630
911.03	11566
911.145	11330
911.259	11315
911.374	11410
911.489	11193
911.604	11178
911.718	11079
911.833	11132
911.947	10923
912.062	10877
912.176	11079
912.291	11067
912.405	11006
912.519	11273
912.633	11220
912.748	11140
912.862	11094
912.976	10942
913.09	10866
913.204	10877
913.318	10991
913.431	11071
913.545	10995
913.659	11094
913.772	10854
913.886	10904
914	10801
914.113	10915
914.226	11056
914.34	10885
914.453	10675
914.566	10930
914.68	10816
914.793	10763
914.906	10580
915.019	10489
915.132	10546
915.245	10554
915.358	10550
915.47	10577
915.583	10580
915.696	10611
915.809	10748
915.921	10740
916.034	10550
916.146	10508
916.259	10443
916.371	10656
916.483	10599
916.595	10436
916.708	10405
916.82	10485
916.932	10542
917.044	10436
917.156	10497
917.268	10322
917.38	10363
917.491	10375
917.603	10516
917.715	10485
917.826	10519
917.938	10382
918.049	10314
918.161	10405
918.272	10523
918.384	10527
918.495	10337
918.606	10310
918.717	10196
918.828	10306
918.939	10268
919.05	10135
919.161	10257
919.272	10059
919.383	10131
919.494	10310
919.604	10497
919.715	10284
919.826	10215
919.936	10280
920.047	10318
920.157	10276
920.267	10538
920.378	10303
920.488	10352
920.598	10531
920.708	10569
920.818	10432
920.928	10436
921.038	10656
921.148	10618
921.258	10318
921.368	10227
921.477	10128
921.587	10135
921.697	9968
921.806	10188
921.916	10059
922.025	9876
922.134	9850
922.244	9789
922.353	9884
922.462	9819
922.571	9717
922.68	9515
922.789	9485
922.898	9584
923.007	9504
923.116	9584
923.224	9519
923.333	9519
923.442	9370
923.55	9359
923.659	9382
923.767	9507
923.876	9336
923.984	9397
924.092	9370
924.201	9435
924.309	9473
924.417	9374
924.525	9348
924.633	9367
924.741	10371
924.849	9142
924.956	9306
925.064	9230
925.172	9097
925.279	9093
925.387	9233
925.494	9173
925.602	9313
925.709	9310
925.816	9119
925.924	9138
926.031	9264
926.138	9176
926.245	9237
926.352	9051
926.459	9355
926.566	9245
926.673	9097
926.779	9127
926.886	9017
926.993	8883
927.099	8925
927.206	8899
927.312	8842
927.419	8910
927.525	8883
927.631	8891
927.737	8830
927.843	8788
927.95	8682
928.056	8762
928.162	8823
928.267	8853
928.373	9393
928.479	8883
928.585	8648
928.69	8849
928.796	8819
928.901	8678
929.007	8518
929.112	8777
929.218	8629
929.323	8640
929.428	8632
929.533	8731
929.638	8579
929.743	8598
929.848	8575
929.953	8598
930.058	8454
930.163	8324
930.267	8400
930.372	8484
930.477	8324
930.581	8629
930.685	8415
930.79	8286
930.894	8385
930.998	8358
931.103	8469
931.207	8126
931.311	8100
931.415	8012
931.519	7830
931.623	7803
