Data from test_V78500241_1338.txt Node
Date: Fri Mar 25 14:43:01 CST 2022
User: usil
Spectrometer: V785-0024
Trigger mode: 0
Integration Time (sec): 4.000000E-1
Scans to average: 1
Nonlinearity correction enabled: false
Boxcar width: 0
Storing dark spectrum: false
XAxis mode: Wavelengths
Number of Pixels in Spectrum: 1024
>>>>>Begin Spectral Data<<<<<
801.071	22409
801.214	22230
801.356	21991
801.499	21975
801.641	21724
801.783	21850
801.926	21770
802.068	21755
802.211	21660
802.353	21587
802.496	21287
802.638	21291
802.78	21188
802.923	21138
803.065	21055
803.208	21165
803.35	21055
803.492	21184
803.635	21313
803.777	21150
803.919	21222
804.061	21435
804.204	21226
804.346	21070
804.488	20998
804.63	21028
804.773	20975
804.915	21024
805.057	21218
805.199	21047
805.341	21043
805.483	21032
805.626	21093
805.768	21005
805.91	21001
806.052	21043
806.194	21001
806.336	21283
806.478	21070
806.62	20982
806.762	21028
806.904	21275
807.046	21511
807.188	21412
807.33	21317
807.472	21454
807.614	21329
807.756	21355
807.898	21294
808.04	21233
808.182	21340
808.324	21264
808.465	21344
808.607	21523
808.749	21610
808.891	21690
809.033	21812
809.174	21755
809.316	21667
809.458	21526
809.6	21545
809.741	21515
809.883	21504
810.025	21667
810.166	21686
810.308	21648
810.45	21610
810.591	21523
810.733	21382
810.875	21367
811.016	21112
811.158	21146
811.299	21260
811.441	21386
811.582	21382
811.724	21222
811.865	21195
812.007	21283
812.148	21226
812.29	21233
812.431	21374
812.573	21526
812.714	21618
812.855	21785
812.997	21827
813.138	21926
813.279	21797
813.421	21641
813.562	21656
813.703	21469
813.845	21154
813.986	21142
814.127	20929
814.268	20804
814.41	20777
814.551	20667
814.692	20849
814.833	20743
814.974	20697
815.115	20670
815.256	20530
815.397	20644
815.539	20636
815.68	20469
815.821	20438
815.962	20545
816.103	20423
816.244	20385
816.385	20161
816.526	20218
816.666	20039
816.807	19856
816.948	20054
817.089	20016
817.23	19875
817.371	20020
817.512	19928
817.653	19849
817.793	19898
817.934	19902
818.075	20005
818.216	19887
818.356	20035
818.497	19708
818.638	19510
818.778	19689
818.919	19567
819.06	19670
819.2	19780
819.341	19818
819.481	19788
819.622	19974
819.762	20115
819.903	20031
820.043	20016
820.184	19906
820.324	19894
820.465	20005
820.605	19936
820.746	19894
820.886	19708
821.026	19856
821.167	19795
821.307	19974
821.447	19818
821.588	19609
821.728	19590
821.868	19419
822.008	19301
822.149	19202
822.289	19274
822.429	19103
822.569	18989
822.709	19057
822.849	18871
822.99	18760
823.13	18734
823.27	18749
823.41	18566
823.55	18517
823.69	18544
823.83	18764
823.97	18582
824.11	18433
824.25	18350
824.389	18380
824.529	18490
824.669	18334
824.809	18570
824.949	18506
825.089	18479
825.228	18418
825.368	18095
825.508	18102
825.648	18224
825.787	18220
825.927	18224
826.067	18167
826.206	18136
826.346	18174
826.485	18213
826.625	18129
826.765	18353
826.904	18136
827.044	17954
827.183	17950
827.323	17859
827.462	17897
827.601	17802
827.741	17771
827.88	17866
828.02	17764
828.159	17767
828.298	17798
828.437	17855
828.577	17786
828.716	17927
828.855	17786
828.994	17577
829.134	17634
829.273	17619
829.412	17566
829.551	17490
829.69	17562
829.829	17653
829.968	17672
830.107	17684
830.246	17585
830.385	17608
830.524	17410
830.663	17493
830.802	17459
830.941	17189
831.08	17147
831.219	17334
831.357	17220
831.496	17345
831.635	17170
831.774	17223
831.913	17178
832.051	16961
832.19	16915
832.329	17037
832.467	16892
832.606	16866
832.744	16934
832.883	16927
833.022	16904
833.16	16835
833.299	16911
833.437	16942
833.576	16984
833.714	16965
833.852	17056
833.991	17006
834.129	17029
834.267	17090
834.406	16946
834.544	17014
834.682	16946
834.821	17109
834.959	17159
835.097	16934
835.235	17041
835.373	16984
835.511	16957
835.65	16953
835.788	16831
835.926	16790
836.064	16748
836.202	16759
836.34	16919
836.478	16984
836.615	16866
836.753	17014
836.891	17022
837.029	16980
837.167	16854
837.305	16771
837.443	16733
837.58	16744
837.718	16858
837.856	16847
837.993	16656
838.131	16630
838.269	16584
838.406	16691
838.544	16573
838.681	16421
838.819	16363
838.956	16249
839.094	16173
839.231	16356
839.369	16527
839.506	16736
839.643	16500
839.781	16272
839.918	16249
840.055	16272
840.193	16291
840.33	16303
840.467	16246
840.604	16337
840.742	16497
840.879	16192
841.016	16124
841.153	16196
841.29	16386
841.427	16318
841.564	16348
841.701	16310
841.838	16219
841.975	16272
842.112	16242
842.249	16032
842.385	16017
842.522	16109
842.659	16071
842.796	15968
842.933	16131
843.069	15991
843.206	15911
843.343	16158
843.479	16017
843.616	16063
843.752	15793
843.889	15922
844.025	15975
844.162	15797
844.298	15991
844.435	15930
844.571	15785
844.708	15766
844.844	16021
844.98	15956
845.117	15926
845.253	15812
845.389	15804
845.525	15907
845.661	15895
845.798	15812
845.934	15972
846.07	15926
846.206	15953
846.342	16006
846.478	15816
846.614	15488
846.75	15382
846.886	15523
847.022	15538
847.158	15458
847.294	15401
847.429	15473
847.565	15397
847.701	15576
847.837	15199
847.972	15081
848.108	15237
848.244	15146
848.379	15112
848.515	14941
848.65	14834
848.786	14971
848.921	14990
849.057	15169
849.192	15051
849.328	15024
849.463	15104
849.598	14986
849.734	14990
849.869	14887
850.004	14712
850.14	14811
850.275	14689
850.41	14556
850.545	14663
850.68	14720
850.815	14731
850.95	14739
851.085	14986
851.22	14952
851.355	14777
851.49	14815
851.625	14735
851.76	14678
851.895	14651
852.03	14678
852.165	14655
852.299	14743
852.434	14857
852.569	14853
852.703	14758
852.838	14868
852.973	14975
853.107	14948
853.242	14659
853.376	14705
853.511	14590
853.645	14530
853.78	14758
853.914	14651
854.048	14686
854.183	14625
854.317	14640
854.451	14792
854.585	14773
854.72	14575
854.854	14716
854.988	14579
855.122	14583
855.256	14530
855.39	14606
855.524	14667
855.658	14659
855.792	14674
855.926	14659
856.06	14792
856.194	14701
856.327	14617
856.461	14541
856.595	14644
856.729	14560
856.862	14769
856.996	14712
857.13	14716
857.263	14804
857.397	14811
857.53	14663
857.664	14682
857.797	14659
857.931	14705
858.064	14746
858.197	14670
858.331	14701
858.464	14629
858.597	14522
858.731	14731
858.864	14655
858.997	14545
859.13	14625
859.263	14667
859.396	14750
859.529	14674
859.662	14625
859.795	14655
859.928	14606
860.061	14765
860.194	14845
860.327	14724
860.46	14575
860.592	14769
860.725	14845
860.858	14743
860.99	14621
861.123	14621
861.256	14526
861.388	14689
861.521	15237
861.653	14552
861.786	14446
861.918	14518
862.05	14526
862.183	14579
862.315	14518
862.447	14686
862.58	14686
862.712	14423
862.844	14332
862.976	14541
863.108	14450
863.24	14994
863.372	14313
863.504	14351
863.636	14427
863.768	14450
863.9	14404
864.032	14366
864.164	14473
864.296	14492
864.428	14400
864.559	14533
864.691	14499
864.823	14412
864.954	14454
865.086	14518
865.217	14393
865.349	14355
865.48	14381
865.612	14400
865.743	14499
865.875	14434
866.006	14385
866.137	14202
866.269	14488
866.4	14465
866.531	14339
866.662	14317
866.793	14400
866.924	14351
867.055	14370
867.186	14343
867.317	14419
867.448	14218
867.579	14381
867.71	14332
867.841	14305
867.972	14393
868.103	14320
868.233	14366
868.364	14450
868.495	14499
868.625	14594
868.756	14708
868.886	14461
869.017	14541
869.147	14762
869.278	14682
869.408	14693
869.539	14629
869.669	14705
869.799	14655
869.929	14792
870.06	14864
870.19	14986
870.32	14979
870.45	14982
870.58	15028
870.71	15127
870.84	15077
870.97	15074
871.1	14990
871.23	15249
871.36	15272
871.489	15161
871.619	15108
871.749	15211
871.879	15176
872.008	15268
872.138	15184
872.267	15195
872.397	15100
872.526	15123
872.656	15032
872.785	15142
872.915	15230
873.044	15298
873.173	15241
873.303	15287
873.432	15275
873.561	15378
873.69	15230
873.819	15279
873.948	15321
874.077	15294
874.206	15329
874.335	15386
874.464	15523
874.593	15568
874.722	15625
874.851	15720
874.979	15660
875.108	15606
875.237	15561
875.365	15443
875.494	15568
875.623	15705
875.751	15648
875.88	15770
876.008	15701
876.136	15835
876.265	16006
876.393	16086
876.521	16048
876.65	16036
876.778	16006
876.906	15922
877.034	15953
877.162	16029
877.29	15915
877.418	16013
877.546	16025
877.674	16055
877.802	16082
877.93	16002
878.058	15987
878.185	15945
878.313	16040
878.441	15937
878.568	15953
878.696	16017
878.824	16139
878.951	16112
879.079	16204
879.206	16329
879.333	16325
879.461	16200
879.588	16299
879.715	16329
879.842	16310
879.97	16200
880.097	16002
880.224	16048
880.351	15857
880.478	15926
880.605	15915
880.732	15903
880.859	16063
880.986	15956
881.112	16006
881.239	15736
881.366	15652
881.493	15542
881.619	15504
881.746	15553
881.872	15599
881.999	15485
882.125	15477
882.252	15572
882.378	15614
882.505	15614
882.631	15644
882.757	15416
882.883	15469
883.01	15382
883.136	15340
883.262	15245
883.388	15287
883.514	15348
883.64	15416
883.766	15283
883.892	15077
884.018	15150
884.143	15408
884.269	15382
884.395	15138
884.52	15009
884.646	15047
884.772	15058
884.897	14960
885.023	15005
885.148	15058
885.274	15241
885.399	15039
885.524	15039
885.65	15176
885.775	15089
885.9	15085
886.025	15108
886.15	15218
886.275	14952
886.4	15062
886.525	14994
886.65	14994
886.775	14933
886.9	15100
887.025	15226
887.149	14998
887.274	14902
887.399	14868
887.523	14811
887.648	14857
887.773	14815
887.897	14975
888.021	14921
888.146	14815
888.27	14979
888.395	15009
888.519	14906
888.643	14887
888.767	14853
888.891	14750
889.015	14583
889.139	14804
889.263	14716
889.387	14849
889.511	14883
889.635	14880
889.759	14655
889.883	14697
890.006	14769
890.13	14861
890.254	14648
890.377	14712
890.501	14495
890.624	14473
890.748	14636
890.871	14404
890.995	14305
891.118	14298
891.241	14358
891.364	14423
891.488	14454
891.611	14389
891.734	14461
891.857	14473
891.98	14408
892.103	14499
892.226	14423
892.349	14389
892.471	14202
892.594	14457
892.717	14408
892.839	14400
892.962	14412
893.085	14427
893.207	14301
893.33	14301
893.452	14271
893.575	14427
893.697	14412
893.819	14556
893.941	14659
894.064	14469
894.186	14290
894.308	14381
894.43	14556
894.552	14655
894.674	14625
894.796	14374
894.918	14389
895.04	14415
895.161	14575
895.283	14476
895.405	14503
895.526	14419
895.648	14461
895.769	14530
895.891	14613
896.012	14571
896.134	14556
896.255	14602
896.376	14575
896.498	14568
896.619	14625
896.74	14579
896.861	14617
896.982	14838
897.103	15051
897.224	14868
897.345	14785
897.466	14739
897.587	14864
897.708	14906
897.828	14906
897.949	14864
898.07	14678
898.19	14769
898.311	14902
898.431	14857
898.552	15036
898.672	14960
898.792	14975
898.913	14971
899.033	14788
899.153	14659
899.273	14659
899.393	14838
899.513	14857
899.633	14773
899.753	14792
899.873	14750
899.993	14929
900.113	14701
900.232	14765
900.352	14762
900.472	14693
900.591	14667
900.711	14552
900.83	14545
900.95	14727
901.069	14697
901.189	14621
901.308	14309
901.427	14191
901.546	14366
901.665	14298
901.784	14294
901.904	14214
902.023	14065
902.141	13902
902.26	13887
902.379	13978
902.498	13811
902.617	13864
902.735	13906
902.854	13887
902.973	13753
903.091	13563
903.21	13491
903.328	13578
903.446	13533
903.565	13476
903.683	13449
903.801	13304
903.919	13400
904.038	13388
904.156	13228
904.274	13301
904.392	13304
904.51	13160
904.627	13141
904.745	13263
904.863	13240
904.981	13088
905.098	12951
905.216	12939
905.334	13012
905.451	12924
905.569	12901
905.686	12958
905.803	13031
905.921	12749
906.038	12768
906.155	12700
906.272	12654
906.389	12620
906.506	12498
906.623	12486
906.74	12521
906.857	12330
906.974	12547
907.091	12589
907.208	12688
907.324	12547
907.441	12403
907.557	12296
907.674	12251
907.79	12197
907.907	12197
908.023	12262
908.139	12289
908.256	12194
908.372	12102
908.488	12213
908.604	11969
908.72	11992
908.836	12011
908.952	12026
909.068	11980
909.184	12038
909.3	12045
909.415	12144
909.531	12003
909.647	11847
909.762	11866
909.878	11733
909.993	11684
910.108	11794
910.224	11745
910.339	11779
910.454	11630
910.57	11672
910.685	11611
910.8	11805
910.915	11798
911.03	11695
911.145	11452
911.259	11528
911.374	11505
911.489	11395
911.604	11303
911.718	11208
911.833	11147
911.947	11090
912.062	11060
912.176	11151
912.291	11121
912.405	11216
912.519	11376
912.633	11307
912.748	11326
912.862	11151
912.976	11128
913.09	11010
913.204	11033
913.318	11105
913.431	11140
913.545	11159
913.659	11166
913.772	11105
913.886	10999
914	10911
914.113	11048
914.226	11113
914.34	11010
914.453	10877
914.566	11022
914.68	10965
914.793	10953
914.906	10740
915.019	10706
915.132	10653
915.245	10649
915.358	10725
915.47	10698
915.583	10710
915.696	10797
915.809	10923
915.921	10911
916.034	10596
916.146	10618
916.259	10675
916.371	10740
916.483	10717
916.595	10637
916.708	10618
916.82	10618
916.932	10626
917.044	10596
917.156	10599
917.268	10500
917.38	10550
917.491	10554
917.603	10599
917.715	10611
917.826	10653
917.938	10538
918.049	10455
918.161	10588
918.272	10626
918.384	10630
918.495	10546
918.606	10497
918.717	10367
918.828	10394
918.939	10443
919.05	10295
919.161	10413
919.272	10265
919.383	10268
919.494	10413
919.604	10554
919.715	10402
919.826	10386
919.936	10440
920.047	10531
920.157	10474
920.267	10672
920.378	10413
920.488	10402
920.598	10584
920.708	10702
920.818	10618
920.928	10634
921.038	10831
921.148	10744
921.258	10478
921.368	10375
921.477	10333
921.587	10230
921.697	10067
921.806	10261
921.916	10173
922.025	9972
922.134	9911
922.244	9918
922.353	10067
922.462	9827
922.571	9838
922.68	9694
922.789	9675
922.898	9686
923.007	9534
923.116	9709
923.224	9694
923.333	9618
923.442	9580
923.55	9504
923.659	9530
923.767	9625
923.876	9504
923.984	9603
924.092	9378
924.201	9466
924.309	9637
924.417	9576
924.525	9458
924.633	9564
924.741	10398
924.849	9317
924.956	9477
925.064	9291
925.172	9275
925.279	9253
925.387	9321
925.494	9310
925.602	9401
925.709	9317
925.816	9211
925.924	9325
926.031	9416
926.138	9348
926.245	9317
926.352	9256
926.459	9389
926.566	9401
926.673	9226
926.779	9066
926.886	9192
926.993	9055
927.099	9051
927.206	9013
927.312	8933
927.419	9051
927.525	9036
927.631	9077
927.737	8956
927.843	8929
927.95	8815
928.056	8891
928.162	8918
928.267	8963
928.373	9599
928.479	8956
928.585	8777
928.69	8861
928.796	9013
928.901	8845
929.007	8708
929.112	8853
929.218	8800
929.323	8705
929.428	8754
929.533	8830
929.638	8724
929.743	8659
929.848	8777
929.953	8697
930.058	8621
930.163	8408
930.267	8537
930.372	8648
930.477	8362
930.581	8663
930.685	8571
930.79	8389
930.894	8381
930.998	8415
931.103	8629
931.207	8256
931.311	8153
931.415	8024
931.519	7940
931.623	7940
