Data from test_V78500241_2563.txt Node
Date: Fri Mar 25 14:51:33 CST 2022
User: usil
Spectrometer: V785-0024
Trigger mode: 0
Integration Time (sec): 4.000000E-1
Scans to average: 1
Nonlinearity correction enabled: false
Boxcar width: 0
Storing dark spectrum: false
XAxis mode: Wavelengths
Number of Pixels in Spectrum: 1024
>>>>>Begin Spectral Data<<<<<
801.071	22086
801.214	21873
801.356	21739
801.499	21576
801.641	21439
801.783	21298
801.926	21351
802.068	21439
802.211	21233
802.353	21199
802.496	21028
802.638	20864
802.78	20948
802.923	20758
803.065	20674
803.208	20621
803.35	20743
803.492	20781
803.635	21024
803.777	20670
803.919	20712
804.061	21096
804.204	20705
804.346	20629
804.488	20678
804.63	20552
804.773	20511
804.915	20606
805.057	20743
805.199	20632
805.341	20686
805.483	20849
805.626	20769
805.768	20609
805.91	20697
806.052	20598
806.194	20568
806.336	20743
806.478	20499
806.62	20587
806.762	20682
806.904	20811
807.046	21020
807.188	21093
807.33	20929
807.472	20941
807.614	20883
807.756	20834
807.898	20815
808.04	20606
808.182	20697
808.324	20697
808.465	20777
808.607	20838
808.749	21055
808.891	21085
809.033	21298
809.174	21005
809.316	21116
809.458	21001
809.6	20887
809.741	21005
809.883	20982
810.025	21051
810.166	21135
810.308	21218
810.45	21085
810.591	20971
810.733	20815
810.875	20883
811.016	20712
811.158	20594
811.299	20777
811.441	20826
811.582	20925
811.724	20807
811.865	20830
812.007	20670
812.148	20735
812.29	20678
812.431	20906
812.573	21081
812.714	21252
812.855	21283
812.997	21397
813.138	21515
813.279	21355
813.421	21249
813.562	21188
813.703	21039
813.845	20921
813.986	20731
814.127	20446
814.268	20427
814.41	20278
814.551	20240
814.692	20298
814.833	20248
814.974	20317
815.115	20339
815.256	20244
815.397	20191
815.539	20145
815.68	19989
815.821	19944
815.962	20035
816.103	19959
816.244	19868
816.385	19780
816.526	19696
816.666	19643
816.807	19514
816.948	19453
817.089	19582
817.23	19487
817.371	19468
817.512	19460
817.653	19373
817.793	19392
817.934	19445
818.075	19476
818.216	19369
818.356	19369
818.497	19263
818.638	19046
818.778	19118
818.919	19050
819.06	19266
819.2	19141
819.341	19346
819.481	19285
819.622	19430
819.762	19647
819.903	19510
820.043	19502
820.184	19388
820.324	19422
820.465	19449
820.605	19327
820.746	19362
820.886	19320
821.026	19419
821.167	19282
821.307	19358
821.447	19244
821.588	19232
821.728	19126
821.868	19027
822.008	18932
822.149	18852
822.289	18791
822.429	18517
822.569	18608
822.709	18582
822.849	18311
822.99	18281
823.13	18285
823.27	18292
823.41	18106
823.55	18159
823.69	18213
823.83	18186
823.97	17999
824.11	17885
824.25	17798
824.389	17908
824.529	17893
824.669	17973
824.809	17984
824.949	18011
825.089	17969
825.228	17935
825.368	17649
825.508	17665
825.648	17695
825.787	17714
825.927	17722
826.067	17699
826.206	17703
826.346	17661
826.485	17752
826.625	17657
826.765	17870
826.904	17805
827.044	17478
827.183	17452
827.323	17391
827.462	17501
827.601	17398
827.741	17452
827.88	17463
828.02	17277
828.159	17337
828.298	17486
828.437	17459
828.577	17326
828.716	17558
828.855	17368
828.994	17265
829.134	17189
829.273	17140
829.412	17075
829.551	17105
829.69	17151
829.829	17143
829.968	17170
830.107	17121
830.246	17269
830.385	17052
830.524	17033
830.663	16869
830.802	16968
830.941	16653
831.08	16706
831.219	16797
831.357	16805
831.496	16987
831.635	16774
831.774	16645
831.913	16675
832.051	16580
832.19	16478
832.329	16550
832.467	16421
832.606	16481
832.744	16421
832.883	16318
833.022	16432
833.16	16405
833.299	16512
833.437	16504
833.576	16478
833.714	16546
833.852	16485
833.991	16569
834.129	16489
834.267	16577
834.406	16417
834.544	16447
834.682	16538
834.821	16367
834.959	16729
835.097	16470
835.235	16558
835.373	16599
835.511	16592
835.65	16402
835.788	16436
835.926	16325
836.064	16276
836.202	16211
836.34	16478
836.478	16527
836.615	16516
836.753	16447
836.891	16466
837.029	16493
837.167	16455
837.305	16265
837.443	16295
837.58	16272
837.718	16382
837.856	16284
837.993	16257
838.131	16287
838.269	16249
838.406	16185
838.544	16211
838.681	15915
838.819	16051
838.956	15804
839.094	15842
839.231	15793
839.369	16017
839.506	16185
839.643	16082
839.781	15842
839.918	15915
840.055	15926
840.193	15831
840.33	15816
840.467	15880
840.604	15819
840.742	16257
840.879	15800
841.016	15816
841.153	15774
841.29	15892
841.427	15751
841.564	15930
841.701	15816
841.838	15667
841.975	15759
842.112	15770
842.249	15656
842.385	15682
842.522	15686
842.659	15561
842.796	15667
842.933	15717
843.069	15595
843.206	15511
843.343	15656
843.479	15660
843.616	15606
843.752	15359
843.889	15408
844.025	15458
844.162	15431
844.298	15549
844.435	15439
844.571	15408
844.708	15450
844.844	15485
844.98	15534
845.117	15466
845.253	15329
845.389	15207
845.525	15393
845.661	15310
845.798	15226
845.934	15272
846.07	15195
846.206	15230
846.342	15363
846.478	15184
846.614	14986
846.75	14937
846.886	14982
847.022	15047
847.158	15020
847.294	14948
847.429	15017
847.565	14937
847.701	15222
847.837	14773
847.972	14651
848.108	14853
848.244	14746
848.379	14655
848.515	14522
848.65	14518
848.786	14640
848.921	14667
849.057	14712
849.192	14667
849.328	14469
849.463	14541
849.598	14518
849.734	14556
849.869	14404
850.004	14389
850.14	14415
850.275	14423
850.41	14244
850.545	14320
850.68	14282
850.815	14358
850.95	14385
851.085	14568
851.22	14537
851.355	14282
851.49	14336
851.625	14415
851.76	14278
851.895	14218
852.03	14107
852.165	14275
852.299	14370
852.434	14431
852.569	14423
852.703	14400
852.838	14393
852.973	14492
853.107	14549
853.242	14339
853.376	14202
853.511	14210
853.645	14126
853.78	14278
853.914	14164
854.048	14161
854.183	14229
854.317	14210
854.451	14336
854.585	14191
854.72	14202
854.854	14240
854.988	14168
855.122	14218
855.256	14054
855.39	14145
855.524	14351
855.658	14225
855.792	14267
855.926	14263
856.06	14263
856.194	14305
856.327	14199
856.461	14081
856.595	14149
856.729	14301
856.862	14393
856.996	14252
857.13	14267
857.263	14328
857.397	14294
857.53	14313
857.664	14278
857.797	14347
857.931	14294
858.064	14377
858.197	14355
858.331	14225
858.464	14191
858.597	14065
858.731	14100
858.864	14142
858.997	14218
859.13	14240
859.263	14290
859.396	14199
859.529	14183
859.662	14134
859.795	14123
859.928	14199
860.061	14366
860.194	14381
860.327	14298
860.46	14202
860.592	14275
860.725	14328
860.858	14381
860.99	14263
861.123	14157
861.256	14206
861.388	14259
861.521	14952
861.653	14088
861.786	14088
861.918	14126
862.05	14027
862.183	14195
862.315	14298
862.447	14259
862.58	14130
862.712	13993
862.844	13830
862.976	14111
863.108	14069
863.24	14473
863.372	13959
863.504	14081
863.636	13989
863.768	14100
863.9	13982
864.032	13890
864.164	13913
864.296	14027
864.428	14111
864.559	14046
864.691	14077
864.823	14180
864.954	14039
865.086	14050
865.217	13986
865.349	13928
865.48	14027
865.612	13982
865.743	14206
865.875	14043
866.006	13967
866.137	13993
866.269	14008
866.4	14043
866.531	13970
866.662	13947
866.793	13917
866.924	13852
867.055	14077
867.186	13989
867.317	13967
867.448	13868
867.579	13890
867.71	13883
867.841	13868
867.972	13993
868.103	13986
868.233	14027
868.364	13898
868.495	14157
868.625	14218
868.756	14248
868.886	14187
869.017	14256
869.147	14336
869.278	14351
869.408	14370
869.539	14161
869.669	14309
869.799	14313
869.929	14343
870.06	14267
870.19	14564
870.32	14518
870.45	14579
870.58	14579
870.71	14762
870.84	14750
870.97	14648
871.1	14579
871.23	14769
871.36	14826
871.489	14777
871.619	14773
871.749	14842
871.879	14941
872.008	14960
872.138	14872
872.267	14773
872.397	14731
872.526	14724
872.656	14613
872.785	14712
872.915	14849
873.044	15024
873.173	14910
873.303	14876
873.432	14937
873.561	14921
873.69	14861
873.819	14887
873.948	15013
874.077	14895
874.206	14899
874.335	14849
874.464	15055
874.593	15214
874.722	15211
874.851	15218
874.979	15199
875.108	15245
875.237	15119
875.365	15093
875.494	15203
875.623	15245
875.751	15131
875.88	15260
876.008	15279
876.136	15401
876.265	15507
876.393	15701
876.521	15713
876.65	15644
876.778	15785
876.906	15530
877.034	15534
877.162	15644
877.29	15572
877.418	15591
877.546	15572
877.674	15603
877.802	15667
877.93	15641
878.058	15591
878.185	15511
878.313	15637
878.441	15644
878.568	15538
878.696	15580
878.824	15553
878.951	15724
879.079	15800
879.206	15869
879.333	15793
879.461	15557
879.588	15709
879.715	15781
879.842	15915
879.97	15728
880.097	15477
880.224	15485
880.351	15492
880.478	15416
880.605	15431
880.732	15424
880.859	15766
880.986	15534
881.112	15564
881.239	15367
881.366	15214
881.493	15165
881.619	15199
881.746	15074
881.872	15119
881.999	15108
882.125	15032
882.252	15188
882.378	15112
882.505	15260
882.631	14998
882.757	14971
882.883	15066
883.01	14971
883.136	14857
883.262	14762
883.388	14804
883.514	14925
883.64	14994
883.766	14880
883.892	14902
884.018	14735
884.143	14868
884.269	14986
884.395	14606
884.52	14651
884.646	14655
884.772	14590
884.897	14522
885.023	14632
885.148	14777
885.274	14826
885.399	14724
885.524	14667
885.65	14587
885.775	14651
885.9	14667
886.025	14708
886.15	14693
886.275	14663
886.4	14583
886.525	14693
886.65	14552
886.775	14678
886.9	14762
887.025	14887
887.149	14575
887.274	14473
887.399	14476
887.523	14446
887.648	14393
887.773	14377
887.897	14590
888.021	14499
888.146	14457
888.27	14602
888.395	14648
888.519	14526
888.643	14587
888.767	14625
888.891	14434
889.015	14347
889.139	14374
889.263	14320
889.387	14381
889.511	14610
889.635	14450
889.759	14317
889.883	14336
890.006	14339
890.13	14530
890.254	14278
890.377	14320
890.501	14183
890.624	14138
890.748	14176
890.871	14081
890.995	14123
891.118	13986
891.241	14111
891.364	14046
891.488	14115
891.611	14035
891.734	14050
891.857	14157
891.98	14039
892.103	14252
892.226	14180
892.349	14035
892.471	13932
892.594	14012
892.717	14024
892.839	14035
892.962	14043
893.085	14123
893.207	14001
893.33	13814
893.452	14020
893.575	14050
893.697	14050
893.819	14210
893.941	14233
894.064	14157
894.186	14008
894.308	14008
894.43	14100
894.552	14210
894.674	14164
894.796	14058
894.918	14103
895.04	14145
895.161	14172
895.283	14282
895.405	14134
895.526	14206
895.648	14176
895.769	14126
895.891	14107
896.012	14324
896.134	14225
896.255	14271
896.376	14229
896.498	14218
896.619	14278
896.74	14240
896.861	14343
896.982	14518
897.103	14651
897.224	14495
897.345	14556
897.466	14343
897.587	14438
897.708	14579
897.828	14454
897.949	14476
898.07	14309
898.19	14465
898.311	14667
898.431	14533
898.552	14518
898.672	14724
898.792	14621
898.913	14590
899.033	14484
899.153	14370
899.273	14343
899.393	14385
899.513	14503
899.633	14396
899.753	14446
899.873	14347
899.993	14476
900.113	14415
900.232	14552
900.352	14476
900.472	14294
900.591	14259
900.711	14347
900.83	14157
900.95	14400
901.069	14305
901.189	14336
901.308	14043
901.427	13913
901.546	13913
901.665	14005
901.784	13955
901.904	13776
902.023	13822
902.141	13655
902.26	13476
902.379	13597
902.498	13525
902.617	13480
902.735	13556
902.854	13632
902.973	13533
903.091	13312
903.21	13232
903.328	13274
903.446	13190
903.565	13126
903.683	13069
903.801	12977
903.919	13084
904.038	13076
904.156	12977
904.274	12977
904.392	12814
904.51	13000
904.627	12924
904.745	12977
904.863	12951
904.981	12745
905.098	12635
905.216	12604
905.334	12597
905.451	12635
905.569	12601
905.686	12608
905.803	12688
905.921	12448
906.038	12502
906.155	12502
906.272	12330
906.389	12308
906.506	12232
906.623	12239
906.74	12163
906.857	12068
906.974	11996
907.091	12254
907.208	12365
907.324	12216
907.441	12087
907.557	12026
907.674	11870
907.79	11847
907.907	11935
908.023	12007
908.139	12057
908.256	11969
908.372	11897
908.488	11942
908.604	11745
908.72	11642
908.836	11745
908.952	11695
909.068	11718
909.184	11733
909.3	11790
909.415	11760
909.531	11745
909.647	11414
909.762	11551
909.878	11440
909.993	11505
910.108	11402
910.224	11478
910.339	11490
910.454	11417
910.57	11322
910.685	11292
910.8	11589
910.915	11482
911.03	11322
911.145	11189
911.259	11208
911.374	11208
911.489	11090
911.604	11128
911.718	11033
911.833	10991
911.947	10782
912.062	10782
912.176	10839
912.291	10858
912.405	10995
912.519	11159
912.633	11052
912.748	11071
912.862	10999
912.976	10809
913.09	10714
913.204	10824
913.318	10873
913.431	10892
913.545	10927
913.659	10957
913.772	10790
913.886	10717
914	10675
914.113	10797
914.226	10809
914.34	10767
914.453	10672
914.566	10801
914.68	10725
914.793	10683
914.906	10535
915.019	10363
915.132	10436
915.245	10455
915.358	10424
915.47	10512
915.583	10459
915.696	10455
915.809	10626
915.921	10592
916.034	10436
916.146	10375
916.259	10337
916.371	10481
916.483	10447
916.595	10352
916.708	10421
916.82	10481
916.932	10348
917.044	10402
917.156	10333
917.268	10230
917.38	10295
917.491	10261
917.603	10367
917.715	10367
917.826	10341
917.938	10295
918.049	10097
918.161	10268
918.272	10428
918.384	10375
918.495	10329
918.606	10215
918.717	10101
918.828	10219
918.939	10196
919.05	10059
919.161	10124
919.272	9949
919.383	10044
919.494	10192
919.604	10352
919.715	10173
919.826	10067
919.936	10188
920.047	10268
920.157	10207
920.267	10375
920.378	10196
920.488	10131
920.598	10356
920.708	10462
920.818	10287
920.928	10284
921.038	10508
921.148	10489
921.258	10227
921.368	10086
921.477	10082
921.587	9998
921.697	9911
921.806	10040
921.916	9945
922.025	9823
922.134	9838
922.244	9694
922.353	9816
922.462	9622
922.571	9576
922.68	9416
922.789	9382
922.898	9466
923.007	9428
923.116	9500
923.224	9386
923.333	9389
923.442	9344
923.55	9359
923.659	9325
923.767	9393
923.876	9294
923.984	9401
924.092	9272
924.201	9321
924.309	9329
924.417	9317
924.525	9184
924.633	9241
924.741	10090
924.849	9013
924.956	9226
925.064	8960
925.172	9047
925.279	9028
925.387	9108
925.494	9089
925.602	9275
925.709	9211
925.816	9093
925.924	9089
926.031	9188
926.138	9085
926.245	9165
926.352	9028
926.459	9199
926.566	9146
926.673	9077
926.779	8941
926.886	8994
926.993	8883
927.099	8788
927.206	8746
927.312	8705
927.419	8708
927.525	8781
927.631	8887
927.737	8697
927.843	8720
927.95	8606
928.056	8720
928.162	8762
928.267	8746
928.373	9382
928.479	8853
928.585	8579
928.69	8686
928.796	8781
928.901	8625
929.007	8461
929.112	8697
929.218	8568
929.323	8522
929.428	8522
929.533	8674
929.638	8446
929.743	8522
929.848	8594
929.953	8552
930.058	8393
930.163	8248
930.267	8362
930.372	8484
930.477	8282
930.581	8590
930.685	8389
930.79	8138
930.894	8279
930.998	8168
931.103	8366
931.207	8050
931.311	7970
931.415	7963
931.519	7799
931.623	7769
