Data from test_V78500241_119.txt Node
Date: Fri Mar 25 14:34:33 CST 2022
User: usil
Spectrometer: V785-0024
Trigger mode: 0
Integration Time (sec): 4.000000E-1
Scans to average: 1
Nonlinearity correction enabled: false
Boxcar width: 0
Storing dark spectrum: false
XAxis mode: Wavelengths
Number of Pixels in Spectrum: 1024
>>>>>Begin Spectral Data<<<<<
801.071	29840
801.214	29798
801.356	29570
801.499	29543
801.641	29231
801.783	29250
801.926	29349
802.068	29254
802.211	29197
802.353	29235
802.496	29079
802.638	28980
802.78	28790
802.923	28888
803.065	28942
803.208	28862
803.35	29189
803.492	29208
803.635	29326
803.777	29147
803.919	29322
804.061	29573
804.204	29402
804.346	29159
804.488	29216
804.63	29216
804.773	29185
804.915	29478
805.057	29638
805.199	29596
805.341	29600
805.483	29748
805.626	29805
805.768	29707
805.91	29752
806.052	29980
806.194	29954
806.336	30349
806.478	30209
806.62	30270
806.762	30734
806.904	30996
807.046	31365
807.188	31544
807.33	31856
807.472	32434
807.614	32636
807.756	33351
807.898	34090
808.04	35242
808.182	36658
808.324	38366
808.465	40379
808.607	42631
808.749	44526
808.891	45663
809.033	45880
809.174	44587
809.316	42696
809.458	40394
809.6	38134
809.741	36125
809.883	34721
810.025	33876
810.166	33013
810.308	32606
810.45	31955
810.591	31807
810.733	31278
810.875	31023
811.016	30730
811.158	30623
811.299	30604
811.441	30483
811.582	30441
811.724	30266
811.865	30140
812.007	30125
812.148	30095
812.29	30087
812.431	30049
812.573	30117
812.714	30155
812.855	30395
812.997	30327
813.138	30460
813.279	30395
813.421	30213
813.562	30163
813.703	30015
813.845	29961
813.986	29596
814.127	29318
814.268	29296
814.41	29204
814.551	29128
814.692	29265
814.833	28999
814.974	29075
815.115	29147
815.256	29003
815.397	28961
815.539	28938
815.68	28763
815.821	28694
815.962	28698
816.103	28736
816.244	28607
816.385	28398
816.526	28398
816.666	28219
816.807	28105
816.948	28040
817.089	28173
817.23	28044
817.371	28013
817.512	27895
817.653	28017
817.793	27857
817.934	27888
818.075	28029
818.216	27964
818.356	27903
818.497	27926
818.638	27717
818.778	27717
818.919	27641
819.06	27614
819.2	27800
819.341	27819
819.481	27827
819.622	28006
819.762	28109
819.903	28169
820.043	28006
820.184	27994
820.324	27762
820.465	28048
820.605	27854
820.746	27778
820.886	27717
821.026	27774
821.167	27770
821.307	27835
821.447	27717
821.588	27610
821.728	27469
821.868	27237
822.008	27138
822.149	27199
822.289	27104
822.429	26811
822.569	26727
822.709	26655
822.849	26480
822.99	26560
823.13	26507
823.27	26469
823.41	26442
823.55	26263
823.69	26301
823.83	26259
823.97	26309
824.11	25993
824.25	26164
824.389	26077
824.529	26069
824.669	26149
824.809	26233
824.949	26183
825.089	26183
825.228	26077
825.368	25902
825.508	25989
825.648	25982
825.787	25879
825.927	25807
826.067	25936
826.206	25830
826.346	26012
826.485	25940
826.625	25925
826.765	25928
826.904	25940
827.044	25772
827.183	25590
827.323	25586
827.462	25624
827.601	25639
827.741	25472
827.88	25689
828.02	25396
828.159	25510
828.298	25556
828.437	25537
828.577	25487
828.716	25613
828.855	25441
828.994	25407
829.134	25259
829.273	25266
829.412	25187
829.551	25118
829.69	25190
829.829	25278
829.968	25232
830.107	25263
830.246	25126
830.385	25274
830.524	25152
830.663	24966
830.802	24939
830.941	24757
831.08	24768
831.219	24856
831.357	24715
831.496	24996
831.635	24810
831.774	24814
831.913	24681
832.051	24532
832.19	24650
832.329	24635
832.467	24433
832.606	24448
832.744	24536
832.883	24574
833.022	24517
833.16	24688
833.299	24916
833.437	24810
833.576	25084
833.714	24996
833.852	25156
833.991	25354
834.129	25236
834.267	25362
834.406	25285
834.544	25236
834.682	25061
834.821	25053
834.959	25110
835.097	24806
835.235	24882
835.373	24722
835.511	24787
835.65	24479
835.788	24460
835.926	24197
836.064	24159
836.202	24228
836.34	24281
836.478	24342
836.615	24376
836.753	24251
836.891	24323
837.029	24270
837.167	24144
837.305	24186
837.443	24171
837.58	23950
837.718	24106
837.856	24060
837.993	24011
838.131	23897
838.269	23961
838.406	24041
838.544	23775
838.681	23687
838.819	23509
838.956	23467
839.094	23524
839.231	23581
839.369	23619
839.506	23699
839.643	23794
839.781	23387
839.918	23372
840.055	23376
840.193	23452
840.33	23296
840.467	23410
840.604	23296
840.742	23623
840.879	23299
841.016	23239
841.153	23223
841.29	23433
841.427	23315
841.564	23421
841.701	23387
841.838	23193
841.975	23231
842.112	23242
842.249	23143
842.385	23140
842.522	23143
842.659	23014
842.796	23025
842.933	23090
843.069	22999
843.206	23075
843.343	23227
843.479	23178
843.616	23117
843.752	23083
843.889	22927
844.025	23223
844.162	23041
844.298	23246
844.435	23254
844.571	23303
844.708	23509
844.844	23992
844.98	24186
845.117	24608
845.253	25137
845.389	26431
845.525	28881
845.661	32651
845.798	37346
845.934	41159
846.07	42365
846.206	41425
846.342	38351
846.478	33416
846.614	29543
846.75	26906
846.886	25358
847.022	24403
847.158	23623
847.294	23284
847.429	22991
847.565	22752
847.701	22873
847.837	22405
847.972	22284
848.108	22356
848.244	22272
848.379	22211
848.515	22059
848.65	22010
848.786	21903
848.921	21915
849.057	22029
849.192	21968
849.328	21892
849.463	21926
849.598	21869
849.734	21713
849.869	21663
850.004	21587
850.14	21667
850.275	21644
850.41	21564
850.545	21443
850.68	21485
850.815	21629
850.95	21515
851.085	21690
851.22	21610
851.355	21568
851.49	21576
851.625	21507
851.76	21435
851.895	21424
852.03	21359
852.165	21519
852.299	21595
852.434	21694
852.569	21694
852.703	21603
852.838	21713
852.973	21774
853.107	21606
853.242	21599
853.376	21431
853.511	21420
853.645	21572
853.78	21778
853.914	21622
854.048	21519
854.183	21633
854.317	21583
854.451	21823
854.585	21587
854.72	21637
854.854	21652
854.988	21382
855.122	21587
855.256	21332
855.39	21496
855.524	21485
855.658	21568
855.792	21488
855.926	21454
856.06	21469
856.194	21386
856.327	21477
856.461	21241
856.595	21367
856.729	21355
856.862	21450
856.996	21378
857.13	21283
857.263	21492
857.397	21393
857.53	21264
857.664	21329
857.797	21313
857.931	21405
858.064	21363
858.197	21450
858.331	21150
858.464	21207
858.597	21256
858.731	21211
858.864	21192
858.997	21127
859.13	21161
859.263	21222
859.396	21397
859.529	21264
859.662	21279
859.795	21173
859.928	21138
860.061	21321
860.194	21192
860.327	21165
860.46	21123
860.592	21260
860.725	21367
860.858	21268
860.99	21127
861.123	21051
861.256	21051
861.388	21112
861.521	21808
861.653	21013
861.786	21036
861.918	21005
862.05	21036
862.183	21142
862.315	21203
862.447	21294
862.58	21199
862.712	20963
862.844	20914
862.976	20872
863.108	20887
863.24	21329
863.372	20861
863.504	20834
863.636	20895
863.768	20880
863.9	20929
864.032	20735
864.164	20834
864.296	20807
864.428	20937
864.559	20994
864.691	20842
864.823	20883
864.954	20754
865.086	20743
865.217	20769
865.349	20629
865.48	20773
865.612	20648
865.743	20857
865.875	20716
866.006	20564
866.137	20765
866.269	20727
866.4	20727
866.531	20678
866.662	20617
866.793	20727
866.924	20739
867.055	20667
867.186	20788
867.317	20648
867.448	20537
867.579	20632
867.71	20575
867.841	20587
867.972	20670
868.103	20682
868.233	20648
868.364	20746
868.495	20682
868.625	20887
868.756	20948
868.886	20785
869.017	20960
869.147	21077
869.278	20967
869.408	21074
869.539	20838
869.669	20925
869.799	20914
869.929	21001
870.06	21036
870.19	21294
870.32	21188
870.45	21207
870.58	21275
870.71	21431
870.84	21477
870.97	21325
871.1	21317
871.23	21458
871.36	21477
871.489	21439
871.619	21515
871.749	21583
871.879	21606
872.008	21804
872.138	21622
872.267	21622
872.397	21405
872.526	21473
872.656	21466
872.785	21504
872.915	21648
873.044	21709
873.173	21698
873.303	21732
873.432	21732
873.561	21819
873.69	21861
873.819	21732
873.948	21911
874.077	21770
874.206	21774
874.335	21892
874.464	21994
874.593	22169
874.722	22124
874.851	22238
874.979	22166
875.108	22276
875.237	22200
875.365	22086
875.494	22371
875.623	22440
875.751	22242
875.88	22436
876.008	22645
876.136	22653
876.265	22839
876.393	22904
876.521	22968
876.65	22980
876.778	23029
876.906	22934
877.034	23128
877.162	23086
877.29	23166
877.418	23155
877.546	23284
877.674	23330
877.802	23330
877.93	23547
878.058	23562
878.185	23748
878.313	23973
878.441	24315
878.568	24216
878.696	24848
878.824	25270
878.951	26214
879.079	27192
879.206	28675
879.333	30041
879.461	31175
879.588	32008
879.715	32088
879.842	31411
879.97	30079
880.097	28660
880.224	27405
880.351	26750
880.478	26058
880.605	25609
880.732	25403
880.859	25358
880.986	25148
881.112	25042
881.239	24856
881.366	24635
881.493	24578
881.619	24467
881.746	24620
881.872	24604
881.999	24532
882.125	24426
882.252	24833
882.378	24738
882.505	24806
882.631	24658
882.757	24517
882.883	24525
883.01	24525
883.136	24441
883.262	24365
883.388	24346
883.514	24445
883.64	24471
883.766	24327
883.892	24007
884.018	24289
884.143	24334
884.269	24525
884.395	24228
884.52	24152
884.646	24064
884.772	24091
884.897	24015
885.023	24224
885.148	24114
885.274	24197
885.399	23992
885.524	23863
885.65	23882
885.775	23821
885.9	23600
886.025	23786
886.15	23509
886.275	23261
886.4	23071
886.525	23155
886.65	23056
886.775	22927
886.9	23212
887.025	23090
887.149	22828
887.274	22641
887.399	22523
887.523	22405
887.648	22318
887.773	22173
887.897	22284
888.021	22272
888.146	22093
888.27	22200
888.395	22120
888.519	22105
888.643	22074
888.767	21979
888.891	21903
889.015	21675
889.139	21831
889.263	21591
889.387	21701
889.511	21922
889.635	21694
889.759	21542
889.883	21431
890.006	21542
890.13	21663
890.254	21439
890.377	21408
890.501	21249
890.624	21131
890.748	21207
890.871	20994
890.995	20979
891.118	20899
891.241	20929
891.364	20857
891.488	20956
891.611	20788
891.734	20830
891.857	20857
891.98	20823
892.103	20883
892.226	20823
892.349	20769
892.471	20613
892.594	20705
892.717	20545
892.839	20522
892.962	20484
893.085	20579
893.207	20476
893.33	20389
893.452	20408
893.575	20469
893.697	20427
893.819	20568
893.941	20533
894.064	20427
894.186	20393
894.308	20229
894.43	20381
894.552	20514
894.674	20404
894.796	20157
894.918	20164
895.04	20176
895.161	20263
895.283	20237
895.405	20214
895.526	20084
895.648	20164
895.769	20199
895.891	20206
896.012	20271
896.134	20062
896.255	20176
896.376	20153
896.498	20161
896.619	20164
896.74	20199
896.861	20199
896.982	20351
897.103	20552
897.224	20507
897.345	20275
897.466	20225
897.587	20305
897.708	20457
897.828	20256
897.949	20252
898.07	20176
898.19	20229
898.311	20298
898.431	20111
898.552	20282
898.672	20256
898.792	20225
898.913	20202
899.033	20096
899.153	20046
899.273	19791
899.393	19909
899.513	19974
899.633	19913
899.753	20016
899.873	19814
899.993	20027
900.113	19906
900.232	19883
900.352	19791
900.472	19719
900.591	19658
900.711	19651
900.83	19700
900.95	19719
901.069	19841
901.189	19613
901.308	19358
901.427	19213
901.546	19278
901.665	19236
901.784	19270
901.904	19202
902.023	19034
902.141	18894
902.26	18776
902.379	18886
902.498	18654
902.617	18703
902.735	18673
902.854	18707
902.973	18639
903.091	18407
903.21	18395
903.328	18338
903.446	18220
903.565	18129
903.683	18232
903.801	18087
903.919	18015
904.038	18041
904.156	17908
904.274	17969
904.392	17901
904.51	17851
904.627	17965
904.745	17935
904.863	17992
904.981	17634
905.098	17532
905.216	17573
905.334	17558
905.451	17524
905.569	17627
905.686	17539
905.803	17566
905.921	17303
906.038	17349
906.155	17315
906.272	17277
906.389	17258
906.506	17143
906.623	16991
906.74	17117
906.857	16938
906.974	16911
907.091	17064
907.208	17170
907.324	17128
907.441	16911
907.557	16873
907.674	16725
907.79	16592
907.907	16691
908.023	16710
908.139	16713
908.256	16641
908.372	16573
908.488	16611
908.604	16394
908.72	16447
908.836	16455
908.952	16371
909.068	16424
909.184	16440
909.3	16493
909.415	16390
909.531	16405
909.647	16143
909.762	16093
909.878	16116
909.993	16246
910.108	16055
910.224	15964
910.339	16177
910.454	15892
910.57	16002
910.685	15930
910.8	16131
910.915	16120
911.03	15983
911.145	15804
911.259	15793
911.374	15713
911.489	15675
911.604	15656
911.718	15367
911.833	15485
911.947	15370
912.062	15272
912.176	15393
912.291	15500
912.405	15469
912.519	15545
912.633	15599
912.748	15576
912.862	15408
912.976	15313
913.09	15161
913.204	15275
913.318	15252
913.431	15408
913.545	15386
913.659	15431
913.772	15245
913.886	15169
914	15097
914.113	15173
914.226	15214
914.34	15127
914.453	15043
914.566	15195
914.68	14982
914.793	14948
914.906	14823
915.019	14731
915.132	14674
915.245	14697
915.358	14807
915.47	14765
915.583	14746
915.696	14743
915.809	14891
915.921	14937
916.034	14636
916.146	14659
916.259	14716
916.371	14720
916.483	14781
916.595	14571
916.708	14606
916.82	14625
916.932	14568
917.044	14594
917.156	14587
917.268	14385
917.38	14552
917.491	14336
917.603	14473
917.715	14473
917.826	14518
917.938	14339
918.049	14244
918.161	14358
918.272	14427
918.384	14473
918.495	14332
918.606	14115
918.717	14130
918.828	14081
918.939	14176
919.05	14031
919.161	14123
919.272	13898
919.383	14001
919.494	14172
919.604	14362
919.715	14111
919.826	14005
919.936	14123
920.047	14103
920.157	14043
920.267	14176
920.378	14088
920.488	13963
920.598	14168
920.708	14259
920.818	14096
920.928	14191
921.038	14233
921.148	14237
921.258	13974
921.368	13921
921.477	13841
921.587	13715
921.697	13651
921.806	13776
921.916	13605
922.025	13525
922.134	13506
922.244	13377
922.353	13597
922.462	13335
922.571	13168
922.68	13095
922.789	13057
922.898	13110
923.007	13042
923.116	13095
923.224	13031
923.333	12989
923.442	12833
923.55	12875
923.659	12894
923.767	12958
923.876	12814
923.984	12859
924.092	12787
924.201	12848
924.309	12791
924.417	12764
924.525	12802
924.633	12738
924.741	13708
924.849	12513
924.956	12620
925.064	12616
925.172	12414
925.279	12353
925.387	12521
925.494	12506
925.602	12635
925.709	12517
925.816	12418
925.924	12467
926.031	12486
926.138	12429
926.245	12506
926.352	12330
926.459	12494
926.566	12540
926.673	12369
926.779	12228
926.886	12190
926.993	12121
927.099	12072
927.206	12083
927.312	12045
927.419	12064
927.525	12053
927.631	12125
927.737	12060
927.843	12003
927.95	11722
928.056	11920
928.162	11954
928.267	11935
928.373	12433
928.479	12007
928.585	11813
928.69	11920
928.796	11885
928.901	11767
929.007	11611
929.112	11760
929.218	11767
929.323	11600
929.428	11554
929.533	11764
929.638	11657
929.743	11596
929.848	11646
929.953	11551
930.058	11486
930.163	11318
930.267	11395
930.372	11398
930.477	11341
930.581	11528
930.685	11296
930.79	11254
930.894	11197
930.998	11147
931.103	11246
931.207	10980
931.311	10904
931.415	10714
931.519	10683
931.623	10580
