Data from test_V78500241_1778.txt Node
Date: Fri Mar 25 14:46:05 CST 2022
User: usil
Spectrometer: V785-0024
Trigger mode: 0
Integration Time (sec): 4.000000E-1
Scans to average: 1
Nonlinearity correction enabled: false
Boxcar width: 0
Storing dark spectrum: false
XAxis mode: Wavelengths
Number of Pixels in Spectrum: 1024
>>>>>Begin Spectral Data<<<<<
801.071	22223
801.214	22078
801.356	21838
801.499	21747
801.641	21545
801.783	21526
801.926	21644
802.068	21458
802.211	21405
802.353	21329
802.496	21131
802.638	21108
802.78	20948
802.923	21081
803.065	20842
803.208	20792
803.35	20990
803.492	20963
803.635	20994
803.777	20845
803.919	20975
804.061	21165
804.204	20952
804.346	20815
804.488	20716
804.63	20902
804.773	20743
804.915	20937
805.057	20819
805.199	20716
805.341	20883
805.483	21074
805.626	20895
805.768	20765
805.91	20739
806.052	20823
806.194	20743
806.336	21009
806.478	20716
806.62	20739
806.762	20807
806.904	20948
807.046	21173
807.188	21180
807.33	21203
807.472	21043
807.614	21089
807.756	21100
807.898	20921
808.04	20921
808.182	20902
808.324	20902
808.465	21005
808.607	21104
808.749	21146
808.891	21386
809.033	21344
809.174	21264
809.316	21077
809.458	21135
809.6	21150
809.741	21272
809.883	21119
810.025	21245
810.166	21344
810.308	21355
810.45	21222
810.591	21104
810.733	21051
810.875	21028
811.016	20963
811.158	20830
811.299	21081
811.441	21165
811.582	21039
811.724	20990
811.865	20948
812.007	20960
812.148	20963
812.29	20994
812.431	21028
812.573	21218
812.714	21268
812.855	21462
812.997	21534
813.138	21762
813.279	21492
813.421	21492
813.562	21374
813.703	21245
813.845	21203
813.986	20864
814.127	20777
814.268	20613
814.41	20564
814.551	20480
814.692	20488
814.833	20271
814.974	20461
815.115	20408
815.256	20317
815.397	20469
815.539	20252
815.68	20218
815.821	20157
815.962	20168
816.103	20221
816.244	20126
816.385	20020
816.526	19963
816.666	19868
816.807	19605
816.948	19727
817.089	19685
817.23	19712
817.371	19753
817.512	19597
817.653	19658
817.793	19594
817.934	19685
818.075	19731
818.216	19666
818.356	19605
818.497	19438
818.638	19209
818.778	19324
818.919	19346
819.06	19278
819.2	19434
819.341	19533
819.481	19438
819.622	19666
819.762	19776
819.903	19655
820.043	19651
820.184	19624
820.324	19578
820.465	19693
820.605	19567
820.746	19578
820.886	19590
821.026	19491
821.167	19597
821.307	19693
821.447	19518
821.588	19502
821.728	19339
821.868	19228
822.008	18947
822.149	19080
822.289	18985
822.429	18711
822.569	18772
822.709	18677
822.849	18555
822.99	18471
823.13	18521
823.27	18547
823.41	18213
823.55	18186
823.69	18194
823.83	18292
823.97	18243
824.11	18057
824.25	18003
824.389	18083
824.529	18057
824.669	18152
824.809	18163
824.949	18201
825.089	18232
825.228	18072
825.368	17939
825.508	17988
825.648	17927
825.787	17969
825.927	17923
826.067	17832
826.206	17809
826.346	17904
826.485	17760
826.625	17889
826.765	17901
826.904	17859
827.044	17668
827.183	17627
827.323	17592
827.462	17733
827.601	17604
827.741	17589
827.88	17516
828.02	17520
828.159	17604
828.298	17619
828.437	17680
828.577	17562
828.716	17615
828.855	17524
828.994	17402
829.134	17326
829.273	17383
829.412	17250
829.551	17162
829.69	17223
829.829	17349
829.968	17337
830.107	17383
830.246	17265
830.385	17280
830.524	17231
830.663	17117
830.802	16965
830.941	16980
831.08	16995
831.219	16980
831.357	16972
831.496	17143
831.635	16915
831.774	16892
831.913	16660
832.051	16725
832.19	16786
832.329	16729
832.467	16596
832.606	16573
832.744	16599
832.883	16550
833.022	16599
833.16	16622
833.299	16706
833.437	16717
833.576	16664
833.714	16713
833.852	16694
833.991	16675
834.129	16767
834.267	16744
834.406	16660
834.544	16672
834.682	16656
834.821	16664
834.959	16721
835.097	16611
835.235	16858
835.373	16725
835.511	16687
835.65	16440
835.788	16660
835.926	16379
836.064	16394
836.202	16432
836.34	16691
836.478	16649
836.615	16615
836.753	16504
836.891	16599
837.029	16565
837.167	16531
837.305	16466
837.443	16531
837.58	16497
837.718	16554
837.856	16493
837.993	16443
838.131	16455
838.269	16306
838.406	16375
838.544	16333
838.681	16204
838.819	16097
838.956	16029
839.094	15895
839.231	16154
839.369	16116
839.506	16558
839.643	16204
839.781	16044
839.918	16017
840.055	16006
840.193	15994
840.33	16013
840.467	15994
840.604	16040
840.742	16314
840.879	15800
841.016	15884
841.153	15861
841.29	16101
841.427	16044
841.564	16124
841.701	16032
841.838	15983
841.975	15945
842.112	15956
842.249	15743
842.385	15724
842.522	15953
842.659	15766
842.796	15686
842.933	15698
843.069	15835
843.206	15720
843.343	15842
843.479	15804
843.616	15857
843.752	15614
843.889	15614
844.025	15732
844.162	15580
844.298	15690
844.435	15511
844.571	15561
844.708	15663
844.844	15762
844.98	15781
845.117	15644
845.253	15599
845.389	15454
845.525	15496
845.661	15496
845.798	15439
845.934	15443
846.07	15389
846.206	15450
846.342	15359
846.478	15412
846.614	15146
846.75	15116
846.886	15154
847.022	15252
847.158	15169
847.294	15116
847.429	15081
847.565	15154
847.701	15370
847.837	14823
847.972	14872
848.108	15032
848.244	14994
848.379	14689
848.515	14613
848.65	14712
848.786	14758
848.921	14739
849.057	14765
849.192	14849
849.328	14834
849.463	14708
849.598	14746
849.734	14686
849.869	14651
850.004	14530
850.14	14503
850.275	14522
850.41	14393
850.545	14446
850.68	14450
850.815	14450
850.95	14488
851.085	14697
851.22	14610
851.355	14393
851.49	14507
851.625	14533
851.76	14476
851.895	14431
852.03	14370
852.165	14393
852.299	14522
852.434	14560
852.569	14541
852.703	14514
852.838	14545
852.973	14621
853.107	14629
853.242	14488
853.376	14442
853.511	14298
853.645	14339
853.78	14541
853.914	14362
854.048	14259
854.183	14339
854.317	14252
854.451	14545
854.585	14431
854.72	14351
854.854	14473
854.988	14286
855.122	14434
855.256	14221
855.39	14252
855.524	14488
855.658	14400
855.792	14454
855.926	14389
856.06	14465
856.194	14499
856.327	14332
856.461	14400
856.595	14332
856.729	14385
856.862	14457
856.996	14457
857.13	14469
857.263	14351
857.397	14495
857.53	14328
857.664	14434
857.797	14423
857.931	14556
858.064	14427
858.197	14450
858.331	14343
858.464	14324
858.597	14172
858.731	14366
858.864	14396
858.997	14324
859.13	14415
859.263	14408
859.396	14492
859.529	14370
859.662	14324
859.795	14404
859.928	14324
860.061	14571
860.194	14560
860.327	14343
860.46	14423
860.592	14545
860.725	14526
860.858	14484
860.99	14412
861.123	14301
861.256	14385
861.388	14355
861.521	15116
861.653	14244
861.786	14225
861.918	14248
862.05	14221
862.183	14358
862.315	14263
862.447	14507
862.58	14328
862.712	14149
862.844	14119
862.976	14256
863.108	14233
863.24	14564
863.372	14100
863.504	14221
863.636	14119
863.768	14298
863.9	14191
864.032	14024
864.164	14103
864.296	14172
864.428	14172
864.559	14252
864.691	14225
864.823	14259
864.954	14138
865.086	14161
865.217	14119
865.349	14005
865.48	14065
865.612	14256
865.743	14263
865.875	14126
866.006	14164
866.137	14115
866.269	14191
866.4	14050
866.531	14202
866.662	14153
866.793	14058
866.924	14035
867.055	14157
867.186	14145
867.317	14046
867.448	14107
867.579	14005
867.71	14123
867.841	14016
867.972	14126
868.103	14145
868.233	14202
868.364	14077
868.495	14149
868.625	14358
868.756	14465
868.886	14343
869.017	14377
869.147	14533
869.278	14511
869.408	14454
869.539	14351
869.669	14427
869.799	14423
869.929	14537
870.06	14415
870.19	14765
870.32	14670
870.45	14754
870.58	14914
870.71	14830
870.84	14910
870.97	14796
871.1	14788
871.23	14941
871.36	14990
871.489	14777
871.619	14960
871.749	15108
871.879	14933
872.008	15180
872.138	15009
872.267	14918
872.397	14857
872.526	14914
872.656	14899
872.785	14842
872.915	15047
873.044	15104
873.173	15047
873.303	15093
873.432	15100
873.561	15108
873.69	15074
873.819	15013
873.948	15097
874.077	15036
874.206	15013
874.335	15150
874.464	15226
874.593	15321
874.722	15264
874.851	15340
874.979	15378
875.108	15511
875.237	15348
875.365	15264
875.494	15268
875.623	15374
875.751	15310
875.88	15393
876.008	15485
876.136	15542
876.265	15701
876.393	15899
876.521	15861
876.65	15800
876.778	15884
876.906	15732
877.034	15686
877.162	15644
877.29	15629
877.418	15850
877.546	15755
877.674	15701
877.802	15789
877.93	15808
878.058	15747
878.185	15587
878.313	15660
878.441	15713
878.568	15633
878.696	15648
878.824	15781
878.951	15732
879.079	16051
879.206	16093
879.333	15941
879.461	15797
879.588	15892
879.715	15934
879.842	15934
879.97	15789
880.097	15694
880.224	15526
880.351	15679
880.478	15549
880.605	15606
880.732	15553
880.859	15827
880.986	15568
881.112	15648
881.239	15469
881.366	15310
881.493	15268
881.619	15283
881.746	15382
881.872	15332
881.999	15260
882.125	15226
882.252	15260
882.378	15268
882.505	15496
882.631	15077
882.757	15100
882.883	15135
883.01	15142
883.136	15043
883.262	14956
883.388	14975
883.514	15157
883.64	15268
883.766	15104
883.892	14838
884.018	14857
884.143	15032
884.269	15165
884.395	14853
884.52	14743
884.646	14781
884.772	14678
884.897	14708
885.023	14754
885.148	15005
885.274	14971
885.399	14921
885.524	14796
885.65	14838
885.775	14861
885.9	14845
886.025	14883
886.15	14906
886.275	14838
886.4	14701
886.525	14750
886.65	14750
886.775	14708
886.9	14918
887.025	14960
887.149	14868
887.274	14606
887.399	14511
887.523	14610
887.648	14473
887.773	14610
887.897	14571
888.021	14712
888.146	14560
888.27	14686
888.395	14800
888.519	14590
888.643	14686
888.767	14670
888.891	14552
889.015	14457
889.139	14518
889.263	14526
889.387	14667
889.511	14667
889.635	14533
889.759	14488
889.883	14507
890.006	14499
890.13	14632
890.254	14374
890.377	14446
890.501	14362
890.624	14195
890.748	14343
890.871	14218
890.995	14164
891.118	14069
891.241	14275
891.364	14126
891.488	14252
891.611	14126
891.734	14130
891.857	14252
891.98	14149
892.103	14317
892.226	14248
892.349	14183
892.471	14020
892.594	14153
892.717	14229
892.839	14195
892.962	14195
893.085	14298
893.207	14244
893.33	14142
893.452	14077
893.575	14275
893.697	14145
893.819	14278
893.941	14374
894.064	14385
894.186	14073
894.308	14153
894.43	14332
894.552	14377
894.674	14286
894.796	14176
894.918	14256
895.04	14225
895.161	14275
895.283	14332
895.405	14176
895.526	14225
895.648	14210
895.769	14282
895.891	14332
896.012	14431
896.134	14370
896.255	14233
896.376	14301
896.498	14278
896.619	14343
896.74	14362
896.861	14427
896.982	14663
897.103	14883
897.224	14625
897.345	14571
897.466	14495
897.587	14549
897.708	14697
897.828	14621
897.949	14526
898.07	14507
898.19	14571
898.311	14724
898.431	14644
898.552	14815
898.672	14758
898.792	14655
898.913	14689
899.033	14682
899.153	14514
899.273	14549
899.393	14541
899.513	14545
899.633	14545
899.753	14560
899.873	14431
899.993	14590
900.113	14587
900.232	14632
900.352	14442
900.472	14419
900.591	14313
900.711	14400
900.83	14275
900.95	14492
901.069	14533
901.189	14431
901.308	14081
901.427	14027
901.546	14081
901.665	14065
901.784	14058
901.904	14012
902.023	13970
902.141	13674
902.26	13704
902.379	13708
902.498	13559
902.617	13586
902.735	13639
902.854	13639
902.973	13601
903.091	13373
903.21	13430
903.328	13441
903.446	13297
903.565	13225
903.683	13312
903.801	13126
903.919	13149
904.038	13194
904.156	13061
904.274	13065
904.392	13057
904.51	13012
904.627	13057
904.745	13088
904.863	13034
904.981	12757
905.098	12635
905.216	12597
905.334	12696
905.451	12677
905.569	12719
905.686	12734
905.803	12711
905.921	12536
906.038	12662
906.155	12513
906.272	12372
906.389	12547
906.506	12277
906.623	12308
906.74	12319
906.857	12266
906.974	12251
907.091	12399
907.208	12464
907.324	12426
907.441	12247
907.557	12125
907.674	12076
907.79	11984
907.907	12091
908.023	12019
908.139	12167
908.256	12038
908.372	12026
908.488	12011
908.604	11809
908.72	11840
908.836	11764
908.952	11824
909.068	11859
909.184	11946
909.3	11805
909.415	11908
909.531	11809
909.647	11589
909.762	11619
909.878	11566
909.993	11638
910.108	11486
910.224	11604
910.339	11604
910.454	11482
910.57	11482
910.685	11398
910.8	11680
910.915	11661
911.03	11509
911.145	11284
911.259	11250
911.374	11303
911.489	11292
911.604	11235
911.718	11029
911.833	11075
911.947	10934
912.062	10987
912.176	10999
912.291	11037
912.405	10972
912.519	11178
912.633	11296
912.748	11045
912.862	11045
912.976	10919
913.09	10809
913.204	10900
913.318	10908
913.431	10980
913.545	11048
913.659	11109
913.772	10991
913.886	10809
914	10736
914.113	10965
914.226	10942
914.34	10763
914.453	10763
914.566	10824
914.68	10771
914.793	10683
914.906	10592
915.019	10516
915.132	10519
915.245	10508
915.358	10622
915.47	10546
915.583	10634
915.696	10577
915.809	10729
915.921	10653
916.034	10569
916.146	10500
916.259	10405
916.371	10569
916.483	10508
916.595	10455
916.708	10531
916.82	10481
916.932	10478
917.044	10497
917.156	10421
917.268	10462
917.38	10352
917.491	10379
917.603	10367
917.715	10489
917.826	10443
917.938	10310
918.049	10173
918.161	10432
918.272	10500
918.384	10535
918.495	10329
918.606	10257
918.717	10150
918.828	10200
918.939	10265
919.05	10257
919.161	10265
919.272	9991
919.383	10120
919.494	10272
919.604	10459
919.715	10272
919.826	10128
919.936	10261
920.047	10295
920.157	10318
920.267	10466
920.378	10341
920.488	10299
920.598	10455
920.708	10634
920.818	10500
920.928	10447
921.038	10607
921.148	10618
921.258	10310
921.368	10215
921.477	10131
921.587	10086
921.697	10021
921.806	10173
921.916	10025
922.025	9869
922.134	9800
922.244	9838
922.353	9842
922.462	9778
922.571	9644
922.68	9500
922.789	9542
922.898	9580
923.007	9492
923.116	9580
923.224	9538
923.333	9477
923.442	9367
923.55	9397
923.659	9443
923.767	9504
923.876	9378
923.984	9507
924.092	9336
924.201	9439
924.309	9416
924.417	9359
924.525	9332
924.633	9378
924.741	10261
924.849	9173
924.956	9317
925.064	9123
925.172	9108
925.279	9085
925.387	9157
925.494	9188
925.602	9332
925.709	9199
925.816	9024
925.924	9146
926.031	9313
926.138	9237
926.245	9165
926.352	9108
926.459	9275
926.566	9256
926.673	9131
926.779	9036
926.886	9070
926.993	8845
927.099	8891
927.206	8823
927.312	8861
927.419	8956
927.525	8899
927.631	8963
927.737	8887
927.843	8792
927.95	8739
928.056	8754
928.162	8758
928.267	8842
928.373	9412
928.479	8876
928.585	8663
928.69	8678
928.796	8830
928.901	8670
929.007	8606
929.112	8648
929.218	8659
929.323	8583
929.428	8560
929.533	8743
929.638	8454
929.743	8610
929.848	8689
929.953	8594
930.058	8541
930.163	8366
930.267	8454
930.372	8473
930.477	8358
930.581	8568
930.685	8465
930.79	8317
930.894	8320
930.998	8256
931.103	8389
931.207	8092
931.311	8027
931.415	8005
931.519	7822
931.623	7788
