Data from test_V78500241_1667.txt Node
Date: Fri Mar 25 14:45:19 CST 2022
User: usil
Spectrometer: V785-0024
Trigger mode: 0
Integration Time (sec): 4.000000E-1
Scans to average: 1
Nonlinearity correction enabled: false
Boxcar width: 0
Storing dark spectrum: false
XAxis mode: Wavelengths
Number of Pixels in Spectrum: 1024
>>>>>Begin Spectral Data<<<<<
801.071	22185
801.214	22257
801.356	21838
801.499	21827
801.641	21690
801.783	21538
801.926	21682
802.068	21648
802.211	21580
802.353	21389
802.496	21279
802.638	21093
802.78	21218
802.923	21100
803.065	20941
803.208	20998
803.35	21001
803.492	21001
803.635	21180
803.777	20960
803.919	20944
804.061	21428
804.204	21203
804.346	20872
804.488	20819
804.63	20982
804.773	20864
804.915	21017
805.057	21127
805.199	20864
805.341	21093
805.483	21119
805.626	21074
805.768	20933
805.91	20967
806.052	20902
806.194	20853
806.336	21043
806.478	20998
806.62	20762
806.762	20982
806.904	21036
807.046	21370
807.188	21233
807.33	21241
807.472	21279
807.614	21203
807.756	21157
807.898	21001
808.04	21077
808.182	21017
808.324	21089
808.465	21252
808.607	21268
808.749	21412
808.891	21431
809.033	21507
809.174	21408
809.316	21348
809.458	21332
809.6	21332
809.741	21283
809.883	21363
810.025	21504
810.166	21515
810.308	21530
810.45	21389
810.591	21405
810.733	21241
810.875	21169
811.016	20948
811.158	21043
811.299	21135
811.441	21252
811.582	21245
811.724	21180
811.865	21199
812.007	21043
812.148	21245
812.29	21203
812.431	21370
812.573	21439
812.714	21545
812.855	21606
812.997	21690
813.138	21922
813.279	21686
813.421	21633
813.562	21500
813.703	21325
813.845	21275
813.986	20963
814.127	20773
814.268	20743
814.41	20682
814.551	20629
814.692	20686
814.833	20636
814.974	20655
815.115	20625
815.256	20446
815.397	20461
815.539	20495
815.68	20431
815.821	20408
815.962	20377
816.103	20385
816.244	20278
816.385	20199
816.526	20134
816.666	19928
816.807	20008
816.948	19890
817.089	20039
817.23	19921
817.371	19772
817.512	19765
817.653	19727
817.793	19795
817.934	19776
818.075	19818
818.216	19784
818.356	19776
818.497	19537
818.638	19468
818.778	19502
818.919	19510
819.06	19495
819.2	19601
819.341	19734
819.481	19624
819.622	19791
819.762	19955
819.903	19883
820.043	19784
820.184	19765
820.324	19769
820.465	19879
820.605	19635
820.746	19700
820.886	19628
821.026	19700
821.167	19765
821.307	19803
821.447	19765
821.588	19510
821.728	19441
821.868	19297
822.008	19129
822.149	19148
822.289	19069
822.429	18977
822.569	18958
822.709	18867
822.849	18692
822.99	18642
823.13	18460
823.27	18547
823.41	18452
823.55	18452
823.69	18498
823.83	18433
823.97	18327
824.11	18235
824.25	18243
824.389	18304
824.529	18304
824.669	18209
824.809	18277
824.949	18277
825.089	18262
825.228	18353
825.368	18114
825.508	18087
825.648	17980
825.787	18007
825.927	18098
826.067	18049
826.206	17942
826.346	18038
826.485	17988
826.625	18041
826.765	18091
826.904	18007
827.044	17798
827.183	17866
827.323	17729
827.462	17710
827.601	17722
827.741	17604
827.88	17630
828.02	17714
828.159	17642
828.298	17619
828.437	17707
828.577	17577
828.716	17847
828.855	17528
828.994	17478
829.134	17410
829.273	17455
829.412	17452
829.551	17444
829.69	17376
829.829	17471
829.968	17512
830.107	17524
830.246	17368
830.385	17353
830.524	17387
830.663	17250
830.802	17197
830.941	17094
831.08	17018
831.219	17159
831.357	17159
831.496	17311
831.635	16991
831.774	16938
831.913	16930
832.051	16923
832.19	16736
832.329	16938
832.467	16782
832.606	16710
832.744	16809
832.883	16866
833.022	16641
833.16	16839
833.299	16774
833.437	16763
833.576	16831
833.714	16797
833.852	16767
833.991	16915
834.129	16919
834.267	16839
834.406	16755
834.544	16790
834.682	16702
834.821	16774
834.959	16953
835.097	16660
835.235	16801
835.373	16896
835.511	16835
835.65	16664
835.788	16584
835.926	16580
836.064	16565
836.202	16519
836.34	16702
836.478	16774
836.615	16637
836.753	16755
836.891	16782
837.029	16816
837.167	16691
837.305	16573
837.443	16558
837.58	16603
837.718	16554
837.856	16485
837.993	16405
838.131	16592
838.269	16455
838.406	16462
838.544	16470
838.681	16147
838.819	16211
838.956	16063
839.094	16090
839.231	16135
839.369	16295
839.506	16508
839.643	16363
839.781	16154
839.918	16101
840.055	16162
840.193	16112
840.33	16010
840.467	16112
840.604	16101
840.742	16265
840.879	16040
841.016	16025
841.153	15941
841.29	16253
841.427	16147
841.564	16128
841.701	16135
841.838	15998
841.975	16036
842.112	15956
842.249	15892
842.385	15808
842.522	16147
842.659	15892
842.796	15766
842.933	15865
843.069	15755
843.206	15781
843.343	15926
843.479	15808
843.616	15865
843.752	15641
843.889	15755
844.025	15785
844.162	15671
844.298	15770
844.435	15576
844.571	15557
844.708	15739
844.844	15816
844.98	15922
845.117	15717
845.253	15557
845.389	15477
845.525	15660
845.661	15545
845.798	15492
845.934	15618
846.07	15447
846.206	15549
846.342	15523
846.478	15469
846.614	15214
846.75	15138
846.886	15268
847.022	15317
847.158	15207
847.294	15203
847.429	15306
847.565	15230
847.701	15332
847.837	15043
847.972	14910
848.108	15032
848.244	15009
848.379	14830
848.515	14834
848.65	14735
848.786	14807
848.921	14819
849.057	14868
849.192	14967
849.328	14861
849.463	14838
849.598	14807
849.734	14667
849.869	14629
850.004	14625
850.14	14731
850.275	14499
850.41	14495
850.545	14537
850.68	14579
850.815	14579
850.95	14602
851.085	14746
851.22	14785
851.355	14617
851.49	14583
851.625	14541
851.76	14602
851.895	14552
852.03	14389
852.165	14541
852.299	14594
852.434	14693
852.569	14587
852.703	14602
852.838	14667
852.973	14743
853.107	14659
853.242	14537
853.376	14465
853.511	14400
853.645	14374
853.78	14549
853.914	14556
854.048	14461
854.183	14328
854.317	14484
854.451	14701
854.585	14377
854.72	14343
854.854	14377
854.988	14393
855.122	14473
855.256	14332
855.39	14358
855.524	14499
855.658	14564
855.792	14530
855.926	14499
856.06	14473
856.194	14541
856.327	14503
856.461	14419
856.595	14408
856.729	14358
856.862	14560
856.996	14533
857.13	14583
857.263	14590
857.397	14667
857.53	14427
857.664	14541
857.797	14560
857.931	14621
858.064	14545
858.197	14549
858.331	14389
858.464	14389
858.597	14358
858.731	14488
858.864	14457
858.997	14442
859.13	14442
859.263	14434
859.396	14499
859.529	14419
859.662	14450
859.795	14415
859.928	14484
860.061	14575
860.194	14636
860.327	14598
860.46	14454
860.592	14549
860.725	14511
860.858	14552
860.99	14503
861.123	14271
861.256	14381
861.388	14454
861.521	14925
861.653	14400
861.786	14336
861.918	14339
862.05	14419
862.183	14412
862.315	14518
862.447	14465
862.58	14431
862.712	14225
862.844	14221
862.976	14278
863.108	14336
863.24	14720
863.372	14237
863.504	14263
863.636	14206
863.768	14343
863.9	14210
864.032	14119
864.164	14161
864.296	14214
864.428	14374
864.559	14248
864.691	14332
864.823	14195
864.954	14244
865.086	14282
865.217	14225
865.349	14248
865.48	14298
865.612	14134
865.743	14362
865.875	14248
866.006	14214
866.137	14214
866.269	14225
866.4	14229
866.531	14278
866.662	14252
866.793	14168
866.924	14115
867.055	14145
867.186	14138
867.317	14180
867.448	14069
867.579	14157
867.71	14157
867.841	14142
867.972	14240
868.103	14214
868.233	14119
868.364	14282
868.495	14290
868.625	14499
868.756	14579
868.886	14377
869.017	14427
869.147	14560
869.278	14568
869.408	14461
869.539	14518
869.669	14480
869.799	14549
869.929	14583
870.06	14594
870.19	14849
870.32	14811
870.45	14769
870.58	14921
870.71	14975
870.84	15001
870.97	14921
871.1	14842
871.23	14990
871.36	15051
871.489	14982
871.619	15051
871.749	15013
871.879	15135
872.008	15188
872.138	15074
872.267	15028
872.397	14785
872.526	14823
872.656	14796
872.785	14853
872.915	15104
873.044	15097
873.173	15074
873.303	15104
873.432	15051
873.561	15112
873.69	15207
873.819	15066
873.948	15306
874.077	15180
874.206	14979
874.335	15108
874.464	15260
874.593	15363
874.722	15412
874.851	15500
874.979	15412
875.108	15389
875.237	15351
875.365	15351
875.494	15378
875.623	15496
875.751	15378
875.88	15485
876.008	15679
876.136	15667
876.265	15857
876.393	15937
876.521	15850
876.65	15865
876.778	15770
876.906	15717
877.034	15785
877.162	15827
877.29	15800
877.418	15781
877.546	15850
877.674	15842
877.802	15755
877.93	15793
878.058	15857
878.185	15770
878.313	15816
878.441	15823
878.568	15724
878.696	15755
878.824	15842
878.951	15884
879.079	16059
879.206	16131
879.333	16059
879.461	15918
879.588	15930
879.715	15941
879.842	16150
879.97	15857
880.097	15766
880.224	15728
880.351	15797
880.478	15648
880.605	15614
880.732	15614
880.859	16002
880.986	15736
881.112	15701
881.239	15618
881.366	15450
881.493	15313
881.619	15401
881.746	15348
881.872	15386
881.999	15359
882.125	15321
882.252	15378
882.378	15291
882.505	15481
882.631	15340
882.757	15173
882.883	15287
883.01	15233
883.136	15207
883.262	15055
883.388	15020
883.514	15146
883.64	15230
883.766	15123
883.892	14929
884.018	15043
884.143	15020
884.269	15230
884.395	14906
884.52	14853
884.646	14883
884.772	14804
884.897	14750
885.023	14830
885.148	15024
885.274	14880
885.399	14990
885.524	14899
885.65	14769
885.775	14937
885.9	14857
886.025	14975
886.15	15013
886.275	14807
886.4	14811
886.525	14902
886.65	14781
886.775	14758
886.9	14895
887.025	15089
887.149	14899
887.274	14727
887.399	14670
887.523	14621
887.648	14549
887.773	14507
887.897	14670
888.021	14792
888.146	14674
888.27	14864
888.395	14849
888.519	14788
888.643	14754
888.767	14708
888.891	14556
889.015	14568
889.139	14598
889.263	14507
889.387	14674
889.511	14746
889.635	14758
889.759	14526
889.883	14461
890.006	14541
890.13	14644
890.254	14480
890.377	14431
890.501	14339
890.624	14305
890.748	14393
890.871	14210
890.995	14157
891.118	14218
891.241	14259
891.364	14111
891.488	14450
891.611	14267
891.734	14313
891.857	14278
891.98	14282
892.103	14313
892.226	14256
892.349	14252
892.471	14081
892.594	14248
892.717	14229
892.839	14164
892.962	14210
893.085	14248
893.207	14267
893.33	14145
893.452	14168
893.575	14298
893.697	14229
893.819	14351
893.941	14362
894.064	14427
894.186	14202
894.308	14195
894.43	14423
894.552	14393
894.674	14446
894.796	14229
894.918	14252
895.04	14313
895.161	14339
895.283	14408
895.405	14317
895.526	14332
895.648	14415
895.769	14396
895.891	14377
896.012	14442
896.134	14442
896.255	14362
896.376	14362
896.498	14530
896.619	14415
896.74	14484
896.861	14621
896.982	14807
897.103	14887
897.224	14678
897.345	14640
897.466	14659
897.587	14610
897.708	14826
897.828	14731
897.949	14621
898.07	14655
898.19	14667
898.311	14887
898.431	14670
898.552	14845
898.672	14872
898.792	14853
898.913	14804
899.033	14739
899.153	14552
899.273	14541
899.393	14636
899.513	14648
899.633	14629
899.753	14613
899.873	14564
899.993	14613
900.113	14571
900.232	14560
900.352	14541
900.472	14514
900.591	14465
900.711	14450
900.83	14454
900.95	14568
901.069	14575
901.189	14446
901.308	14172
901.427	14103
901.546	14142
901.665	14164
901.784	14244
901.904	13970
902.023	13909
902.141	13769
902.26	13624
902.379	13746
902.498	13734
902.617	13613
902.735	13757
902.854	13662
902.973	13670
903.091	13407
903.21	13415
903.328	13373
903.446	13266
903.565	13331
903.683	13282
903.801	13194
903.919	13244
904.038	13232
904.156	13141
904.274	13129
904.392	13038
904.51	13038
904.627	13004
904.745	13126
904.863	13145
904.981	12867
905.098	12726
905.216	12776
905.334	12787
905.451	12817
905.569	12700
905.686	12783
905.803	12833
905.921	12578
906.038	12719
906.155	12642
906.272	12506
906.389	12574
906.506	12285
906.623	12338
906.74	12365
906.857	12330
906.974	12167
907.091	12502
907.208	12483
907.324	12357
907.441	12270
907.557	12148
907.674	12102
907.79	12053
907.907	12026
908.023	12133
908.139	12072
908.256	12068
908.372	12019
908.488	12152
908.604	11885
908.72	11821
908.836	11878
908.952	11764
909.068	11859
909.184	11984
909.3	11847
909.415	11927
909.531	11851
909.647	11619
909.762	11551
909.878	11615
909.993	11680
910.108	11630
910.224	11566
910.339	11688
910.454	11512
910.57	11539
910.685	11433
910.8	11699
910.915	11638
911.03	11585
911.145	11315
911.259	11330
911.374	11383
911.489	11223
911.604	11216
911.718	11056
911.833	11132
911.947	10991
912.062	10957
912.176	11109
912.291	11117
912.405	11071
912.519	11280
912.633	11288
912.748	11208
912.862	11113
912.976	10915
913.09	10896
913.204	10930
913.318	10927
913.431	11052
913.545	11022
913.659	11140
913.772	10942
913.886	10782
914	10820
914.113	10999
914.226	10942
914.34	10904
914.453	10748
914.566	10889
914.68	10831
914.793	10778
914.906	10599
915.019	10584
915.132	10485
915.245	10527
915.358	10603
915.47	10596
915.583	10538
915.696	10611
915.809	10706
915.921	10679
916.034	10546
916.146	10538
916.259	10535
916.371	10615
916.483	10554
916.595	10500
916.708	10500
916.82	10535
916.932	10493
917.044	10398
917.156	10470
917.268	10363
917.38	10481
917.491	10417
917.603	10466
917.715	10504
917.826	10474
917.938	10322
918.049	10375
918.161	10341
918.272	10584
918.384	10500
918.495	10470
918.606	10284
918.717	10257
918.828	10363
918.939	10284
919.05	10166
919.161	10344
919.272	10063
919.383	10150
919.494	10371
919.604	10493
919.715	10405
919.826	10211
919.936	10268
920.047	10325
920.157	10318
920.267	10504
920.378	10363
920.488	10348
920.598	10489
920.708	10630
920.818	10558
920.928	10523
921.038	10691
921.148	10653
921.258	10249
921.368	10204
921.477	10207
921.587	10173
921.697	10044
921.806	10112
921.916	10036
922.025	9797
922.134	9899
922.244	9781
922.353	9934
922.462	9743
922.571	9667
922.68	9538
922.789	9473
922.898	9568
923.007	9519
923.116	9603
923.224	9557
923.333	9538
923.442	9424
923.55	9412
923.659	9435
923.767	9526
923.876	9424
923.984	9481
924.092	9424
924.201	9530
924.309	9367
924.417	9450
924.525	9386
924.633	9348
924.741	10112
924.849	9241
924.956	9332
925.064	9138
925.172	9131
925.279	9116
925.387	9207
925.494	9180
925.602	9321
925.709	9272
925.816	9192
925.924	9233
926.031	9298
926.138	9230
926.245	9245
926.352	9135
926.459	9268
926.566	9329
926.673	9131
926.779	9089
926.886	9085
926.993	9001
927.099	8925
927.206	8887
927.312	8899
927.419	8998
927.525	8887
927.631	9028
927.737	8899
927.843	8819
927.95	8746
928.056	8796
928.162	8842
928.267	8899
928.373	9359
928.479	8998
928.585	8743
928.69	8826
928.796	8826
928.901	8716
929.007	8590
929.112	8743
929.218	8697
929.323	8598
929.428	8606
929.533	8788
929.638	8552
929.743	8632
929.848	8693
929.953	8579
930.058	8552
930.163	8393
930.267	8389
930.372	8556
930.477	8339
930.581	8629
930.685	8484
930.79	8339
930.894	8408
930.998	8362
931.103	8518
931.207	8111
931.311	8100
931.415	8027
931.519	7868
931.623	7879
