Data from test_V78500241_3225.txt Node
Date: Fri Mar 25 14:56:10 CST 2022
User: usil
Spectrometer: V785-0024
Trigger mode: 0
Integration Time (sec): 4.000000E-1
Scans to average: 1
Nonlinearity correction enabled: false
Boxcar width: 0
Storing dark spectrum: false
XAxis mode: Wavelengths
Number of Pixels in Spectrum: 1024
>>>>>Begin Spectral Data<<<<<
801.071	22010
801.214	21926
801.356	21705
801.499	21625
801.641	21515
801.783	21306
801.926	21416
802.068	21195
802.211	21313
802.353	21199
802.496	20941
802.638	20906
802.78	20883
802.923	20693
803.065	20689
803.208	20667
803.35	20739
803.492	20887
803.635	20845
803.777	20636
803.919	20796
804.061	21154
804.204	20849
804.346	20621
804.488	20644
804.63	20708
804.773	20476
804.915	20621
805.057	20727
805.199	20594
805.341	20701
805.483	20758
805.626	20720
805.768	20549
805.91	20716
806.052	20625
806.194	20545
806.336	20682
806.478	20613
806.62	20514
806.762	20727
806.904	20815
807.046	21020
807.188	20910
807.33	20933
807.472	21074
807.614	20861
807.756	20914
807.898	20731
808.04	20571
808.182	20701
808.324	20678
808.465	20693
808.607	20937
808.749	21043
808.891	21165
809.033	21154
809.174	21123
809.316	21005
809.458	20937
809.6	21017
809.741	20952
809.883	20975
810.025	20979
810.166	21135
810.308	21157
810.45	21176
810.591	20979
810.733	20910
810.875	20716
811.016	20659
811.158	20629
811.299	20864
811.441	20914
811.582	20842
811.724	20708
811.865	20765
812.007	20701
812.148	20838
812.29	20819
812.431	20971
812.573	20979
812.714	21279
812.855	21268
812.997	21260
813.138	21298
813.279	21329
813.421	21291
813.562	21207
813.703	21131
813.845	20842
813.986	20571
814.127	20434
814.268	20385
814.41	20339
814.551	20305
814.692	20286
814.833	20187
814.974	20256
815.115	20313
815.256	20172
815.397	20035
815.539	20111
815.68	20077
815.821	19913
815.962	20103
816.103	19963
816.244	19860
816.385	19670
816.526	19734
816.666	19594
816.807	19384
816.948	19548
817.089	19403
817.23	19449
817.371	19438
817.512	19415
817.653	19449
817.793	19335
817.934	19476
818.075	19460
818.216	19373
818.356	19445
818.497	19228
818.638	19137
818.778	19164
818.919	19247
819.06	19198
819.2	19244
819.341	19236
819.481	19365
819.622	19529
819.762	19632
819.903	19635
820.043	19548
820.184	19434
820.324	19339
820.465	19453
820.605	19506
820.746	19369
820.886	19209
821.026	19411
821.167	19316
821.307	19396
821.447	19335
821.588	19285
821.728	19099
821.868	18966
822.008	18821
822.149	18749
822.289	18863
822.429	18582
822.569	18517
822.709	18433
822.849	18361
822.99	18365
823.13	18342
823.27	18239
823.41	18224
823.55	18102
823.69	18125
823.83	18254
823.97	18110
824.11	17923
824.25	17836
824.389	17889
824.529	17927
824.669	17843
824.809	18053
824.949	17935
825.089	17813
825.228	17798
825.368	17718
825.508	17672
825.648	17684
825.787	17775
825.927	17661
826.067	17570
826.206	17566
826.346	17642
826.485	17627
826.625	17661
826.765	17798
826.904	17615
827.044	17356
827.183	17414
827.323	17216
827.462	17356
827.601	17277
827.741	17296
827.88	17364
828.02	17181
828.159	17288
828.298	17387
828.437	17448
828.577	17258
828.716	17448
828.855	17288
828.994	17174
829.134	17102
829.273	17170
829.412	17136
829.551	17113
829.69	17121
829.829	17067
829.968	17113
830.107	17200
830.246	17098
830.385	17048
830.524	17143
830.663	16858
830.802	16877
830.941	16812
831.08	16611
831.219	16824
831.357	16759
831.496	16816
831.635	16603
831.774	16630
831.913	16542
832.051	16504
832.19	16478
832.329	16535
832.467	16462
832.606	16352
832.744	16417
832.883	16409
833.022	16306
833.16	16375
833.299	16462
833.437	16455
833.576	16424
833.714	16409
833.852	16428
833.991	16402
834.129	16546
834.267	16493
834.406	16409
834.544	16485
834.682	16474
834.821	16432
834.959	16656
835.097	16348
835.235	16527
835.373	16542
835.511	16500
835.65	16398
835.788	16432
835.926	16295
836.064	16173
836.202	16105
836.34	16466
836.478	16413
836.615	16375
836.753	16398
836.891	16352
837.029	16417
837.167	16371
837.305	16287
837.443	16215
837.58	16192
837.718	16272
837.856	16158
837.993	16200
838.131	16257
838.269	16143
838.406	16124
838.544	16101
838.681	15949
838.819	15873
838.956	15838
839.094	15835
839.231	15759
839.369	15964
839.506	16147
839.643	16097
839.781	15850
839.918	15751
840.055	15808
840.193	15861
840.33	15831
840.467	15724
840.604	15903
840.742	16044
840.879	15701
841.016	15652
841.153	15713
841.29	15892
841.427	15781
841.564	15831
841.701	15899
841.838	15766
841.975	15686
842.112	15629
842.249	15591
842.385	15545
842.522	15720
842.659	15648
842.796	15507
842.933	15603
843.069	15507
843.206	15511
843.343	15690
843.479	15603
843.616	15652
843.752	15302
843.889	15351
844.025	15511
844.162	15306
844.298	15496
844.435	15317
844.571	15351
844.708	15382
844.844	15500
844.98	15561
845.117	15466
845.253	15283
845.389	15256
845.525	15291
845.661	15249
845.798	15089
845.934	15127
846.07	15097
846.206	15207
846.342	15294
846.478	15119
846.614	14986
846.75	14937
846.886	14971
847.022	15028
847.158	14952
847.294	14868
847.429	14967
847.565	14918
847.701	15093
847.837	14777
847.972	14590
848.108	14804
848.244	14712
848.379	14579
848.515	14537
848.65	14556
848.786	14518
848.921	14503
849.057	14571
849.192	14686
849.328	14526
849.463	14568
849.598	14552
849.734	14385
849.869	14362
850.004	14278
850.14	14282
850.275	14290
850.41	14206
850.545	14134
850.68	14248
850.815	14301
850.95	14313
851.085	14484
851.22	14469
851.355	14305
851.49	14286
851.625	14195
851.76	14282
851.895	14214
852.03	14123
852.165	14290
852.299	14275
852.434	14332
852.569	14355
852.703	14278
852.838	14362
852.973	14423
853.107	14446
853.242	14313
853.376	14119
853.511	14020
853.645	14145
853.78	14320
853.914	14214
854.048	14195
854.183	14225
854.317	14176
854.451	14275
854.585	14183
854.72	14172
854.854	14172
854.988	14111
855.122	14054
855.256	13959
855.39	14084
855.524	14225
855.658	14164
855.792	14225
855.926	14199
856.06	14164
856.194	14221
856.327	14172
856.461	14153
856.595	14096
856.729	14100
856.862	14210
856.996	14233
857.13	14195
857.263	14240
857.397	14263
857.53	14180
857.664	14168
857.797	14199
857.931	14225
858.064	14142
858.197	14256
858.331	14138
858.464	14100
858.597	14065
858.731	14062
858.864	14210
858.997	14103
859.13	14153
859.263	14168
859.396	14248
859.529	14240
859.662	14130
859.795	14115
859.928	14130
860.061	14366
860.194	14355
860.327	14233
860.46	14130
860.592	14320
860.725	14347
860.858	14218
860.99	14225
861.123	14020
861.256	14168
861.388	14126
861.521	14902
861.653	14073
861.786	13993
861.918	14035
862.05	14092
862.183	14031
862.315	14130
862.447	14153
862.58	14115
862.712	13887
862.844	13830
862.976	13978
863.108	13944
863.24	14336
863.372	13928
863.504	13921
863.636	13967
863.768	13978
863.9	13902
864.032	13894
864.164	13856
864.296	13986
864.428	14073
864.559	14008
864.691	14130
864.823	13978
864.954	13898
865.086	13894
865.217	13860
865.349	13868
865.48	13799
865.612	13928
865.743	14096
865.875	13868
866.006	13917
866.137	13894
866.269	13947
866.4	13940
866.531	13856
866.662	13818
866.793	13947
866.924	13932
867.055	13932
867.186	13845
867.317	13890
867.448	13830
867.579	13921
867.71	13875
867.841	13837
867.972	13936
868.103	13944
868.233	13925
868.364	13955
868.495	13997
868.625	14111
868.756	14195
868.886	14077
869.017	14195
869.147	14282
869.278	14187
869.408	14263
869.539	14111
869.669	14210
869.799	14240
869.929	14263
870.06	14263
870.19	14545
870.32	14431
870.45	14511
870.58	14522
870.71	14636
870.84	14610
870.97	14590
871.1	14530
871.23	14758
871.36	14792
871.489	14731
871.619	14720
871.749	14663
871.879	14781
872.008	14834
872.138	14815
872.267	14807
872.397	14693
872.526	14651
872.656	14575
872.785	14659
872.915	14880
873.044	14967
873.173	14868
873.303	14758
873.432	14826
873.561	14906
873.69	14838
873.819	14796
873.948	14944
874.077	14811
874.206	14811
874.335	14948
874.464	14998
874.593	15146
874.722	15112
874.851	15195
874.979	15165
875.108	15230
875.237	15020
875.365	15062
875.494	15093
875.623	15294
875.751	15123
875.88	15199
876.008	15218
876.136	15416
876.265	15644
876.393	15724
876.521	15762
876.65	15637
876.778	15622
876.906	15599
877.034	15523
877.162	15568
877.29	15599
877.418	15519
877.546	15584
877.674	15644
877.802	15557
877.93	15549
878.058	15458
878.185	15454
878.313	15599
878.441	15538
878.568	15504
878.696	15462
878.824	15633
878.951	15572
879.079	15888
879.206	15915
879.333	15663
879.461	15656
879.588	15739
879.715	15732
879.842	15812
879.97	15641
880.097	15367
880.224	15344
880.351	15443
880.478	15443
880.605	15336
880.732	15378
880.859	15667
880.986	15424
881.112	15405
881.239	15359
881.366	15173
881.493	15138
881.619	15093
881.746	15093
881.872	15077
881.999	15081
882.125	15036
882.252	15081
882.378	15112
882.505	15272
882.631	14929
882.757	14853
882.883	14937
883.01	14914
883.136	14800
883.262	14716
883.388	14720
883.514	14891
883.64	14971
883.766	14857
883.892	14697
884.018	14716
884.143	14838
884.269	14963
884.395	14724
884.52	14625
884.646	14587
884.772	14537
884.897	14415
885.023	14602
885.148	14659
885.274	14697
885.399	14617
885.524	14518
885.65	14579
885.775	14579
885.9	14678
886.025	14735
886.15	14720
886.275	14526
886.4	14469
886.525	14602
886.65	14415
886.775	14526
886.9	14686
887.025	14815
887.149	14613
887.274	14412
887.399	14415
887.523	14434
887.648	14309
887.773	14343
887.897	14492
888.021	14450
888.146	14415
888.27	14560
888.395	14568
888.519	14556
888.643	14480
888.767	14469
888.891	14431
889.015	14278
889.139	14309
889.263	14275
889.387	14351
889.511	14461
889.635	14419
889.759	14229
889.883	14282
890.006	14298
890.13	14511
890.254	14263
890.377	14298
890.501	14065
890.624	14054
890.748	14134
890.871	14008
890.995	14008
891.118	13909
891.241	14012
891.364	14046
891.488	14054
891.611	13967
891.734	13959
891.857	14168
891.98	13986
892.103	14153
892.226	13928
892.349	14001
892.471	13879
892.594	13955
892.717	14008
892.839	13951
892.962	13898
893.085	13997
893.207	14016
893.33	13822
893.452	13932
893.575	14039
893.697	13871
893.819	14176
893.941	14191
894.064	14164
894.186	14043
894.308	13925
894.43	14035
894.552	14294
894.674	14149
894.796	13978
894.918	14020
895.04	14035
895.161	14145
895.283	14149
895.405	14001
895.526	14046
895.648	14149
895.769	14153
895.891	14111
896.012	14294
896.134	14180
896.255	14134
896.376	14111
896.498	14153
896.619	14233
896.74	14271
896.861	14259
896.982	14423
897.103	14621
897.224	14511
897.345	14454
897.466	14396
897.587	14389
897.708	14621
897.828	14476
897.949	14415
898.07	14278
898.19	14396
898.311	14571
898.431	14450
898.552	14575
898.672	14621
898.792	14568
898.913	14484
899.033	14507
899.153	14431
899.273	14282
899.393	14400
899.513	14393
899.633	14473
899.753	14503
899.873	14427
899.993	14419
900.113	14404
900.232	14385
900.352	14317
900.472	14259
900.591	14233
900.711	14294
900.83	14096
900.95	14419
901.069	14339
901.189	14119
901.308	13970
901.427	13883
901.546	13845
901.665	13993
901.784	13978
901.904	13837
902.023	13753
902.141	13586
902.26	13506
902.379	13605
902.498	13460
902.617	13415
902.735	13514
902.854	13525
902.973	13453
903.091	13259
903.21	13175
903.328	13266
903.446	13122
903.565	13012
903.683	13057
903.801	12985
903.919	13190
904.038	13027
904.156	12890
904.274	13012
904.392	12924
904.51	12829
904.627	12897
904.745	12894
904.863	12837
904.981	12696
905.098	12528
905.216	12506
905.334	12715
905.451	12601
905.569	12490
905.686	12597
905.803	12604
905.921	12410
906.038	12544
906.155	12445
906.272	12334
906.389	12281
906.506	12186
906.623	12178
906.74	12171
906.857	12068
906.974	12019
907.091	12262
907.208	12228
907.324	12167
907.441	12041
907.557	11958
907.674	11961
907.79	11870
907.907	11874
908.023	11927
908.139	11927
908.256	11958
908.372	11851
908.488	11824
908.604	11684
908.72	11722
908.836	11722
908.952	11611
909.068	11748
909.184	11756
909.3	11699
909.415	11714
909.531	11714
909.647	11512
909.762	11490
909.878	11471
909.993	11467
910.108	11440
910.224	11353
910.339	11417
910.454	11349
910.57	11349
910.685	11162
910.8	11543
910.915	11406
911.03	11284
911.145	11189
911.259	11124
911.374	11029
911.489	11086
911.604	11010
911.718	10881
911.833	10881
911.947	10797
912.062	10736
912.176	10866
912.291	10900
912.405	10858
912.519	11086
912.633	11136
912.748	11048
912.862	10953
912.976	10793
913.09	10694
913.204	10721
913.318	10786
913.431	10904
913.545	10820
913.659	10908
913.772	10675
913.886	10706
914	10721
914.113	10744
914.226	10835
914.34	10717
914.453	10558
914.566	10729
914.68	10645
914.793	10599
914.906	10344
915.019	10409
915.132	10405
915.245	10318
915.358	10348
915.47	10485
915.583	10382
915.696	10497
915.809	10436
915.921	10584
916.034	10405
916.146	10360
916.259	10356
916.371	10470
916.483	10443
916.595	10333
916.708	10367
916.82	10325
916.932	10280
917.044	10295
917.156	10306
917.268	10200
917.38	10249
917.491	10215
917.603	10295
917.715	10402
917.826	10367
917.938	10177
918.049	10109
918.161	10227
918.272	10314
918.384	10322
918.495	10284
918.606	10090
918.717	10131
918.828	10128
918.939	10162
919.05	10067
919.161	10139
919.272	9983
919.383	10032
919.494	10185
919.604	10363
919.715	10082
919.826	10063
919.936	10112
920.047	10257
920.157	10185
920.267	10344
920.378	10192
920.488	10219
920.598	10318
920.708	10481
920.818	10284
920.928	10280
921.038	10493
921.148	10489
921.258	10131
921.368	10078
921.477	10059
921.587	10032
921.697	9941
921.806	10078
921.916	9869
922.025	9759
922.134	9766
922.244	9641
922.353	9709
922.462	9652
922.571	9545
922.68	9454
922.789	9431
922.898	9435
923.007	9302
923.116	9439
923.224	9401
923.333	9325
923.442	9275
923.55	9317
923.659	9359
923.767	9393
923.876	9226
923.984	9374
924.092	9207
924.201	9302
924.309	9302
924.417	9294
924.525	9176
924.633	9230
924.741	10116
924.849	9001
924.956	9218
925.064	9055
925.172	9009
925.279	8986
925.387	9074
925.494	9020
925.602	9180
925.709	9138
925.816	8948
925.924	9047
926.031	9207
926.138	9119
926.245	9112
926.352	8982
926.459	9157
926.566	9138
926.673	9039
926.779	8914
926.886	8891
926.993	8788
927.099	8762
927.206	8674
927.312	8739
927.419	8731
927.525	8769
927.631	8773
927.737	8720
927.843	8739
927.95	8533
928.056	8644
928.162	8583
928.267	8727
928.373	9283
928.479	8746
928.585	8545
928.69	8617
928.796	8731
928.901	8598
929.007	8499
929.112	8606
929.218	8606
929.323	8484
929.428	8454
929.533	8625
929.638	8423
929.743	8488
929.848	8507
929.953	8492
930.058	8469
930.163	8199
930.267	8279
930.372	8442
930.477	8210
930.581	8446
930.685	8339
930.79	8168
930.894	8275
930.998	8237
931.103	8305
931.207	8050
931.311	7921
931.415	7909
931.519	7689
931.623	7681
