Data from test_V78500241_572.txt Node
Date: Fri Mar 25 14:37:42 CST 2022
User: usil
Spectrometer: V785-0024
Trigger mode: 0
Integration Time (sec): 4.000000E-1
Scans to average: 1
Nonlinearity correction enabled: false
Boxcar width: 0
Storing dark spectrum: false
XAxis mode: Wavelengths
Number of Pixels in Spectrum: 1024
>>>>>Begin Spectral Data<<<<<
801.071	27800
801.214	27705
801.356	27336
801.499	27317
801.641	27127
801.783	27055
801.926	27199
802.068	27020
802.211	27032
802.353	26842
802.496	26708
802.638	26583
802.78	26667
802.923	26648
803.065	26659
803.208	26545
803.35	26735
803.492	26876
803.635	26758
803.777	26712
803.919	26800
804.061	27066
804.204	26834
804.346	26807
804.488	26720
804.63	26750
804.773	26602
804.915	26769
805.057	27043
805.199	26853
805.341	27089
805.483	26952
805.626	27005
805.768	26982
805.91	27085
806.052	27359
806.194	27252
806.336	27545
806.478	27561
806.62	27564
806.762	27842
806.904	28101
807.046	28485
807.188	28645
807.33	28927
807.472	29265
807.614	29516
807.756	29897
807.898	30429
808.04	31411
808.182	32453
808.324	33987
808.465	35695
808.607	37495
808.749	39226
808.891	40238
809.033	40162
809.174	39070
809.316	37316
809.458	35535
809.6	33842
809.741	32480
809.883	31190
810.025	30505
810.166	29710
810.308	29349
810.45	29006
810.591	28744
810.733	28265
810.875	28109
811.016	27816
811.158	27743
811.299	27789
811.441	27793
811.582	27751
811.724	27454
811.865	27302
812.007	27435
812.148	27507
812.29	27351
812.431	27473
812.573	27549
812.714	27435
812.855	27641
812.997	27789
813.138	27762
813.279	27686
813.421	27728
813.562	27534
813.703	27359
813.845	27199
813.986	26956
814.127	26792
814.268	26629
814.41	26499
814.551	26488
814.692	26598
814.833	26408
814.974	26362
815.115	26400
815.256	26271
815.397	26259
815.539	26142
815.68	26256
815.821	26096
815.962	26142
816.103	26115
816.244	25940
816.385	25955
816.526	25666
816.666	25616
816.807	25559
816.948	25533
817.089	25548
817.23	25502
817.371	25472
817.512	25438
817.653	25491
817.793	25350
817.934	25381
818.075	25373
818.216	25324
818.356	25255
818.497	25251
818.638	25019
818.778	25114
818.919	25137
819.06	25046
819.2	25118
819.341	25266
819.481	25327
819.622	25384
819.762	25643
819.903	25430
820.043	25502
820.184	25426
820.324	25396
820.465	25217
820.605	25426
820.746	25365
820.886	25038
821.026	25346
821.167	25171
821.307	25221
821.447	25133
821.588	25027
821.728	24977
821.868	24814
822.008	24650
822.149	24585
822.289	24593
822.429	24350
822.569	24117
822.709	24235
822.849	24011
822.99	23980
823.13	23984
823.27	23977
823.41	23783
823.55	23676
823.69	23771
823.83	23794
823.97	23687
824.11	23551
824.25	23528
824.389	23520
824.529	23707
824.669	23501
824.809	23562
824.949	23729
825.089	23589
825.228	23592
825.368	23345
825.508	23482
825.648	23322
825.787	23395
825.927	23364
826.067	23303
826.206	23296
826.346	23406
826.485	23322
826.625	23288
826.765	23448
826.904	23280
827.044	23067
827.183	23044
827.323	23037
827.462	22987
827.601	23048
827.741	22961
827.88	23003
828.02	22828
828.159	22972
828.298	22968
828.437	23025
828.577	22904
828.716	23124
828.855	22873
828.994	22736
829.134	22622
829.273	22637
829.412	22584
829.551	22626
829.69	22656
829.829	22675
829.968	22721
830.107	22729
830.246	22645
830.385	22607
830.524	22557
830.663	22478
830.802	22440
830.941	22150
831.08	22299
831.219	22303
831.357	22166
831.496	22367
831.635	22246
831.774	22158
831.913	22051
832.051	22173
832.19	22044
832.329	22192
832.467	22013
832.606	22070
832.744	22082
832.883	22010
833.022	22090
833.16	22135
833.299	22268
833.437	22238
833.576	22409
833.714	22462
833.852	22542
833.991	22478
834.129	22596
834.267	22702
834.406	22630
834.544	22596
834.682	22531
834.821	22360
834.959	22577
835.097	22215
835.235	22253
835.373	22341
835.511	22139
835.65	21960
835.788	21930
835.926	21667
836.064	21675
836.202	21739
836.34	21838
836.478	21800
836.615	21701
836.753	21816
836.891	21838
837.029	21739
837.167	21690
837.305	21667
837.443	21637
837.58	21652
837.718	21660
837.856	21663
837.993	21515
838.131	21603
838.269	21530
838.406	21477
838.544	21412
838.681	21142
838.819	21268
838.956	21020
839.094	21138
839.231	21089
839.369	21131
839.506	21412
839.643	21264
839.781	20906
839.918	20944
840.055	20998
840.193	20838
840.33	20777
840.467	21005
840.604	20952
840.742	21089
840.879	20868
841.016	20929
841.153	20807
841.29	20990
841.427	20880
841.564	20967
841.701	20826
841.838	20857
841.975	20819
842.112	20861
842.249	20727
842.385	20727
842.522	20902
842.659	20693
842.796	20625
842.933	20670
843.069	20629
843.206	20697
843.343	20648
843.479	20838
843.616	20765
843.752	20606
843.889	20701
844.025	20845
844.162	20640
844.298	20876
844.435	20792
844.571	20819
844.708	21123
844.844	21534
844.98	21637
845.117	21854
845.253	22287
845.389	23212
845.525	24897
845.661	28196
845.798	31833
845.934	34843
846.07	36038
846.206	35619
846.342	33051
846.478	29303
846.614	26081
846.75	23687
846.886	22280
847.022	21583
847.158	21058
847.294	20842
847.429	20621
847.565	20427
847.701	20625
847.837	19989
847.972	19788
848.108	19993
848.244	19887
848.379	19742
848.515	19632
848.65	19582
848.786	19556
848.921	19556
849.057	19628
849.192	19563
849.328	19578
849.463	19571
849.598	19525
849.734	19506
849.869	19384
850.004	19346
850.14	19327
850.275	19327
850.41	19168
850.545	19187
850.68	19221
850.815	19270
850.95	19148
851.085	19483
851.22	19266
851.355	19316
851.49	19160
851.625	19266
851.76	19129
851.895	19008
852.03	19160
852.165	19190
852.299	19339
852.434	19285
852.569	19320
852.703	19228
852.838	19339
852.973	19480
853.107	19350
853.242	19316
853.376	19118
853.511	19069
853.645	19171
853.78	19419
853.914	19289
854.048	19217
854.183	19263
854.317	19331
854.451	19476
854.585	19293
854.72	19263
854.854	19285
854.988	19137
855.122	19240
855.256	19042
855.39	19148
855.524	19247
855.658	19194
855.792	19236
855.926	19126
856.06	19171
856.194	19213
856.327	19129
856.461	19034
856.595	18966
856.729	19031
856.862	19080
856.996	18973
857.13	19145
857.263	19164
857.397	19114
857.53	19061
857.664	19031
857.797	19000
857.931	19053
858.064	19038
858.197	19103
858.331	18958
858.464	18970
858.597	18867
858.731	18882
858.864	18840
858.997	19015
859.13	19019
859.263	19008
859.396	19076
859.529	18962
859.662	18890
859.795	18875
859.928	18894
860.061	19023
860.194	19072
860.327	18886
860.46	18859
860.592	18947
860.725	19133
860.858	18970
860.99	18939
861.123	18871
861.256	18802
861.388	18920
861.521	19674
861.653	18772
861.786	18650
861.918	18817
862.05	18905
862.183	18905
862.315	18958
862.447	19053
862.58	18939
862.712	18681
862.844	18677
862.976	18665
863.108	18650
863.24	19042
863.372	18494
863.504	18612
863.636	18620
863.768	18696
863.9	18627
864.032	18540
864.164	18521
864.296	18677
864.428	18738
864.559	18703
864.691	18703
864.823	18635
864.954	18642
865.086	18601
865.217	18585
865.349	18422
865.48	18574
865.612	18536
865.743	18601
865.875	18608
866.006	18486
866.137	18486
866.269	18574
866.4	18494
866.531	18540
866.662	18388
866.793	18528
866.924	18475
867.055	18528
867.186	18479
867.317	18490
867.448	18380
867.579	18479
867.71	18467
867.841	18395
867.972	18593
868.103	18494
868.233	18498
868.364	18475
868.495	18627
868.625	18688
868.756	18711
868.886	18642
869.017	18715
869.147	18719
869.278	18932
869.408	18707
869.539	18776
869.669	18787
869.799	18783
869.929	18973
870.06	18833
870.19	18996
870.32	18958
870.45	19114
870.58	19080
870.71	19282
870.84	19164
870.97	19168
871.1	19069
871.23	19282
871.36	19343
871.489	19206
871.619	19392
871.749	19331
871.879	19392
872.008	19480
872.138	19324
872.267	19339
872.397	19304
872.526	19362
872.656	19244
872.785	19346
872.915	19499
873.044	19563
873.173	19670
873.303	19483
873.432	19540
873.561	19567
873.69	19605
873.819	19506
873.948	19708
874.077	19578
874.206	19571
874.335	19643
874.464	19696
874.593	19887
874.722	19898
874.851	20020
874.979	20031
875.108	20027
875.237	19940
875.365	19887
875.494	19963
875.623	20142
875.751	19970
875.88	20145
876.008	20259
876.136	20351
876.265	20667
876.393	20746
876.521	20689
876.65	20807
876.778	20746
876.906	20625
877.034	20693
877.162	20678
877.29	20811
877.418	20876
877.546	20750
877.674	21020
877.802	21085
877.93	21093
878.058	21173
878.185	21192
878.313	21424
878.441	21629
878.568	21728
878.696	22200
878.824	22599
878.951	23349
879.079	24068
879.206	25274
879.333	26469
879.461	27279
879.588	27975
879.715	28017
879.842	27561
879.97	26438
880.097	25072
880.224	24220
880.351	23600
880.478	23067
880.605	22755
880.732	22504
880.859	22561
880.986	22462
881.112	22306
881.239	22093
881.366	21926
881.493	21892
881.619	21804
881.746	21873
881.872	21831
881.999	21838
882.125	21808
882.252	21888
882.378	21911
882.505	22040
882.631	21873
882.757	21781
882.883	21751
883.01	21762
883.136	21732
883.262	21679
883.388	21591
883.514	21622
883.64	21762
883.766	21629
883.892	21618
884.018	21618
884.143	21808
884.269	21739
884.395	21515
884.52	21374
884.646	21523
884.772	21431
884.897	21310
885.023	21557
885.148	21393
885.274	21549
885.399	21420
885.524	21298
885.65	21142
885.775	21161
885.9	21081
886.025	21165
886.15	21028
886.275	20853
886.4	20651
886.525	20758
886.65	20579
886.775	20442
886.9	20598
887.025	20701
887.149	20454
887.274	20256
887.399	20031
887.523	20062
887.648	19982
887.773	19841
887.897	19936
888.021	19906
888.146	19780
888.27	19902
888.395	19947
888.519	19894
888.643	19780
888.767	19731
888.891	19613
889.015	19457
889.139	19567
889.263	19403
889.387	19518
889.511	19609
889.635	19506
889.759	19308
889.883	19343
890.006	19324
890.13	19400
890.254	19198
890.377	19293
890.501	19088
890.624	18928
890.748	19114
890.871	18840
890.995	18802
891.118	18776
891.241	18810
891.364	18787
891.488	18882
891.611	18840
891.734	18551
891.857	18726
891.98	18730
892.103	18734
892.226	18760
892.349	18448
892.471	18429
892.594	18407
892.717	18654
892.839	18528
892.962	18578
893.085	18677
893.207	18464
893.33	18350
893.452	18365
893.575	18399
893.697	18380
893.819	18513
893.941	18681
894.064	18471
894.186	18281
894.308	18315
894.43	18369
894.552	18525
894.674	18365
894.796	18243
894.918	18376
895.04	18395
895.161	18319
895.283	18361
895.405	18190
895.526	18213
895.648	18292
895.769	18251
895.891	18319
896.012	18308
896.134	18289
896.255	18235
896.376	18262
896.498	18270
896.619	18350
896.74	18319
896.861	18346
896.982	18574
897.103	18779
897.224	18582
897.345	18456
897.466	18490
897.587	18574
897.708	18566
897.828	18559
897.949	18460
898.07	18361
898.19	18346
898.311	18483
898.431	18346
898.552	18517
898.672	18582
898.792	18467
898.913	18517
899.033	18197
899.153	18224
899.273	18129
899.393	18117
899.513	18292
899.633	18220
899.753	18258
899.873	18171
899.993	18296
900.113	18273
900.232	18254
900.352	18178
900.472	18117
900.591	18045
900.711	18057
900.83	17965
900.95	18098
901.069	18045
901.189	17851
901.308	17870
901.427	17672
901.546	17653
901.665	17695
901.784	17638
901.904	17490
902.023	17353
902.141	17193
902.26	17056
902.379	17208
902.498	17128
902.617	17113
902.735	17239
902.854	17132
902.973	16930
903.091	16752
903.21	16869
903.328	16767
903.446	16691
903.565	16554
903.683	16565
903.801	16375
903.919	16630
904.038	16577
904.156	16329
904.274	16356
904.392	16284
904.51	16268
904.627	16280
904.745	16459
904.863	16363
904.981	16124
905.098	16025
905.216	15987
905.334	16032
905.451	16074
905.569	15968
905.686	15994
905.803	15994
905.921	15728
906.038	15819
906.155	15739
906.272	15652
906.389	15580
906.506	15519
906.623	15485
906.74	15454
906.857	15329
906.974	15428
907.091	15530
907.208	15599
907.324	15561
907.441	15378
907.557	15188
907.674	15222
907.79	15142
907.907	15207
908.023	15260
908.139	15230
908.256	15165
908.372	15104
908.488	15081
908.604	14994
908.72	14891
908.836	14944
908.952	14819
909.068	14941
909.184	14975
909.3	14868
909.415	14929
909.531	14891
909.647	14686
909.762	14530
909.878	14537
909.993	14590
910.108	14617
910.224	14629
910.339	14632
910.454	14492
910.57	14434
910.685	14381
910.8	14678
910.915	14507
911.03	14503
911.145	14339
911.259	14278
911.374	14210
911.489	14168
911.604	13989
911.718	14046
911.833	14081
911.947	13890
912.062	13841
912.176	13955
912.291	13959
912.405	13947
912.519	14119
912.633	14168
912.748	13982
912.862	14008
912.976	13860
913.09	13757
913.204	13761
913.318	13887
913.431	13887
913.545	13928
913.659	13944
913.772	13879
913.886	13700
914	13689
914.113	13742
914.226	13708
914.34	13689
914.453	13628
914.566	13670
914.68	13651
914.793	13567
914.906	13396
915.019	13407
915.132	13263
915.245	13335
915.358	13304
915.47	13354
915.583	13282
915.696	13331
915.809	13411
915.921	13449
916.034	13358
916.146	13327
916.259	13190
916.371	13457
916.483	13285
916.595	13240
916.708	13297
916.82	13278
916.932	13244
917.044	13187
917.156	13168
917.268	13046
917.38	13061
917.491	13046
917.603	13103
917.715	13190
917.826	13107
917.938	13000
918.049	12909
918.161	13012
918.272	13213
918.384	13080
918.495	12947
918.606	12821
918.717	12741
918.828	12875
918.939	12939
919.05	12795
919.161	12776
919.272	12631
919.383	12726
919.494	12772
919.604	12977
919.715	12738
919.826	12757
919.936	12745
920.047	12798
920.157	12719
920.267	12954
920.378	12757
920.488	12741
920.598	12924
920.708	13080
920.818	12901
920.928	12814
921.038	13019
921.148	13042
921.258	12681
921.368	12589
921.477	12612
921.587	12525
921.697	12365
921.806	12551
921.916	12448
922.025	12277
922.134	12258
922.244	12205
922.353	12220
922.462	12079
922.571	12053
922.68	11923
922.789	11866
922.898	11802
923.007	11802
923.116	11855
923.224	11893
923.333	11805
923.442	11726
923.55	11688
923.659	11680
923.767	11813
923.876	11623
923.984	11714
924.092	11695
924.201	11688
924.309	11649
924.417	11737
924.525	11562
924.633	11623
924.741	12327
924.849	11421
924.956	11516
925.064	11337
925.172	11353
925.279	11360
925.387	11410
925.494	11376
925.602	11528
925.709	11414
925.816	11364
925.924	11360
926.031	11436
926.138	11383
926.245	11429
926.352	11204
926.459	11296
926.566	11478
926.673	11303
926.779	11166
926.886	11174
926.993	11033
927.099	10987
927.206	10987
927.312	10938
927.419	11033
927.525	10976
927.631	11037
927.737	10858
927.843	10900
927.95	10653
928.056	10934
928.162	10915
928.267	10927
928.373	11364
928.479	10968
928.585	10679
928.69	10801
928.796	10782
928.901	10721
929.007	10573
929.112	10694
929.218	10641
929.323	10626
929.428	10592
929.533	10721
929.638	10596
929.743	10637
929.848	10550
929.953	10550
930.058	10478
930.163	10306
930.267	10360
930.372	10527
930.477	10227
930.581	10523
930.685	10417
930.79	10158
930.894	10295
930.998	10227
931.103	10363
931.207	9956
931.311	9850
931.415	9819
931.519	9698
931.623	9656
