Data from test_V78500241_1022.txt Node
Date: Fri Mar 25 14:40:50 CST 2022
User: usil
Spectrometer: V785-0024
Trigger mode: 0
Integration Time (sec): 4.000000E-1
Scans to average: 1
Nonlinearity correction enabled: false
Boxcar width: 0
Storing dark spectrum: false
XAxis mode: Wavelengths
Number of Pixels in Spectrum: 1024
>>>>>Begin Spectral Data<<<<<
801.071	22908
801.214	22927
801.356	22740
801.499	22497
801.641	22333
801.783	22200
801.926	22417
802.068	22253
802.211	22090
802.353	22048
802.496	21873
802.638	21926
802.78	21835
802.923	21789
803.065	21648
803.208	21614
803.35	21743
803.492	21747
803.635	21747
803.777	21686
803.919	21827
804.061	21926
804.204	21789
804.346	21698
804.488	21545
804.63	21671
804.773	21450
804.915	21583
805.057	21762
805.199	21618
805.341	21694
805.483	21751
805.626	21660
805.768	21583
805.91	21553
806.052	21717
806.194	21496
806.336	21861
806.478	21747
806.62	21720
806.762	21694
806.904	21945
807.046	22261
807.188	22048
807.33	22040
807.472	22169
807.614	22013
807.756	22150
807.898	22029
808.04	21987
808.182	22128
808.324	22284
808.465	22291
808.607	22679
808.749	22927
808.891	23029
809.033	23181
809.174	23064
809.316	22809
809.458	22660
809.6	22386
809.741	22451
809.883	22226
810.025	22440
810.166	22371
810.308	22352
810.45	22367
810.591	22341
810.733	22010
810.875	22025
811.016	21892
811.158	21869
811.299	21926
811.441	22036
811.582	21991
811.724	21930
811.865	21808
812.007	21956
812.148	21880
812.29	21873
812.431	22082
812.573	22147
812.714	22223
812.855	22379
812.997	22474
813.138	22516
813.279	22516
813.421	22432
813.562	22257
813.703	22268
813.845	22040
813.986	21698
814.127	21633
814.268	21401
814.41	21412
814.551	21473
814.692	21420
814.833	21313
814.974	21325
815.115	21462
815.256	21184
815.397	21154
815.539	21188
815.68	21192
815.821	21081
815.962	21074
816.103	21131
816.244	21020
816.385	20883
816.526	20899
816.666	20739
816.807	20503
816.948	20568
817.089	20727
817.23	20686
817.371	20571
817.512	20625
817.653	20590
817.793	20533
817.934	20526
818.075	20552
818.216	20526
818.356	20454
818.497	20313
818.638	20180
818.778	20240
818.919	20199
819.06	20294
819.2	20366
819.341	20377
819.481	20389
819.622	20571
819.762	20629
819.903	20621
820.043	20632
820.184	20632
820.324	20488
820.465	20499
820.605	20530
820.746	20560
820.886	20328
821.026	20476
821.167	20499
821.307	20476
821.447	20503
821.588	20240
821.728	20286
821.868	20130
822.008	19894
822.149	19826
822.289	19875
822.429	19731
822.569	19518
822.709	19586
822.849	19411
822.99	19369
823.13	19354
823.27	19331
823.41	19206
823.55	19206
823.69	19225
823.83	19095
823.97	19141
824.11	18993
824.25	18905
824.389	18939
824.529	19072
824.669	18935
824.809	19122
824.949	19084
825.089	19072
825.228	19148
825.368	18745
825.508	18783
825.648	18837
825.787	18817
825.927	18916
826.067	18658
826.206	18745
826.346	18852
826.485	18810
826.625	18696
826.765	18703
826.904	18730
827.044	18448
827.183	18582
827.323	18376
827.462	18544
827.601	18361
827.741	18490
827.88	18407
828.02	18224
828.159	18376
828.298	18475
828.437	18502
828.577	18460
828.716	18517
828.855	18410
828.994	18213
829.134	18148
829.273	18232
829.412	18144
829.551	18053
829.69	18087
829.829	18213
829.968	18209
830.107	18258
830.246	18129
830.385	18152
830.524	18102
830.663	18041
830.802	17897
830.941	17874
831.08	17737
831.219	17817
831.357	17836
831.496	18079
831.635	17828
831.774	17676
831.913	17703
832.051	17592
832.19	17615
832.329	17630
832.467	17471
832.606	17478
832.744	17497
832.883	17516
833.022	17440
833.16	17604
833.299	17478
833.437	17543
833.576	17486
833.714	17539
833.852	17608
833.991	17520
834.129	17649
834.267	17634
834.406	17619
834.544	17634
834.682	17608
834.821	17493
834.959	17676
835.097	17490
835.235	17589
835.373	17524
835.511	17543
835.65	17490
835.788	17478
835.926	17239
836.064	17246
836.202	17376
836.34	17417
836.478	17463
836.615	17459
836.753	17566
836.891	17524
837.029	17543
837.167	17406
837.305	17474
837.443	17322
837.58	17349
837.718	17414
837.856	17322
837.993	17223
838.131	17265
838.269	17162
838.406	17155
838.544	17094
838.681	16991
838.819	16949
838.956	16820
839.094	16801
839.231	16919
839.369	16911
839.506	17197
839.643	16987
839.781	16797
839.918	16778
840.055	16911
840.193	16748
840.33	16721
840.467	16736
840.604	16896
840.742	17113
840.879	16683
841.016	16698
841.153	16771
841.29	16885
841.427	16797
841.564	16824
841.701	16866
841.838	16721
841.975	16702
842.112	16641
842.249	16607
842.385	16596
842.522	16820
842.659	16622
842.796	16668
842.933	16508
843.069	16512
843.206	16531
843.343	16645
843.479	16653
843.616	16630
843.752	16459
843.889	16459
844.025	16508
844.162	16421
844.298	16519
844.435	16310
844.571	16402
844.708	16398
844.844	16592
844.98	16527
845.117	16615
845.253	16386
845.389	16485
845.525	16645
845.661	16752
845.798	16953
845.934	17284
846.07	17235
846.206	17322
846.342	17216
846.478	16835
846.614	16421
846.75	16207
846.886	16017
847.022	16112
847.158	15987
847.294	16002
847.429	15960
847.565	15975
847.701	16162
847.837	15759
847.972	15686
848.108	15755
848.244	15679
848.379	15595
848.515	15507
848.65	15606
848.786	15450
848.921	15629
849.057	15576
849.192	15648
849.328	15507
849.463	15542
849.598	15435
849.734	15435
849.869	15424
850.004	15279
850.14	15386
850.275	15226
850.41	15302
850.545	15241
850.68	15264
850.815	15317
850.95	15218
851.085	15450
851.22	15264
851.355	15294
851.49	15336
851.625	15233
851.76	15157
851.895	15142
852.03	15100
852.165	15310
852.299	15367
852.434	15382
852.569	15264
852.703	15298
852.838	15298
852.973	15462
853.107	15332
853.242	15214
853.376	15268
853.511	15058
853.645	15165
853.78	15287
853.914	15199
854.048	15116
854.183	15161
854.317	15249
854.451	15329
854.585	15150
854.72	15108
854.854	15275
854.988	15047
855.122	15154
855.256	15055
855.39	15142
855.524	15249
855.658	15180
855.792	15173
855.926	15226
856.06	15195
856.194	15169
856.327	15161
856.461	15097
856.595	15066
856.729	15116
856.862	15306
856.996	15116
857.13	15214
857.263	15359
857.397	15283
857.53	15070
857.664	15279
857.797	15241
857.931	15249
858.064	15176
858.197	15287
858.331	15169
858.464	15097
858.597	15009
858.731	15119
858.864	15207
858.997	15062
859.13	15138
859.263	15195
859.396	15199
859.529	15116
859.662	15089
859.795	14979
859.928	15188
860.061	15291
860.194	15173
860.327	15180
860.46	15127
860.592	15252
860.725	15279
860.858	15245
860.99	15146
861.123	15146
861.256	15108
861.388	15077
861.521	15804
861.653	15032
861.786	14838
861.918	15047
862.05	15032
862.183	15116
862.315	15081
862.447	15192
862.58	15028
862.712	14834
862.844	14876
862.976	15017
863.108	14910
863.24	15306
863.372	14830
863.504	14834
863.636	14883
863.768	14967
863.9	14933
864.032	14857
864.164	14891
864.296	14883
864.428	14925
864.559	15043
864.691	14902
864.823	14933
864.954	14963
865.086	14937
865.217	14804
865.349	14906
865.48	14933
865.612	14872
865.743	15024
865.875	14914
866.006	14830
866.137	14861
866.269	14925
866.4	14861
866.531	14811
866.662	14845
866.793	14849
866.924	14792
867.055	14845
867.186	14979
867.317	14750
867.448	14716
867.579	14762
867.71	14743
867.841	14815
867.972	14826
868.103	14891
868.233	14845
868.364	14914
868.495	14941
868.625	15112
868.756	15184
868.886	15112
869.017	15150
869.147	15169
869.278	15199
869.408	15230
869.539	15024
869.669	15119
869.799	15146
869.929	15154
870.06	15226
870.19	15374
870.32	15389
870.45	15519
870.58	15530
870.71	15720
870.84	15538
870.97	15431
871.1	15561
871.23	15709
871.36	15709
871.489	15667
871.619	15606
871.749	15641
871.879	15633
872.008	15838
872.138	15625
872.267	15671
872.397	15542
872.526	15519
872.656	15458
872.785	15568
872.915	15751
873.044	15857
873.173	15770
873.303	15736
873.432	15827
873.561	15873
873.69	15865
873.819	15778
873.948	15880
874.077	15804
874.206	15656
874.335	15701
874.464	15941
874.593	16006
874.722	16040
874.851	16226
874.979	16093
875.108	16010
875.237	16074
875.365	15956
875.494	16051
875.623	16162
875.751	16010
875.88	16173
876.008	16272
876.136	16291
876.265	16455
876.393	16561
876.521	16664
876.65	16508
876.778	16527
876.906	16363
877.034	16478
877.162	16519
877.29	16348
877.418	16481
877.546	16573
877.674	16550
877.802	16516
877.93	16485
878.058	16443
878.185	16535
878.313	16504
878.441	16451
878.568	16417
878.696	16455
878.824	16668
878.951	16630
879.079	17014
879.206	17197
879.333	16942
879.461	16984
879.588	17105
879.715	17147
879.842	17280
879.97	16995
880.097	16641
880.224	16596
880.351	16755
880.478	16569
880.605	16462
880.732	16432
880.859	16752
880.986	16470
881.112	16565
881.239	16310
881.366	16280
881.493	16147
881.619	16101
881.746	16158
881.872	16078
881.999	16147
882.125	16097
882.252	16185
882.378	16090
882.505	16314
882.631	16082
882.757	15987
882.883	15934
883.01	15926
883.136	15918
883.262	15819
883.388	15842
883.514	15907
883.64	16090
883.766	15774
883.892	15705
884.018	15705
884.143	15953
884.269	15994
884.395	15667
884.52	15587
884.646	15663
884.772	15526
884.897	15545
885.023	15686
885.148	15679
885.274	15819
885.399	15728
885.524	15637
885.65	15641
885.775	15736
885.9	15561
886.025	15663
886.15	15660
886.275	15561
886.4	15515
886.525	15519
886.65	15492
886.775	15618
886.9	15671
887.025	15759
887.149	15576
887.274	15469
887.399	15298
887.523	15397
887.648	15329
887.773	15294
887.897	15374
888.021	15332
888.146	15302
888.27	15534
888.395	15538
888.519	15420
888.643	15408
888.767	15412
888.891	15233
889.015	15207
889.139	15176
889.263	15184
889.387	15264
889.511	15473
889.635	15306
889.759	15192
889.883	15157
890.006	15154
890.13	15382
890.254	15097
890.377	15157
890.501	14971
890.624	14963
890.748	15066
890.871	14887
890.995	14872
891.118	14705
891.241	14914
891.364	14944
891.488	14906
891.611	15024
891.734	14868
891.857	14880
891.98	14975
892.103	14895
892.226	14861
892.349	14777
892.471	14667
892.594	14796
892.717	14750
892.839	14777
892.962	14815
893.085	14842
893.207	14864
893.33	14811
893.452	14811
893.575	14929
893.697	14914
893.819	15024
893.941	15036
894.064	14944
894.186	14735
894.308	14758
894.43	14910
894.552	14971
894.674	14982
894.796	14861
894.918	14853
895.04	14800
895.161	14944
895.283	14830
895.405	14826
895.526	14868
895.648	14864
895.769	14914
895.891	15009
896.012	15024
896.134	14948
896.255	14910
896.376	14982
896.498	15028
896.619	15032
896.74	14944
896.861	15100
896.982	15408
897.103	15469
897.224	15313
897.345	15268
897.466	15093
897.587	15233
897.708	15321
897.828	15226
897.949	15192
898.07	15051
898.19	15272
898.311	15408
898.431	15325
898.552	15203
898.672	15412
898.792	15275
898.913	15363
899.033	15249
899.153	15108
899.273	15081
899.393	15233
899.513	15188
899.633	15275
899.753	15195
899.873	15089
899.993	15283
900.113	15173
900.232	15116
900.352	15119
900.472	15097
900.591	15005
900.711	15100
900.83	14990
900.95	15173
901.069	15089
901.189	14986
901.308	14838
901.427	14678
901.546	14632
901.665	14785
901.784	14769
901.904	14594
902.023	14469
902.141	14278
902.26	14263
902.379	14282
902.498	14271
902.617	14237
902.735	14259
902.854	14248
902.973	14180
903.091	13967
903.21	13936
903.328	13940
903.446	13879
903.565	13765
903.683	13776
903.801	13624
903.919	13753
904.038	13708
904.156	13590
904.274	13655
904.392	13628
904.51	13571
904.627	13590
904.745	13704
904.863	13616
904.981	13354
905.098	13396
905.216	13312
905.334	13285
905.451	13331
905.569	13240
905.686	13339
905.803	13244
905.921	13095
906.038	13171
906.155	13057
906.272	12920
906.389	13004
906.506	12901
906.623	12871
906.74	12863
906.857	12703
906.974	12760
907.091	12909
907.208	12947
907.324	12833
907.441	12730
907.557	12669
907.674	12578
907.79	12574
907.907	12601
908.023	12608
908.139	12597
908.256	12521
908.372	12525
908.488	12551
908.604	12407
908.72	12296
908.836	12361
908.952	12334
909.068	12350
909.184	12547
909.3	12308
909.415	12308
909.531	12403
909.647	12133
909.762	12117
909.878	12098
909.993	12144
910.108	12060
910.224	12060
910.339	12091
910.454	12019
910.57	11923
910.685	11973
910.8	12197
910.915	12087
911.03	12011
911.145	11805
911.259	11863
911.374	11783
911.489	11748
911.604	11634
911.718	11611
911.833	11611
911.947	11417
912.062	11326
912.176	11478
912.291	11554
912.405	11482
912.519	11722
912.633	11756
912.748	11589
912.862	11520
912.976	11478
913.09	11315
913.204	11410
913.318	11349
913.431	11543
913.545	11482
913.659	11589
913.772	11376
913.886	11265
914	11227
914.113	11417
914.226	11425
914.34	11296
914.453	11170
914.566	11364
914.68	11258
914.793	11258
914.906	11086
915.019	11006
915.132	10972
915.245	10934
915.358	10938
915.47	11102
915.583	11079
915.696	11105
915.809	11136
915.921	11121
916.034	11045
916.146	11018
916.259	10930
916.371	11010
916.483	11083
916.595	10904
916.708	11033
916.82	10949
916.932	10892
917.044	10911
917.156	10873
917.268	10854
917.38	10831
917.491	10820
917.603	10847
917.715	10919
917.826	10942
917.938	10797
918.049	10706
918.161	10790
918.272	10965
918.384	10972
918.495	10881
918.606	10664
918.717	10679
918.828	10698
918.939	10748
919.05	10596
919.161	10668
919.272	10451
919.383	10542
919.494	10801
919.604	10843
919.715	10733
919.826	10599
919.936	10656
920.047	10790
920.157	10797
920.267	10908
920.378	10839
920.488	10759
920.598	10980
920.708	11022
920.818	11010
920.928	10953
921.038	10999
921.148	11060
921.258	10809
921.368	10668
921.477	10580
921.587	10542
921.697	10409
921.806	10573
921.916	10402
922.025	10306
922.134	10303
922.244	10246
922.353	10265
922.462	10135
922.571	10082
922.68	9987
922.789	9850
922.898	9960
923.007	9869
923.116	9934
923.224	9899
923.333	9903
923.442	9740
923.55	9755
923.659	9785
923.767	9880
923.876	9823
923.984	9926
924.092	9720
924.201	9804
924.309	9759
924.417	9747
924.525	9751
924.633	9785
924.741	10668
924.849	9519
924.956	9747
925.064	9526
925.172	9477
925.279	9545
925.387	9603
925.494	9515
925.602	9701
925.709	9576
925.816	9549
925.924	9580
926.031	9694
926.138	9545
926.245	9564
926.352	9511
926.459	9580
926.566	9694
926.673	9477
926.779	9401
926.886	9401
926.993	9241
927.099	9321
927.206	9245
927.312	9214
927.419	9306
927.525	9272
927.631	9294
927.737	9214
927.843	9119
927.95	9028
928.056	9146
928.162	9199
928.267	9173
928.373	9671
928.479	9214
928.585	8994
928.69	9165
928.796	9180
928.901	9100
929.007	8902
929.112	9119
929.218	9017
929.323	8902
929.428	8921
929.533	9051
929.638	8933
929.743	8937
929.848	8975
929.953	8914
930.058	8853
930.163	8689
930.267	8720
930.372	8796
930.477	8689
930.581	8914
930.685	8788
930.79	8655
930.894	8594
930.998	8636
931.103	8727
931.207	8522
931.311	8415
931.415	8313
931.519	8161
931.623	8202
