Data from test_V78500241_1002.txt Node
Date: Fri Mar 25 14:40:41 CST 2022
User: usil
Spectrometer: V785-0024
Trigger mode: 0
Integration Time (sec): 4.000000E-1
Scans to average: 1
Nonlinearity correction enabled: false
Boxcar width: 0
Storing dark spectrum: false
XAxis mode: Wavelengths
Number of Pixels in Spectrum: 1024
>>>>>Begin Spectral Data<<<<<
801.071	23060
801.214	22953
801.356	22786
801.499	22603
801.641	22557
801.783	22428
801.926	22329
802.068	22451
802.211	22295
802.353	22223
802.496	22051
802.638	21869
802.78	21918
802.923	21816
803.065	21846
803.208	21793
803.35	21823
803.492	21915
803.635	21926
803.777	21633
803.919	21846
804.061	22177
804.204	21945
804.346	21808
804.488	21599
804.63	21682
804.773	21751
804.915	21717
805.057	21895
805.199	21732
805.341	21850
805.483	21812
805.626	21941
805.768	21819
805.91	21816
806.052	21827
806.194	21755
806.336	21945
806.478	21880
806.62	21701
806.762	21876
806.904	22040
807.046	22329
807.188	22223
807.33	22204
807.472	22390
807.614	22242
807.756	22230
807.898	22265
808.04	22344
808.182	22428
808.324	22626
808.465	22637
808.607	22942
808.749	23311
808.891	23372
809.033	23539
809.174	23261
809.316	23098
809.458	22957
809.6	22744
809.741	22603
809.883	22573
810.025	22626
810.166	22615
810.308	22538
810.45	22645
810.591	22402
810.733	22147
810.875	22025
811.016	21857
811.158	21998
811.299	22006
811.441	22226
811.582	22070
811.724	22021
811.865	21880
812.007	22097
812.148	21975
812.29	22082
812.431	22147
812.573	22268
812.714	22390
812.855	22550
812.997	22626
813.138	22778
813.279	22622
813.421	22436
813.562	22394
813.703	22284
813.845	22086
813.986	21846
814.127	21739
814.268	21530
814.41	21625
814.551	21648
814.692	21606
814.833	21492
814.974	21469
815.115	21469
815.256	21332
815.397	21256
815.539	21367
815.68	21298
815.821	21275
815.962	21150
816.103	21150
816.244	21070
816.385	21017
816.526	20998
816.666	20785
816.807	20682
816.948	20807
817.089	20788
817.23	20830
817.371	20674
817.512	20617
817.653	20651
817.793	20655
817.934	20549
818.075	20674
818.216	20693
818.356	20579
818.497	20427
818.638	20244
818.778	20385
818.919	20473
819.06	20423
819.2	20396
819.341	20552
819.481	20476
819.622	20682
819.762	20872
819.903	20746
820.043	20648
820.184	20629
820.324	20583
820.465	20640
820.605	20716
820.746	20522
820.886	20549
821.026	20552
821.167	20606
821.307	20556
821.447	20518
821.588	20362
821.728	20275
821.868	20252
822.008	20058
822.149	20069
822.289	20012
822.429	19685
822.569	19628
822.709	19719
822.849	19457
822.99	19525
823.13	19415
823.27	19495
823.41	19236
823.55	19244
823.69	19373
823.83	19396
823.97	19160
824.11	19053
824.25	19008
824.389	19091
824.529	19103
824.669	19080
824.809	19168
824.949	19240
825.089	19122
825.228	19053
825.368	18970
825.508	18916
825.648	18951
825.787	19031
825.927	18954
826.067	18962
826.206	18821
826.346	18852
826.485	18901
826.625	18916
826.765	18989
826.904	18875
827.044	18627
827.183	18608
827.323	18612
827.462	18654
827.601	18601
827.741	18582
827.88	18658
828.02	18532
828.159	18547
828.298	18608
828.437	18563
828.577	18506
828.716	18692
828.855	18616
828.994	18334
829.134	18315
829.273	18422
829.412	18232
829.551	18270
829.69	18292
829.829	18357
829.968	18391
830.107	18395
830.246	18300
830.385	18254
830.524	18258
830.663	18209
830.802	18053
830.941	17988
831.08	18034
831.219	18129
831.357	17889
831.496	18091
831.635	17977
831.774	17786
831.913	17790
832.051	17680
832.19	17695
832.329	17817
832.467	17623
832.606	17604
832.744	17615
832.883	17672
833.022	17729
833.16	17638
833.299	17676
833.437	17672
833.576	17824
833.714	17790
833.852	17714
833.991	17668
834.129	17775
834.267	17809
834.406	17775
834.544	17783
834.682	17710
834.821	17611
834.959	17916
835.097	17577
835.235	17783
835.373	17752
835.511	17585
835.65	17471
835.788	17543
835.926	17376
836.064	17368
836.202	17360
836.34	17623
836.478	17657
836.615	17471
836.753	17657
836.891	17623
837.029	17642
837.167	17490
837.305	17421
837.443	17444
837.58	17467
837.718	17528
837.856	17429
837.993	17452
838.131	17395
838.269	17364
838.406	17322
838.544	17330
838.681	17117
838.819	17037
838.956	17056
839.094	16923
839.231	17006
839.369	17022
839.506	17376
839.643	17128
839.781	16854
839.918	16953
840.055	17086
840.193	16915
840.33	16934
840.467	16942
840.604	17010
840.742	17254
840.879	16839
841.016	16904
841.153	16900
841.29	16995
841.427	16923
841.564	16987
841.701	16938
841.838	16900
841.975	16820
842.112	16809
842.249	16698
842.385	16653
842.522	16797
842.659	16626
842.796	16668
842.933	16744
843.069	16603
843.206	16664
843.343	16858
843.479	16645
843.616	16733
843.752	16497
843.889	16565
844.025	16622
844.162	16577
844.298	16527
844.435	16561
844.571	16466
844.708	16603
844.844	16694
844.98	16675
845.117	16744
845.253	16519
845.389	16580
845.525	16824
845.661	17071
845.798	17379
845.934	17684
846.07	17786
846.206	17691
846.342	17642
846.478	17174
846.614	16668
846.75	16265
846.886	16150
847.022	16329
847.158	16139
847.294	16055
847.429	16082
847.565	16032
847.701	16268
847.837	15888
847.972	15785
848.108	15892
848.244	15804
848.379	15781
848.515	15637
848.65	15606
848.786	15713
848.921	15553
849.057	15800
849.192	15701
849.328	15743
849.463	15732
849.598	15652
849.734	15580
849.869	15500
850.004	15496
850.14	15428
850.275	15344
850.41	15382
850.545	15469
850.68	15359
850.815	15477
850.95	15477
851.085	15580
851.22	15469
851.355	15370
851.49	15298
851.625	15351
851.76	15321
851.895	15195
852.03	15173
852.165	15378
852.299	15439
852.434	15492
852.569	15431
852.703	15397
852.838	15473
852.973	15542
853.107	15500
853.242	15386
853.376	15302
853.511	15214
853.645	15180
853.78	15313
853.914	15302
854.048	15348
854.183	15310
854.317	15424
854.451	15389
854.585	15313
854.72	15291
854.854	15291
854.988	15222
855.122	15230
855.256	15184
855.39	15264
855.524	15329
855.658	15370
855.792	15173
855.926	15291
856.06	15298
856.194	15412
856.327	15207
856.461	15188
856.595	15203
856.729	15226
856.862	15294
856.996	15195
857.13	15291
857.263	15405
857.397	15325
857.53	15184
857.664	15336
857.797	15363
857.931	15367
858.064	15321
858.197	15329
858.331	15332
858.464	15245
858.597	15214
858.731	15222
858.864	15146
858.997	15211
859.13	15291
859.263	15207
859.396	15169
859.529	15218
859.662	15207
859.795	15283
859.928	15294
860.061	15374
860.194	15462
860.327	15272
860.46	15135
860.592	15332
860.725	15321
860.858	15389
860.99	15252
861.123	15173
861.256	15192
861.388	15226
861.521	15797
861.653	15024
861.786	15013
861.918	15112
862.05	15093
862.183	15287
862.315	15272
862.447	15226
862.58	15085
862.712	14952
862.844	14960
862.976	15036
863.108	15097
863.24	15523
863.372	14975
863.504	14998
863.636	14967
863.768	15017
863.9	14952
864.032	14880
864.164	14918
864.296	15062
864.428	15081
864.559	15188
864.691	15089
864.823	15039
864.954	15066
865.086	14994
865.217	15028
865.349	14921
865.48	14971
865.612	14998
865.743	15176
865.875	14998
866.006	14937
866.137	14982
866.269	14971
866.4	14979
866.531	14960
866.662	14956
866.793	14967
866.924	15020
867.055	14979
867.186	14990
867.317	14998
867.448	14941
867.579	14902
867.71	14842
867.841	14868
867.972	15001
868.103	14956
868.233	14975
868.364	14994
868.495	15104
868.625	15131
868.756	15245
868.886	15116
869.017	15192
869.147	15275
869.278	15260
869.408	15237
869.539	15287
869.669	15329
869.799	15294
869.929	15264
870.06	15294
870.19	15542
870.32	15500
870.45	15477
870.58	15648
870.71	15755
870.84	15671
870.97	15701
871.1	15576
871.23	15842
871.36	15728
871.489	15671
871.619	15812
871.749	15800
871.879	15827
872.008	15857
872.138	15759
872.267	15876
872.397	15622
872.526	15622
872.656	15663
872.785	15686
872.915	15892
873.044	15884
873.173	15876
873.303	15899
873.432	15873
873.561	15876
873.69	15808
873.819	15949
873.948	15922
874.077	15865
874.206	15804
874.335	15915
874.464	16067
874.593	16185
874.722	16048
874.851	16154
874.979	16215
875.108	16188
875.237	16067
875.365	16112
875.494	16242
875.623	16226
875.751	16097
875.88	16284
876.008	16318
876.136	16485
876.265	16664
876.393	16672
876.521	16683
876.65	16733
876.778	16588
876.906	16653
877.034	16519
877.162	16622
877.29	16542
877.418	16577
877.546	16611
877.674	16645
877.802	16622
877.93	16630
878.058	16675
878.185	16569
878.313	16641
878.441	16733
878.568	16637
878.696	16577
878.824	16809
878.951	16869
879.079	17166
879.206	17315
879.333	17273
879.461	17372
879.588	17364
879.715	17554
879.842	17592
879.97	17322
880.097	16869
880.224	16710
880.351	16820
880.478	16778
880.605	16645
880.732	16599
880.859	16885
880.986	16683
881.112	16645
881.239	16500
881.366	16402
881.493	16322
881.619	16185
881.746	16181
881.872	16299
881.999	16246
882.125	16268
882.252	16329
882.378	16318
882.505	16443
882.631	16207
882.757	16029
882.883	16128
883.01	16048
883.136	15998
883.262	15964
883.388	15926
883.514	16044
883.64	16158
883.766	16116
883.892	15873
884.018	15945
884.143	16105
884.269	16166
884.395	15865
884.52	15709
884.646	15804
884.772	15713
884.897	15698
885.023	15755
885.148	15842
885.274	15804
885.399	15838
885.524	15800
885.65	15812
885.775	15819
885.9	15724
886.025	15827
886.15	15785
886.275	15656
886.4	15610
886.525	15675
886.65	15652
886.775	15641
886.9	15861
887.025	15956
887.149	15584
887.274	15466
887.399	15355
887.523	15443
887.648	15428
887.773	15374
887.897	15481
888.021	15542
888.146	15447
888.27	15595
888.395	15625
888.519	15523
888.643	15545
888.767	15663
888.891	15450
889.015	15302
889.139	15317
889.263	15241
889.387	15416
889.511	15526
889.635	15405
889.759	15291
889.883	15348
890.006	15405
890.13	15424
890.254	15230
890.377	15169
890.501	15093
890.624	15024
890.748	15169
890.871	15051
890.995	14979
891.118	14834
891.241	15039
891.364	15005
891.488	15043
891.611	14910
891.734	14994
891.857	15013
891.98	14948
892.103	14994
892.226	15036
892.349	14864
892.471	14838
892.594	14910
892.717	14948
892.839	14982
892.962	14914
893.085	15123
893.207	14979
893.33	14743
893.452	14845
893.575	14960
893.697	14990
893.819	15055
893.941	15165
894.064	15036
894.186	14868
894.308	14937
894.43	15017
894.552	15100
894.674	15100
894.796	14864
894.918	15058
895.04	14895
895.161	15135
895.283	15039
895.405	14925
895.526	15005
895.648	14998
895.769	14952
895.891	15028
896.012	15100
896.134	15051
896.255	15165
896.376	15108
896.498	15058
896.619	15104
896.74	15020
896.861	15157
896.982	15393
897.103	15561
897.224	15488
897.345	15359
897.466	15256
897.587	15363
897.708	15504
897.828	15348
897.949	15348
898.07	15138
898.19	15325
898.311	15428
898.431	15325
898.552	15374
898.672	15545
898.792	15504
898.913	15431
899.033	15302
899.153	15279
899.273	15199
899.393	15241
899.513	15222
899.633	15264
899.753	15355
899.873	15180
899.993	15310
900.113	15264
900.232	15252
900.352	15264
900.472	15173
900.591	15165
900.711	15157
900.83	15119
900.95	15256
901.069	15252
901.189	15039
901.308	14819
901.427	14845
901.546	14838
901.665	14864
901.784	14800
901.904	14644
902.023	14610
902.141	14377
902.26	14336
902.379	14370
902.498	14244
902.617	14313
902.735	14317
902.854	14347
902.973	14218
903.091	14100
903.21	13982
903.328	13909
903.446	13913
903.565	13959
903.683	13871
903.801	13750
903.919	13955
904.038	13951
904.156	13761
904.274	13864
904.392	13643
904.51	13605
904.627	13666
904.745	13738
904.863	13807
904.981	13556
905.098	13407
905.216	13365
905.334	13320
905.451	13343
905.569	13411
905.686	13411
905.803	13343
905.921	13171
906.038	13270
906.155	13266
906.272	13034
906.389	13050
906.506	12954
906.623	12924
906.74	12890
906.857	12863
906.974	12875
907.091	12989
907.208	13164
907.324	13027
907.441	12863
907.557	12635
907.674	12662
907.79	12566
907.907	12627
908.023	12738
908.139	12669
908.256	12601
908.372	12635
908.488	12566
908.604	12467
908.72	12418
908.836	12372
908.952	12448
909.068	12365
909.184	12441
909.3	12403
909.415	12403
909.531	12384
909.647	12235
909.762	12213
909.878	12125
909.993	12190
910.108	12140
910.224	12057
910.339	12205
910.454	12076
910.57	11996
910.685	11969
910.8	12235
910.915	12148
911.03	11935
911.145	11847
911.259	11748
911.374	11920
911.489	11775
911.604	11752
911.718	11672
911.833	11646
911.947	11543
912.062	11444
912.176	11528
912.291	11535
912.405	11547
912.519	11775
912.633	11855
912.748	11653
912.862	11562
912.976	11402
913.09	11326
913.204	11417
913.318	11520
913.431	11543
913.545	11566
913.659	11592
913.772	11524
913.886	11368
914	11356
914.113	11497
914.226	11417
914.34	11414
914.453	11239
914.566	11410
914.68	11277
914.793	11223
914.906	11102
915.019	11022
915.132	11029
915.245	11128
915.358	11151
915.47	11064
915.583	11098
915.696	11109
915.809	11269
915.921	11273
916.034	11025
916.146	11018
916.259	11025
916.371	11185
916.483	11083
916.595	10915
916.708	11067
916.82	10972
916.932	11041
917.044	11064
917.156	10927
917.268	10748
917.38	10934
917.491	10877
917.603	10881
917.715	11003
917.826	10957
917.938	10824
918.049	10763
918.161	10904
918.272	11086
918.384	11029
918.495	10972
918.606	10771
918.717	10672
918.828	10816
918.939	10850
919.05	10660
919.161	10828
919.272	10561
919.383	10626
919.494	10839
919.604	10995
919.715	10835
919.826	10607
919.936	10694
920.047	10820
920.157	10774
920.267	11006
920.378	10805
920.488	10714
920.598	10972
920.708	11113
920.818	10976
920.928	10904
921.038	11113
921.148	11037
921.258	10843
921.368	10679
921.477	10634
921.587	10618
921.697	10470
921.806	10630
921.916	10478
922.025	10322
922.134	10185
922.244	10246
922.353	10405
922.462	10112
922.571	10093
922.68	9983
922.789	10029
922.898	10006
923.007	9953
923.116	10025
923.224	9930
923.333	9953
923.442	9876
923.55	9823
923.659	9876
923.767	9945
923.876	9892
923.984	9991
924.092	9800
924.201	9838
924.309	9835
924.417	9854
924.525	9774
924.633	9785
924.741	10694
924.849	9603
924.956	9800
925.064	9599
925.172	9515
925.279	9618
925.387	9599
925.494	9568
925.602	9690
925.709	9660
925.816	9473
925.924	9553
926.031	9637
926.138	9637
926.245	9637
926.352	9561
926.459	9656
926.566	9660
926.673	9576
926.779	9469
926.886	9462
926.993	9317
927.099	9275
927.206	9188
927.312	9214
927.419	9306
927.525	9294
927.631	9321
927.737	9241
927.843	9176
927.95	9020
928.056	9207
928.162	9203
928.267	9241
928.373	9804
928.479	9226
928.585	9081
928.69	9184
928.796	9237
928.901	9116
929.007	8891
929.112	9093
929.218	9058
929.323	9024
929.428	8986
929.533	9104
929.638	8948
929.743	8918
929.848	9036
929.953	8971
930.058	8887
930.163	8868
930.267	8773
930.372	8937
930.477	8746
930.581	8918
930.685	8853
930.79	8708
930.894	8724
930.998	8621
931.103	8769
931.207	8415
931.311	8434
931.415	8438
931.519	8221
931.623	8187
