Data from test_V78500241_2226.txt Node
Date: Fri Mar 25 14:49:12 CST 2022
User: usil
Spectrometer: V785-0024
Trigger mode: 0
Integration Time (sec): 4.000000E-1
Scans to average: 1
Nonlinearity correction enabled: false
Boxcar width: 0
Storing dark spectrum: false
XAxis mode: Wavelengths
Number of Pixels in Spectrum: 1024
>>>>>Begin Spectral Data<<<<<
801.071	22341
801.214	22044
801.356	21823
801.499	21918
801.641	21595
801.783	21485
801.926	21557
802.068	21504
802.211	21462
802.353	21313
802.496	21081
802.638	21123
802.78	20914
802.923	20883
803.065	20956
803.208	20933
803.35	20845
803.492	20902
803.635	20986
803.777	20895
803.919	20948
804.061	21313
804.204	20910
804.346	20826
804.488	20720
804.63	20849
804.773	20708
804.915	20807
805.057	20845
805.199	20682
805.341	20853
805.483	20921
805.626	20906
805.768	20724
805.91	20785
806.052	20804
806.194	20739
806.336	21009
806.478	20807
806.62	20655
806.762	20792
806.904	20906
807.046	21214
807.188	21195
807.33	21138
807.472	21192
807.614	21001
807.756	20994
807.898	20857
808.04	20864
808.182	20815
808.324	20925
808.465	20979
808.607	21001
808.749	21252
808.891	21306
809.033	21340
809.174	21176
809.316	21093
809.458	21287
809.6	21119
809.741	21256
809.883	21275
810.025	21370
810.166	21325
810.308	21420
810.45	21245
810.591	21146
810.733	21032
810.875	20998
811.016	20861
811.158	20830
811.299	20979
811.441	21138
811.582	21047
811.724	20944
811.865	20826
812.007	20975
812.148	20853
812.29	21013
812.431	21161
812.573	21317
812.714	21363
812.855	21485
812.997	21462
813.138	21682
813.279	21515
813.421	21469
813.562	21374
813.703	21237
813.845	21131
813.986	20906
814.127	20545
814.268	20651
814.41	20651
814.551	20469
814.692	20537
814.833	20358
814.974	20594
815.115	20469
815.256	20252
815.397	20309
815.539	20377
815.68	20233
815.821	20122
815.962	20202
816.103	20199
816.244	19921
816.385	19967
816.526	19951
816.666	19750
816.807	19563
816.948	19811
817.089	19708
817.23	19616
817.371	19563
817.512	19674
817.653	19662
817.793	19518
817.934	19704
818.075	19563
818.216	19677
818.356	19605
818.497	19343
818.638	19240
818.778	19316
818.919	19263
819.06	19331
819.2	19605
819.341	19491
819.481	19483
819.622	19727
819.762	19731
819.903	19822
820.043	19689
820.184	19510
820.324	19544
820.465	19575
820.605	19597
820.746	19502
820.886	19525
821.026	19601
821.167	19495
821.307	19605
821.447	19548
821.588	19430
821.728	19278
821.868	19137
822.008	18924
822.149	18970
822.289	18913
822.429	18852
822.569	18719
822.709	18749
822.849	18601
822.99	18308
823.13	18467
823.27	18464
823.41	18372
823.55	18277
823.69	18319
823.83	18353
823.97	18163
824.11	18049
824.25	18083
824.389	18121
824.529	18171
824.669	18026
824.809	18140
824.949	18114
825.089	18133
825.228	18019
825.368	17786
825.508	17847
825.648	17859
825.787	17927
825.927	17893
826.067	17786
826.206	17817
826.346	17824
826.485	17843
826.625	17813
826.765	17889
826.904	17885
827.044	17646
827.183	17581
827.323	17478
827.462	17589
827.601	17562
827.741	17467
827.88	17585
828.02	17433
828.159	17486
828.298	17600
828.437	17573
828.577	17383
828.716	17668
828.855	17383
828.994	17421
829.134	17258
829.273	17296
829.412	17197
829.551	17235
829.69	17334
829.829	17349
829.968	17383
830.107	17265
830.246	17334
830.385	17242
830.524	17239
830.663	17117
830.802	16957
830.941	16923
831.08	16824
831.219	16900
831.357	16938
831.496	17113
831.635	16938
831.774	16812
831.913	16835
832.051	16729
832.19	16618
832.329	16713
832.467	16603
832.606	16447
832.744	16527
832.883	16592
833.022	16569
833.16	16630
833.299	16603
833.437	16641
833.576	16504
833.714	16561
833.852	16672
833.991	16603
834.129	16637
834.267	16752
834.406	16634
834.544	16774
834.682	16656
834.821	16717
834.959	16869
835.097	16554
835.235	16706
835.373	16645
835.511	16542
835.65	16512
835.788	16603
835.926	16402
836.064	16306
836.202	16485
836.34	16428
836.478	16607
836.615	16546
836.753	16615
836.891	16554
837.029	16611
837.167	16428
837.305	16459
837.443	16440
837.58	16318
837.718	16527
837.856	16493
837.993	16310
838.131	16375
838.269	16303
838.406	16287
838.544	16295
838.681	16051
838.819	16105
838.956	15911
839.094	15968
839.231	16044
839.369	16040
839.506	16348
839.643	16135
839.781	15949
839.918	15838
840.055	15964
840.193	15907
840.33	15846
840.467	15975
840.604	16002
840.742	16268
840.879	15797
841.016	15835
841.153	15869
841.29	15975
841.427	15945
841.564	16029
841.701	15945
841.838	15949
841.975	15876
842.112	15884
842.249	15785
842.385	15713
842.522	15945
842.659	15671
842.796	15614
842.933	15751
843.069	15641
843.206	15622
843.343	15835
843.479	15614
843.616	15671
843.752	15466
843.889	15519
844.025	15625
844.162	15458
844.298	15561
844.435	15500
844.571	15458
844.708	15492
844.844	15709
844.98	15610
845.117	15545
845.253	15477
845.389	15294
845.525	15412
845.661	15359
845.798	15294
845.934	15329
846.07	15272
846.206	15450
846.342	15397
846.478	15245
846.614	15036
846.75	15081
846.886	15077
847.022	15176
847.158	15089
847.294	15077
847.429	15192
847.565	15097
847.701	15283
847.837	14823
847.972	14765
848.108	14838
848.244	14845
848.379	14743
848.515	14670
848.65	14590
848.786	14602
848.921	14712
849.057	14811
849.192	14769
849.328	14731
849.463	14644
849.598	14552
849.734	14682
849.869	14503
850.004	14465
850.14	14442
850.275	14446
850.41	14328
850.545	14412
850.68	14358
850.815	14396
850.95	14377
851.085	14549
851.22	14560
851.355	14419
851.49	14454
851.625	14484
851.76	14389
851.895	14336
852.03	14389
852.165	14423
852.299	14499
852.434	14507
852.569	14549
852.703	14457
852.838	14503
852.973	14674
853.107	14705
853.242	14389
853.376	14396
853.511	14214
853.645	14263
853.78	14454
853.914	14343
854.048	14324
854.183	14218
854.317	14377
854.451	14461
854.585	14286
854.72	14267
854.854	14434
854.988	14313
855.122	14336
855.256	14282
855.39	14347
855.524	14473
855.658	14366
855.792	14317
855.926	14389
856.06	14396
856.194	14389
856.327	14328
856.461	14275
856.595	14267
856.729	14240
856.862	14431
856.996	14404
857.13	14393
857.263	14404
857.397	14503
857.53	14377
857.664	14454
857.797	14400
857.931	14427
858.064	14385
858.197	14488
858.331	14278
858.464	14259
858.597	14214
858.731	14328
858.864	14313
858.997	14248
859.13	14366
859.263	14305
859.396	14400
859.529	14377
859.662	14263
859.795	14187
859.928	14362
860.061	14419
860.194	14549
860.327	14347
860.46	14400
860.592	14263
860.725	14583
860.858	14446
860.99	14286
861.123	14313
861.256	14267
861.388	14305
861.521	14998
861.653	14191
861.786	14092
861.918	14237
862.05	14221
862.183	14336
862.315	14294
862.447	14294
862.58	14233
862.712	14065
862.844	14069
862.976	14221
863.108	14107
863.24	14419
863.372	14073
863.504	14107
863.636	14054
863.768	14142
863.9	14069
864.032	14035
864.164	14008
864.296	14084
864.428	14298
864.559	14199
864.691	14180
864.823	14195
864.954	14183
865.086	14180
865.217	14092
865.349	14054
865.48	14069
865.612	14180
865.743	14221
865.875	14103
866.006	14111
866.137	14126
866.269	14096
866.4	14088
866.531	14012
866.662	14012
866.793	14001
866.924	14016
867.055	14164
867.186	14081
867.317	14058
867.448	13845
867.579	14077
867.71	14012
867.841	14069
867.972	14149
868.103	14081
868.233	14069
868.364	14126
868.495	14180
868.625	14358
868.756	14450
868.886	14240
869.017	14263
869.147	14507
869.278	14473
869.408	14351
869.539	14355
869.669	14419
869.799	14450
869.929	14545
870.06	14442
870.19	14674
870.32	14579
870.45	14678
870.58	14762
870.71	14842
870.84	14819
870.97	14746
871.1	14792
871.23	14887
871.36	14998
871.489	14815
871.619	14918
871.749	14948
871.879	14895
872.008	15062
872.138	14849
872.267	14819
872.397	14720
872.526	14800
872.656	14701
872.785	14819
872.915	14986
873.044	15100
873.173	14967
873.303	15066
873.432	15009
873.561	15135
873.69	14918
873.819	15001
873.948	15066
874.077	15028
874.206	14845
874.335	15055
874.464	15195
874.593	15218
874.722	15233
874.851	15275
874.979	15294
875.108	15382
875.237	15241
875.365	15192
875.494	15256
875.623	15336
875.751	15252
875.88	15294
876.008	15454
876.136	15469
876.265	15705
876.393	15956
876.521	15827
876.65	15793
876.778	15732
876.906	15637
877.034	15679
877.162	15637
877.29	15717
877.418	15789
877.546	15804
877.674	15663
877.802	15644
877.93	15713
878.058	15667
878.185	15584
878.313	15690
878.441	15747
878.568	15496
878.696	15622
878.824	15747
878.951	15781
879.079	15895
879.206	16032
879.333	15819
879.461	15720
879.588	15831
879.715	15869
879.842	15987
879.97	15770
880.097	15549
880.224	15553
880.351	15622
880.478	15584
880.605	15477
880.732	15553
880.859	15739
880.986	15519
881.112	15557
881.239	15492
881.366	15431
881.493	15310
881.619	15214
881.746	15184
881.872	15340
881.999	15119
882.125	15188
882.252	15317
882.378	15272
882.505	15428
882.631	15070
882.757	15028
882.883	15085
883.01	15112
883.136	14963
883.262	14944
883.388	14864
883.514	15157
883.64	15074
883.766	15017
883.892	14819
884.018	14880
884.143	14952
884.269	15043
884.395	14807
884.52	14743
884.646	14731
884.772	14610
884.897	14644
885.023	14689
885.148	14792
885.274	14857
885.399	14830
885.524	14777
885.65	14682
885.775	14659
885.9	14667
886.025	14891
886.15	14796
886.275	14590
886.4	14701
886.525	14731
886.65	14564
886.775	14743
886.9	14807
887.025	14899
887.149	14743
887.274	14511
887.399	14533
887.523	14545
887.648	14492
887.773	14415
887.897	14610
888.021	14492
888.146	14621
888.27	14644
888.395	14621
888.519	14651
888.643	14579
888.767	14522
888.891	14571
889.015	14385
889.139	14465
889.263	14332
889.387	14571
889.511	14636
889.635	14526
889.759	14332
889.883	14419
890.006	14355
890.13	14552
890.254	14393
890.377	14434
890.501	14271
890.624	14233
890.748	14275
890.871	14168
890.995	14058
891.118	14073
891.241	14123
891.364	14183
891.488	14172
891.611	14142
891.734	14176
891.857	14103
891.98	14123
892.103	14233
892.226	14180
892.349	14065
892.471	14062
892.594	14130
892.717	14107
892.839	14107
892.962	14183
893.085	14134
893.207	14130
893.33	13921
893.452	14043
893.575	14142
893.697	14065
893.819	14278
893.941	14298
894.064	14294
894.186	14088
894.308	14065
894.43	14218
894.552	14374
894.674	14282
894.796	14107
894.918	14286
895.04	14130
895.161	14256
895.283	14233
895.405	14180
895.526	14164
895.648	14263
895.769	14298
895.891	14259
896.012	14271
896.134	14362
896.255	14290
896.376	14225
896.498	14317
896.619	14396
896.74	14351
896.861	14324
896.982	14629
897.103	14804
897.224	14621
897.345	14514
897.466	14495
897.587	14522
897.708	14670
897.828	14651
897.949	14495
898.07	14495
898.19	14549
898.311	14758
898.431	14678
898.552	14629
898.672	14781
898.792	14758
898.913	14720
899.033	14533
899.153	14469
899.273	14396
899.393	14484
899.513	14575
899.633	14598
899.753	14488
899.873	14507
899.993	14564
900.113	14457
900.232	14492
900.352	14507
900.472	14476
900.591	14313
900.711	14465
900.83	14172
900.95	14530
901.069	14518
901.189	14351
901.308	14069
901.427	13951
901.546	13944
901.665	14088
901.784	13986
901.904	13989
902.023	13814
902.141	13632
902.26	13609
902.379	13761
902.498	13704
902.617	13525
902.735	13693
902.854	13674
902.973	13563
903.091	13381
903.21	13297
903.328	13369
903.446	13209
903.565	13206
903.683	13129
903.801	13129
903.919	13164
904.038	13179
904.156	13084
904.274	13000
904.392	12932
904.51	12920
904.627	12947
904.745	13000
904.863	13034
904.981	12897
905.098	12654
905.216	12673
905.334	12669
905.451	12642
905.569	12642
905.686	12753
905.803	12665
905.921	12448
906.038	12623
906.155	12597
906.272	12311
906.389	12433
906.506	12213
906.623	12311
906.74	12194
906.857	12106
906.974	12190
907.091	12323
907.208	12479
907.324	12239
907.441	12182
907.557	11984
907.674	12098
907.79	12019
907.907	12022
908.023	12022
908.139	11965
908.256	11885
908.372	11961
908.488	11920
908.604	11817
908.72	11668
908.836	11760
908.952	11729
909.068	11786
909.184	11824
909.3	11745
909.415	11786
909.531	11718
909.647	11630
909.762	11608
909.878	11554
909.993	11520
910.108	11562
910.224	11535
910.339	11577
910.454	11486
910.57	11417
910.685	11318
910.8	11585
910.915	11509
911.03	11383
911.145	11315
911.259	11254
911.374	11292
911.489	11235
911.604	11075
911.718	11037
911.833	10991
911.947	11018
912.062	10839
912.176	11029
912.291	10946
912.405	11086
912.519	11136
912.633	11235
912.748	11098
912.862	10976
912.976	10976
913.09	10744
913.204	10904
913.318	10858
913.431	11006
913.545	11010
913.659	10957
913.772	10892
913.886	10812
914	10694
914.113	10828
914.226	10953
914.34	10793
914.453	10706
914.566	10816
914.68	10698
914.793	10645
914.906	10527
915.019	10432
915.132	10390
915.245	10542
915.358	10523
915.47	10519
915.583	10565
915.696	10550
915.809	10622
915.921	10672
916.034	10546
916.146	10398
916.259	10447
916.371	10538
916.483	10470
916.595	10375
916.708	10481
916.82	10421
916.932	10424
917.044	10459
917.156	10352
917.268	10295
917.38	10337
917.491	10390
917.603	10314
917.715	10379
917.826	10390
917.938	10265
918.049	10200
918.161	10318
918.272	10398
918.384	10546
918.495	10413
918.606	10249
918.717	10162
918.828	10238
918.939	10272
919.05	10169
919.161	10177
919.272	10074
919.383	10059
919.494	10242
919.604	10455
919.715	10280
919.826	10124
919.936	10162
920.047	10371
920.157	10230
920.267	10489
920.378	10287
920.488	10253
920.598	10432
920.708	10584
920.818	10500
920.928	10451
921.038	10626
921.148	10565
921.258	10253
921.368	10192
921.477	10097
921.587	10105
921.697	10010
921.806	10158
921.916	10071
922.025	9774
922.134	9755
922.244	9736
922.353	9816
922.462	9690
922.571	9587
922.68	9447
922.789	9473
922.898	9519
923.007	9428
923.116	9542
923.224	9496
923.333	9507
923.442	9386
923.55	9306
923.659	9298
923.767	9397
923.876	9230
923.984	9401
924.092	9260
924.201	9363
924.309	9298
924.417	9389
924.525	9287
924.633	9283
924.741	10196
924.849	9085
924.956	9294
925.064	9142
925.172	9024
925.279	9085
925.387	9135
925.494	9135
925.602	9245
925.709	9211
925.816	9108
925.924	9135
926.031	9207
926.138	9154
926.245	9142
926.352	9085
926.459	9199
926.566	9192
926.673	9112
926.779	8994
926.886	8975
926.993	8902
927.099	8842
927.206	8807
927.312	8807
927.419	8918
927.525	8857
927.631	8925
927.737	8746
927.843	8754
927.95	8720
928.056	8678
928.162	8735
928.267	8773
928.373	9405
928.479	8800
928.585	8632
928.69	8705
928.796	8766
928.901	8697
929.007	8560
929.112	8697
929.218	8606
929.323	8545
929.428	8469
929.533	8754
929.638	8499
929.743	8526
929.848	8621
929.953	8434
930.058	8473
930.163	8336
930.267	8328
930.372	8522
930.477	8328
930.581	8549
930.685	8366
930.79	8313
930.894	8366
930.998	8271
931.103	8412
931.207	8058
931.311	8005
931.415	7993
931.519	7822
931.623	7822
