Data from test_V78500241_315.txt Node
Date: Fri Mar 25 14:35:54 CST 2022
User: usil
Spectrometer: V785-0024
Trigger mode: 0
Integration Time (sec): 4.000000E-1
Scans to average: 1
Nonlinearity correction enabled: false
Boxcar width: 0
Storing dark spectrum: false
XAxis mode: Wavelengths
Number of Pixels in Spectrum: 1024
>>>>>Begin Spectral Data<<<<<
801.071	27070
801.214	26937
801.356	26777
801.499	26716
801.641	26613
801.783	26446
801.926	26587
802.068	26400
802.211	26389
802.353	26370
802.496	26111
802.638	26046
802.78	26126
802.923	25970
803.065	26020
803.208	25841
803.35	25986
803.492	26119
803.635	26180
803.777	25963
803.919	26168
804.061	26438
804.204	26187
804.346	25955
804.488	26008
804.63	26035
804.773	25978
804.915	26103
805.057	26115
805.199	25936
805.341	26024
805.483	26142
805.626	26142
805.768	25997
805.91	25921
806.052	26031
806.194	26012
806.336	26294
806.478	26062
806.62	26191
806.762	26191
806.904	26122
807.046	26385
807.188	26492
807.33	26526
807.472	26526
807.614	26355
807.756	26560
807.898	26450
808.04	26172
808.182	26298
808.324	26259
808.465	26332
808.607	26507
808.749	26587
808.891	26811
809.033	26830
809.174	26632
809.316	26674
809.458	26526
809.6	26533
809.741	26743
809.883	26568
810.025	26682
810.166	26887
810.308	26731
810.45	26769
810.591	26545
810.733	26488
810.875	26355
811.016	26263
811.158	26237
811.299	26564
811.441	26381
811.582	26484
811.724	26465
811.865	26343
812.007	26438
812.148	26408
812.29	26434
812.431	26511
812.573	26724
812.714	26743
812.855	26716
812.997	26990
813.138	27226
813.279	27017
813.421	26819
813.562	27001
813.703	26708
813.845	26644
813.986	26301
814.127	26115
814.268	26138
814.41	25906
814.551	25940
814.692	26039
814.833	25890
814.974	25879
815.115	25974
815.256	25811
815.397	25769
815.539	25803
815.68	25689
815.821	25651
815.962	25780
816.103	25639
816.244	25533
816.385	25441
816.526	25331
816.666	25255
816.807	25190
816.948	25175
817.089	25122
817.23	25171
817.371	25038
817.512	25084
817.653	25107
817.793	25038
817.934	25042
818.075	25076
818.216	25015
818.356	25057
818.497	24981
818.638	24726
818.778	24658
818.919	24772
819.06	24817
819.2	24970
819.341	24992
819.481	24939
819.622	25015
819.762	25274
819.903	25152
820.043	25053
820.184	25103
820.324	25175
820.465	25152
820.605	25137
820.746	25198
820.886	24871
821.026	25042
821.167	24859
821.307	25023
821.447	24973
821.588	24791
821.728	24589
821.868	24559
822.008	24388
822.149	24517
822.289	24289
822.429	24224
822.569	24194
822.709	24038
822.849	23950
822.99	23817
823.13	23809
823.27	23771
823.41	23653
823.55	23478
823.69	23737
823.83	23634
823.97	23611
824.11	23509
824.25	23452
824.389	23280
824.529	23531
824.669	23452
824.809	23493
824.949	23455
825.089	23463
825.228	23402
825.368	23421
825.508	23239
825.648	23376
825.787	23261
825.927	23299
826.067	23189
826.206	23029
826.346	23239
826.485	23315
826.625	23113
826.765	23296
826.904	23349
827.044	23048
827.183	22961
827.323	22961
827.462	22904
827.601	23022
827.741	22782
827.88	22889
828.02	22866
828.159	22812
828.298	22835
828.437	22972
828.577	22885
828.716	22942
828.855	22786
828.994	22630
829.134	22653
829.273	22698
829.412	22550
829.551	22451
829.69	22603
829.829	22550
829.968	22603
830.107	22531
830.246	22405
830.385	22531
830.524	22421
830.663	22379
830.802	22135
830.941	22238
831.08	22105
831.219	22303
831.357	22226
831.496	22268
831.635	22097
831.774	21998
831.913	21987
832.051	21991
832.19	21873
832.329	22010
832.467	21884
832.606	21770
832.744	21743
832.883	21770
833.022	21614
833.16	21759
833.299	21751
833.437	21816
833.576	21755
833.714	21762
833.852	21892
833.991	21785
834.129	21884
834.267	21899
834.406	21793
834.544	21869
834.682	21747
834.821	21709
834.959	21987
835.097	21705
835.235	21915
835.373	21785
835.511	21755
835.65	21694
835.788	21618
835.926	21504
836.064	21363
836.202	21564
836.34	21545
836.478	21709
836.615	21633
836.753	21545
836.891	21808
837.029	21728
837.167	21538
837.305	21564
837.443	21553
837.58	21408
837.718	21618
837.856	21523
837.993	21458
838.131	21458
838.269	21340
838.406	21344
838.544	21226
838.681	21165
838.819	21055
838.956	20941
839.094	20834
839.231	21001
839.369	21017
839.506	21252
839.643	21169
839.781	20849
839.918	20895
840.055	20864
840.193	20895
840.33	20849
840.467	20842
840.604	20880
840.742	21036
840.879	20735
841.016	20769
841.153	20708
841.29	20948
841.427	20815
841.564	20857
841.701	20716
841.838	20819
841.975	20701
842.112	20686
842.249	20549
842.385	20484
842.522	20720
842.659	20552
842.796	20522
842.933	20552
843.069	20442
843.206	20606
843.343	20651
843.479	20480
843.616	20507
843.752	20358
843.889	20252
844.025	20488
844.162	20271
844.298	20339
844.435	20362
844.571	20153
844.708	20305
844.844	20492
844.98	20362
845.117	20393
845.253	20309
845.389	20225
845.525	20358
845.661	20263
845.798	20183
845.934	20233
846.07	20161
846.206	20206
846.342	20317
846.478	20138
846.614	19959
846.75	19807
846.886	19780
847.022	19875
847.158	19868
847.294	19871
847.429	19772
847.565	19791
847.701	19982
847.837	19533
847.972	19483
848.108	19597
848.244	19590
848.379	19400
848.515	19312
848.65	19403
848.786	19403
848.921	19304
849.057	19411
849.192	19403
849.328	19434
849.463	19415
849.598	19343
849.734	19171
849.869	19152
850.004	19126
850.14	19129
850.275	19012
850.41	18977
850.545	18939
850.68	19137
850.815	19152
850.95	19046
851.085	19263
851.22	19126
851.355	19038
851.49	18913
851.625	18996
851.76	19023
851.895	18977
852.03	18939
852.165	19080
852.299	19061
852.434	19122
852.569	19023
852.703	19129
852.838	19057
852.973	19069
853.107	19160
853.242	18920
853.376	18814
853.511	18783
853.645	18890
853.78	18993
853.914	18958
854.048	18943
854.183	18791
854.317	18798
854.451	19012
854.585	18981
854.72	18825
854.854	18996
854.988	18745
855.122	18852
855.256	18692
855.39	18848
855.524	18913
855.658	18848
855.792	18810
855.926	18897
856.06	18901
856.194	18943
856.327	18837
856.461	18677
856.595	18817
856.729	18920
856.862	18897
856.996	18901
857.13	18909
857.263	19072
857.397	18909
857.53	18939
857.664	18943
857.797	18890
857.931	18962
858.064	18856
858.197	18905
858.331	18745
858.464	18681
858.597	18677
858.731	18859
858.864	18795
858.997	18916
859.13	18848
859.263	18871
859.396	18932
859.529	18776
859.662	18684
859.795	18844
859.928	18909
860.061	18909
860.194	19031
860.327	18749
860.46	18669
860.592	18943
860.725	18954
860.858	19031
860.99	18821
861.123	18738
861.256	18795
861.388	18897
861.521	19544
861.653	18650
861.786	18635
861.918	18707
862.05	18760
862.183	18806
862.315	18867
862.447	18970
862.58	18825
862.712	18574
862.844	18582
862.976	18669
863.108	18623
863.24	18886
863.372	18422
863.504	18494
863.636	18486
863.768	18532
863.9	18479
864.032	18414
864.164	18445
864.296	18479
864.428	18578
864.559	18593
864.691	18578
864.823	18532
864.954	18433
865.086	18506
865.217	18551
865.349	18308
865.48	18475
865.612	18323
865.743	18620
865.875	18467
866.006	18460
866.137	18475
866.269	18506
866.4	18353
866.531	18388
866.662	18304
866.793	18403
866.924	18460
867.055	18422
867.186	18372
867.317	18422
867.448	18300
867.579	18281
867.71	18315
867.841	18323
867.972	18426
868.103	18262
868.233	18376
868.364	18270
868.495	18407
868.625	18517
868.756	18642
868.886	18616
869.017	18559
869.147	18745
869.278	18722
869.408	18650
869.539	18582
869.669	18669
869.799	18650
869.929	18726
870.06	18703
870.19	18989
870.32	18985
870.45	18863
870.58	18852
870.71	19133
870.84	19110
870.97	19042
871.1	19023
871.23	19202
871.36	19141
871.489	19034
871.619	19084
871.749	18958
871.879	19160
872.008	19274
872.138	19114
872.267	19240
872.397	19114
872.526	18993
872.656	18985
872.785	19042
872.915	19194
873.044	19244
873.173	19213
873.303	19190
873.432	19297
873.561	19324
873.69	19179
873.819	19179
873.948	19381
874.077	19304
874.206	19297
874.335	19282
874.464	19308
874.593	19544
874.722	19487
874.851	19632
874.979	19430
875.108	19658
875.237	19445
875.365	19388
875.494	19620
875.623	19525
875.751	19441
875.88	19578
876.008	19658
876.136	19700
876.265	19906
876.393	20046
876.521	19997
876.65	20020
876.778	19974
876.906	19879
877.034	19887
877.162	19822
877.29	19769
877.418	19890
877.546	19974
877.674	19879
877.802	19970
877.93	19894
878.058	19860
878.185	19757
878.313	19902
878.441	19921
878.568	19807
878.696	19890
878.824	19928
878.951	19936
879.079	20096
879.206	20145
879.333	20065
879.461	19944
879.588	19993
879.715	20145
879.842	20214
879.97	20008
880.097	19765
880.224	19830
880.351	19769
880.478	19757
880.605	19616
880.732	19746
880.859	19970
880.986	19788
881.112	19746
881.239	19628
881.366	19453
881.493	19396
881.619	19419
881.746	19441
881.872	19445
881.999	19331
882.125	19324
882.252	19373
882.378	19358
882.505	19403
882.631	19301
882.757	19194
882.883	19164
883.01	19080
883.136	19088
883.262	18943
883.388	18897
883.514	19042
883.64	19076
883.766	19091
883.892	18875
884.018	18973
884.143	19091
884.269	19187
884.395	18935
884.52	18696
884.646	18730
884.772	18783
884.897	18688
885.023	18783
885.148	18962
885.274	18905
885.399	18966
885.524	18719
885.65	18722
885.775	18776
885.9	18722
886.025	18954
886.15	18776
886.275	18741
886.4	18589
886.525	18631
886.65	18540
886.775	18627
886.9	18787
887.025	18928
887.149	18696
887.274	18532
887.399	18391
887.523	18540
887.648	18403
887.773	18365
887.897	18502
888.021	18623
888.146	18559
888.27	18650
888.395	18715
888.519	18490
888.643	18494
888.767	18559
888.891	18448
889.015	18323
889.139	18376
889.263	18311
889.387	18467
889.511	18506
889.635	18410
889.759	18308
889.883	18384
890.006	18361
890.13	18494
890.254	18182
890.377	18372
890.501	18121
890.624	18087
890.748	18171
890.871	17992
890.995	17958
891.118	17908
891.241	17980
891.364	17996
891.488	18117
891.611	17977
891.734	17939
891.857	17912
891.98	17961
892.103	17942
892.226	17847
892.349	17855
892.471	17855
892.594	17771
892.717	17840
892.839	17958
892.962	17954
893.085	18026
893.207	17874
893.33	17805
893.452	17851
893.575	17961
893.697	17783
893.819	18041
893.941	17973
894.064	18102
894.186	17866
894.308	17828
894.43	17977
894.552	18095
894.674	17999
894.796	17817
894.918	17828
895.04	17916
895.161	17916
895.283	17927
895.405	17802
895.526	17866
895.648	17882
895.769	17939
895.891	18079
896.012	18095
896.134	17942
896.255	17954
896.376	17916
896.498	18007
896.619	18098
896.74	18015
896.861	18034
896.982	18285
897.103	18551
897.224	18186
897.345	18243
897.466	18243
897.587	18178
897.708	18350
897.828	18315
897.949	18197
898.07	18064
898.19	18197
898.311	18254
898.431	18171
898.552	18190
898.672	18213
898.792	18201
898.913	18182
899.033	18060
899.153	18015
899.273	17969
899.393	17904
899.513	18053
899.633	18015
899.753	17950
899.873	17935
899.993	17992
900.113	17885
900.232	17969
900.352	17992
900.472	17790
900.591	17745
900.711	17832
900.83	17771
900.95	17901
901.069	17939
901.189	17668
901.308	17528
901.427	17356
901.546	17440
901.665	17440
901.784	17379
901.904	17303
902.023	17113
902.141	17045
902.26	16919
902.379	17041
902.498	16911
902.617	16980
902.735	16938
902.854	16961
902.973	16854
903.091	16641
903.21	16660
903.328	16565
903.446	16584
903.565	16428
903.683	16470
903.801	16249
903.919	16413
904.038	16360
904.156	16112
904.274	16310
904.392	16211
904.51	16192
904.627	16173
904.745	16192
904.863	16143
904.981	15987
905.098	15884
905.216	15892
905.334	15941
905.451	15892
905.569	15816
905.686	15884
905.803	15842
905.921	15720
906.038	15732
906.155	15667
906.272	15561
906.389	15549
906.506	15496
906.623	15485
906.74	15401
906.857	15325
906.974	15344
907.091	15416
907.208	15587
907.324	15431
907.441	15408
907.557	15165
907.674	15119
907.79	15013
907.907	15077
908.023	15142
908.139	15108
908.256	15138
908.372	15039
908.488	15009
908.604	14807
908.72	14838
908.836	14868
908.952	14868
909.068	14830
909.184	14948
909.3	14724
909.415	14777
909.531	14746
909.647	14621
909.762	14594
909.878	14473
909.993	14568
910.108	14499
910.224	14473
910.339	14522
910.454	14339
910.57	14309
910.685	14301
910.8	14610
910.915	14495
911.03	14374
911.145	14229
911.259	14252
911.374	14153
911.489	14016
911.604	13940
911.718	14016
911.833	13917
911.947	13898
912.062	13776
912.176	13898
912.291	13807
912.405	13875
912.519	14073
912.633	14107
912.748	13909
912.862	13909
912.976	13742
913.09	13700
913.204	13750
913.318	13769
913.431	13799
913.545	13879
913.659	13814
913.772	13753
913.886	13613
914	13521
914.113	13689
914.226	13670
914.34	13597
914.453	13468
914.566	13639
914.68	13586
914.793	13514
914.906	13266
915.019	13228
915.132	13228
915.245	13251
915.358	13187
915.47	13346
915.583	13221
915.696	13304
915.809	13282
915.921	13457
916.034	13187
916.146	13175
916.259	13080
916.371	13308
916.483	13236
916.595	13110
916.708	13110
916.82	13190
916.932	13069
917.044	13099
917.156	13019
917.268	12909
917.38	12977
917.491	12897
917.603	12932
917.715	13057
917.826	13160
917.938	12802
918.049	12837
918.161	12901
918.272	13046
918.384	12909
918.495	12935
918.606	12806
918.717	12601
918.828	12852
918.939	12749
919.05	12703
919.161	12673
919.272	12403
919.383	12612
919.494	12791
919.604	12989
919.715	12734
919.826	12578
919.936	12639
920.047	12757
920.157	12772
920.267	12951
920.378	12715
920.488	12681
920.598	12939
920.708	13034
920.818	12863
920.928	12840
921.038	13046
921.148	12996
921.258	12677
921.368	12696
921.477	12544
921.587	12414
921.697	12292
921.806	12445
921.916	12388
922.025	12243
922.134	12136
922.244	12038
922.353	12201
922.462	12102
922.571	11980
922.68	11863
922.789	11779
922.898	11847
923.007	11779
923.116	11866
923.224	11832
923.333	11802
923.442	11676
923.55	11551
923.659	11756
923.767	11718
923.876	11661
923.984	11623
924.092	11570
924.201	11573
924.309	11585
924.417	11589
924.525	11581
924.633	11520
924.741	12273
924.849	11368
924.956	11493
925.064	11383
925.172	11235
925.279	11292
925.387	11387
925.494	11341
925.602	11493
925.709	11341
925.816	11208
925.924	11288
926.031	11417
926.138	11307
926.245	11318
926.352	11288
926.459	11235
926.566	11410
926.673	11231
926.779	11117
926.886	11162
926.993	10957
927.099	10938
927.206	10923
927.312	10934
927.419	11014
927.525	10896
927.631	10896
927.737	10858
927.843	10759
927.95	10763
928.056	10786
928.162	10740
928.267	10828
928.373	11322
928.479	10786
928.585	10637
928.69	10774
928.796	10714
928.901	10679
929.007	10599
929.112	10698
929.218	10622
929.323	10538
929.428	10558
929.533	10664
929.638	10561
929.743	10493
929.848	10546
929.953	10447
930.058	10371
930.163	10310
930.267	10280
930.372	10508
930.477	10246
930.581	10462
930.685	10230
930.79	10192
930.894	10147
930.998	10143
931.103	10276
931.207	9983
931.311	9812
931.415	9755
931.519	9580
931.623	9549
