Data from test_V78500241_3189.txt Node
Date: Fri Mar 25 14:55:55 CST 2022
User: usil
Spectrometer: V785-0024
Trigger mode: 0
Integration Time (sec): 4.000000E-1
Scans to average: 1
Nonlinearity correction enabled: false
Boxcar width: 0
Storing dark spectrum: false
XAxis mode: Wavelengths
Number of Pixels in Spectrum: 1024
>>>>>Begin Spectral Data<<<<<
801.071	22013
801.214	21865
801.356	21625
801.499	21557
801.641	21420
801.783	21412
801.926	21420
802.068	21370
802.211	21142
802.353	21161
802.496	21013
802.638	20864
802.78	20853
802.923	20811
803.065	20629
803.208	20651
803.35	20788
803.492	20686
803.635	20895
803.777	20598
803.919	20796
804.061	21074
804.204	20830
804.346	20568
804.488	20545
804.63	20842
804.773	20579
804.915	20545
805.057	20621
805.199	20667
805.341	20754
805.483	20792
805.626	20617
805.768	20438
805.91	20724
806.052	20545
806.194	20579
806.336	20735
806.478	20655
806.62	20587
806.762	20644
806.904	20781
807.046	21108
807.188	20914
807.33	21039
807.472	20967
807.614	20788
807.756	20925
807.898	20838
808.04	20674
808.182	20727
808.324	20735
808.465	20819
808.607	20807
808.749	20998
808.891	21066
809.033	21135
809.174	20956
809.316	20952
809.458	21039
809.6	21017
809.741	21070
809.883	20963
810.025	21256
810.166	21100
810.308	21055
810.45	21100
810.591	21058
810.733	20838
810.875	20834
811.016	20667
811.158	20640
811.299	20743
811.441	20811
811.582	20849
811.724	20788
811.865	20659
812.007	20655
812.148	20667
812.29	20777
812.431	21013
812.573	21112
812.714	21100
812.855	21252
812.997	21294
813.138	21447
813.279	21329
813.421	21241
813.562	21195
813.703	21020
813.845	20921
813.986	20625
814.127	20358
814.268	20362
814.41	20370
814.551	20294
814.692	20358
814.833	20317
814.974	20275
815.115	20324
815.256	20130
815.397	20244
815.539	20092
815.68	20065
815.821	20069
815.962	20012
816.103	20020
816.244	19875
816.385	19685
816.526	19734
816.666	19643
816.807	19434
816.948	19502
817.089	19597
817.23	19365
817.371	19495
817.512	19426
817.653	19533
817.793	19278
817.934	19365
818.075	19491
818.216	19464
818.356	19407
818.497	19225
818.638	19027
818.778	19038
818.919	19190
819.06	19190
819.2	19266
819.341	19206
819.481	19350
819.622	19445
819.762	19616
819.903	19552
820.043	19419
820.184	19426
820.324	19502
820.465	19544
820.605	19400
820.746	19362
820.886	19148
821.026	19312
821.167	19324
821.307	19495
821.447	19320
821.588	19225
821.728	19209
821.868	18977
822.008	18810
822.149	18783
822.289	18840
822.429	18601
822.569	18479
822.709	18547
822.849	18292
822.99	18342
823.13	18281
823.27	18289
823.41	18125
823.55	18152
823.69	18106
823.83	18224
823.97	18095
824.11	17908
824.25	17824
824.389	17847
824.529	18022
824.669	17908
824.809	17965
824.949	17950
825.089	17939
825.228	17885
825.368	17794
825.508	17661
825.648	17710
825.787	17703
825.927	17794
826.067	17596
826.206	17566
826.346	17596
826.485	17760
826.625	17604
826.765	17771
826.904	17691
827.044	17376
827.183	17425
827.323	17299
827.462	17444
827.601	17330
827.741	17341
827.88	17353
828.02	17227
828.159	17322
828.298	17273
828.437	17322
828.577	17334
828.716	17433
828.855	17337
828.994	17075
829.134	17155
829.273	17128
829.412	17155
829.551	17181
829.69	17018
829.829	17185
829.968	17117
830.107	17037
830.246	17197
830.385	17075
830.524	16961
830.663	16976
830.802	16767
830.941	16668
831.08	16710
831.219	16900
831.357	16820
831.496	16885
831.635	16831
831.774	16580
831.913	16580
832.051	16451
832.19	16542
832.329	16554
832.467	16440
832.606	16314
832.744	16382
832.883	16394
833.022	16318
833.16	16432
833.299	16474
833.437	16417
833.576	16470
833.714	16462
833.852	16447
833.991	16523
834.129	16554
834.267	16538
834.406	16481
834.544	16558
834.682	16516
834.821	16432
834.959	16565
835.097	16519
835.235	16535
835.373	16561
835.511	16379
835.65	16291
835.788	16417
835.926	16192
836.064	16177
836.202	16280
836.34	16478
836.478	16390
836.615	16268
836.753	16386
836.891	16478
837.029	16447
837.167	16329
837.305	16375
837.443	16234
837.58	16158
837.718	16284
837.856	16329
837.993	16154
838.131	16318
838.269	16116
838.406	16246
838.544	16147
838.681	15983
838.819	16021
838.956	15819
839.094	15850
839.231	15903
839.369	15998
839.506	16177
839.643	16017
839.781	15895
839.918	15667
840.055	15857
840.193	15778
840.33	15778
840.467	15816
840.604	15819
840.742	15975
840.879	15606
841.016	15774
841.153	15774
841.29	15880
841.427	15884
841.564	15793
841.701	15705
841.838	15838
841.975	15778
842.112	15709
842.249	15595
842.385	15526
842.522	15831
842.659	15572
842.796	15625
842.933	15523
843.069	15477
843.206	15614
843.343	15580
843.479	15519
843.616	15633
843.752	15450
843.889	15367
844.025	15538
844.162	15370
844.298	15515
844.435	15348
844.571	15298
844.708	15370
844.844	15439
844.98	15545
845.117	15424
845.253	15310
845.389	15249
845.525	15367
845.661	15226
845.798	15165
845.934	15180
846.07	15116
846.206	15169
846.342	15310
846.478	15138
846.614	15043
846.75	14815
846.886	14842
847.022	14967
847.158	14937
847.294	14937
847.429	15001
847.565	14876
847.701	15138
847.837	14777
847.972	14746
848.108	14765
848.244	14731
848.379	14602
848.515	14545
848.65	14537
848.786	14564
848.921	14492
849.057	14636
849.192	14594
849.328	14545
849.463	14571
849.598	14484
849.734	14492
849.869	14351
850.004	14377
850.14	14374
850.275	14336
850.41	14172
850.545	14206
850.68	14355
850.815	14305
850.95	14320
851.085	14507
851.22	14305
851.355	14294
851.49	14267
851.625	14267
851.76	14263
851.895	14157
852.03	14263
852.165	14343
852.299	14267
852.434	14370
852.569	14324
852.703	14286
852.838	14381
852.973	14431
853.107	14404
853.242	14294
853.376	14275
853.511	14123
853.645	14111
853.78	14332
853.914	14248
854.048	14126
854.183	14240
854.317	14115
854.451	14347
854.585	14157
854.72	14176
854.854	14263
854.988	14180
855.122	14153
855.256	14027
855.39	14138
855.524	14214
855.658	14248
855.792	14176
855.926	14294
856.06	14271
856.194	14271
856.327	14195
856.461	14138
856.595	14168
856.729	14157
856.862	14301
856.996	14138
857.13	14301
857.263	14294
857.397	14343
857.53	14142
857.664	14278
857.797	14237
857.931	14305
858.064	14157
858.197	14294
858.331	14134
858.464	14039
858.597	13982
858.731	14191
858.864	14142
858.997	14126
859.13	14210
859.263	14138
859.396	14202
859.529	14115
859.662	14130
859.795	14157
859.928	14195
860.061	14248
860.194	14343
860.327	14218
860.46	14145
860.592	14309
860.725	14275
860.858	14225
860.99	14103
861.123	14210
861.256	14164
861.388	14168
861.521	14975
861.653	14008
861.786	14065
861.918	13993
862.05	14164
862.183	14111
862.315	14168
862.447	14229
862.58	14123
862.712	14012
862.844	13955
862.976	13993
863.108	14024
863.24	14309
863.372	13875
863.504	14077
863.636	13936
863.768	13974
863.9	13928
864.032	13883
864.164	14024
864.296	14020
864.428	14103
864.559	14058
864.691	14073
864.823	14005
864.954	13963
865.086	13932
865.217	14020
865.349	13917
865.48	13970
865.612	13921
865.743	14012
865.875	13986
866.006	13947
866.137	13944
866.269	13868
866.4	14024
866.531	13852
866.662	13864
866.793	13860
866.924	13868
867.055	13944
867.186	13917
867.317	13940
867.448	13772
867.579	13860
867.71	13837
867.841	13860
867.972	14035
868.103	13898
868.233	13906
868.364	13986
868.495	14073
868.625	14202
868.756	14309
868.886	14088
869.017	14191
869.147	14313
869.278	14294
869.408	14218
869.539	14145
869.669	14240
869.799	14145
869.929	14393
870.06	14366
870.19	14545
870.32	14476
870.45	14461
870.58	14602
870.71	14701
870.84	14579
870.97	14636
871.1	14606
871.23	14785
871.36	14773
871.489	14659
871.619	14731
871.749	14750
871.879	14777
872.008	14830
872.138	14762
872.267	14807
872.397	14632
872.526	14621
872.656	14560
872.785	14587
872.915	14807
873.044	14834
873.173	14804
873.303	14918
873.432	14899
873.561	14864
873.69	14857
873.819	14868
873.948	14994
874.077	14842
874.206	14754
874.335	14834
874.464	14994
874.593	15131
874.722	15093
874.851	15199
874.979	15272
875.108	15260
875.237	15184
875.365	15074
875.494	15066
875.623	15264
875.751	15161
875.88	15138
876.008	15264
876.136	15355
876.265	15572
876.393	15709
876.521	15641
876.65	15698
876.778	15599
876.906	15466
877.034	15447
877.162	15584
877.29	15477
877.418	15515
877.546	15599
877.674	15614
877.802	15568
877.93	15572
878.058	15603
878.185	15519
878.313	15549
878.441	15530
878.568	15443
878.696	15462
878.824	15625
878.951	15603
879.079	15698
879.206	15831
879.333	15679
879.461	15568
879.588	15701
879.715	15827
879.842	15892
879.97	15595
880.097	15348
880.224	15359
880.351	15488
880.478	15393
880.605	15378
880.732	15458
880.859	15644
880.986	15367
881.112	15321
881.239	15317
881.366	15218
881.493	15138
881.619	15081
881.746	15074
881.872	15104
881.999	15066
882.125	15020
882.252	15146
882.378	15169
882.505	15260
882.631	15062
882.757	14857
882.883	14925
883.01	14979
883.136	14887
883.262	14811
883.388	14762
883.514	14796
883.64	14902
883.766	14788
883.892	14659
884.018	14716
884.143	14864
884.269	15032
884.395	14674
884.52	14579
884.646	14575
884.772	14457
884.897	14571
885.023	14682
885.148	14697
885.274	14686
885.399	14739
885.524	14568
885.65	14579
885.775	14579
885.9	14590
886.025	14602
886.15	14701
886.275	14560
886.4	14594
886.525	14670
886.65	14552
886.775	14552
886.9	14716
887.025	14891
887.149	14648
887.274	14423
887.399	14389
887.523	14408
887.648	14385
887.773	14233
887.897	14522
888.021	14457
888.146	14389
888.27	14568
888.395	14583
888.519	14457
888.643	14526
888.767	14541
888.891	14278
889.015	14317
889.139	14355
889.263	14313
889.387	14454
889.511	14518
889.635	14351
889.759	14240
889.883	14298
890.006	14317
890.13	14450
890.254	14259
890.377	14290
890.501	14126
890.624	14088
890.748	14092
890.871	13955
890.995	13963
891.118	13906
891.241	14012
891.364	14111
891.488	13982
891.611	13883
891.734	13982
891.857	14065
891.98	13986
892.103	14039
892.226	14096
892.349	13940
892.471	13822
892.594	13925
892.717	14046
892.839	13974
892.962	14027
893.085	14008
893.207	14069
893.33	13951
893.452	13955
893.575	13959
893.697	13951
893.819	14157
893.941	14210
894.064	14221
894.186	13989
894.308	13928
894.43	14134
894.552	14168
894.674	14134
894.796	14016
894.918	14107
895.04	13982
895.161	14164
895.283	14153
895.405	14024
895.526	14103
895.648	14202
895.769	14103
895.891	14138
896.012	14191
896.134	14119
896.255	14111
896.376	14126
896.498	14157
896.619	14157
896.74	14191
896.861	14172
896.982	14560
897.103	14667
897.224	14476
897.345	14400
897.466	14374
897.587	14317
897.708	14495
897.828	14533
897.949	14438
898.07	14385
898.19	14419
898.311	14629
898.431	14419
898.552	14511
898.672	14587
898.792	14632
898.913	14602
899.033	14461
899.153	14336
899.273	14275
899.393	14423
899.513	14427
899.633	14343
899.753	14404
899.873	14339
899.993	14454
900.113	14362
900.232	14396
900.352	14339
900.472	14271
900.591	14199
900.711	14199
900.83	14145
900.95	14282
901.069	14358
901.189	14237
901.308	13978
901.427	13890
901.546	13955
901.665	13955
901.784	14046
901.904	13883
902.023	13666
902.141	13445
902.26	13540
902.379	13563
902.498	13502
902.617	13487
902.735	13563
902.854	13460
902.973	13445
903.091	13160
903.21	13160
903.328	13187
903.446	13160
903.565	13053
903.683	13095
903.801	12882
903.919	13080
904.038	13091
904.156	12916
904.274	12943
904.392	12890
904.51	12863
904.627	12764
904.745	12977
904.863	12886
904.981	12616
905.098	12585
905.216	12536
905.334	12673
905.451	12612
905.569	12566
905.686	12593
905.803	12540
905.921	12342
906.038	12456
906.155	12388
906.272	12319
906.389	12239
906.506	12197
906.623	12186
906.74	12152
906.857	12102
906.974	11996
907.091	12224
907.208	12353
907.324	12186
907.441	12144
907.557	11958
907.674	11824
907.79	11836
907.907	11836
908.023	11874
908.139	11855
908.256	11882
908.372	11798
908.488	11805
908.604	11775
908.72	11577
908.836	11653
908.952	11573
909.068	11767
909.184	11817
909.3	11638
909.415	11760
909.531	11634
909.647	11551
909.762	11566
909.878	11353
909.993	11493
910.108	11509
910.224	11349
910.339	11486
910.454	11395
910.57	11284
910.685	11208
910.8	11505
910.915	11467
911.03	11334
911.145	11166
911.259	11124
911.374	11178
911.489	11056
911.604	10949
911.718	10885
911.833	10927
911.947	10786
912.062	10698
912.176	10877
912.291	10908
912.405	10946
912.519	11098
912.633	11162
912.748	10984
912.862	10919
912.976	10721
913.09	10664
913.204	10733
913.318	10740
913.431	10915
913.545	10908
913.659	10923
913.772	10866
913.886	10683
914	10694
914.113	10755
914.226	10847
914.34	10812
914.453	10611
914.566	10706
914.68	10634
914.793	10596
914.906	10424
915.019	10440
915.132	10310
915.245	10367
915.358	10459
915.47	10519
915.583	10390
915.696	10428
915.809	10508
915.921	10497
916.034	10341
916.146	10371
916.259	10360
916.371	10413
916.483	10394
916.595	10386
916.708	10276
916.82	10299
916.932	10268
917.044	10295
917.156	10322
917.268	10272
917.38	10265
917.491	10143
917.603	10318
917.715	10360
917.826	10367
917.938	10356
918.049	10192
918.161	10265
918.272	10424
918.384	10386
918.495	10253
918.606	10109
918.717	10112
918.828	10139
918.939	10162
919.05	10105
919.161	10181
919.272	9873
919.383	10010
919.494	10291
919.604	10261
919.715	10246
919.826	10059
919.936	10181
920.047	10246
920.157	10192
920.267	10360
920.378	10188
920.488	10158
920.598	10299
920.708	10527
920.818	10322
920.928	10329
921.038	10550
921.148	10451
921.258	10147
921.368	10067
921.477	10063
921.587	9949
921.697	9918
921.806	10044
921.916	9857
922.025	9698
922.134	9728
922.244	9633
922.353	9694
922.462	9595
922.571	9538
922.68	9466
922.789	9412
922.898	9359
923.007	9348
923.116	9507
923.224	9408
923.333	9397
923.442	9302
923.55	9207
923.659	9367
923.767	9374
923.876	9249
923.984	9370
924.092	9214
924.201	9233
924.309	9253
924.417	9268
924.525	9226
924.633	9268
924.741	10169
924.849	8952
924.956	9237
925.064	9066
925.172	9001
925.279	9009
925.387	9081
925.494	9051
925.602	9237
925.709	9146
925.816	8937
925.924	9055
926.031	9199
926.138	9097
926.245	9112
926.352	8998
926.459	9116
926.566	9161
926.673	9020
926.779	8891
926.886	8975
926.993	8800
927.099	8773
927.206	8693
927.312	8705
927.419	8823
927.525	8811
927.631	8880
927.737	8754
927.843	8705
927.95	8579
928.056	8682
928.162	8701
928.267	8708
928.373	9237
928.479	8689
928.585	8545
928.69	8648
928.796	8693
928.901	8587
929.007	8492
929.112	8594
929.218	8568
929.323	8495
929.428	8469
929.533	8606
929.638	8404
929.743	8454
929.848	8522
929.953	8492
930.058	8370
930.163	8286
930.267	8317
930.372	8370
930.477	8221
930.581	8488
930.685	8313
930.79	8199
930.894	8210
930.998	8157
931.103	8290
931.207	8039
931.311	7967
931.415	7913
931.519	7719
931.623	7738
