Data from test_V78500241_2578.txt Node
Date: Fri Mar 25 14:51:39 CST 2022
User: usil
Spectrometer: V785-0024
Trigger mode: 0
Integration Time (sec): 4.000000E-1
Scans to average: 1
Nonlinearity correction enabled: false
Boxcar width: 0
Storing dark spectrum: false
XAxis mode: Wavelengths
Number of Pixels in Spectrum: 1024
>>>>>Begin Spectral Data<<<<<
801.071	21945
801.214	21941
801.356	21720
801.499	21580
801.641	21405
801.783	21306
801.926	21481
802.068	21374
802.211	21256
802.353	21249
802.496	20921
802.638	20868
802.78	20796
802.923	20735
803.065	20625
803.208	20659
803.35	20705
803.492	20800
803.635	20769
803.777	20701
803.919	20697
804.061	21146
804.204	20792
804.346	20697
804.488	20556
804.63	20659
804.773	20575
804.915	20587
805.057	20701
805.199	20571
805.341	20655
805.483	20689
805.626	20735
805.768	20606
805.91	20621
806.052	20678
806.194	20613
806.336	20743
806.478	20613
806.62	20556
806.762	20648
806.904	20849
807.046	21203
807.188	21032
807.33	20952
807.472	21020
807.614	20868
807.756	20826
807.898	20621
808.04	20746
808.182	20716
808.324	20731
808.465	20693
808.607	20872
808.749	21036
808.891	21043
809.033	21116
809.174	21108
809.316	20880
809.458	20979
809.6	20952
809.741	21142
809.883	21146
810.025	21249
810.166	21062
810.308	21214
810.45	21081
810.591	21005
810.733	20811
810.875	20804
811.016	20697
811.158	20640
811.299	20811
811.441	20834
811.582	20891
811.724	20807
811.865	20758
812.007	20648
812.148	20712
812.29	20743
812.431	20887
812.573	21112
812.714	21157
812.855	21184
812.997	21378
813.138	21542
813.279	21435
813.421	21336
813.562	21180
813.703	21077
813.845	20830
813.986	20621
814.127	20480
814.268	20412
814.41	20275
814.551	20370
814.692	20412
814.833	20168
814.974	20298
815.115	20244
815.256	20172
815.397	20191
815.539	20183
815.68	20088
815.821	20020
815.962	20172
816.103	19989
816.244	19890
816.385	19811
816.526	19753
816.666	19643
816.807	19430
816.948	19491
817.089	19464
817.23	19476
817.371	19521
817.512	19403
817.653	19320
817.793	19388
817.934	19491
818.075	19392
818.216	19331
818.356	19282
818.497	19293
818.638	19084
818.778	19206
818.919	19148
819.06	19202
819.2	19350
819.341	19331
819.481	19312
819.622	19362
819.762	19685
819.903	19499
820.043	19331
820.184	19362
820.324	19381
820.465	19396
820.605	19400
820.746	19339
820.886	19274
821.026	19422
821.167	19388
821.307	19373
821.447	19255
821.588	19221
821.728	19183
821.868	18973
822.008	18837
822.149	18901
822.289	18696
822.429	18646
822.569	18563
822.709	18517
822.849	18410
822.99	18361
823.13	18292
823.27	18186
823.41	18159
823.55	18114
823.69	18087
823.83	18152
823.97	18087
824.11	17958
824.25	17794
824.389	17931
824.529	17984
824.669	17878
824.809	18015
824.949	18003
825.089	17961
825.228	17813
825.368	17813
825.508	17687
825.648	17760
825.787	17771
825.927	17745
826.067	17680
826.206	17577
826.346	17726
826.485	17665
826.625	17718
826.765	17741
826.904	17718
827.044	17486
827.183	17417
827.323	17360
827.462	17520
827.601	17421
827.741	17501
827.88	17410
828.02	17235
828.159	17307
828.298	17364
828.437	17455
828.577	17296
828.716	17570
828.855	17307
828.994	17181
829.134	17132
829.273	17113
829.412	17052
829.551	17067
829.69	17136
829.829	17086
829.968	17318
830.107	17162
830.246	17109
830.385	17025
830.524	17048
830.663	16991
830.802	16763
830.941	16778
831.08	16717
831.219	16869
831.357	16759
831.496	16980
831.635	16725
831.774	16672
831.913	16691
832.051	16630
832.19	16573
832.329	16550
832.467	16409
832.606	16550
832.744	16413
832.883	16409
833.022	16459
833.16	16531
833.299	16535
833.437	16497
833.576	16580
833.714	16493
833.852	16481
833.991	16569
834.129	16580
834.267	16527
834.406	16493
834.544	16523
834.682	16474
834.821	16478
834.959	16672
835.097	16443
835.235	16516
835.373	16550
835.511	16538
835.65	16367
835.788	16360
835.926	16329
836.064	16204
836.202	16265
836.34	16394
836.478	16493
836.615	16371
836.753	16386
836.891	16470
837.029	16394
837.167	16466
837.305	16367
837.443	16325
837.58	16223
837.718	16341
837.856	16287
837.993	16200
838.131	16310
838.269	16257
838.406	16257
838.544	16226
838.681	16063
838.819	16051
838.956	15823
839.094	15789
839.231	15911
839.369	16093
839.506	16318
839.643	16032
839.781	15850
839.918	15842
840.055	15759
840.193	15816
840.33	15812
840.467	15823
840.604	15907
840.742	16082
840.879	15774
841.016	15720
841.153	15766
841.29	15873
841.427	15968
841.564	15854
841.701	15808
841.838	15903
841.975	15736
842.112	15781
842.249	15694
842.385	15538
842.522	15698
842.659	15660
842.796	15618
842.933	15618
843.069	15606
843.206	15580
843.343	15663
843.479	15694
843.616	15606
843.752	15439
843.889	15469
844.025	15530
844.162	15367
844.298	15477
844.435	15405
844.571	15386
844.708	15561
844.844	15564
844.98	15599
845.117	15564
845.253	15363
845.389	15355
845.525	15329
845.661	15393
845.798	15218
845.934	15199
846.07	15184
846.206	15264
846.342	15359
846.478	15298
846.614	15135
846.75	14948
846.886	15005
847.022	15127
847.158	14941
847.294	15020
847.429	15047
847.565	14982
847.701	15199
847.837	14777
847.972	14708
848.108	14876
848.244	14773
848.379	14552
848.515	14720
848.65	14575
848.786	14602
848.921	14712
849.057	14674
849.192	14629
849.328	14807
849.463	14701
849.598	14537
849.734	14617
849.869	14469
850.004	14408
850.14	14473
850.275	14358
850.41	14381
850.545	14336
850.68	14347
850.815	14408
850.95	14355
851.085	14594
851.22	14495
851.355	14442
851.49	14271
851.625	14427
851.76	14309
851.895	14309
852.03	14271
852.165	14431
852.299	14473
852.434	14393
852.569	14419
852.703	14427
852.838	14568
852.973	14560
853.107	14488
853.242	14317
853.376	14237
853.511	14161
853.645	14259
853.78	14393
853.914	14385
854.048	14138
854.183	14248
854.317	14275
854.451	14389
854.585	14237
854.72	14259
854.854	14332
854.988	14100
855.122	14275
855.256	14164
855.39	14244
855.524	14362
855.658	14317
855.792	14282
855.926	14294
856.06	14275
856.194	14404
856.327	14172
856.461	14259
856.595	14248
856.729	14237
856.862	14374
856.996	14305
857.13	14328
857.263	14431
857.397	14336
857.53	14313
857.664	14358
857.797	14317
857.931	14389
858.064	14294
858.197	14446
858.331	14343
858.464	14332
858.597	14123
858.731	14252
858.864	14294
858.997	14294
859.13	14278
859.263	14244
859.396	14362
859.529	14240
859.662	14161
859.795	14149
859.928	14282
860.061	14317
860.194	14336
860.327	14381
860.46	14248
860.592	14358
860.725	14301
860.858	14385
860.99	14305
861.123	14126
861.256	14199
861.388	14225
861.521	14899
861.653	14130
861.786	14157
861.918	14172
862.05	14145
862.183	14237
862.315	14199
862.447	14377
862.58	14256
862.712	14123
862.844	13921
862.976	14081
863.108	14119
863.24	14602
863.372	13932
863.504	13982
863.636	13944
863.768	14088
863.9	14008
864.032	13932
864.164	13955
864.296	14092
864.428	14210
864.559	14180
864.691	14161
864.823	14084
864.954	14084
865.086	14043
865.217	14062
865.349	13932
865.48	13959
865.612	14046
865.743	14191
865.875	14062
866.006	13928
866.137	14016
866.269	14054
866.4	13944
866.531	13993
866.662	13940
866.793	13955
866.924	13982
867.055	14073
867.186	13986
867.317	13944
867.448	13852
867.579	14046
867.71	13830
867.841	13936
867.972	14107
868.103	13921
868.233	14062
868.364	14001
868.495	14134
868.625	14301
868.756	14377
868.886	14187
869.017	14313
869.147	14412
869.278	14317
869.408	14393
869.539	14343
869.669	14362
869.799	14259
869.929	14400
870.06	14415
870.19	14655
870.32	14545
870.45	14545
870.58	14644
870.71	14788
870.84	14762
870.97	14731
871.1	14708
871.23	14861
871.36	14883
871.489	14735
871.619	14864
871.749	14883
871.879	14899
872.008	14948
872.138	14853
872.267	14834
872.397	14754
872.526	14758
872.656	14689
872.785	14765
872.915	14864
873.044	15013
873.173	14956
873.303	15013
873.432	14887
873.561	15028
873.69	15020
873.819	14948
873.948	15051
874.077	14937
874.206	14933
874.335	15001
874.464	15058
874.593	15249
874.722	15119
874.851	15249
874.979	15291
875.108	15336
875.237	15230
875.365	15180
875.494	15222
875.623	15306
875.751	15237
875.88	15310
876.008	15389
876.136	15454
876.265	15686
876.393	15808
876.521	15812
876.65	15660
876.778	15675
876.906	15614
877.034	15614
877.162	15633
877.29	15633
877.418	15603
877.546	15568
877.674	15641
877.802	15557
877.93	15675
878.058	15591
878.185	15576
878.313	15618
878.441	15686
878.568	15572
878.696	15599
878.824	15823
878.951	15770
879.079	15823
879.206	15949
879.333	15808
879.461	15633
879.588	15747
879.715	15903
879.842	15949
879.97	15728
880.097	15580
880.224	15488
880.351	15614
880.478	15557
880.605	15397
880.732	15488
880.859	15785
880.986	15610
881.112	15603
881.239	15378
881.366	15211
881.493	15237
881.619	15116
881.746	15165
881.872	15138
881.999	15180
882.125	15138
882.252	15138
882.378	15211
882.505	15340
882.631	15058
882.757	15127
882.883	15005
883.01	15032
883.136	14982
883.262	14880
883.388	14823
883.514	14963
883.64	15081
883.766	14960
883.892	14754
884.018	14769
884.143	14994
884.269	15055
884.395	14735
884.52	14579
884.646	14697
884.772	14693
884.897	14602
885.023	14754
885.148	14796
885.274	14788
885.399	14807
885.524	14727
885.65	14750
885.775	14720
885.9	14648
886.025	14921
886.15	14663
886.275	14651
886.4	14629
886.525	14701
886.65	14712
886.775	14564
886.9	14861
887.025	14937
887.149	14667
887.274	14507
887.399	14552
887.523	14518
887.648	14404
887.773	14400
887.897	14606
888.021	14640
888.146	14556
888.27	14625
888.395	14648
888.519	14568
888.643	14629
888.767	14526
888.891	14480
889.015	14351
889.139	14457
889.263	14347
889.387	14511
889.511	14537
889.635	14450
889.759	14400
889.883	14393
890.006	14351
890.13	14514
890.254	14347
890.377	14408
890.501	14123
890.624	14134
890.748	14347
890.871	14164
890.995	13982
891.118	13993
891.241	14103
891.364	14123
891.488	14271
891.611	14161
891.734	14081
891.857	14123
891.98	14077
892.103	14206
892.226	14024
892.349	13993
892.471	14012
892.594	14130
892.717	14031
892.839	14164
892.962	14092
893.085	14172
893.207	14088
893.33	13993
893.452	13989
893.575	14191
893.697	14092
893.819	14229
893.941	14328
894.064	14278
894.186	14073
894.308	14050
894.43	14263
894.552	14237
894.674	14252
894.796	14031
894.918	14054
895.04	14012
895.161	14180
895.283	14206
895.405	14058
895.526	14233
895.648	14138
895.769	14199
895.891	14145
896.012	14343
896.134	14240
896.255	14271
896.376	14221
896.498	14267
896.619	14286
896.74	14317
896.861	14339
896.982	14663
897.103	14648
897.224	14549
897.345	14511
897.466	14415
897.587	14537
897.708	14705
897.828	14450
897.949	14412
898.07	14362
898.19	14450
898.311	14727
898.431	14556
898.552	14636
898.672	14606
898.792	14701
898.913	14636
899.033	14457
899.153	14278
899.273	14305
899.393	14434
899.513	14339
899.633	14415
899.753	14465
899.873	14522
899.993	14545
900.113	14488
900.232	14465
900.352	14408
900.472	14423
900.591	14233
900.711	14370
900.83	14347
900.95	14423
901.069	14377
901.189	14161
901.308	13963
901.427	14016
901.546	13986
901.665	13982
901.784	14005
901.904	13887
902.023	13837
902.141	13525
902.26	13548
902.379	13731
902.498	13556
902.617	13480
902.735	13563
902.854	13518
902.973	13518
903.091	13274
903.21	13297
903.328	13312
903.446	13152
903.565	13160
903.683	13149
903.801	13034
903.919	13095
904.038	13103
904.156	12985
904.274	13038
904.392	12905
904.51	12962
904.627	12924
904.745	13050
904.863	13072
904.981	12642
905.098	12612
905.216	12601
905.334	12620
905.451	12650
905.569	12635
905.686	12684
905.803	12631
905.921	12456
906.038	12566
906.155	12441
906.272	12308
906.389	12410
906.506	12152
906.623	12262
906.74	12190
906.857	12102
906.974	12152
907.091	12315
907.208	12315
907.324	12232
907.441	12155
907.557	12007
907.674	11988
907.79	11893
907.907	12015
908.023	11996
908.139	11927
908.256	11977
908.372	11977
908.488	11904
908.604	11798
908.72	11722
908.836	11752
908.952	11657
909.068	11756
909.184	11828
909.3	11779
909.415	11760
909.531	11794
909.647	11600
909.762	11509
909.878	11478
909.993	11554
910.108	11505
910.224	11516
910.339	11524
910.454	11425
910.57	11455
910.685	11372
910.8	11577
910.915	11433
911.03	11376
911.145	11197
911.259	11201
911.374	11242
911.489	11102
911.604	11208
911.718	10984
911.833	10949
911.947	10900
912.062	10717
912.176	10953
912.291	10980
912.405	10911
912.519	11174
912.633	11121
912.748	11086
912.862	10984
912.976	10877
913.09	10714
913.204	10774
913.318	10862
913.431	10828
913.545	10896
913.659	10934
913.772	10812
913.886	10771
914	10683
914.113	10831
914.226	10866
914.34	10748
914.453	10592
914.566	10850
914.68	10698
914.793	10675
914.906	10500
915.019	10386
915.132	10447
915.245	10443
915.358	10504
915.47	10417
915.583	10554
915.696	10538
915.809	10653
915.921	10664
916.034	10504
916.146	10466
916.259	10409
916.371	10489
916.483	10554
916.595	10390
916.708	10417
916.82	10402
916.932	10417
917.044	10417
917.156	10398
917.268	10344
917.38	10356
917.491	10341
917.603	10409
917.715	10440
917.826	10527
917.938	10382
918.049	10204
918.161	10356
918.272	10443
918.384	10455
918.495	10344
918.606	10257
918.717	10116
918.828	10177
918.939	10253
919.05	10116
919.161	10120
919.272	9949
919.383	10093
919.494	10280
919.604	10421
919.715	10242
919.826	10192
919.936	10246
920.047	10344
920.157	10249
920.267	10519
920.378	10261
920.488	10200
920.598	10409
920.708	10615
920.818	10382
920.928	10451
921.038	10607
921.148	10588
921.258	10280
921.368	10215
921.477	10067
921.587	10036
921.697	9941
921.806	10128
921.916	9998
922.025	9808
922.134	9842
922.244	9751
922.353	9827
922.462	9641
922.571	9614
922.68	9496
922.789	9485
922.898	9408
923.007	9450
923.116	9485
923.224	9481
923.333	9473
923.442	9370
923.55	9367
923.659	9408
923.767	9469
923.876	9317
923.984	9462
924.092	9302
924.201	9359
924.309	9374
924.417	9386
924.525	9256
924.633	9351
924.741	10059
924.849	9218
924.956	9294
925.064	9135
925.172	9032
925.279	9097
925.387	9112
925.494	9085
925.602	9230
925.709	9237
925.816	9131
925.924	9127
926.031	9188
926.138	9154
926.245	9188
926.352	9135
926.459	9226
926.566	9287
926.673	9089
926.779	8986
926.886	8994
926.993	8834
927.099	8880
927.206	8823
927.312	8754
927.419	8937
927.525	8804
927.631	8944
927.737	8792
927.843	8773
927.95	8629
928.056	8750
928.162	8781
928.267	8796
928.373	9454
928.479	8796
928.585	8632
928.69	8750
928.796	8758
928.901	8705
929.007	8469
929.112	8670
929.218	8667
929.323	8564
929.428	8617
929.533	8716
929.638	8446
929.743	8602
929.848	8663
929.953	8587
930.058	8423
930.163	8370
930.267	8279
930.372	8450
930.477	8259
930.581	8503
930.685	8431
930.79	8263
930.894	8301
930.998	8248
931.103	8408
931.207	8107
931.311	7989
931.415	8020
931.519	7765
931.623	7792
