Data from test_V78500241_2873.txt Node
Date: Fri Mar 25 14:53:43 CST 2022
User: usil
Spectrometer: V785-0024
Trigger mode: 0
Integration Time (sec): 4.000000E-1
Scans to average: 1
Nonlinearity correction enabled: false
Boxcar width: 0
Storing dark spectrum: false
XAxis mode: Wavelengths
Number of Pixels in Spectrum: 1024
>>>>>Begin Spectral Data<<<<<
801.071	22082
801.214	21876
801.356	21755
801.499	21660
801.641	21534
801.783	21428
801.926	21500
802.068	21469
802.211	21412
802.353	21249
802.496	20986
802.638	20963
802.78	20914
802.923	20811
803.065	20708
803.208	20758
803.35	20788
803.492	20811
803.635	21013
803.777	20758
803.919	20830
804.061	21127
804.204	20743
804.346	20708
804.488	20587
804.63	20720
804.773	20571
804.915	20670
805.057	20735
805.199	20716
805.341	20773
805.483	20758
805.626	20705
805.768	20632
805.91	20716
806.052	20769
806.194	20640
806.336	20697
806.478	20667
806.62	20670
806.762	20792
806.904	20880
807.046	21024
807.188	20994
807.33	21005
807.472	21154
807.614	20902
807.756	20952
807.898	20830
808.04	20693
808.182	20724
808.324	20864
808.465	20777
808.607	20960
808.749	21123
808.891	21135
809.033	21211
809.174	21226
809.316	20948
809.458	20960
809.6	21009
809.741	21138
809.883	21176
810.025	21287
810.166	21207
810.308	21287
810.45	21119
810.591	21074
810.733	20971
810.875	20895
811.016	20651
811.158	20807
811.299	20826
811.441	20963
811.582	20990
811.724	20807
811.865	20697
812.007	20678
812.148	20762
812.29	20823
812.431	20956
812.573	21138
812.714	21188
812.855	21249
812.997	21382
813.138	21576
813.279	21405
813.421	21306
813.562	21302
813.703	21184
813.845	20956
813.986	20796
814.127	20503
814.268	20476
814.41	20385
814.551	20275
814.692	20404
814.833	20377
814.974	20218
815.115	20465
815.256	20225
815.397	20187
815.539	20256
815.68	20183
815.821	19993
815.962	20119
816.103	20069
816.244	19845
816.385	19868
816.526	19814
816.666	19586
816.807	19521
816.948	19556
817.089	19723
817.23	19556
817.371	19434
817.512	19601
817.653	19521
817.793	19453
817.934	19575
818.075	19464
818.216	19571
818.356	19419
818.497	19331
818.638	19213
818.778	19107
818.919	19244
819.06	19129
819.2	19350
819.341	19457
819.481	19373
819.622	19506
819.762	19666
819.903	19643
820.043	19533
820.184	19624
820.324	19468
820.465	19411
820.605	19506
820.746	19449
820.886	19343
821.026	19384
821.167	19441
821.307	19434
821.447	19438
821.588	19270
821.728	19137
821.868	19034
822.008	18989
822.149	18783
822.289	18856
822.429	18654
822.569	18551
822.709	18620
822.849	18429
822.99	18353
823.13	18380
823.27	18277
823.41	18136
823.55	18079
823.69	18258
823.83	18235
823.97	18015
824.11	17931
824.25	18007
824.389	18076
824.529	17996
824.669	18015
824.809	18083
824.949	18091
825.089	18072
825.228	17908
825.368	17691
825.508	17722
825.648	17672
825.787	17680
825.927	17794
826.067	17577
826.206	17661
826.346	17653
826.485	17809
826.625	17703
826.765	17870
826.904	17760
827.044	17554
827.183	17459
827.323	17353
827.462	17486
827.601	17452
827.741	17429
827.88	17391
828.02	17345
828.159	17402
828.298	17478
828.437	17501
828.577	17372
828.716	17490
828.855	17448
828.994	17140
829.134	17185
829.273	17273
829.412	17166
829.551	17143
829.69	17098
829.829	17155
829.968	17250
830.107	17212
830.246	17162
830.385	17121
830.524	17128
830.663	16873
830.802	16850
830.941	16733
831.08	16733
831.219	16778
831.357	16843
831.496	17105
831.635	16793
831.774	16630
831.913	16615
832.051	16546
832.19	16554
832.329	16668
832.467	16504
832.606	16394
832.744	16512
832.883	16436
833.022	16447
833.16	16409
833.299	16432
833.437	16432
833.576	16466
833.714	16485
833.852	16550
833.991	16584
834.129	16550
834.267	16554
834.406	16466
834.544	16478
834.682	16554
834.821	16413
834.959	16702
835.097	16485
835.235	16626
835.373	16535
835.511	16489
835.65	16466
835.788	16470
835.926	16265
836.064	16234
836.202	16200
836.34	16489
836.478	16440
836.615	16375
836.753	16451
836.891	16584
837.029	16459
837.167	16382
837.305	16348
837.443	16272
837.58	16306
837.718	16398
837.856	16265
837.993	16257
838.131	16356
838.269	16188
838.406	16223
838.544	16158
838.681	15983
838.819	15941
838.956	15903
839.094	15850
839.231	15838
839.369	15994
839.506	16181
839.643	16090
839.781	15819
839.918	15812
840.055	15915
840.193	15861
840.33	15736
840.467	15793
840.604	15781
840.742	15991
840.879	15766
841.016	15732
841.153	15800
841.29	16021
841.427	15819
841.564	15842
841.701	15854
841.838	15747
841.975	15717
842.112	15751
842.249	15641
842.385	15504
842.522	15827
842.659	15606
842.796	15553
842.933	15698
843.069	15511
843.206	15466
843.343	15717
843.479	15747
843.616	15603
843.752	15462
843.889	15420
844.025	15542
844.162	15412
844.298	15454
844.435	15401
844.571	15306
844.708	15405
844.844	15553
844.98	15587
845.117	15466
845.253	15382
845.389	15336
845.525	15370
845.661	15291
845.798	15154
845.934	15214
846.07	15116
846.206	15218
846.342	15378
846.478	15237
846.614	15047
846.75	14910
846.886	14883
847.022	15017
847.158	15009
847.294	14960
847.429	14895
847.565	14918
847.701	15218
847.837	14629
847.972	14686
848.108	14823
848.244	14758
848.379	14579
848.515	14533
848.65	14457
848.786	14556
848.921	14613
849.057	14697
849.192	14659
849.328	14571
849.463	14674
849.598	14484
849.734	14480
849.869	14469
850.004	14454
850.14	14400
850.275	14362
850.41	14237
850.545	14339
850.68	14305
850.815	14240
850.95	14320
851.085	14556
851.22	14423
851.355	14339
851.49	14317
851.625	14248
851.76	14294
851.895	14267
852.03	14191
852.165	14282
852.299	14351
852.434	14412
852.569	14370
852.703	14377
852.838	14385
852.973	14431
853.107	14480
853.242	14320
853.376	14233
853.511	14115
853.645	14107
853.78	14229
853.914	14237
854.048	14218
854.183	14145
854.317	14183
854.451	14355
854.585	14202
854.72	14214
854.854	14237
854.988	14107
855.122	14229
855.256	14115
855.39	14157
855.524	14298
855.658	14206
855.792	14248
855.926	14195
856.06	14290
856.194	14370
856.327	14210
856.461	14187
856.595	14191
856.729	14176
856.862	14259
856.996	14259
857.13	14305
857.263	14377
857.397	14275
857.53	14077
857.664	14278
857.797	14267
857.931	14252
858.064	14210
858.197	14271
858.331	14134
858.464	14191
858.597	14123
858.731	14225
858.864	14229
858.997	14153
859.13	14210
859.263	14172
859.396	14210
859.529	14210
859.662	14263
859.795	14050
859.928	14275
860.061	14336
860.194	14320
860.327	14256
860.46	14062
860.592	14408
860.725	14309
860.858	14275
860.99	14084
861.123	14145
861.256	14221
861.388	14168
861.521	14838
861.653	14035
861.786	13921
861.918	14024
862.05	14195
862.183	14092
862.315	14130
862.447	14244
862.58	14138
862.712	13955
862.844	14039
862.976	14100
863.108	14054
863.24	14503
863.372	13989
863.504	14012
863.636	13974
863.768	14050
863.9	14024
864.032	13883
864.164	13982
864.296	14100
864.428	14138
864.559	14062
864.691	14130
864.823	14035
864.954	14031
865.086	14119
865.217	13970
865.349	14039
865.48	13959
865.612	13894
865.743	14111
865.875	14005
866.006	13963
866.137	13989
866.269	13982
866.4	14012
866.531	13864
866.662	13913
866.793	14035
866.924	14001
867.055	14016
867.186	14050
867.317	14016
867.448	13974
867.579	13989
867.71	13978
867.841	13936
867.972	14012
868.103	14005
868.233	13963
868.364	14020
868.495	14126
868.625	14336
868.756	14313
868.886	14229
869.017	14229
869.147	14332
869.278	14423
869.408	14237
869.539	14244
869.669	14305
869.799	14290
869.929	14385
870.06	14355
870.19	14579
870.32	14575
870.45	14602
870.58	14552
870.71	14670
870.84	14724
870.97	14587
871.1	14651
871.23	14807
871.36	14864
871.489	14777
871.619	14804
871.749	14963
871.879	14838
872.008	15013
872.138	14849
872.267	14914
872.397	14716
872.526	14712
872.656	14659
872.785	14670
872.915	14845
873.044	14933
873.173	14880
873.303	14944
873.432	14933
873.561	14982
873.69	14823
873.819	14967
873.948	14906
874.077	14967
874.206	14948
874.335	14906
874.464	15032
874.593	15233
874.722	15013
874.851	15283
874.979	15138
875.108	15283
875.237	15264
875.365	15184
875.494	15180
875.623	15389
875.751	15214
875.88	15199
876.008	15332
876.136	15408
876.265	15743
876.393	15755
876.521	15736
876.65	15732
876.778	15648
876.906	15568
877.034	15523
877.162	15580
877.29	15572
877.418	15576
877.546	15584
877.674	15709
877.802	15568
877.93	15641
878.058	15606
878.185	15526
878.313	15641
878.441	15553
878.568	15485
878.696	15530
878.824	15595
878.951	15686
879.079	15732
879.206	15934
879.333	15679
879.461	15736
879.588	15755
879.715	15823
879.842	15892
879.97	15736
880.097	15568
880.224	15492
880.351	15416
880.478	15622
880.605	15397
880.732	15481
880.859	15698
880.986	15477
881.112	15477
881.239	15370
881.366	15294
881.493	15131
881.619	15150
881.746	15116
881.872	15233
881.999	15142
882.125	15093
882.252	15188
882.378	15245
882.505	15317
882.631	15100
882.757	14895
882.883	14887
883.01	14982
883.136	14925
883.262	14834
883.388	14777
883.514	14998
883.64	15077
883.766	14937
883.892	14731
884.018	14758
884.143	14861
884.269	15108
884.395	14735
884.52	14667
884.646	14663
884.772	14587
884.897	14499
885.023	14720
885.148	14792
885.274	14857
885.399	14849
885.524	14674
885.65	14765
885.775	14686
885.9	14640
886.025	14899
886.15	14743
886.275	14602
886.4	14575
886.525	14659
886.65	14552
886.775	14590
886.9	14716
887.025	14952
887.149	14731
887.274	14507
887.399	14473
887.523	14396
887.648	14438
887.773	14320
887.897	14613
888.021	14568
888.146	14412
888.27	14552
888.395	14629
888.519	14583
888.643	14537
888.767	14537
888.891	14423
889.015	14419
889.139	14362
889.263	14317
889.387	14499
889.511	14564
889.635	14431
889.759	14298
889.883	14294
890.006	14355
890.13	14473
890.254	14263
890.377	14324
890.501	14145
890.624	14123
890.748	14088
890.871	14229
890.995	14008
891.118	13970
891.241	14100
891.364	14073
891.488	14123
891.611	13959
891.734	14081
891.857	14103
891.98	14092
892.103	14157
892.226	14103
892.349	14027
892.471	13963
892.594	14050
892.717	14107
892.839	14058
892.962	14027
893.085	14123
893.207	14115
893.33	14001
893.452	13925
893.575	14138
893.697	14107
893.819	14214
893.941	14191
894.064	14153
894.186	14020
894.308	13932
894.43	14214
894.552	14157
894.674	14252
894.796	14027
894.918	14081
895.04	14084
895.161	14229
895.283	14199
895.405	14081
895.526	14183
895.648	14134
895.769	14225
895.891	14176
896.012	14259
896.134	14389
896.255	14244
896.376	14138
896.498	14248
896.619	14237
896.74	14176
896.861	14301
896.982	14583
897.103	14636
897.224	14571
897.345	14469
897.466	14431
897.587	14560
897.708	14693
897.828	14564
897.949	14450
898.07	14317
898.19	14442
898.311	14533
898.431	14545
898.552	14632
898.672	14640
898.792	14705
898.913	14727
899.033	14488
899.153	14556
899.273	14332
899.393	14446
899.513	14514
899.633	14503
899.753	14549
899.873	14415
899.993	14492
900.113	14343
900.232	14469
900.352	14278
900.472	14389
900.591	14275
900.711	14366
900.83	14290
900.95	14450
901.069	14374
901.189	14195
901.308	14073
901.427	14016
901.546	13982
901.665	13928
901.784	13997
901.904	13833
902.023	13772
902.141	13586
902.26	13453
902.379	13666
902.498	13491
902.617	13464
902.735	13567
902.854	13521
902.973	13491
903.091	13289
903.21	13289
903.328	13263
903.446	13209
903.565	13080
903.683	13236
903.801	12977
903.919	13190
904.038	13118
904.156	12954
904.274	13008
904.392	12996
904.51	12939
904.627	12981
904.745	12943
904.863	12935
904.981	12707
905.098	12620
905.216	12593
905.334	12650
905.451	12635
905.569	12566
905.686	12688
905.803	12601
905.921	12418
906.038	12460
906.155	12456
906.272	12334
906.389	12365
906.506	12159
906.623	12247
906.74	12197
906.857	12022
906.974	12133
907.091	12209
907.208	12445
907.324	12281
907.441	12140
907.557	11988
907.674	11988
907.79	11931
907.907	11882
908.023	11965
908.139	11950
908.256	11908
908.372	11859
908.488	11821
908.604	11790
908.72	11688
908.836	11630
908.952	11783
909.068	11691
909.184	11707
909.3	11668
909.415	11775
909.531	11748
909.647	11528
909.762	11497
909.878	11471
909.993	11448
910.108	11452
910.224	11520
910.339	11501
910.454	11395
910.57	11360
910.685	11303
910.8	11463
910.915	11490
911.03	11444
911.145	11185
911.259	11155
911.374	11261
911.489	11086
911.604	11022
911.718	10927
911.833	10957
911.947	10892
912.062	10774
912.176	10900
912.291	10930
912.405	10991
912.519	11105
912.633	11212
912.748	11098
912.862	10946
912.976	10824
913.09	10706
913.204	10797
913.318	10790
913.431	10896
913.545	10911
913.659	10915
913.772	10782
913.886	10767
914	10698
914.113	10816
914.226	10835
914.34	10847
914.453	10660
914.566	10805
914.68	10698
914.793	10634
914.906	10478
915.019	10348
915.132	10402
915.245	10447
915.358	10447
915.47	10485
915.583	10421
915.696	10527
915.809	10649
915.921	10596
916.034	10436
916.146	10474
916.259	10367
916.371	10535
916.483	10508
916.595	10386
916.708	10379
916.82	10405
916.932	10348
917.044	10497
917.156	10428
917.268	10276
917.38	10261
917.491	10234
917.603	10276
917.715	10394
917.826	10394
917.938	10219
918.049	10185
918.161	10337
918.272	10398
918.384	10443
918.495	10272
918.606	10173
918.717	10093
918.828	10265
918.939	10230
919.05	10105
919.161	10192
919.272	9960
919.383	9987
919.494	10272
919.604	10424
919.715	10196
919.826	10147
919.936	10105
920.047	10177
920.157	10162
920.267	10337
920.378	10185
920.488	10135
920.598	10379
920.708	10596
920.818	10379
920.928	10348
921.038	10569
921.148	10451
921.258	10200
921.368	10154
921.477	10090
921.587	10025
921.697	10002
921.806	10109
921.916	9915
922.025	9789
922.134	9663
922.244	9717
922.353	9759
922.462	9610
922.571	9606
922.68	9488
922.789	9325
922.898	9530
923.007	9431
923.116	9431
923.224	9454
923.333	9386
923.442	9291
923.55	9272
923.659	9374
923.767	9450
923.876	9268
923.984	9359
924.092	9245
924.201	9310
924.309	9336
924.417	9313
924.525	9340
924.633	9245
924.741	10090
924.849	9032
924.956	9207
925.064	9104
925.172	8998
925.279	9058
925.387	9093
925.494	9180
925.602	9146
925.709	9154
925.816	8982
925.924	9024
926.031	9161
926.138	9180
926.245	9173
926.352	9028
926.459	9161
926.566	9142
926.673	9043
926.779	8921
926.886	8986
926.993	8804
927.099	8842
927.206	8739
927.312	8697
927.419	8861
927.525	8857
927.631	8876
927.737	8762
927.843	8655
927.95	8552
928.056	8705
928.162	8678
928.267	8792
928.373	9211
928.479	8746
928.585	8568
928.69	8617
928.796	8663
928.901	8632
929.007	8495
929.112	8629
929.218	8560
929.323	8533
929.428	8522
929.533	8636
929.638	8522
929.743	8518
929.848	8522
929.953	8533
930.058	8419
930.163	8290
930.267	8282
930.372	8457
930.477	8355
930.581	8549
930.685	8339
930.79	8267
930.894	8286
930.998	8218
931.103	8450
931.207	8081
931.311	8107
931.415	7947
931.519	7830
931.623	7792
