Data from test_V78500241_2813.txt Node
Date: Fri Mar 25 14:53:18 CST 2022
User: usil
Spectrometer: V785-0024
Trigger mode: 0
Integration Time (sec): 4.000000E-1
Scans to average: 1
Nonlinearity correction enabled: false
Boxcar width: 0
Storing dark spectrum: false
XAxis mode: Wavelengths
Number of Pixels in Spectrum: 1024
>>>>>Begin Spectral Data<<<<<
801.071	22086
801.214	21941
801.356	21717
801.499	21572
801.641	21481
801.783	21332
801.926	21488
802.068	21420
802.211	21302
802.353	21245
802.496	21043
802.638	20830
802.78	20826
802.923	20754
803.065	20655
803.208	20731
803.35	20746
803.492	20925
803.635	20857
803.777	20826
803.919	20781
804.061	21188
804.204	20754
804.346	20648
804.488	20575
804.63	20792
804.773	20689
804.915	20549
805.057	20564
805.199	20674
805.341	20716
805.483	20724
805.626	20739
805.768	20575
805.91	20708
806.052	20617
806.194	20583
806.336	20823
806.478	20571
806.62	20590
806.762	20819
806.904	20937
807.046	21036
807.188	21020
807.33	20986
807.472	20971
807.614	20765
807.756	20880
807.898	20663
808.04	20670
808.182	20754
808.324	20659
808.465	20887
808.607	20902
808.749	20990
808.891	21096
809.033	21184
809.174	21119
809.316	20918
809.458	20921
809.6	20994
809.741	21123
809.883	21157
810.025	21214
810.166	21150
810.308	21135
810.45	21085
810.591	21009
810.733	20902
810.875	20811
811.016	20659
811.158	20606
811.299	20781
811.441	20956
811.582	20948
811.724	20762
811.865	20765
812.007	20686
812.148	20708
812.29	20796
812.431	20971
812.573	21066
812.714	21199
812.855	21317
812.997	21397
813.138	21420
813.279	21363
813.421	21279
813.562	21272
813.703	21043
813.845	20918
813.986	20708
814.127	20609
814.268	20381
814.41	20347
814.551	20396
814.692	20434
814.833	20282
814.974	20248
815.115	20370
815.256	20191
815.397	20164
815.539	20073
815.68	20153
815.821	20122
815.962	20218
816.103	19997
816.244	19959
816.385	19742
816.526	19670
816.666	19712
816.807	19373
816.948	19552
817.089	19689
817.23	19480
817.371	19514
817.512	19601
817.653	19537
817.793	19434
817.934	19491
818.075	19533
818.216	19491
818.356	19544
818.497	19278
818.638	19145
818.778	19240
818.919	19076
819.06	19168
819.2	19293
819.341	19491
819.481	19396
819.622	19506
819.762	19693
819.903	19552
820.043	19609
820.184	19518
820.324	19438
820.465	19510
820.605	19426
820.746	19476
820.886	19411
821.026	19480
821.167	19529
821.307	19575
821.447	19468
821.588	19312
821.728	19259
821.868	19057
822.008	18958
822.149	19046
822.289	18882
822.429	18665
822.569	18570
822.709	18559
822.849	18391
822.99	18334
823.13	18467
823.27	18315
823.41	18140
823.55	18133
823.69	18129
823.83	18186
823.97	18136
824.11	17999
824.25	17912
824.389	17999
824.529	17958
824.669	17935
824.809	18011
824.949	18049
825.089	18102
825.228	17980
825.368	17863
825.508	17779
825.648	17668
825.787	17821
825.927	17805
826.067	17672
826.206	17661
826.346	17783
826.485	17733
826.625	17737
826.765	17794
826.904	17726
827.044	17551
827.183	17516
827.323	17436
827.462	17471
827.601	17406
827.741	17368
827.88	17410
828.02	17376
828.159	17368
828.298	17482
828.437	17573
828.577	17383
828.716	17516
828.855	17414
828.994	17060
829.134	17159
829.273	17220
829.412	17162
829.551	17143
829.69	17155
829.829	17143
829.968	17132
830.107	17273
830.246	17189
830.385	17128
830.524	17162
830.663	16976
830.802	16919
830.941	16755
831.08	16831
831.219	16877
831.357	16839
831.496	17090
831.635	16721
831.774	16713
831.913	16672
832.051	16512
832.19	16664
832.329	16649
832.467	16508
832.606	16424
832.744	16542
832.883	16504
833.022	16493
833.16	16478
833.299	16542
833.437	16428
833.576	16558
833.714	16592
833.852	16630
833.991	16599
834.129	16607
834.267	16592
834.406	16443
834.544	16634
834.682	16618
834.821	16413
834.959	16733
835.097	16497
835.235	16596
835.373	16561
835.511	16535
835.65	16402
835.788	16371
835.926	16322
836.064	16242
836.202	16436
836.34	16542
836.478	16531
836.615	16367
836.753	16542
836.891	16550
837.029	16516
837.167	16352
837.305	16356
837.443	16333
837.58	16238
837.718	16306
837.856	16303
837.993	16337
838.131	16295
838.269	16143
838.406	16249
838.544	16261
838.681	16029
838.819	15956
838.956	15850
839.094	15823
839.231	15895
839.369	15987
839.506	16333
839.643	16124
839.781	15888
839.918	15861
840.055	15842
840.193	15861
840.33	15766
840.467	15838
840.604	15873
840.742	16059
840.879	15648
841.016	15800
841.153	15816
841.29	15987
841.427	15838
841.564	15934
841.701	15827
841.838	15816
841.975	15766
842.112	15762
842.249	15625
842.385	15580
842.522	15812
842.659	15641
842.796	15637
842.933	15652
843.069	15633
843.206	15458
843.343	15774
843.479	15603
843.616	15660
843.752	15397
843.889	15428
844.025	15557
844.162	15378
844.298	15564
844.435	15485
844.571	15424
844.708	15564
844.844	15511
844.98	15500
845.117	15534
845.253	15340
845.389	15306
845.525	15447
845.661	15367
845.798	15199
845.934	15226
846.07	15188
846.206	15245
846.342	15294
846.478	15192
846.614	15077
846.75	14914
846.886	14853
847.022	15058
847.158	15039
847.294	15024
847.429	15005
847.565	14982
847.701	15283
847.837	14762
847.972	14708
848.108	14861
848.244	14659
848.379	14651
848.515	14594
848.65	14602
848.786	14568
848.921	14552
849.057	14724
849.192	14739
849.328	14632
849.463	14632
849.598	14560
849.734	14617
849.869	14461
850.004	14362
850.14	14313
850.275	14385
850.41	14324
850.545	14275
850.68	14252
850.815	14374
850.95	14450
851.085	14461
851.22	14457
851.355	14336
851.49	14252
851.625	14362
851.76	14240
851.895	14244
852.03	14210
852.165	14328
852.299	14396
852.434	14385
852.569	14355
852.703	14320
852.838	14514
852.973	14465
853.107	14469
853.242	14286
853.376	14332
853.511	14142
853.645	14225
853.78	14408
853.914	14366
854.048	14202
854.183	14191
854.317	14161
854.451	14339
854.585	14248
854.72	14149
854.854	14298
854.988	14081
855.122	14286
855.256	14187
855.39	14263
855.524	14267
855.658	14278
855.792	14168
855.926	14339
856.06	14400
856.194	14347
856.327	14233
856.461	14210
856.595	14199
856.729	14153
856.862	14313
856.996	14336
857.13	14275
857.263	14438
857.397	14415
857.53	14195
857.664	14218
857.797	14332
857.931	14377
858.064	14271
858.197	14362
858.331	14187
858.464	14183
858.597	14161
858.731	14191
858.864	14161
858.997	14176
859.13	14176
859.263	14275
859.396	14263
859.529	14317
859.662	14157
859.795	14172
859.928	14218
860.061	14351
860.194	14336
860.327	14275
860.46	14244
860.592	14351
860.725	14358
860.858	14461
860.99	14172
861.123	14130
861.256	14229
861.388	14225
861.521	14918
861.653	14119
861.786	13963
861.918	14107
862.05	14237
862.183	14168
862.315	14202
862.447	14278
862.58	14176
862.712	13944
862.844	13879
862.976	14008
863.108	14073
863.24	14503
863.372	13993
863.504	13875
863.636	13940
863.768	13925
863.9	13974
864.032	13909
864.164	13925
864.296	14001
864.428	14107
864.559	14123
864.691	14073
864.823	14069
864.954	14001
865.086	14088
865.217	14092
865.349	13883
865.48	13951
865.612	14065
865.743	14103
865.875	13989
866.006	13974
866.137	14005
866.269	14039
866.4	13909
866.531	13955
866.662	13887
866.793	13959
866.924	13940
867.055	14054
867.186	14031
867.317	13909
867.448	14001
867.579	13887
867.71	13978
867.841	13883
867.972	14020
868.103	13989
868.233	14050
868.364	14065
868.495	14077
868.625	14130
868.756	14320
868.886	14142
869.017	14244
869.147	14324
869.278	14393
869.408	14164
869.539	14259
869.669	14347
869.799	14298
869.929	14343
870.06	14309
870.19	14579
870.32	14454
870.45	14537
870.58	14667
870.71	14746
870.84	14674
870.97	14571
871.1	14640
871.23	14823
871.36	14750
871.489	14716
871.619	14819
871.749	14845
871.879	14899
872.008	14887
872.138	14887
872.267	14804
872.397	14773
872.526	14674
872.656	14648
872.785	14693
872.915	14834
873.044	14952
873.173	14849
873.303	14929
873.432	14895
873.561	15013
873.69	14906
873.819	14868
873.948	14929
874.077	14914
874.206	14857
874.335	14899
874.464	15085
874.593	15214
874.722	15142
874.851	15222
874.979	15207
875.108	15260
875.237	15116
875.365	15150
875.494	15173
875.623	15272
875.751	15291
875.88	15279
876.008	15306
876.136	15401
876.265	15675
876.393	15671
876.521	15770
876.65	15732
876.778	15610
876.906	15545
877.034	15637
877.162	15576
877.29	15564
877.418	15545
877.546	15641
877.674	15618
877.802	15660
877.93	15618
878.058	15679
878.185	15439
878.313	15660
878.441	15610
878.568	15507
878.696	15561
878.824	15720
878.951	15641
879.079	15724
879.206	15869
879.333	15751
879.461	15679
879.588	15690
879.715	15876
879.842	15918
879.97	15739
880.097	15393
880.224	15405
880.351	15500
880.478	15458
880.605	15401
880.732	15485
880.859	15622
880.986	15485
881.112	15492
881.239	15428
881.366	15161
881.493	15104
881.619	15154
881.746	15081
881.872	15051
881.999	15173
882.125	15146
882.252	15104
882.378	15203
882.505	15291
882.631	15142
882.757	14979
882.883	14952
883.01	14857
883.136	14921
883.262	14693
883.388	14773
883.514	14937
883.64	15051
883.766	14849
883.892	14682
884.018	14887
884.143	14853
884.269	15093
884.395	14758
884.52	14686
884.646	14686
884.772	14617
884.897	14522
885.023	14610
885.148	14644
885.274	14750
885.399	14735
885.524	14659
885.65	14667
885.775	14678
885.9	14678
886.025	14724
886.15	14708
886.275	14564
886.4	14613
886.525	14495
886.65	14636
886.775	14670
886.9	14724
887.025	14849
887.149	14663
887.274	14473
887.399	14454
887.523	14434
887.648	14396
887.773	14336
887.897	14530
888.021	14556
888.146	14389
888.27	14526
888.395	14602
888.519	14499
888.643	14579
888.767	14651
888.891	14454
889.015	14404
889.139	14385
889.263	14309
889.387	14545
889.511	14526
889.635	14511
889.759	14332
889.883	14320
890.006	14484
890.13	14415
890.254	14267
890.377	14328
890.501	14149
890.624	14111
890.748	14248
890.871	14065
890.995	13997
891.118	14046
891.241	14020
891.364	13986
891.488	14138
891.611	14005
891.734	14039
891.857	14031
891.98	14180
892.103	14081
892.226	14202
892.349	13909
892.471	13849
892.594	14077
892.717	14130
892.839	14001
892.962	14084
893.085	14024
893.207	14031
893.33	14016
893.452	13944
893.575	14088
893.697	14035
893.819	14164
893.941	14244
894.064	14138
894.186	14031
894.308	13993
894.43	14149
894.552	14161
894.674	14263
894.796	14024
894.918	13967
895.04	14065
895.161	14134
895.283	14130
895.405	14043
895.526	14180
895.648	14252
895.769	14202
895.891	14172
896.012	14252
896.134	14301
896.255	14275
896.376	14195
896.498	14172
896.619	14267
896.74	14180
896.861	14313
896.982	14610
897.103	14754
897.224	14655
897.345	14450
897.466	14366
897.587	14507
897.708	14583
897.828	14537
897.949	14454
898.07	14461
898.19	14465
898.311	14613
898.431	14511
898.552	14610
898.672	14613
898.792	14663
898.913	14598
899.033	14450
899.153	14412
899.273	14366
899.393	14332
899.513	14446
899.633	14469
899.753	14476
899.873	14347
899.993	14499
900.113	14434
900.232	14526
900.352	14438
900.472	14336
900.591	14229
900.711	14374
900.83	14332
900.95	14343
901.069	14469
901.189	14320
901.308	13963
901.427	13989
901.546	13978
901.665	13902
901.784	14012
901.904	13814
902.023	13898
902.141	13571
902.26	13480
902.379	13594
902.498	13548
902.617	13441
902.735	13525
902.854	13495
902.973	13472
903.091	13232
903.21	13228
903.328	13320
903.446	13206
903.565	13129
903.683	13091
903.801	13069
903.919	13110
904.038	13042
904.156	12894
904.274	13042
904.392	12943
904.51	12973
904.627	12901
904.745	12954
904.863	12966
904.981	12753
905.098	12601
905.216	12688
905.334	12578
905.451	12673
905.569	12570
905.686	12620
905.803	12646
905.921	12361
906.038	12532
906.155	12407
906.272	12342
906.389	12361
906.506	12220
906.623	12216
906.74	12182
906.857	12019
906.974	12076
907.091	12251
907.208	12422
907.324	12228
907.441	12175
907.557	11973
907.674	11935
907.79	11927
907.907	11904
908.023	11977
908.139	12019
908.256	11870
908.372	11824
908.488	11843
908.604	11805
908.72	11661
908.836	11707
908.952	11718
909.068	11691
909.184	11775
909.3	11737
909.415	11771
909.531	11710
909.647	11459
909.762	11497
909.878	11440
909.993	11474
910.108	11474
910.224	11459
910.339	11509
910.454	11368
910.57	11345
910.685	11292
910.8	11482
910.915	11581
911.03	11421
911.145	11231
911.259	11071
911.374	11231
911.489	11136
911.604	11060
911.718	10957
911.833	10896
911.947	10873
912.062	10824
912.176	10934
912.291	10976
912.405	10915
912.519	11140
912.633	11117
912.748	11018
912.862	10930
912.976	10809
913.09	10687
913.204	10790
913.318	10721
913.431	11022
913.545	10930
913.659	10961
913.772	10828
913.886	10744
914	10748
914.113	10854
914.226	10721
914.34	10911
914.453	10645
914.566	10763
914.68	10634
914.793	10637
914.906	10554
915.019	10382
915.132	10299
915.245	10398
915.358	10512
915.47	10402
915.583	10382
915.696	10478
915.809	10497
915.921	10569
916.034	10390
916.146	10375
916.259	10382
916.371	10440
916.483	10485
916.595	10329
916.708	10367
916.82	10386
916.932	10379
917.044	10390
917.156	10314
917.268	10242
917.38	10322
917.491	10303
917.603	10242
917.715	10390
917.826	10421
917.938	10211
918.049	10135
918.161	10295
918.272	10356
918.384	10375
918.495	10306
918.606	10116
918.717	10082
918.828	10227
918.939	10173
919.05	10124
919.161	10097
919.272	9975
919.383	10051
919.494	10242
919.604	10306
919.715	10265
919.826	10059
919.936	10158
920.047	10249
920.157	10223
920.267	10390
920.378	10219
920.488	10185
920.598	10386
920.708	10584
920.818	10322
920.928	10398
921.038	10542
921.148	10424
921.258	10169
921.368	10120
921.477	10006
921.587	10074
921.697	9964
921.806	10051
921.916	9918
922.025	9724
922.134	9766
922.244	9637
922.353	9797
922.462	9599
922.571	9576
922.68	9428
922.789	9420
922.898	9435
923.007	9412
923.116	9542
923.224	9386
923.333	9439
923.442	9302
923.55	9306
923.659	9355
923.767	9428
923.876	9245
923.984	9355
924.092	9226
924.201	9249
924.309	9348
924.417	9329
924.525	9165
924.633	9237
924.741	9998
924.849	8979
924.956	9237
925.064	9077
925.172	8963
925.279	9085
925.387	9089
925.494	9055
925.602	9253
925.709	9154
925.816	9077
925.924	9039
926.031	9089
926.138	9138
926.245	9180
926.352	9100
926.459	9131
926.566	9173
926.673	9112
926.779	8952
926.886	8918
926.993	8811
927.099	8804
927.206	8727
927.312	8724
927.419	8925
927.525	8796
927.631	8853
927.737	8746
927.843	8651
927.95	8617
928.056	8674
928.162	8720
928.267	8720
928.373	9260
928.479	8834
928.585	8549
928.69	8697
928.796	8750
928.901	8610
929.007	8461
929.112	8670
929.218	8613
929.323	8583
929.428	8545
929.533	8724
929.638	8476
929.743	8514
929.848	8511
929.953	8457
930.058	8396
930.163	8233
930.267	8275
930.372	8431
930.477	8282
930.581	8495
930.685	8336
930.79	8237
930.894	8328
930.998	8324
931.103	8408
931.207	7997
931.311	7993
931.415	7951
931.519	7765
931.623	7693
