Data from test_V78500241_2154.txt Node
Date: Fri Mar 25 14:48:42 CST 2022
User: usil
Spectrometer: V785-0024
Trigger mode: 0
Integration Time (sec): 4.000000E-1
Scans to average: 1
Nonlinearity correction enabled: false
Boxcar width: 0
Storing dark spectrum: false
XAxis mode: Wavelengths
Number of Pixels in Spectrum: 1024
>>>>>Begin Spectral Data<<<<<
801.071	22223
801.214	22105
801.356	21759
801.499	21857
801.641	21732
801.783	21622
801.926	21622
802.068	21553
802.211	21477
802.353	21279
802.496	21306
802.638	21077
802.78	21005
802.923	21005
803.065	20788
803.208	20960
803.35	20986
803.492	21047
803.635	21017
803.777	20921
803.919	21009
804.061	21176
804.204	21032
804.346	20785
804.488	20773
804.63	20880
804.773	20807
804.915	20727
805.057	20979
805.199	20781
805.341	20830
805.483	21001
805.626	20849
805.768	20929
805.91	20979
806.052	20925
806.194	20762
806.336	20933
806.478	20971
806.62	20819
806.762	20899
806.904	21116
807.046	21199
807.188	21165
807.33	21165
807.472	21245
807.614	21070
807.756	21112
807.898	21036
808.04	20796
808.182	20948
808.324	21028
808.465	20994
808.607	21104
808.749	21192
808.891	21386
809.033	21386
809.174	21256
809.316	21199
809.458	21302
809.6	21157
809.741	21203
809.883	21313
810.025	21389
810.166	21386
810.308	21397
810.45	21416
810.591	21355
810.733	21051
810.875	21039
811.016	20796
811.158	20883
811.299	21142
811.441	21055
811.582	21203
811.724	21043
811.865	20998
812.007	20925
812.148	21013
812.29	21093
812.431	21089
812.573	21298
812.714	21294
812.855	21523
812.997	21606
813.138	21671
813.279	21663
813.421	21389
813.562	21378
813.703	21329
813.845	21123
813.986	20883
814.127	20857
814.268	20640
814.41	20640
814.551	20476
814.692	20644
814.833	20568
814.974	20530
815.115	20552
815.256	20408
815.397	20358
815.539	20465
815.68	20305
815.821	20103
815.962	20320
816.103	20301
816.244	20084
816.385	19982
816.526	19997
816.666	19875
816.807	19662
816.948	19765
817.089	19727
817.23	19613
817.371	19712
817.512	19670
817.653	19670
817.793	19628
817.934	19651
818.075	19746
818.216	19712
818.356	19666
818.497	19643
818.638	19491
818.778	19263
818.919	19457
819.06	19339
819.2	19525
819.341	19563
819.481	19537
819.622	19605
819.762	19845
819.903	19799
820.043	19693
820.184	19578
820.324	19655
820.465	19674
820.605	19818
820.746	19525
820.886	19464
821.026	19677
821.167	19567
821.307	19696
821.447	19506
821.588	19540
821.728	19362
821.868	19255
822.008	19110
822.149	18920
822.289	19034
822.429	18901
822.569	18684
822.709	18719
822.849	18547
822.99	18544
823.13	18555
823.27	18486
823.41	18422
823.55	18319
823.69	18353
823.83	18327
823.97	18273
824.11	18190
824.25	18144
824.389	18277
824.529	18235
824.669	18026
824.809	18155
824.949	18319
825.089	18171
825.228	18121
825.368	17847
825.508	18003
825.648	17901
825.787	17927
825.927	17973
826.067	17935
826.206	17802
826.346	17920
826.485	17958
826.625	17817
826.765	18060
826.904	17984
827.044	17608
827.183	17779
827.323	17554
827.462	17573
827.601	17581
827.741	17512
827.88	17661
828.02	17505
828.159	17611
828.298	17600
828.437	17661
828.577	17554
828.716	17729
828.855	17524
828.994	17292
829.134	17330
829.273	17414
829.412	17277
829.551	17288
829.69	17364
829.829	17337
829.968	17436
830.107	17360
830.246	17345
830.385	17307
830.524	17231
830.663	17151
830.802	17041
830.941	16866
831.08	16991
831.219	16995
831.357	17037
831.496	17280
831.635	16965
831.774	16847
831.913	16774
832.051	16843
832.19	16839
832.329	16790
832.467	16649
832.606	16596
832.744	16626
832.883	16645
833.022	16664
833.16	16710
833.299	16672
833.437	16702
833.576	16733
833.714	16713
833.852	16702
833.991	16733
834.129	16774
834.267	16698
834.406	16713
834.544	16847
834.682	16717
834.821	16721
834.959	16839
835.097	16653
835.235	16793
835.373	16675
835.511	16664
835.65	16630
835.788	16500
835.926	16428
836.064	16405
836.202	16451
836.34	16622
836.478	16706
836.615	16512
836.753	16622
836.891	16706
837.029	16702
837.167	16588
837.305	16508
837.443	16497
837.58	16440
837.718	16649
837.856	16535
837.993	16398
838.131	16421
838.269	16462
838.406	16466
838.544	16360
838.681	16169
838.819	16131
838.956	15987
839.094	16002
839.231	15956
839.369	16192
839.506	16436
839.643	16226
839.781	16135
839.918	15945
840.055	16029
840.193	16025
840.33	16029
840.467	16021
840.604	16150
840.742	16226
840.879	15884
841.016	15945
841.153	16002
841.29	16048
841.427	16055
841.564	16040
841.701	15983
841.838	16013
841.975	15918
842.112	15880
842.249	15854
842.385	15709
842.522	15968
842.659	15823
842.796	15846
842.933	15846
843.069	15778
843.206	15785
843.343	15797
843.479	15819
843.616	15751
843.752	15603
843.889	15591
844.025	15701
844.162	15622
844.298	15759
844.435	15553
844.571	15618
844.708	15675
844.844	15747
844.98	15576
845.117	15743
845.253	15488
845.389	15382
845.525	15477
845.661	15481
845.798	15386
845.934	15443
846.07	15408
846.206	15477
846.342	15450
846.478	15458
846.614	15245
846.75	15097
846.886	15161
847.022	15146
847.158	15199
847.294	15195
847.429	15233
847.565	15123
847.701	15370
847.837	14880
847.972	14830
848.108	14952
848.244	14948
848.379	14880
848.515	14769
848.65	14773
848.786	14769
848.921	14781
849.057	14868
849.192	14861
849.328	14792
849.463	14823
849.598	14648
849.734	14636
849.869	14724
850.004	14499
850.14	14560
850.275	14530
850.41	14457
850.545	14427
850.68	14503
850.815	14488
850.95	14507
851.085	14708
851.22	14606
851.355	14450
851.49	14469
851.625	14480
851.76	14450
851.895	14351
852.03	14404
852.165	14461
852.299	14522
852.434	14606
852.569	14571
852.703	14526
852.838	14537
852.973	14670
853.107	14613
853.242	14358
853.376	14396
853.511	14320
853.645	14351
853.78	14499
853.914	14317
854.048	14400
854.183	14385
854.317	14396
854.451	14533
854.585	14336
854.72	14313
854.854	14362
854.988	14320
855.122	14343
855.256	14244
855.39	14351
855.524	14465
855.658	14427
855.792	14396
855.926	14442
856.06	14419
856.194	14476
856.327	14324
856.461	14309
856.595	14339
856.729	14473
856.862	14465
856.996	14423
857.13	14454
857.263	14476
857.397	14537
857.53	14484
857.664	14446
857.797	14488
857.931	14495
858.064	14461
858.197	14484
858.331	14450
858.464	14320
858.597	14366
858.731	14381
858.864	14286
858.997	14355
859.13	14389
859.263	14317
859.396	14545
859.529	14332
859.662	14313
859.795	14355
859.928	14423
860.061	14621
860.194	14560
860.327	14465
860.46	14377
860.592	14423
860.725	14526
860.858	14499
860.99	14415
861.123	14370
861.256	14309
861.388	14434
861.521	15116
861.653	14263
861.786	14176
861.918	14221
862.05	14237
862.183	14282
862.315	14328
862.447	14442
862.58	14313
862.712	14145
862.844	14115
862.976	14256
863.108	14138
863.24	14514
863.372	14123
863.504	14069
863.636	14138
863.768	14195
863.9	14180
864.032	14123
864.164	14069
864.296	14240
864.428	14164
864.559	14374
864.691	14298
864.823	14218
864.954	14221
865.086	14218
865.217	14111
865.349	14168
865.48	14168
865.612	14126
865.743	14278
865.875	14191
866.006	14149
866.137	14111
866.269	14210
866.4	14176
866.531	14130
866.662	14005
866.793	14092
866.924	14062
867.055	14149
867.186	14142
867.317	14149
867.448	14043
867.579	14081
867.71	14031
867.841	13993
867.972	14206
868.103	14130
868.233	14138
868.364	14145
868.495	14244
868.625	14370
868.756	14556
868.886	14317
869.017	14286
869.147	14473
869.278	14522
869.408	14351
869.539	14332
869.669	14454
869.799	14480
869.929	14492
870.06	14370
870.19	14693
870.32	14659
870.45	14678
870.58	14746
870.71	14815
870.84	14921
870.97	14788
871.1	14864
871.23	14937
871.36	14967
871.489	14910
871.619	14960
871.749	14929
871.879	14979
872.008	15024
872.138	15070
872.267	14979
872.397	14785
872.526	14746
872.656	14781
872.785	14804
872.915	15001
873.044	15104
873.173	15093
873.303	15074
873.432	15058
873.561	15077
873.69	15051
873.819	14963
873.948	15081
874.077	14998
874.206	14948
874.335	15154
874.464	15150
874.593	15275
874.722	15237
874.851	15393
874.979	15450
875.108	15401
875.237	15348
875.365	15279
875.494	15313
875.623	15344
875.751	15310
875.88	15329
876.008	15534
876.136	15504
876.265	15785
876.393	15934
876.521	15880
876.65	15827
876.778	15793
876.906	15804
877.034	15686
877.162	15633
877.29	15625
877.418	15831
877.546	15895
877.674	15709
877.802	15713
877.93	15759
878.058	15652
878.185	15648
878.313	15743
878.441	15736
878.568	15625
878.696	15816
878.824	15747
878.951	15922
879.079	16002
879.206	16135
879.333	15831
879.461	15850
879.588	15876
879.715	15953
879.842	16131
879.97	15873
880.097	15606
880.224	15606
880.351	15625
880.478	15644
880.605	15713
880.732	15690
880.859	15774
880.986	15663
881.112	15625
881.239	15412
881.366	15370
881.493	15367
881.619	15203
881.746	15386
881.872	15188
881.999	15176
882.125	15252
882.252	15294
882.378	15252
882.505	15450
882.631	15176
882.757	15070
882.883	15108
883.01	15043
883.136	14975
883.262	14910
883.388	14967
883.514	15058
883.64	15176
883.766	14994
883.892	14883
884.018	14914
884.143	15074
884.269	15173
884.395	14876
884.52	14689
884.646	14796
884.772	14689
884.897	14667
885.023	14849
885.148	14853
885.274	14929
885.399	14918
885.524	14792
885.65	14796
885.775	14773
885.9	14769
886.025	14823
886.15	14899
886.275	14765
886.4	14583
886.525	14788
886.65	14682
886.775	14746
886.9	14830
887.025	14990
887.149	14941
887.274	14590
887.399	14556
887.523	14564
887.648	14640
887.773	14514
887.897	14724
888.021	14644
888.146	14640
888.27	14617
888.395	14800
888.519	14686
888.643	14560
888.767	14640
888.891	14473
889.015	14412
889.139	14594
889.263	14442
889.387	14575
889.511	14697
889.635	14541
889.759	14454
889.883	14488
890.006	14488
890.13	14564
890.254	14415
890.377	14438
890.501	14225
890.624	14286
890.748	14427
890.871	14096
890.995	14229
891.118	14050
891.241	14103
891.364	14214
891.488	14374
891.611	14237
891.734	14233
891.857	14153
891.98	14176
892.103	14153
892.226	14176
892.349	14240
892.471	14024
892.594	14077
892.717	14138
892.839	14218
892.962	14199
893.085	14267
893.207	14172
893.33	14111
893.452	14103
893.575	14202
893.697	14054
893.819	14244
893.941	14457
894.064	14259
894.186	14123
894.308	14119
894.43	14358
894.552	14317
894.674	14294
894.796	14164
894.918	14195
895.04	14145
895.161	14339
895.283	14317
895.405	14229
895.526	14248
895.648	14183
895.769	14305
895.891	14385
896.012	14412
896.134	14366
896.255	14381
896.376	14271
896.498	14252
896.619	14358
896.74	14400
896.861	14385
896.982	14625
897.103	14792
897.224	14735
897.345	14499
897.466	14492
897.587	14507
897.708	14705
897.828	14705
897.949	14507
898.07	14522
898.19	14629
898.311	14834
898.431	14564
898.552	14785
898.672	14758
898.792	14727
898.913	14689
899.033	14682
899.153	14541
899.273	14503
899.393	14488
899.513	14564
899.633	14560
899.753	14617
899.873	14568
899.993	14568
900.113	14461
900.232	14530
900.352	14587
900.472	14530
900.591	14339
900.711	14370
900.83	14351
900.95	14537
901.069	14545
901.189	14320
901.308	14221
901.427	14050
901.546	14153
901.665	14149
901.784	14100
901.904	13921
902.023	13841
902.141	13689
902.26	13651
902.379	13674
902.498	13639
902.617	13632
902.735	13689
902.854	13616
902.973	13521
903.091	13354
903.21	13304
903.328	13403
903.446	13183
903.565	13206
903.683	13266
903.801	13061
903.919	13129
904.038	13217
904.156	13012
904.274	13198
904.392	13027
904.51	12989
904.627	13023
904.745	13202
904.863	13145
904.981	12875
905.098	12779
905.216	12654
905.334	12772
905.451	12741
905.569	12696
905.686	12726
905.803	12772
905.921	12589
906.038	12700
906.155	12551
906.272	12380
906.389	12456
906.506	12247
906.623	12353
906.74	12247
906.857	12102
906.974	12201
907.091	12346
907.208	12441
907.324	12251
907.441	12308
907.557	12083
907.674	12030
907.79	12098
907.907	12045
908.023	12003
908.139	12083
908.256	12045
908.372	11969
908.488	11961
908.604	11843
908.72	11783
908.836	11836
908.952	11805
909.068	11843
909.184	11980
909.3	11843
909.415	11920
909.531	11802
909.647	11589
909.762	11570
909.878	11554
909.993	11535
910.108	11649
910.224	11532
910.339	11627
910.454	11448
910.57	11490
910.685	11372
910.8	11638
910.915	11524
911.03	11421
911.145	11330
911.259	11303
911.374	11265
911.489	11151
911.604	11162
911.718	11018
911.833	11075
911.947	10908
912.062	10801
912.176	10976
912.291	11083
912.405	11117
912.519	11189
912.633	11334
912.748	11075
912.862	11018
912.976	10949
913.09	10805
913.204	10934
913.318	10889
913.431	11029
913.545	11003
913.659	11064
913.772	10938
913.886	10736
914	10774
914.113	10892
914.226	10972
914.34	10915
914.453	10801
914.566	10896
914.68	10752
914.793	10714
914.906	10603
915.019	10478
915.132	10569
915.245	10512
915.358	10466
915.47	10554
915.583	10588
915.696	10592
915.809	10706
915.921	10672
916.034	10656
916.146	10466
916.259	10546
916.371	10577
916.483	10607
916.595	10485
916.708	10451
916.82	10527
916.932	10459
917.044	10421
917.156	10421
917.268	10306
917.38	10352
917.491	10386
917.603	10344
917.715	10455
917.826	10481
917.938	10341
918.049	10257
918.161	10344
918.272	10535
918.384	10569
918.495	10424
918.606	10276
918.717	10192
918.828	10265
918.939	10246
919.05	10204
919.161	10211
919.272	10059
919.383	10139
919.494	10303
919.604	10447
919.715	10363
919.826	10196
919.936	10291
920.047	10371
920.157	10325
920.267	10546
920.378	10356
920.488	10291
920.598	10455
920.708	10634
920.818	10493
920.928	10421
921.038	10634
921.148	10599
921.258	10291
921.368	10238
921.477	10124
921.587	10128
921.697	9991
921.806	10185
921.916	10017
922.025	9838
922.134	9899
922.244	9804
922.353	9861
922.462	9690
922.571	9637
922.68	9553
922.789	9454
922.898	9523
923.007	9420
923.116	9488
923.224	9488
923.333	9507
923.442	9420
923.55	9389
923.659	9458
923.767	9485
923.876	9416
923.984	9412
924.092	9256
924.201	9325
924.309	9424
924.417	9367
924.525	9382
924.633	9340
924.741	10086
924.849	9127
924.956	9310
925.064	9176
925.172	9066
925.279	9188
925.387	9165
925.494	9226
925.602	9306
925.709	9253
925.816	9055
925.924	9104
926.031	9222
926.138	9154
926.245	9237
926.352	9062
926.459	9207
926.566	9291
926.673	9104
926.779	8990
926.886	9039
926.993	8906
927.099	8880
927.206	8807
927.312	8872
927.419	8883
927.525	8902
927.631	8971
927.737	8815
927.843	8804
927.95	8644
928.056	8739
928.162	8735
928.267	8899
928.373	9336
928.479	8826
928.585	8575
928.69	8693
928.796	8739
928.901	8697
929.007	8522
929.112	8689
929.218	8636
929.323	8636
929.428	8590
929.533	8621
929.638	8511
929.743	8594
929.848	8602
929.953	8522
930.058	8503
930.163	8385
930.267	8374
930.372	8511
930.477	8377
930.581	8568
930.685	8400
930.79	8404
930.894	8351
930.998	8290
931.103	8438
931.207	8062
931.311	8073
931.415	7978
931.519	7795
931.623	7849
