Data from test_V78500241_413.txt Node
Date: Fri Mar 25 14:36:35 CST 2022
User: usil
Spectrometer: V785-0024
Trigger mode: 0
Integration Time (sec): 4.000000E-1
Scans to average: 1
Nonlinearity correction enabled: false
Boxcar width: 0
Storing dark spectrum: false
XAxis mode: Wavelengths
Number of Pixels in Spectrum: 1024
>>>>>Begin Spectral Data<<<<<
801.071	26552
801.214	26598
801.356	26328
801.499	26214
801.641	26016
801.783	26016
801.926	26221
802.068	26081
802.211	25947
802.353	25871
802.496	25833
802.638	25674
802.78	25715
802.923	25662
803.065	25571
803.208	25559
803.35	25537
803.492	25666
803.635	25727
803.777	25575
803.919	25601
804.061	25875
804.204	25559
804.346	25514
804.488	25525
804.63	25491
804.773	25502
804.915	25487
805.057	25761
805.199	25571
805.341	25548
805.483	25738
805.626	25655
805.768	25548
805.91	25578
806.052	25685
806.194	25521
806.336	25750
806.478	25632
806.62	25597
806.762	25757
806.904	25944
807.046	26046
807.188	25951
807.33	26092
807.472	25940
807.614	25879
807.756	25993
807.898	25731
808.04	25852
808.182	25742
808.324	25845
808.465	25795
808.607	26027
808.749	26122
808.891	26180
809.033	26385
809.174	26214
809.316	26195
809.458	26054
809.6	26111
809.741	26180
809.883	26054
810.025	26218
810.166	26446
810.308	26267
810.45	26172
810.591	26278
810.733	26020
810.875	25879
811.016	25898
811.158	25921
811.299	26016
811.441	26062
811.582	26058
811.724	25879
811.865	25978
812.007	25974
812.148	26016
812.29	25906
812.431	26069
812.573	26324
812.714	26317
812.855	26290
812.997	26632
813.138	26594
813.279	26545
813.421	26313
813.562	26343
813.703	26343
813.845	26065
813.986	25708
814.127	25639
814.268	25544
814.41	25552
814.551	25468
814.692	25563
814.833	25510
814.974	25324
815.115	25479
815.256	25582
815.397	25240
815.539	25438
815.68	25187
815.821	25202
815.962	25206
816.103	25209
816.244	25133
816.385	24970
816.526	24810
816.666	24757
816.807	24616
816.948	24798
817.089	24707
817.23	24779
817.371	24642
817.512	24505
817.653	24681
817.793	24589
817.934	24639
818.075	24559
818.216	24608
818.356	24532
818.497	24369
818.638	24410
818.778	24414
818.919	24315
819.06	24311
819.2	24403
819.341	24471
819.481	24517
819.622	24688
819.762	24795
819.903	24669
820.043	24745
820.184	24646
820.324	24559
820.465	24654
820.605	24544
820.746	24608
820.886	24330
821.026	24684
821.167	24445
821.307	24692
821.447	24464
821.588	24448
821.728	24285
821.868	24121
822.008	24045
822.149	23904
822.289	24041
822.429	23684
822.569	23733
822.709	23452
822.849	23459
822.99	23512
823.13	23398
823.27	23311
823.41	23200
823.55	23094
823.69	23254
823.83	23277
823.97	23132
824.11	23041
824.25	23006
824.389	22946
824.529	22881
824.669	23010
824.809	23136
824.949	23105
825.089	23022
825.228	23022
825.368	22797
825.508	22869
825.648	22824
825.787	22733
825.927	22908
826.067	22733
826.206	22797
826.346	22778
826.485	22824
826.625	22698
826.765	22847
826.904	22828
827.044	22500
827.183	22493
827.323	22493
827.462	22500
827.601	22455
827.741	22379
827.88	22390
828.02	22363
828.159	22462
828.298	22432
828.437	22523
828.577	22367
828.716	22519
828.855	22310
828.994	22101
829.134	22116
829.273	22135
829.412	22013
829.551	21979
829.69	22063
829.829	22188
829.968	22318
830.107	22158
830.246	22192
830.385	22082
830.524	21949
830.663	21953
830.802	21888
830.941	21827
831.08	21618
831.219	21728
831.357	21804
831.496	22017
831.635	21652
831.774	21652
831.913	21633
832.051	21393
832.19	21504
832.329	21530
832.467	21386
832.606	21256
832.744	21283
832.883	21401
833.022	21359
833.16	21321
833.299	21272
833.437	21412
833.576	21542
833.714	21424
833.852	21435
833.991	21382
834.129	21367
834.267	21450
834.406	21340
834.544	21355
834.682	21359
834.821	21310
834.959	21507
835.097	21256
835.235	21447
835.373	21245
835.511	21344
835.65	21184
835.788	21203
835.926	21028
836.064	21089
836.202	21020
836.34	21176
836.478	21241
836.615	21226
836.753	21279
836.891	21310
837.029	21291
837.167	21104
837.305	21165
837.443	21024
837.58	21051
837.718	21089
837.856	21131
837.993	21070
838.131	21112
838.269	21005
838.406	20952
838.544	20872
838.681	20746
838.819	20754
838.956	20549
839.094	20488
839.231	20522
839.369	20727
839.506	20899
839.643	20682
839.781	20442
839.918	20396
840.055	20526
840.193	20450
840.33	20461
840.467	20495
840.604	20385
840.742	20670
840.879	20362
841.016	20336
841.153	20377
841.29	20484
841.427	20423
841.564	20454
841.701	20423
841.838	20267
841.975	20336
842.112	20206
842.249	20168
842.385	20084
842.522	20286
842.659	20218
842.796	20275
842.933	20229
843.069	20180
843.206	20100
843.343	20237
843.479	20168
843.616	20225
843.752	19925
843.889	19989
844.025	20119
844.162	19784
844.298	19967
844.435	19944
844.571	19879
844.708	19947
844.844	19997
844.98	19932
845.117	19993
845.253	19890
845.389	19799
845.525	19799
845.661	19856
845.798	19689
845.934	19727
846.07	19670
846.206	19696
846.342	19818
846.478	19635
846.614	19460
846.75	19400
846.886	19251
847.022	19411
847.158	19388
847.294	19289
847.429	19419
847.565	19365
847.701	19499
847.837	19103
847.972	19095
848.108	19175
848.244	19152
848.379	18928
848.515	18958
848.65	18947
848.786	18951
848.921	18973
849.057	18954
849.192	19019
849.328	18932
849.463	19008
849.598	18886
849.734	18798
849.869	18776
850.004	18669
850.14	18719
850.275	18620
850.41	18612
850.545	18715
850.68	18646
850.815	18661
850.95	18639
851.085	18871
851.22	18753
851.355	18601
851.49	18616
851.625	18601
851.76	18673
851.895	18601
852.03	18608
852.165	18574
852.299	18681
852.434	18730
852.569	18589
852.703	18597
852.838	18749
852.973	18829
853.107	18753
853.242	18585
853.376	18563
853.511	18292
853.645	18456
853.78	18570
853.914	18429
854.048	18353
854.183	18426
854.317	18502
854.451	18635
854.585	18399
854.72	18521
854.854	18479
854.988	18437
855.122	18365
855.256	18330
855.39	18521
855.524	18555
855.658	18471
855.792	18502
855.926	18517
856.06	18525
856.194	18506
856.327	18429
856.461	18353
856.595	18395
856.729	18342
856.862	18597
856.996	18433
857.13	18502
857.263	18532
857.397	18570
857.53	18528
857.664	18544
857.797	18566
857.931	18555
858.064	18513
858.197	18559
858.331	18460
858.464	18380
858.597	18369
858.731	18391
858.864	18334
858.997	18369
859.13	18350
859.263	18448
859.396	18433
859.529	18334
859.662	18338
859.795	18452
859.928	18502
860.061	18483
860.194	18551
860.327	18422
860.46	18391
860.592	18456
860.725	18597
860.858	18471
860.99	18388
861.123	18277
861.256	18350
861.388	18422
861.521	19107
861.653	18296
861.786	18174
861.918	18296
862.05	18300
862.183	18372
862.315	18494
862.447	18521
862.58	18513
862.712	18251
862.844	18106
862.976	18266
863.108	18243
863.24	18494
863.372	18117
863.504	18125
863.636	18194
863.768	18270
863.9	18041
864.032	18159
864.164	18083
864.296	18197
864.428	18258
864.559	18129
864.691	18209
864.823	18174
864.954	18117
865.086	18155
865.217	18060
865.349	18068
865.48	18095
865.612	18057
865.743	18232
865.875	18060
866.006	17946
866.137	17988
866.269	18011
866.4	18072
866.531	18068
866.662	17904
866.793	18015
866.924	18079
867.055	18057
867.186	17977
867.317	17969
867.448	17916
867.579	18068
867.71	17893
867.841	17920
867.972	17935
868.103	18045
868.233	18041
868.364	18091
868.495	18159
868.625	18304
868.756	18239
868.886	18350
869.017	18201
869.147	18273
869.278	18388
869.408	18330
869.539	18308
869.669	18369
869.799	18350
869.929	18361
870.06	18410
870.19	18551
870.32	18426
870.45	18601
870.58	18593
870.71	18768
870.84	18696
870.97	18658
871.1	18589
871.23	18730
871.36	18783
871.489	18650
871.619	18734
871.749	18753
871.879	18833
872.008	18909
872.138	18703
872.267	18783
872.397	18703
872.526	18817
872.656	18730
872.785	18566
872.915	18867
873.044	18985
873.173	18749
873.303	18966
873.432	18852
873.561	19000
873.69	18901
873.819	18916
873.948	18993
874.077	18905
874.206	18829
874.335	18890
874.464	18916
874.593	19057
874.722	18989
874.851	19152
874.979	19145
875.108	19187
875.237	19133
875.365	19088
875.494	19099
875.623	19114
875.751	19152
875.88	19198
876.008	19324
876.136	19422
876.265	19556
876.393	19609
876.521	19655
876.65	19734
876.778	19540
876.906	19537
877.034	19548
877.162	19480
877.29	19476
877.418	19487
877.546	19586
877.674	19601
877.802	19544
877.93	19506
878.058	19460
878.185	19339
878.313	19483
878.441	19495
878.568	19483
878.696	19411
878.824	19575
878.951	19635
879.079	19704
879.206	19906
879.333	19712
879.461	19590
879.588	19689
879.715	19731
879.842	19731
879.97	19548
880.097	19320
880.224	19354
880.351	19419
880.478	19449
880.605	19358
880.732	19343
880.859	19559
880.986	19400
881.112	19373
881.239	19293
881.366	19053
881.493	19183
881.619	19038
881.746	18920
881.872	18943
881.999	19004
882.125	18993
882.252	19072
882.378	19015
882.505	19168
882.631	18878
882.757	18779
882.883	18905
883.01	18779
883.136	18795
883.262	18768
883.388	18639
883.514	18711
883.64	18783
883.766	18604
883.892	18616
884.018	18661
884.143	18764
884.269	18856
884.395	18467
884.52	18380
884.646	18448
884.772	18346
884.897	18254
885.023	18418
885.148	18445
885.274	18528
885.399	18551
885.524	18498
885.65	18433
885.775	18361
885.9	18399
886.025	18429
886.15	18369
886.275	18456
886.4	18228
886.525	18380
886.65	18353
886.775	18319
886.9	18521
887.025	18574
887.149	18327
887.274	18292
887.399	18239
887.523	18190
887.648	18045
887.773	18121
887.897	18319
888.021	18235
888.146	18125
888.27	18243
888.395	18319
888.519	18239
888.643	18209
888.767	18186
888.891	18125
889.015	18003
889.139	18121
889.263	17817
889.387	18110
889.511	18190
889.635	18136
889.759	18022
889.883	17916
890.006	17999
890.13	18167
890.254	17973
890.377	17832
890.501	17767
890.624	17687
890.748	17775
890.871	17668
890.995	17585
891.118	17642
891.241	17566
891.364	17657
891.488	17729
891.611	17585
891.734	17611
891.857	17676
891.98	17642
892.103	17745
892.226	17687
892.349	17497
892.471	17440
892.594	17589
892.717	17653
892.839	17627
892.962	17615
893.085	17623
893.207	17604
893.33	17433
893.452	17512
893.575	17649
893.697	17615
893.819	17714
893.941	17760
894.064	17718
894.186	17505
894.308	17535
894.43	17547
894.552	17703
894.674	17619
894.796	17429
894.918	17596
895.04	17535
895.161	17585
895.283	17615
895.405	17478
895.526	17600
895.648	17592
895.769	17657
895.891	17680
896.012	17665
896.134	17687
896.255	17592
896.376	17608
896.498	17653
896.619	17672
896.74	17611
896.861	17699
896.982	18049
897.103	18182
897.224	17977
897.345	17756
897.466	17863
897.587	17889
897.708	18019
897.828	17897
897.949	17840
898.07	17611
898.19	17832
898.311	17977
898.431	17817
898.552	17855
898.672	17954
898.792	17950
898.913	17942
899.033	17783
899.153	17627
899.273	17649
899.393	17611
899.513	17710
899.633	17642
899.753	17726
899.873	17646
899.993	17646
900.113	17543
900.232	17665
900.352	17672
900.472	17395
900.591	17406
900.711	17486
900.83	17387
900.95	17630
901.069	17554
901.189	17337
901.308	17216
901.427	17037
901.546	17083
901.665	17204
901.784	17048
901.904	17014
902.023	16908
902.141	16729
902.26	16588
902.379	16759
902.498	16675
902.617	16599
902.735	16630
902.854	16721
902.973	16478
903.091	16356
903.21	16318
903.328	16352
903.446	16177
903.565	16162
903.683	16249
903.801	16032
903.919	16169
904.038	16051
904.156	16032
904.274	16002
904.392	15880
904.51	15907
904.627	15888
904.745	15953
904.863	16002
904.981	15743
905.098	15599
905.216	15633
905.334	15534
905.451	15682
905.569	15504
905.686	15648
905.803	15614
905.921	15439
906.038	15473
906.155	15367
906.272	15348
906.389	15313
906.506	15066
906.623	15131
906.74	15218
906.857	15024
906.974	14967
907.091	15230
907.208	15218
907.324	15157
907.441	15051
907.557	14933
907.674	14910
907.79	14781
907.907	14880
908.023	14857
908.139	14891
908.256	14663
908.372	14769
908.488	14674
908.604	14682
908.72	14511
908.836	14610
908.952	14560
909.068	14640
909.184	14625
909.3	14423
909.415	14568
909.531	14564
909.647	14263
909.762	14294
909.878	14328
909.993	14225
910.108	14252
910.224	14221
910.339	14248
910.454	14107
910.57	14176
910.685	14103
910.8	14225
910.915	14237
911.03	14115
911.145	13921
911.259	13906
911.374	13898
911.489	13902
911.604	13776
911.718	13586
911.833	13662
911.947	13525
912.062	13400
912.176	13571
912.291	13563
912.405	13662
912.519	13746
912.633	13727
912.748	13734
912.862	13670
912.976	13468
913.09	13343
913.204	13354
913.318	13438
913.431	13594
913.545	13620
913.659	13502
913.772	13460
913.886	13343
914	13255
914.113	13419
914.226	13430
914.34	13343
914.453	13099
914.566	13403
914.68	13247
914.793	13190
914.906	13168
915.019	13042
915.132	12958
915.245	12993
915.358	13069
915.47	13031
915.583	12996
915.696	12981
915.809	13061
915.921	13091
916.034	12935
916.146	12890
916.259	12947
916.371	12981
916.483	13019
916.595	12859
916.708	12901
916.82	12840
916.932	12840
917.044	12852
917.156	12875
917.268	12665
917.38	12783
917.491	12787
917.603	12768
917.715	12791
917.826	12738
917.938	12658
918.049	12582
918.161	12696
918.272	12776
918.384	12776
918.495	12806
918.606	12559
918.717	12475
918.828	12593
918.939	12559
919.05	12506
919.161	12566
919.272	12296
919.383	12357
919.494	12631
919.604	12726
919.715	12467
919.826	12304
919.936	12391
920.047	12521
920.157	12536
920.267	12681
920.378	12517
920.488	12464
920.598	12677
920.708	12776
920.818	12749
920.928	12585
921.038	12768
921.148	12814
921.258	12521
921.368	12494
921.477	12304
921.587	12262
921.697	12159
921.806	12308
921.916	12144
922.025	11965
922.134	11916
922.244	11847
922.353	11980
922.462	11901
922.571	11779
922.68	11722
922.789	11596
922.898	11619
923.007	11608
923.116	11585
923.224	11516
923.333	11566
923.442	11524
923.55	11436
923.659	11467
923.767	11532
923.876	11414
923.984	11395
924.092	11421
924.201	11417
924.309	11360
924.417	11436
924.525	11353
924.633	11356
924.741	12251
924.849	11132
924.956	11269
925.064	11136
925.172	11025
925.279	11048
925.387	11136
925.494	11086
925.602	11288
925.709	11140
925.816	11045
925.924	11109
926.031	11147
926.138	11105
926.245	11201
926.352	10949
926.459	11151
926.566	11159
926.673	10980
926.779	10968
926.886	10923
926.993	10755
927.099	10717
927.206	10740
927.312	10683
927.419	10771
927.525	10698
927.631	10748
927.737	10634
927.843	10565
927.95	10519
928.056	10565
928.162	10618
928.267	10558
928.373	11242
928.479	10656
928.585	10493
928.69	10592
928.796	10615
928.901	10497
929.007	10360
929.112	10550
929.218	10485
929.323	10375
929.428	10367
929.533	10500
929.638	10375
929.743	10280
929.848	10379
929.953	10375
930.058	10238
930.163	10082
930.267	10169
930.372	10265
930.477	10078
930.581	10303
930.685	10143
930.79	9979
930.894	10051
930.998	9964
931.103	10025
931.207	9766
931.311	9595
931.415	9633
931.519	9568
931.623	9473
