Data from test_V78500241_2185.txt Node
Date: Fri Mar 25 14:48:55 CST 2022
User: usil
Spectrometer: V785-0024
Trigger mode: 0
Integration Time (sec): 4.000000E-1
Scans to average: 1
Nonlinearity correction enabled: false
Boxcar width: 0
Storing dark spectrum: false
XAxis mode: Wavelengths
Number of Pixels in Spectrum: 1024
>>>>>Begin Spectral Data<<<<<
801.071	22112
801.214	21987
801.356	21755
801.499	21728
801.641	21656
801.783	21572
801.926	21568
802.068	21519
802.211	21370
802.353	21252
802.496	21100
802.638	20944
802.78	20929
802.923	20720
803.065	20815
803.208	20785
803.35	20883
803.492	20815
803.635	21001
803.777	20918
803.919	20815
804.061	21157
804.204	20925
804.346	20849
804.488	20750
804.63	20796
804.773	20792
804.915	20727
805.057	20838
805.199	20769
805.341	20914
805.483	20830
805.626	20872
805.768	20697
805.91	20861
806.052	20804
806.194	20727
806.336	20785
806.478	20712
806.62	20659
806.762	20796
806.904	20925
807.046	21100
807.188	21154
807.33	21047
807.472	21214
807.614	21036
807.756	20982
807.898	20864
808.04	20883
808.182	20785
808.324	20899
808.465	20868
808.607	21116
808.749	21203
808.891	21173
809.033	21344
809.174	21241
809.316	21108
809.458	21119
809.6	21131
809.741	21287
809.883	21237
810.025	21230
810.166	21233
810.308	21249
810.45	21146
810.591	21264
810.733	21024
810.875	20937
811.016	20864
811.158	20773
811.299	20963
811.441	20880
811.582	20963
811.724	20971
811.865	20994
812.007	20800
812.148	20830
812.29	20956
812.431	21093
812.573	21237
812.714	21306
812.855	21386
812.997	21553
813.138	21728
813.279	21526
813.421	21370
813.562	21306
813.703	21169
813.845	21043
813.986	20716
814.127	20712
814.268	20579
814.41	20473
814.551	20469
814.692	20541
814.833	20438
814.974	20355
815.115	20434
815.256	20396
815.397	20271
815.539	20366
815.68	20267
815.821	20153
815.962	20134
816.103	20248
816.244	20107
816.385	19963
816.526	19940
816.666	19753
816.807	19578
816.948	19708
817.089	19689
817.23	19658
817.371	19647
817.512	19556
817.653	19628
817.793	19597
817.934	19563
818.075	19594
818.216	19689
818.356	19556
818.497	19457
818.638	19221
818.778	19354
818.919	19301
819.06	19377
819.2	19422
819.341	19449
819.481	19506
819.622	19590
819.762	19826
819.903	19791
820.043	19597
820.184	19590
820.324	19571
820.465	19628
820.605	19582
820.746	19537
820.886	19525
821.026	19571
821.167	19540
821.307	19601
821.447	19502
821.588	19187
821.728	19346
821.868	19069
822.008	19027
822.149	19000
822.289	19000
822.429	18684
822.569	18635
822.709	18665
822.849	18452
822.99	18551
823.13	18433
823.27	18448
823.41	18350
823.55	18300
823.69	18277
823.83	18243
823.97	18330
824.11	18232
824.25	18034
824.389	18022
824.529	18155
824.669	18098
824.809	18190
824.949	18178
825.089	18182
825.228	18076
825.368	17897
825.508	17916
825.648	17942
825.787	17855
825.927	17821
826.067	17798
826.206	17714
826.346	17752
826.485	17870
826.625	17809
826.765	17927
826.904	17897
827.044	17600
827.183	17528
827.323	17471
827.462	17547
827.601	17505
827.741	17524
827.88	17532
828.02	17417
828.159	17448
828.298	17493
828.437	17585
828.577	17467
828.716	17604
828.855	17478
828.994	17372
829.134	17258
829.273	17345
829.412	17239
829.551	17200
829.69	17296
829.829	17231
829.968	17376
830.107	17330
830.246	17250
830.385	17315
830.524	17174
830.663	17113
830.802	16942
830.941	16850
831.08	16877
831.219	16965
831.357	16927
831.496	17102
831.635	16869
831.774	16759
831.913	16748
832.051	16736
832.19	16744
832.329	16713
832.467	16611
832.606	16550
832.744	16512
832.883	16584
833.022	16417
833.16	16679
833.299	16618
833.437	16710
833.576	16516
833.714	16668
833.852	16653
833.991	16687
834.129	16683
834.267	16554
834.406	16637
834.544	16634
834.682	16569
834.821	16637
834.959	16755
835.097	16527
835.235	16736
835.373	16691
835.511	16668
835.65	16470
835.788	16504
835.926	16322
836.064	16337
836.202	16310
836.34	16622
836.478	16664
836.615	16565
836.753	16478
836.891	16634
837.029	16523
837.167	16546
837.305	16356
837.443	16440
837.58	16276
837.718	16519
837.856	16394
837.993	16386
838.131	16329
838.269	16238
838.406	16284
838.544	16242
838.681	16105
838.819	16147
838.956	15998
839.094	15960
839.231	15983
839.369	16120
839.506	16310
839.643	16188
839.781	16040
839.918	15930
840.055	15934
840.193	15899
840.33	15956
840.467	15907
840.604	16078
840.742	16131
840.879	15861
841.016	15865
841.153	15778
841.29	16067
841.427	15972
841.564	15880
841.701	15983
841.838	15892
841.975	15884
842.112	15816
842.249	15739
842.385	15751
842.522	15888
842.659	15797
842.796	15698
842.933	15698
843.069	15698
843.206	15713
843.343	15861
843.479	15762
843.616	15808
843.752	15454
843.889	15538
844.025	15584
844.162	15439
844.298	15618
844.435	15439
844.571	15469
844.708	15526
844.844	15732
844.98	15572
845.117	15629
845.253	15462
845.389	15351
845.525	15405
845.661	15454
845.798	15351
845.934	15249
846.07	15237
846.206	15363
846.342	15488
846.478	15279
846.614	15173
846.75	14998
846.886	15055
847.022	15142
847.158	15138
847.294	15020
847.429	15051
847.565	15032
847.701	15351
847.837	14880
847.972	14724
848.108	14944
848.244	14963
848.379	14746
848.515	14625
848.65	14674
848.786	14716
848.921	14674
849.057	14739
849.192	14746
849.328	14712
849.463	14602
849.598	14636
849.734	14552
849.869	14552
850.004	14454
850.14	14465
850.275	14450
850.41	14347
850.545	14396
850.68	14480
850.815	14396
850.95	14454
851.085	14644
851.22	14568
851.355	14419
851.49	14434
851.625	14412
851.76	14404
851.895	14332
852.03	14161
852.165	14514
852.299	14488
852.434	14431
852.569	14473
852.703	14507
852.838	14511
852.973	14587
853.107	14552
853.242	14457
853.376	14278
853.511	14225
853.645	14244
853.78	14484
853.914	14248
854.048	14298
854.183	14275
854.317	14404
854.451	14427
854.585	14366
854.72	14263
854.854	14381
854.988	14225
855.122	14286
855.256	14103
855.39	14393
855.524	14336
855.658	14412
855.792	14298
855.926	14336
856.06	14374
856.194	14442
856.327	14278
856.461	14267
856.595	14362
856.729	14294
856.862	14290
856.996	14259
857.13	14389
857.263	14408
857.397	14431
857.53	14313
857.664	14339
857.797	14332
857.931	14355
858.064	14343
858.197	14488
858.331	14313
858.464	14225
858.597	14195
858.731	14233
858.864	14313
858.997	14320
859.13	14355
859.263	14313
859.396	14347
859.529	14259
859.662	14172
859.795	14313
859.928	14343
860.061	14438
860.194	14412
860.327	14362
860.46	14271
860.592	14309
860.725	14480
860.858	14389
860.99	14301
861.123	14218
861.256	14275
861.388	14328
861.521	14853
861.653	14191
861.786	14130
861.918	14191
862.05	14138
862.183	14267
862.315	14324
862.447	14339
862.58	14294
862.712	14012
862.844	14100
862.976	14138
863.108	14164
863.24	14381
863.372	14031
863.504	14107
863.636	14077
863.768	14138
863.9	14187
864.032	13921
864.164	14088
864.296	14157
864.428	14202
864.559	14176
864.691	14168
864.823	14191
864.954	14065
865.086	14164
865.217	14115
865.349	13947
865.48	13993
865.612	14077
865.743	14180
865.875	13993
866.006	14046
866.137	14100
866.269	13940
866.4	14100
866.531	13997
866.662	13978
866.793	14050
866.924	14073
867.055	14088
867.186	14062
867.317	14039
867.448	13928
867.579	13970
867.71	13978
867.841	13932
867.972	13978
868.103	14035
868.233	14035
868.364	14123
868.495	14096
868.625	14290
868.756	14370
868.886	14233
869.017	14389
869.147	14374
869.278	14457
869.408	14263
869.539	14381
869.669	14370
869.799	14332
869.929	14427
870.06	14503
870.19	14636
870.32	14587
870.45	14667
870.58	14727
870.71	14659
870.84	14883
870.97	14697
871.1	14735
871.23	14861
871.36	14910
871.489	14785
871.619	14872
871.749	14868
871.879	15001
872.008	15055
872.138	14967
872.267	14925
872.397	14746
872.526	14682
872.656	14765
872.785	14842
872.915	14902
873.044	14979
873.173	14960
873.303	14990
873.432	14971
873.561	15028
873.69	14971
873.819	15001
873.948	15036
874.077	14998
874.206	14941
874.335	14975
874.464	15085
874.593	15264
874.722	15230
874.851	15359
874.979	15317
875.108	15382
875.237	15279
875.365	15036
875.494	15249
875.623	15389
875.751	15195
875.88	15340
876.008	15466
876.136	15435
876.265	15637
876.393	15842
876.521	15755
876.65	15739
876.778	15671
876.906	15637
877.034	15591
877.162	15633
877.29	15595
877.418	15671
877.546	15656
877.674	15698
877.802	15698
877.93	15622
878.058	15584
878.185	15496
878.313	15599
878.441	15644
878.568	15625
878.696	15553
878.824	15762
878.951	15759
879.079	15800
879.206	15972
879.333	15797
879.461	15724
879.588	15812
879.715	15816
879.842	15876
879.97	15675
880.097	15606
880.224	15458
880.351	15576
880.478	15584
880.605	15454
880.732	15500
880.859	15774
880.986	15530
881.112	15614
881.239	15458
881.366	15405
881.493	15192
881.619	15108
881.746	15176
881.872	15275
881.999	15203
882.125	15097
882.252	15150
882.378	15233
882.505	15378
882.631	15104
882.757	15093
882.883	14998
883.01	14960
883.136	14952
883.262	14895
883.388	14857
883.514	15066
883.64	15043
883.766	14906
883.892	14872
884.018	14845
884.143	14982
884.269	15062
884.395	14754
884.52	14739
884.646	14758
884.772	14754
884.897	14625
885.023	14708
885.148	14785
885.274	14796
885.399	14804
885.524	14765
885.65	14712
885.775	14743
885.9	14746
886.025	14853
886.15	14667
886.275	14746
886.4	14583
886.525	14735
886.65	14530
886.775	14682
886.9	14815
887.025	14929
887.149	14765
887.274	14480
887.399	14575
887.523	14530
887.648	14450
887.773	14560
887.897	14575
888.021	14583
888.146	14522
888.27	14678
888.395	14663
888.519	14575
888.643	14469
888.767	14632
888.891	14473
889.015	14484
889.139	14366
889.263	14461
889.387	14579
889.511	14613
889.635	14514
889.759	14412
889.883	14358
890.006	14480
890.13	14446
890.254	14343
890.377	14374
890.501	14206
890.624	14237
890.748	14332
890.871	14065
890.995	14054
891.118	13993
891.241	14100
891.364	14126
891.488	14290
891.611	14164
891.734	14183
891.857	14221
891.98	14176
892.103	14199
892.226	14202
892.349	14126
892.471	13955
892.594	14210
892.717	14065
892.839	14149
892.962	14126
893.085	14172
893.207	14138
893.33	14046
893.452	14031
893.575	14134
893.697	14111
893.819	14336
893.941	14427
894.064	14256
894.186	14069
894.308	14119
894.43	14256
894.552	14320
894.674	14332
894.796	14081
894.918	14138
895.04	14130
895.161	14259
895.283	14180
895.405	14126
895.526	14191
895.648	14225
895.769	14210
895.891	14347
896.012	14267
896.134	14339
896.255	14305
896.376	14240
896.498	14290
896.619	14324
896.74	14252
896.861	14377
896.982	14686
897.103	14819
897.224	14541
897.345	14613
897.466	14469
897.587	14511
897.708	14617
897.828	14552
897.949	14419
898.07	14454
898.19	14545
898.311	14693
898.431	14556
898.552	14636
898.672	14670
898.792	14743
898.913	14625
899.033	14636
899.153	14484
899.273	14374
899.393	14499
899.513	14377
899.633	14404
899.753	14400
899.873	14480
899.993	14518
900.113	14347
900.232	14469
900.352	14419
900.472	14396
900.591	14412
900.711	14332
900.83	14278
900.95	14484
901.069	14488
901.189	14358
901.308	14043
901.427	13951
901.546	14119
901.665	14065
901.784	14005
901.904	13959
902.023	13826
902.141	13647
902.26	13586
902.379	13719
902.498	13605
902.617	13460
902.735	13582
902.854	13609
902.973	13514
903.091	13293
903.21	13259
903.328	13274
903.446	13232
903.565	13149
903.683	13133
903.801	13053
903.919	13251
904.038	12985
904.156	12981
904.274	13015
904.392	12951
904.51	12954
904.627	12981
904.745	13027
904.863	13015
904.981	12760
905.098	12703
905.216	12673
905.334	12662
905.451	12688
905.569	12677
905.686	12654
905.803	12623
905.921	12547
906.038	12658
906.155	12547
906.272	12369
906.389	12544
906.506	12216
906.623	12323
906.74	12247
906.857	12060
906.974	12186
907.091	12350
907.208	12407
907.324	12304
907.441	12201
907.557	12098
907.674	12030
907.79	12030
907.907	11935
908.023	12007
908.139	12072
908.256	11988
908.372	11847
908.488	11866
908.604	11771
908.72	11695
908.836	11824
908.952	11729
909.068	11798
909.184	11817
909.3	11817
909.415	11878
909.531	11821
909.647	11562
909.762	11516
909.878	11452
909.993	11589
910.108	11543
910.224	11452
910.339	11589
910.454	11448
910.57	11387
910.685	11334
910.8	11589
910.915	11592
911.03	11436
911.145	11220
911.259	11239
911.374	11242
911.489	11174
911.604	11143
911.718	11052
911.833	10938
911.947	10839
912.062	10797
912.176	10930
912.291	11048
912.405	10957
912.519	11185
912.633	11128
912.748	11086
912.862	10923
912.976	10850
913.09	10866
913.204	10790
913.318	10828
913.431	10946
913.545	10946
913.659	10892
913.772	10755
913.886	10725
914	10759
914.113	10866
914.226	10869
914.34	10862
914.453	10660
914.566	10805
914.68	10702
914.793	10691
914.906	10580
915.019	10470
915.132	10322
915.245	10493
915.358	10470
915.47	10538
915.583	10455
915.696	10481
915.809	10691
915.921	10683
916.034	10470
916.146	10500
916.259	10459
916.371	10474
916.483	10527
916.595	10386
916.708	10478
916.82	10428
916.932	10443
917.044	10379
917.156	10440
917.268	10265
917.38	10413
917.491	10322
917.603	10375
917.715	10443
917.826	10447
917.938	10386
918.049	10188
918.161	10325
918.272	10577
918.384	10436
918.495	10386
918.606	10265
918.717	10200
918.828	10257
918.939	10242
919.05	10143
919.161	10272
919.272	10032
919.383	10074
919.494	10329
919.604	10432
919.715	10246
919.826	10074
919.936	10261
920.047	10363
920.157	10352
920.267	10428
920.378	10265
920.488	10215
920.598	10424
920.708	10546
920.818	10523
920.928	10470
921.038	10634
921.148	10550
921.258	10257
921.368	10234
921.477	10124
921.587	10116
921.697	10002
921.806	10143
921.916	9987
922.025	9854
922.134	9915
922.244	9812
922.353	9880
922.462	9701
922.571	9728
922.68	9511
922.789	9584
922.898	9538
923.007	9485
923.116	9523
923.224	9542
923.333	9545
923.442	9348
923.55	9462
923.659	9447
923.767	9526
923.876	9389
923.984	9462
924.092	9351
924.201	9431
924.309	9389
924.417	9397
924.525	9325
924.633	9355
924.741	10074
924.849	9154
924.956	9272
925.064	9233
925.172	9058
925.279	9165
925.387	9207
925.494	9157
925.602	9287
925.709	9256
925.816	9108
925.924	9253
926.031	9268
926.138	9184
926.245	9230
926.352	9127
926.459	9192
926.566	9291
926.673	9112
926.779	9127
926.886	8971
926.993	8944
927.099	8876
927.206	8838
927.312	8868
927.419	8941
927.525	8880
927.631	8864
927.737	8811
927.843	8800
927.95	8674
928.056	8712
928.162	8769
928.267	8834
928.373	9462
928.479	8853
928.585	8655
928.69	8800
928.796	8792
928.901	8701
929.007	8533
929.112	8670
929.218	8697
929.323	8625
929.428	8602
929.533	8686
929.638	8495
929.743	8564
929.848	8686
929.953	8587
930.058	8476
930.163	8377
930.267	8336
930.372	8522
930.477	8298
930.581	8617
930.685	8438
930.79	8271
930.894	8366
930.998	8259
931.103	8450
931.207	8107
931.311	8046
931.415	7986
931.519	7841
931.623	7826
