Data from test_V78500241_2183.txt Node
Date: Fri Mar 25 14:48:54 CST 2022
User: usil
Spectrometer: V785-0024
Trigger mode: 0
Integration Time (sec): 4.000000E-1
Scans to average: 1
Nonlinearity correction enabled: false
Boxcar width: 0
Storing dark spectrum: false
XAxis mode: Wavelengths
Number of Pixels in Spectrum: 1024
>>>>>Begin Spectral Data<<<<<
801.071	22162
801.214	21964
801.356	21713
801.499	21724
801.641	21557
801.783	21511
801.926	21507
802.068	21580
802.211	21408
802.353	21260
802.496	21218
802.638	21058
802.78	21013
802.923	20861
803.065	20880
803.208	20754
803.35	20842
803.492	21001
803.635	21093
803.777	20838
803.919	20918
804.061	21291
804.204	20891
804.346	20819
804.488	20667
804.63	20811
804.773	20720
804.915	20834
805.057	20834
805.199	20781
805.341	20758
805.483	20982
805.626	20845
805.768	20682
805.91	20804
806.052	20963
806.194	20686
806.336	20788
806.478	20689
806.62	20785
806.762	20853
806.904	21001
807.046	21264
807.188	21066
807.33	21058
807.472	21074
807.614	20948
807.756	21070
807.898	20948
808.04	20800
808.182	20910
808.324	20914
808.465	20925
808.607	21028
808.749	21211
808.891	21272
809.033	21332
809.174	21245
809.316	21222
809.458	21180
809.6	21047
809.741	21112
809.883	21283
810.025	21279
810.166	21237
810.308	21272
810.45	21302
810.591	21077
810.733	21096
810.875	20845
811.016	20804
811.158	20868
811.299	21036
811.441	21070
811.582	21043
811.724	20868
811.865	20906
812.007	20899
812.148	20876
812.29	20979
812.431	21142
812.573	21169
812.714	21431
812.855	21435
812.997	21481
813.138	21644
813.279	21610
813.421	21416
813.562	21340
813.703	21298
813.845	21233
813.986	20819
814.127	20602
814.268	20541
814.41	20480
814.551	20457
814.692	20457
814.833	20507
814.974	20495
815.115	20400
815.256	20267
815.397	20298
815.539	20301
815.68	20225
815.821	20225
815.962	20202
816.103	20138
816.244	20058
816.385	19967
816.526	20050
816.666	19837
816.807	19521
816.948	19696
817.089	19765
817.23	19662
817.371	19559
817.512	19544
817.653	19639
817.793	19476
817.934	19635
818.075	19750
818.216	19803
818.356	19567
818.497	19453
818.638	19297
818.778	19403
818.919	19213
819.06	19339
819.2	19415
819.341	19533
819.481	19422
819.622	19632
819.762	19731
819.903	19674
820.043	19616
820.184	19613
820.324	19495
820.465	19685
820.605	19594
820.746	19605
820.886	19396
821.026	19582
821.167	19643
821.307	19521
821.447	19445
821.588	19392
821.728	19236
821.868	19156
822.008	19057
822.149	19034
822.289	18970
822.429	18757
822.569	18696
822.709	18711
822.849	18525
822.99	18479
823.13	18426
823.27	18414
823.41	18251
823.55	18270
823.69	18243
823.83	18311
823.97	18194
824.11	18041
824.25	18011
824.389	18079
824.529	18136
824.669	18102
824.809	18121
824.949	18201
825.089	18098
825.228	18133
825.368	17908
825.508	17889
825.648	17805
825.787	17847
825.927	17980
826.067	17798
826.206	17786
826.346	17901
826.485	17798
826.625	17878
826.765	17920
826.904	17870
827.044	17649
827.183	17539
827.323	17398
827.462	17589
827.601	17566
827.741	17604
827.88	17452
828.02	17395
828.159	17391
828.298	17573
828.437	17672
828.577	17478
828.716	17680
828.855	17436
828.994	17368
829.134	17174
829.273	17356
829.412	17311
829.551	17216
829.69	17307
829.829	17299
829.968	17364
830.107	17311
830.246	17326
830.385	17159
830.524	17178
830.663	17147
830.802	16923
830.941	16961
831.08	16934
831.219	16938
831.357	16980
831.496	17140
831.635	16839
831.774	16790
831.913	16812
832.051	16702
832.19	16656
832.329	16660
832.467	16626
832.606	16542
832.744	16618
832.883	16618
833.022	16516
833.16	16588
833.299	16664
833.437	16698
833.576	16611
833.714	16603
833.852	16653
833.991	16698
834.129	16702
834.267	16809
834.406	16615
834.544	16577
834.682	16618
834.821	16580
834.959	16812
835.097	16596
835.235	16755
835.373	16592
835.511	16675
835.65	16580
835.788	16538
835.926	16417
836.064	16265
836.202	16356
836.34	16561
836.478	16622
836.615	16493
836.753	16558
836.891	16729
837.029	16656
837.167	16516
837.305	16382
837.443	16455
837.58	16417
837.718	16398
837.856	16405
837.993	16337
838.131	16421
838.269	16215
838.406	16295
838.544	16352
838.681	16116
838.819	16044
838.956	15903
839.094	15869
839.231	15949
839.369	16124
839.506	16257
839.643	16207
839.781	16036
839.918	15884
840.055	16044
840.193	15926
840.33	15930
840.467	15903
840.604	15945
840.742	16162
840.879	15873
841.016	15842
841.153	15816
841.29	16044
841.427	15968
841.564	15857
841.701	15972
841.838	15762
841.975	15842
842.112	15907
842.249	15720
842.385	15755
842.522	15930
842.659	15781
842.796	15587
842.933	15751
843.069	15690
843.206	15614
843.343	15755
843.479	15690
843.616	15755
843.752	15507
843.889	15568
844.025	15766
844.162	15507
844.298	15606
844.435	15519
844.571	15523
844.708	15629
844.844	15686
844.98	15644
845.117	15553
845.253	15454
845.389	15283
845.525	15454
845.661	15359
845.798	15344
845.934	15329
846.07	15272
846.206	15405
846.342	15351
846.478	15321
846.614	15135
846.75	15116
846.886	15043
847.022	15112
847.158	15028
847.294	15043
847.429	15157
847.565	15009
847.701	15378
847.837	14815
847.972	14735
848.108	14925
848.244	14838
848.379	14667
848.515	14769
848.65	14651
848.786	14590
848.921	14720
849.057	14823
849.192	14701
849.328	14750
849.463	14621
849.598	14568
849.734	14495
849.869	14469
850.004	14484
850.14	14545
850.275	14389
850.41	14374
850.545	14385
850.68	14522
850.815	14404
850.95	14381
851.085	14533
851.22	14469
851.355	14400
851.49	14461
851.625	14336
851.76	14461
851.895	14164
852.03	14305
852.165	14404
852.299	14396
852.434	14518
852.569	14488
852.703	14469
852.838	14461
852.973	14678
853.107	14549
853.242	14438
853.376	14328
853.511	14195
853.645	14309
853.78	14389
853.914	14214
854.048	14298
854.183	14206
854.317	14290
854.451	14564
854.585	14339
854.72	14263
854.854	14393
854.988	14187
855.122	14282
855.256	14233
855.39	14298
855.524	14408
855.658	14355
855.792	14343
855.926	14389
856.06	14370
856.194	14400
856.327	14393
856.461	14256
856.595	14210
856.729	14320
856.862	14484
856.996	14374
857.13	14381
857.263	14339
857.397	14393
857.53	14347
857.664	14355
857.797	14446
857.931	14427
858.064	14393
858.197	14469
858.331	14263
858.464	14183
858.597	14191
858.731	14305
858.864	14317
858.997	14278
859.13	14218
859.263	14385
859.396	14351
859.529	14301
859.662	14286
859.795	14221
859.928	14324
860.061	14404
860.194	14446
860.327	14309
860.46	14343
860.592	14450
860.725	14499
860.858	14419
860.99	14332
861.123	14244
861.256	14229
861.388	14271
861.521	14967
861.653	14191
861.786	14176
861.918	14164
862.05	14138
862.183	14248
862.315	14282
862.447	14355
862.58	14252
862.712	14092
862.844	14043
862.976	14054
863.108	14214
863.24	14400
863.372	13955
863.504	13970
863.636	14096
863.768	14092
863.9	14096
864.032	14065
864.164	14088
864.296	14111
864.428	14195
864.559	14195
864.691	14123
864.823	14214
864.954	14191
865.086	14130
865.217	14077
865.349	13993
865.48	14107
865.612	14065
865.743	14191
865.875	14084
866.006	14069
866.137	14081
866.269	14081
866.4	14050
866.531	14062
866.662	14031
866.793	14035
866.924	13974
867.055	14043
867.186	14069
867.317	13993
867.448	13959
867.579	13898
867.71	13925
867.841	13860
867.972	14103
868.103	14012
868.233	14107
868.364	14020
868.495	14126
868.625	14214
868.756	14381
868.886	14229
869.017	14290
869.147	14393
869.278	14514
869.408	14252
869.539	14221
869.669	14518
869.799	14427
869.929	14446
870.06	14355
870.19	14632
870.32	14644
870.45	14735
870.58	14750
870.71	14807
870.84	14815
870.97	14754
871.1	14644
871.23	14914
871.36	14994
871.489	14800
871.619	14796
871.749	14914
871.879	15001
872.008	14948
872.138	14906
872.267	14868
872.397	14773
872.526	14788
872.656	14773
872.785	14750
872.915	14899
873.044	14948
873.173	14929
873.303	14982
873.432	15032
873.561	15051
873.69	14948
873.819	14891
873.948	15017
874.077	15097
874.206	14921
874.335	14990
874.464	15043
874.593	15230
874.722	15249
874.851	15272
874.979	15237
875.108	15340
875.237	15306
875.365	15230
875.494	15252
875.623	15321
875.751	15230
875.88	15317
876.008	15439
876.136	15572
876.265	15652
876.393	15835
876.521	15850
876.65	15755
876.778	15705
876.906	15656
877.034	15667
877.162	15728
877.29	15549
877.418	15717
877.546	15739
877.674	15656
877.802	15701
877.93	15724
878.058	15629
878.185	15572
878.313	15739
878.441	15743
878.568	15530
878.696	15568
878.824	15759
878.951	15778
879.079	15869
879.206	15934
879.333	15842
879.461	15724
879.588	15816
879.715	15835
879.842	15922
879.97	15770
880.097	15542
880.224	15485
880.351	15610
880.478	15549
880.605	15557
880.732	15466
880.859	15789
880.986	15549
881.112	15606
881.239	15439
881.366	15230
881.493	15176
881.619	15173
881.746	15222
881.872	15192
881.999	15203
882.125	15135
882.252	15176
882.378	15157
882.505	15336
882.631	15138
882.757	14960
882.883	15039
883.01	15070
883.136	14937
883.262	14883
883.388	14948
883.514	15062
883.64	15077
883.766	15039
883.892	14807
884.018	14785
884.143	14998
884.269	15062
884.395	14800
884.52	14743
884.646	14659
884.772	14762
884.897	14549
885.023	14648
885.148	14861
885.274	14823
885.399	14693
885.524	14758
885.65	14674
885.775	14815
885.9	14663
886.025	14849
886.15	14819
886.275	14762
886.4	14659
886.525	14678
886.65	14651
886.775	14617
886.9	14823
887.025	14937
887.149	14705
887.274	14594
887.399	14396
887.523	14442
887.648	14537
887.773	14412
887.897	14655
888.021	14518
888.146	14457
888.27	14655
888.395	14610
888.519	14587
888.643	14507
888.767	14526
888.891	14533
889.015	14374
889.139	14526
889.263	14332
889.387	14514
889.511	14640
889.635	14419
889.759	14286
889.883	14446
890.006	14415
890.13	14457
890.254	14309
890.377	14351
890.501	14202
890.624	14142
890.748	14218
890.871	14073
890.995	14065
891.118	13936
891.241	14183
891.364	14237
891.488	14225
891.611	14062
891.734	14035
891.857	14195
891.98	14065
892.103	14237
892.226	14149
892.349	14062
892.471	13989
892.594	14115
892.717	14084
892.839	14012
892.962	14153
893.085	14164
893.207	14202
893.33	14043
893.452	14016
893.575	14187
893.697	14100
893.819	14191
893.941	14275
894.064	14244
894.186	14180
894.308	14092
894.43	14191
894.552	14339
894.674	14282
894.796	14088
894.918	14138
895.04	14084
895.161	14191
895.283	14240
895.405	14164
895.526	14149
895.648	14187
895.769	14248
895.891	14336
896.012	14355
896.134	14393
896.255	14362
896.376	14313
896.498	14244
896.619	14347
896.74	14332
896.861	14461
896.982	14655
897.103	14792
897.224	14518
897.345	14454
897.466	14552
897.587	14552
897.708	14636
897.828	14629
897.949	14621
898.07	14362
898.19	14518
898.311	14625
898.431	14545
898.552	14636
898.672	14731
898.792	14674
898.913	14678
899.033	14667
899.153	14450
899.273	14408
899.393	14537
899.513	14541
899.633	14568
899.753	14454
899.873	14404
899.993	14636
900.113	14545
900.232	14484
900.352	14514
900.472	14461
900.591	14385
900.711	14332
900.83	14343
900.95	14377
901.069	14454
901.189	14332
901.308	14103
901.427	13974
901.546	14092
901.665	14084
901.784	14005
901.904	13940
902.023	13826
902.141	13666
902.26	13590
902.379	13693
902.498	13567
902.617	13556
902.735	13693
902.854	13632
902.973	13502
903.091	13384
903.21	13312
903.328	13335
903.446	13141
903.565	13190
903.683	13240
903.801	12973
903.919	13160
904.038	13183
904.156	13012
904.274	13008
904.392	13008
904.51	12996
904.627	12993
904.745	13046
904.863	13046
904.981	12779
905.098	12662
905.216	12707
905.334	12623
905.451	12821
905.569	12642
905.686	12741
905.803	12696
905.921	12483
906.038	12540
906.155	12388
906.272	12483
906.389	12418
906.506	12235
906.623	12251
906.74	12277
906.857	12068
906.974	12171
907.091	12323
907.208	12407
907.324	12357
907.441	12220
907.557	12007
907.674	12026
907.79	11939
907.907	11882
908.023	12087
908.139	12087
908.256	11954
908.372	11969
908.488	11893
908.604	11786
908.72	11661
908.836	11684
908.952	11775
909.068	11688
909.184	11878
909.3	11680
909.415	11824
909.531	11710
909.647	11558
909.762	11623
909.878	11520
909.993	11627
910.108	11463
910.224	11478
910.339	11524
910.454	11493
910.57	11486
910.685	11349
910.8	11615
910.915	11543
911.03	11410
911.145	11353
911.259	11258
911.374	11296
911.489	11105
911.604	11132
911.718	11037
911.833	11060
911.947	10915
912.062	10824
912.176	10968
912.291	11003
912.405	10972
912.519	11220
912.633	11208
912.748	11041
912.862	10953
912.976	10862
913.09	10694
913.204	10729
913.318	10877
913.431	10984
913.545	10934
913.659	11071
913.772	10805
913.886	10748
914	10801
914.113	10862
914.226	10847
914.34	10828
914.453	10672
914.566	10763
914.68	10660
914.793	10710
914.906	10531
915.019	10508
915.132	10398
915.245	10447
915.358	10466
915.47	10500
915.583	10519
915.696	10546
915.809	10603
915.921	10714
916.034	10474
916.146	10504
916.259	10462
916.371	10611
916.483	10546
916.595	10409
916.708	10485
916.82	10474
916.932	10402
917.044	10462
917.156	10398
917.268	10363
917.38	10325
917.491	10291
917.603	10356
917.715	10367
917.826	10360
917.938	10211
918.049	10223
918.161	10371
918.272	10413
918.384	10466
918.495	10333
918.606	10234
918.717	10188
918.828	10261
918.939	10227
919.05	10135
919.161	10284
919.272	10086
919.383	10040
919.494	10265
919.604	10428
919.715	10188
919.826	10177
919.936	10230
920.047	10234
920.157	10227
920.267	10371
920.378	10287
920.488	10234
920.598	10398
920.708	10558
920.818	10447
920.928	10421
921.038	10622
921.148	10546
921.258	10280
921.368	10200
921.477	10211
921.587	10124
921.697	9987
921.806	10059
921.916	9975
922.025	9838
922.134	9808
922.244	9743
922.353	9816
922.462	9660
922.571	9603
922.68	9485
922.789	9473
922.898	9473
923.007	9500
923.116	9545
923.224	9462
923.333	9538
923.442	9336
923.55	9367
923.659	9359
923.767	9359
923.876	9329
923.984	9393
924.092	9348
924.201	9351
924.309	9332
924.417	9397
924.525	9249
924.633	9310
924.741	9937
924.849	9108
924.956	9260
925.064	9066
925.172	9081
925.279	9119
925.387	9146
925.494	9127
925.602	9302
925.709	9192
925.816	9028
925.924	9123
926.031	9264
926.138	9081
926.245	9123
926.352	9112
926.459	9245
926.566	9207
926.673	9154
926.779	8998
926.886	8929
926.993	8902
927.099	8887
927.206	8857
927.312	8807
927.419	8918
927.525	8857
927.631	8937
927.737	8826
927.843	8701
927.95	8575
928.056	8663
928.162	8796
928.267	8788
928.373	9435
928.479	8781
928.585	8583
928.69	8701
928.796	8823
928.901	8701
929.007	8590
929.112	8667
929.218	8625
929.323	8579
929.428	8514
929.533	8689
929.638	8511
929.743	8579
929.848	8533
929.953	8590
930.058	8465
930.163	8347
930.267	8408
930.372	8412
930.477	8339
930.581	8499
930.685	8427
930.79	8290
930.894	8313
930.998	8259
931.103	8450
931.207	8020
931.311	8016
931.415	7970
931.519	7792
931.623	7742
