Data from test_V78500241_1918.txt Node
Date: Fri Mar 25 14:47:04 CST 2022
User: usil
Spectrometer: V785-0024
Trigger mode: 0
Integration Time (sec): 4.000000E-1
Scans to average: 1
Nonlinearity correction enabled: false
Boxcar width: 0
Storing dark spectrum: false
XAxis mode: Wavelengths
Number of Pixels in Spectrum: 1024
>>>>>Begin Spectral Data<<<<<
801.071	22025
801.214	22006
801.356	21785
801.499	21663
801.641	21450
801.783	21526
801.926	21530
802.068	21488
802.211	21447
802.353	21195
802.496	21036
802.638	20914
802.78	20929
802.923	20891
803.065	20819
803.208	20842
803.35	20815
803.492	20929
803.635	20891
803.777	20872
803.919	20807
804.061	21123
804.204	20883
804.346	20731
804.488	20655
804.63	20895
804.773	20625
804.915	20716
805.057	20857
805.199	20842
805.341	20758
805.483	20872
805.626	20769
805.768	20579
805.91	20804
806.052	20724
806.194	20716
806.336	20834
806.478	20838
806.62	20613
806.762	20834
806.904	20883
807.046	21093
807.188	21043
807.33	21077
807.472	21119
807.614	20868
807.756	21032
807.898	20853
808.04	20708
808.182	20876
808.324	20823
808.465	20834
808.607	20952
808.749	21218
808.891	21112
809.033	21169
809.174	21214
809.316	21005
809.458	21055
809.6	20990
809.741	21226
809.883	21222
810.025	21150
810.166	21424
810.308	21317
810.45	21241
810.591	21131
810.733	20986
810.875	20834
811.016	20800
811.158	20792
811.299	20796
811.441	21131
811.582	20895
811.724	20891
811.865	20918
812.007	20899
812.148	20792
812.29	20937
812.431	21036
812.573	21085
812.714	21279
812.855	21336
812.997	21454
813.138	21625
813.279	21530
813.421	21488
813.562	21249
813.703	21077
813.845	20967
813.986	20739
814.127	20598
814.268	20469
814.41	20446
814.551	20522
814.692	20423
814.833	20343
814.974	20446
815.115	20412
815.256	20294
815.397	20332
815.539	20282
815.68	20199
815.821	19989
815.962	20149
816.103	20263
816.244	19932
816.385	19898
816.526	19799
816.666	19715
816.807	19578
816.948	19556
817.089	19670
817.23	19643
817.371	19392
817.512	19552
817.653	19544
817.793	19422
817.934	19616
818.075	19605
818.216	19674
818.356	19537
818.497	19312
818.638	19221
818.778	19270
818.919	19225
819.06	19278
819.2	19358
819.341	19563
819.481	19388
819.622	19556
819.762	19704
819.903	19693
820.043	19677
820.184	19559
820.324	19552
820.465	19597
820.605	19460
820.746	19510
820.886	19384
821.026	19483
821.167	19483
821.307	19502
821.447	19434
821.588	19293
821.728	19202
821.868	19099
822.008	18989
822.149	18951
822.289	18897
822.429	18688
822.569	18555
822.709	18570
822.849	18422
822.99	18357
823.13	18422
823.27	18357
823.41	18205
823.55	18190
823.69	18254
823.83	18342
823.97	18213
824.11	17992
824.25	17958
824.389	18019
824.529	18041
824.669	18038
824.809	18155
824.949	18110
825.089	18053
825.228	17942
825.368	17741
825.508	17726
825.648	17775
825.787	17794
825.927	17832
826.067	17874
826.206	17745
826.346	17847
826.485	17767
826.625	17748
826.765	17882
826.904	17836
827.044	17649
827.183	17684
827.323	17414
827.462	17509
827.601	17543
827.741	17474
827.88	17596
828.02	17383
828.159	17524
828.298	17539
828.437	17570
828.577	17383
828.716	17657
828.855	17433
828.994	17337
829.134	17185
829.273	17353
829.412	17143
829.551	17208
829.69	17254
829.829	17269
829.968	17341
830.107	17353
830.246	17269
830.385	17239
830.524	17200
830.663	17022
830.802	16972
830.941	16923
831.08	16866
831.219	16949
831.357	16877
831.496	17025
831.635	16877
831.774	16778
831.913	16812
832.051	16577
832.19	16729
832.329	16691
832.467	16603
832.606	16538
832.744	16592
832.883	16542
833.022	16459
833.16	16481
833.299	16630
833.437	16577
833.576	16683
833.714	16763
833.852	16691
833.991	16713
834.129	16797
834.267	16736
834.406	16584
834.544	16660
834.682	16622
834.821	16634
834.959	16740
835.097	16607
835.235	16717
835.373	16649
835.511	16653
835.65	16481
835.788	16561
835.926	16440
836.064	16299
836.202	16394
836.34	16607
836.478	16664
836.615	16523
836.753	16599
836.891	16664
837.029	16565
837.167	16493
837.305	16421
837.443	16478
837.58	16360
837.718	16398
837.856	16500
837.993	16360
838.131	16405
838.269	16337
838.406	16325
838.544	16280
838.681	16253
838.819	16177
838.956	15865
839.094	15922
839.231	15998
839.369	16090
839.506	16363
839.643	16215
839.781	16025
839.918	15911
840.055	15934
840.193	16006
840.33	15895
840.467	15941
840.604	15956
840.742	16192
840.879	15857
841.016	15926
841.153	15956
841.29	16059
841.427	16048
841.564	15998
841.701	16025
841.838	15903
841.975	15850
842.112	15895
842.249	15846
842.385	15713
842.522	15930
842.659	15736
842.796	15781
842.933	15728
843.069	15656
843.206	15698
843.343	15766
843.479	15778
843.616	15724
843.752	15568
843.889	15542
844.025	15622
844.162	15545
844.298	15641
844.435	15595
844.571	15462
844.708	15564
844.844	15747
844.98	15724
845.117	15599
845.253	15519
845.389	15443
845.525	15485
845.661	15348
845.798	15336
845.934	15325
846.07	15344
846.206	15351
846.342	15382
846.478	15416
846.614	15199
846.75	15036
846.886	15123
847.022	15203
847.158	15176
847.294	15131
847.429	15085
847.565	15009
847.701	15492
847.837	14899
847.972	14826
848.108	14906
848.244	14864
848.379	14826
848.515	14625
848.65	14743
848.786	14716
848.921	14689
849.057	14743
849.192	14857
849.328	14754
849.463	14705
849.598	14648
849.734	14708
849.869	14423
850.004	14427
850.14	14579
850.275	14530
850.41	14374
850.545	14362
850.68	14404
850.815	14457
850.95	14465
851.085	14629
851.22	14571
851.355	14457
851.49	14385
851.625	14446
851.76	14419
851.895	14282
852.03	14370
852.165	14427
852.299	14568
852.434	14579
852.569	14533
852.703	14412
852.838	14511
852.973	14667
853.107	14648
853.242	14412
853.376	14393
853.511	14172
853.645	14339
853.78	14476
853.914	14457
854.048	14267
854.183	14252
854.317	14305
854.451	14442
854.585	14404
854.72	14214
854.854	14408
854.988	14237
855.122	14332
855.256	14218
855.39	14324
855.524	14393
855.658	14396
855.792	14332
855.926	14377
856.06	14461
856.194	14385
856.327	14362
856.461	14210
856.595	14351
856.729	14400
856.862	14476
856.996	14389
857.13	14446
857.263	14476
857.397	14434
857.53	14377
857.664	14415
857.797	14412
857.931	14476
858.064	14309
858.197	14507
858.331	14377
858.464	14362
858.597	14142
858.731	14305
858.864	14336
858.997	14336
859.13	14408
859.263	14377
859.396	14495
859.529	14351
859.662	14290
859.795	14305
859.928	14313
860.061	14495
860.194	14533
860.327	14298
860.46	14221
860.592	14400
860.725	14465
860.858	14533
860.99	14328
861.123	14343
861.256	14332
861.388	14389
861.521	15203
861.653	14218
861.786	14183
861.918	14206
862.05	14286
862.183	14282
862.315	14332
862.447	14358
862.58	14172
862.712	14149
862.844	14157
862.976	14134
863.108	14221
863.24	14511
863.372	14001
863.504	14145
863.636	14100
863.768	14199
863.9	14134
864.032	14050
864.164	14123
864.296	14183
864.428	14092
864.559	14218
864.691	14199
864.823	14142
864.954	14225
865.086	14248
865.217	14161
865.349	14054
865.48	14088
865.612	14180
865.743	14157
865.875	14027
866.006	14103
866.137	14111
866.269	14134
866.4	14130
866.531	14062
866.662	13989
866.793	14092
866.924	14088
867.055	14103
867.186	14130
867.317	14111
867.448	13970
867.579	14088
867.71	13989
867.841	13959
867.972	14107
868.103	14005
868.233	14069
868.364	14134
868.495	14168
868.625	14294
868.756	14393
868.886	14240
869.017	14370
869.147	14465
869.278	14446
869.408	14423
869.539	14480
869.669	14396
869.799	14370
869.929	14503
870.06	14476
870.19	14689
870.32	14545
870.45	14598
870.58	14655
870.71	14883
870.84	14868
870.97	14792
871.1	14773
871.23	14933
871.36	14914
871.489	14758
871.619	14929
871.749	14963
871.879	14944
872.008	15005
872.138	15028
872.267	15020
872.397	14788
872.526	14777
872.656	14731
872.785	14823
872.915	14975
873.044	14982
873.173	15097
873.303	15062
873.432	15062
873.561	15135
873.69	14994
873.819	14990
873.948	15062
874.077	15093
874.206	14990
874.335	15062
874.464	15089
874.593	15249
874.722	15252
874.851	15329
874.979	15420
875.108	15332
875.237	15272
875.365	15199
875.494	15321
875.623	15344
875.751	15291
875.88	15245
876.008	15382
876.136	15580
876.265	15694
876.393	15941
876.521	15865
876.65	15816
876.778	15800
876.906	15584
877.034	15641
877.162	15842
877.29	15652
877.418	15762
877.546	15747
877.674	15808
877.802	15713
877.93	15781
878.058	15656
878.185	15614
878.313	15690
878.441	15732
878.568	15526
878.696	15755
878.824	15705
878.951	15728
879.079	15945
879.206	16093
879.333	15945
879.461	15717
879.588	15930
879.715	15934
879.842	16025
879.97	15797
880.097	15660
880.224	15485
880.351	15637
880.478	15656
880.605	15591
880.732	15526
880.859	15785
880.986	15576
881.112	15629
881.239	15424
881.366	15279
881.493	15252
881.619	15207
881.746	15256
881.872	15222
881.999	15138
882.125	15188
882.252	15313
882.378	15298
882.505	15351
882.631	15287
882.757	15005
882.883	15176
883.01	15081
883.136	15024
883.262	14921
883.388	14883
883.514	15058
883.64	15116
883.766	14960
883.892	14857
884.018	14921
884.143	15062
884.269	15104
884.395	14777
884.52	14613
884.646	14758
884.772	14667
884.897	14701
885.023	14708
885.148	14868
885.274	14891
885.399	14815
885.524	14765
885.65	14762
885.775	14727
885.9	14686
886.025	14872
886.15	14880
886.275	14731
886.4	14686
886.525	14781
886.65	14629
886.775	14716
886.9	14880
887.025	15005
887.149	14872
887.274	14659
887.399	14632
887.523	14469
887.648	14518
887.773	14446
887.897	14682
888.021	14724
888.146	14442
888.27	14655
888.395	14705
888.519	14689
888.643	14667
888.767	14659
888.891	14549
889.015	14381
889.139	14389
889.263	14454
889.387	14579
889.511	14689
889.635	14552
889.759	14427
889.883	14419
890.006	14374
890.13	14469
890.254	14298
890.377	14366
890.501	14362
890.624	14199
890.748	14343
890.871	14142
890.995	14225
891.118	14073
891.241	14157
891.364	14298
891.488	14263
891.611	14172
891.734	14149
891.857	14214
891.98	14149
892.103	14233
892.226	14210
892.349	14195
892.471	13932
892.594	14069
892.717	14100
892.839	14092
892.962	14134
893.085	14199
893.207	14149
893.33	14016
893.452	14096
893.575	14256
893.697	14199
893.819	14278
893.941	14305
894.064	14339
894.186	14100
894.308	14206
894.43	14298
894.552	14309
894.674	14275
894.796	14134
894.918	14183
895.04	14187
895.161	14218
895.283	14275
895.405	14221
895.526	14134
895.648	14218
895.769	14210
895.891	14298
896.012	14305
896.134	14427
896.255	14313
896.376	14286
896.498	14256
896.619	14385
896.74	14294
896.861	14343
896.982	14735
897.103	14861
897.224	14670
897.345	14507
897.466	14526
897.587	14575
897.708	14682
897.828	14670
897.949	14541
898.07	14533
898.19	14610
898.311	14667
898.431	14579
898.552	14667
898.672	14834
898.792	14746
898.913	14712
899.033	14526
899.153	14473
899.273	14461
899.393	14613
899.513	14556
899.633	14533
899.753	14533
899.873	14473
899.993	14651
900.113	14484
900.232	14610
900.352	14514
900.472	14442
900.591	14324
900.711	14362
900.83	14385
900.95	14431
901.069	14427
901.189	14252
901.308	14073
901.427	14100
901.546	14005
901.665	14081
901.784	13993
901.904	13928
902.023	13814
902.141	13628
902.26	13594
902.379	13715
902.498	13605
902.617	13556
902.735	13651
902.854	13616
902.973	13556
903.091	13327
903.21	13274
903.328	13285
903.446	13316
903.565	13175
903.683	13152
903.801	13149
903.919	13209
904.038	13122
904.156	13008
904.274	13053
904.392	13023
904.51	12977
904.627	12973
904.745	13069
904.863	13053
904.981	12764
905.098	12783
905.216	12654
905.334	12722
905.451	12791
905.569	12696
905.686	12741
905.803	12726
905.921	12403
906.038	12688
906.155	12479
906.272	12479
906.389	12479
906.506	12270
906.623	12277
906.74	12292
906.857	12182
906.974	12232
907.091	12342
907.208	12513
907.324	12270
907.441	12262
907.557	12110
907.674	12045
907.79	12038
907.907	11954
908.023	12015
908.139	12026
908.256	11954
908.372	11980
908.488	12011
908.604	11741
908.72	11817
908.836	11824
908.952	11836
909.068	11832
909.184	11927
909.3	11786
909.415	11798
909.531	11897
909.647	11623
909.762	11512
909.878	11490
909.993	11672
910.108	11573
910.224	11570
910.339	11471
910.454	11501
910.57	11402
910.685	11425
910.8	11653
910.915	11570
911.03	11440
911.145	11360
911.259	11239
911.374	11258
911.489	11216
911.604	11151
911.718	11041
911.833	10999
911.947	10957
912.062	10809
912.176	11045
912.291	11033
912.405	10949
912.519	11159
912.633	11258
912.748	11102
912.862	11090
912.976	10866
913.09	10763
913.204	10820
913.318	10934
913.431	11014
913.545	10972
913.659	10980
913.772	10873
913.886	10854
914	10717
914.113	10892
914.226	10957
914.34	10759
914.453	10729
914.566	10881
914.68	10736
914.793	10729
914.906	10626
915.019	10481
915.132	10432
915.245	10542
915.358	10481
915.47	10565
915.583	10527
915.696	10573
915.809	10607
915.921	10683
916.034	10470
916.146	10497
916.259	10413
916.371	10599
916.483	10592
916.595	10440
916.708	10443
916.82	10527
916.932	10440
917.044	10390
917.156	10470
917.268	10390
917.38	10318
917.491	10284
917.603	10432
917.715	10485
917.826	10390
917.938	10318
918.049	10249
918.161	10329
918.272	10478
918.384	10531
918.495	10352
918.606	10272
918.717	10181
918.828	10303
918.939	10284
919.05	10158
919.161	10219
919.272	10063
919.383	10074
919.494	10314
919.604	10451
919.715	10284
919.826	10280
919.936	10257
920.047	10337
920.157	10306
920.267	10470
920.378	10341
920.488	10272
920.598	10485
920.708	10588
920.818	10421
920.928	10398
921.038	10584
921.148	10565
921.258	10299
921.368	10265
921.477	10101
921.587	10063
921.697	10044
921.806	10139
921.916	9918
922.025	9842
922.134	9808
922.244	9781
922.353	9819
922.462	9705
922.571	9663
922.68	9564
922.789	9408
922.898	9549
923.007	9526
923.116	9553
923.224	9477
923.333	9435
923.442	9481
923.55	9367
923.659	9401
923.767	9477
923.876	9336
923.984	9367
924.092	9348
924.201	9340
924.309	9359
924.417	9408
924.525	9321
924.633	9340
924.741	10246
924.849	9077
924.956	9283
925.064	9157
925.172	9180
925.279	9112
925.387	9131
925.494	9127
925.602	9291
925.709	9199
925.816	9108
925.924	9176
926.031	9218
926.138	9203
926.245	9233
926.352	9051
926.459	9180
926.566	9203
926.673	9097
926.779	8982
926.886	8990
926.993	8864
927.099	8914
927.206	8861
927.312	8845
927.419	8891
927.525	8823
927.631	8921
927.737	8773
927.843	8811
927.95	8686
928.056	8750
928.162	8830
928.267	8887
928.373	9420
928.479	8845
928.585	8556
928.69	8720
928.796	8758
928.901	8617
929.007	8537
929.112	8648
929.218	8670
929.323	8571
929.428	8598
929.533	8674
929.638	8518
929.743	8530
929.848	8651
929.953	8541
930.058	8499
930.163	8294
930.267	8320
930.372	8518
930.477	8275
930.581	8579
930.685	8495
930.79	8279
930.894	8351
930.998	8244
931.103	8393
931.207	8073
931.311	8012
931.415	8020
931.519	7734
931.623	7727
