Data from test_V78500241_1705.txt Node
Date: Fri Mar 25 14:45:35 CST 2022
User: usil
Spectrometer: V785-0024
Trigger mode: 0
Integration Time (sec): 4.000000E-1
Scans to average: 1
Nonlinearity correction enabled: false
Boxcar width: 0
Storing dark spectrum: false
XAxis mode: Wavelengths
Number of Pixels in Spectrum: 1024
>>>>>Begin Spectral Data<<<<<
801.071	22226
801.214	21968
801.356	21831
801.499	21690
801.641	21526
801.783	21603
801.926	21629
802.068	21538
802.211	21473
802.353	21359
802.496	21275
802.638	21222
802.78	21127
802.923	21089
803.065	20845
803.208	20876
803.35	20864
803.492	21051
803.635	21066
803.777	20944
803.919	20937
804.061	21199
804.204	20998
804.346	20754
804.488	20701
804.63	20842
804.773	20845
804.915	20834
805.057	21020
805.199	20872
805.341	20921
805.483	20948
805.626	20986
805.768	20826
805.91	20800
806.052	20948
806.194	20746
806.336	20918
806.478	20883
806.62	20796
806.762	20933
806.904	21116
807.046	21272
807.188	21169
807.33	21222
807.472	21207
807.614	21108
807.756	21066
807.898	20941
808.04	20971
808.182	20921
808.324	20937
808.465	21051
808.607	21154
808.749	21268
808.891	21298
809.033	21408
809.174	21412
809.316	21241
809.458	21283
809.6	21100
809.741	21374
809.883	21317
810.025	21492
810.166	21412
810.308	21568
810.45	21405
810.591	21150
810.733	21154
810.875	21096
811.016	20937
811.158	20982
811.299	20937
811.441	21252
811.582	21214
811.724	20956
811.865	20971
812.007	21009
812.148	21138
812.29	21070
812.431	21218
812.573	21363
812.714	21401
812.855	21545
812.997	21568
813.138	21671
813.279	21717
813.421	21485
813.562	21526
813.703	21313
813.845	21085
813.986	21081
814.127	20746
814.268	20602
814.41	20629
814.551	20564
814.692	20621
814.833	20507
814.974	20507
815.115	20606
815.256	20499
815.397	20199
815.539	20381
815.68	20301
815.821	20320
815.962	20294
816.103	20157
816.244	20134
816.385	20122
816.526	20081
816.666	19849
816.807	19894
816.948	19852
817.089	19795
817.23	19814
817.371	19738
817.512	19700
817.653	19670
817.793	19685
817.934	19662
818.075	19772
818.216	19685
818.356	19643
818.497	19525
818.638	19362
818.778	19388
818.919	19362
819.06	19411
819.2	19472
819.341	19620
819.481	19556
819.622	19750
819.762	19974
819.903	19856
820.043	19780
820.184	19753
820.324	19632
820.465	19769
820.605	19658
820.746	19708
820.886	19655
821.026	19655
821.167	19677
821.307	19826
821.447	19590
821.588	19525
821.728	19346
821.868	19244
822.008	19126
822.149	19095
822.289	19206
822.429	18871
822.569	18768
822.709	18776
822.849	18578
822.99	18661
823.13	18555
823.27	18479
823.41	18437
823.55	18327
823.69	18448
823.83	18426
823.97	18304
824.11	18178
824.25	18129
824.389	18190
824.529	18266
824.669	18190
824.809	18323
824.949	18258
825.089	18144
825.228	18125
825.368	17984
825.508	17988
825.648	18015
825.787	17931
825.927	17988
826.067	17836
826.206	17878
826.346	17977
826.485	17916
826.625	17893
826.765	18007
826.904	18060
827.044	17828
827.183	17722
827.323	17623
827.462	17729
827.601	17737
827.741	17535
827.88	17665
828.02	17501
828.159	17608
828.298	17726
828.437	17863
828.577	17608
828.716	17764
828.855	17478
828.994	17433
829.134	17417
829.273	17490
829.412	17459
829.551	17353
829.69	17318
829.829	17440
829.968	17512
830.107	17474
830.246	17417
830.385	17364
830.524	17406
830.663	17337
830.802	17258
830.941	16980
831.08	16972
831.219	17105
831.357	17064
831.496	17231
831.635	16968
831.774	16911
831.913	16869
832.051	16915
832.19	16904
832.329	16831
832.467	16797
832.606	16755
832.744	16752
832.883	16660
833.022	16725
833.16	16752
833.299	16706
833.437	16698
833.576	16774
833.714	16786
833.852	16729
833.991	16915
834.129	16824
834.267	16858
834.406	16793
834.544	16858
834.682	16767
834.821	16797
834.959	16965
835.097	16782
835.235	16839
835.373	16847
835.511	16790
835.65	16626
835.788	16588
835.926	16603
836.064	16489
836.202	16561
836.34	16729
836.478	16668
836.615	16740
836.753	16733
836.891	16717
837.029	16710
837.167	16637
837.305	16588
837.443	16687
837.58	16497
837.718	16618
837.856	16542
837.993	16432
838.131	16504
838.269	16398
838.406	16394
838.544	16405
838.681	16333
838.819	16223
838.956	16166
839.094	16029
839.231	16055
839.369	16219
839.506	16504
839.643	16531
839.781	16162
839.918	16074
840.055	16093
840.193	16059
840.33	15991
840.467	16150
840.604	16246
840.742	16386
840.879	15907
841.016	16010
841.153	16036
841.29	16204
841.427	16131
841.564	16234
841.701	16093
841.838	16059
841.975	16082
842.112	16002
842.249	15941
842.385	15835
842.522	16013
842.659	15964
842.796	15766
842.933	15789
843.069	15831
843.206	15880
843.343	15998
843.479	15876
843.616	15922
843.752	15739
843.889	15610
844.025	15850
844.162	15709
844.298	15800
844.435	15690
844.571	15682
844.708	15770
844.844	15808
844.98	15911
845.117	15743
845.253	15561
845.389	15507
845.525	15553
845.661	15622
845.798	15420
845.934	15534
846.07	15458
846.206	15637
846.342	15561
846.478	15458
846.614	15199
846.75	15222
846.886	15260
847.022	15416
847.158	15222
847.294	15367
847.429	15256
847.565	15097
847.701	15397
847.837	15009
847.972	14948
848.108	15036
848.244	15051
848.379	14864
848.515	14826
848.65	14876
848.786	14796
848.921	14868
849.057	14914
849.192	15017
849.328	14804
849.463	14796
849.598	14830
849.734	14754
849.869	14632
850.004	14648
850.14	14632
850.275	14667
850.41	14530
850.545	14606
850.68	14602
850.815	14610
850.95	14583
851.085	14754
851.22	14659
851.355	14686
851.49	14484
851.625	14625
851.76	14613
851.895	14469
852.03	14511
852.165	14507
852.299	14617
852.434	14724
852.569	14655
852.703	14507
852.838	14613
852.973	14743
853.107	14708
853.242	14522
853.376	14488
853.511	14294
853.645	14457
853.78	14590
853.914	14488
854.048	14442
854.183	14469
854.317	14461
854.451	14678
854.585	14450
854.72	14328
854.854	14552
854.988	14343
855.122	14450
855.256	14271
855.39	14438
855.524	14522
855.658	14473
855.792	14499
855.926	14514
856.06	14434
856.194	14545
856.327	14495
856.461	14480
856.595	14320
856.729	14438
856.862	14613
856.996	14511
857.13	14457
857.263	14541
857.397	14484
857.53	14423
857.664	14450
857.797	14552
857.931	14492
858.064	14469
858.197	14568
858.331	14434
858.464	14419
858.597	14313
858.731	14434
858.864	14541
858.997	14400
859.13	14514
859.263	14461
859.396	14629
859.529	14431
859.662	14336
859.795	14438
859.928	14423
860.061	14659
860.194	14636
860.327	14511
860.46	14396
860.592	14568
860.725	14617
860.858	14686
860.99	14457
861.123	14446
861.256	14385
861.388	14358
861.521	15005
861.653	14396
861.786	14206
861.918	14328
862.05	14389
862.183	14396
862.315	14454
862.447	14530
862.58	14457
862.712	14225
862.844	14256
862.976	14355
863.108	14244
863.24	14743
863.372	14123
863.504	14210
863.636	14161
863.768	14305
863.9	14275
864.032	14073
864.164	14176
864.296	14256
864.428	14339
864.559	14339
864.691	14256
864.823	14286
864.954	14282
865.086	14259
865.217	14240
865.349	14191
865.48	14229
865.612	14149
865.743	14343
865.875	14237
866.006	14161
866.137	14218
866.269	14172
866.4	14157
866.531	14183
866.662	14046
866.793	14225
866.924	14199
867.055	14263
867.186	14172
867.317	14183
867.448	14088
867.579	14119
867.71	14077
867.841	14062
867.972	14202
868.103	14210
868.233	14206
868.364	14290
868.495	14252
868.625	14518
868.756	14476
868.886	14358
869.017	14381
869.147	14541
869.278	14651
869.408	14484
869.539	14469
869.669	14613
869.799	14495
869.929	14682
870.06	14651
870.19	14724
870.32	14796
870.45	14777
870.58	14887
870.71	15013
870.84	14994
870.97	14834
871.1	14937
871.23	14990
871.36	14967
871.489	14876
871.619	15020
871.749	14921
871.879	15142
872.008	15146
872.138	14998
872.267	15039
872.397	14899
872.526	14887
872.656	14811
872.785	14902
872.915	14986
873.044	15192
873.173	15077
873.303	15112
873.432	15119
873.561	15264
873.69	15028
873.819	14967
873.948	15211
874.077	14994
874.206	15100
874.335	15161
874.464	15199
874.593	15397
874.722	15344
874.851	15416
874.979	15428
875.108	15462
875.237	15317
875.365	15389
875.494	15405
875.623	15393
875.751	15397
875.88	15401
876.008	15606
876.136	15576
876.265	15781
876.393	15804
876.521	15922
876.65	15911
876.778	15762
876.906	15781
877.034	15781
877.162	15793
877.29	15690
877.418	15850
877.546	15899
877.674	15789
877.802	15842
877.93	15835
878.058	15789
878.185	15663
878.313	15812
878.441	15937
878.568	15618
878.696	15667
878.824	15854
878.951	15987
879.079	15998
879.206	16105
879.333	16048
879.461	15876
879.588	15865
879.715	16051
879.842	16010
879.97	15869
880.097	15637
880.224	15739
880.351	15797
880.478	15698
880.605	15572
880.732	15667
880.859	15991
880.986	15686
881.112	15622
881.239	15603
881.366	15454
881.493	15252
881.619	15332
881.746	15370
881.872	15287
881.999	15264
882.125	15260
882.252	15332
882.378	15477
882.505	15443
882.631	15291
882.757	15135
882.883	15188
883.01	15138
883.136	15100
883.262	15074
883.388	14986
883.514	15173
883.64	15180
883.766	14994
883.892	15020
884.018	15055
884.143	15077
884.269	15287
884.395	14921
884.52	14811
884.646	14895
884.772	14788
884.897	14701
885.023	14944
885.148	14967
885.274	15081
885.399	14895
885.524	14914
885.65	14876
885.775	14849
885.9	14781
886.025	14994
886.15	14914
886.275	14724
886.4	14693
886.525	14883
886.65	14796
886.775	14842
886.9	14960
887.025	15051
887.149	14849
887.274	14674
887.399	14659
887.523	14667
887.648	14724
887.773	14522
887.897	14762
888.021	14682
888.146	14667
888.27	14705
888.395	14864
888.519	14743
888.643	14781
888.767	14800
888.891	14571
889.015	14533
889.139	14549
889.263	14503
889.387	14621
889.511	14705
889.635	14651
889.759	14511
889.883	14526
890.006	14560
890.13	14571
890.254	14343
890.377	14408
890.501	14381
890.624	14324
890.748	14355
890.871	14187
890.995	14218
891.118	14161
891.241	14237
891.364	14240
891.488	14320
891.611	14195
891.734	14267
891.857	14301
891.98	14267
892.103	14370
892.226	14221
892.349	14233
892.471	14096
892.594	14126
892.717	14164
892.839	14210
892.962	14256
893.085	14233
893.207	14195
893.33	14054
893.452	14221
893.575	14248
893.697	14332
893.819	14434
893.941	14469
894.064	14396
894.186	14225
894.308	14168
894.43	14423
894.552	14408
894.674	14351
894.796	14149
894.918	14256
895.04	14191
895.161	14442
895.283	14351
895.405	14206
895.526	14358
895.648	14377
895.769	14298
895.891	14389
896.012	14434
896.134	14461
896.255	14358
896.376	14400
896.498	14400
896.619	14408
896.74	14438
896.861	14499
896.982	14765
897.103	14819
897.224	14693
897.345	14594
897.466	14613
897.587	14571
897.708	14845
897.828	14629
897.949	14590
898.07	14568
898.19	14663
898.311	14788
898.431	14575
898.552	14758
898.672	14762
898.792	14811
898.913	14750
899.033	14678
899.153	14568
899.273	14446
899.393	14587
899.513	14629
899.633	14594
899.753	14629
899.873	14682
899.993	14693
900.113	14541
900.232	14651
900.352	14621
900.472	14473
900.591	14396
900.711	14446
900.83	14465
900.95	14461
901.069	14606
901.189	14393
901.308	14168
901.427	14191
901.546	14126
901.665	14107
901.784	14214
901.904	14111
902.023	13879
902.141	13761
902.26	13704
902.379	13849
902.498	13643
902.617	13674
902.735	13772
902.854	13651
902.973	13567
903.091	13460
903.21	13411
903.328	13392
903.446	13460
903.565	13259
903.683	13297
903.801	13232
903.919	13289
904.038	13285
904.156	13031
904.274	13187
904.392	13107
904.51	13042
904.627	13099
904.745	13175
904.863	13171
904.981	12840
905.098	12764
905.216	12783
905.334	12817
905.451	12795
905.569	12787
905.686	12840
905.803	12837
905.921	12589
906.038	12700
906.155	12593
906.272	12486
906.389	12506
906.506	12391
906.623	12372
906.74	12372
906.857	12239
906.974	12254
907.091	12388
907.208	12517
907.324	12414
907.441	12270
907.557	12224
907.674	12220
907.79	12110
907.907	12102
908.023	12159
908.139	12098
908.256	12030
908.372	12045
908.488	11874
908.604	11855
908.72	11794
908.836	11885
908.952	11843
909.068	11870
909.184	12060
909.3	11954
909.415	11859
909.531	11874
909.647	11680
909.762	11729
909.878	11608
909.993	11615
910.108	11649
910.224	11596
910.339	11600
910.454	11661
910.57	11471
910.685	11379
910.8	11710
910.915	11676
911.03	11528
911.145	11376
911.259	11353
911.374	11429
911.489	11307
911.604	11140
911.718	11102
911.833	11105
911.947	10957
912.062	10908
912.176	10991
912.291	11132
912.405	11147
912.519	11326
912.633	11265
912.748	11151
912.862	11170
912.976	10908
913.09	10824
913.204	10927
913.318	11037
913.431	11041
913.545	11143
913.659	11124
913.772	10980
913.886	10786
914	10858
914.113	10949
914.226	10923
914.34	10957
914.453	10740
914.566	10938
914.68	10801
914.793	10771
914.906	10580
915.019	10478
915.132	10558
915.245	10497
915.358	10550
915.47	10626
915.583	10641
915.696	10641
915.809	10714
915.921	10706
916.034	10508
916.146	10550
916.259	10409
916.371	10645
916.483	10634
916.595	10580
916.708	10512
916.82	10596
916.932	10580
917.044	10462
917.156	10440
917.268	10421
917.38	10466
917.491	10413
917.603	10436
917.715	10512
917.826	10592
917.938	10421
918.049	10322
918.161	10474
918.272	10527
918.384	10481
918.495	10459
918.606	10230
918.717	10299
918.828	10284
918.939	10303
919.05	10211
919.161	10257
919.272	10147
919.383	10230
919.494	10352
919.604	10550
919.715	10371
919.826	10219
919.936	10291
920.047	10417
920.157	10265
920.267	10481
920.378	10348
920.488	10333
920.598	10481
920.708	10694
920.818	10535
920.928	10443
921.038	10729
921.148	10538
921.258	10363
921.368	10325
921.477	10181
921.587	10177
921.697	10078
921.806	10207
921.916	10051
922.025	9865
922.134	9888
922.244	9740
922.353	9930
922.462	9808
922.571	9675
922.68	9603
922.789	9519
922.898	9603
923.007	9530
923.116	9606
923.224	9549
923.333	9515
923.442	9454
923.55	9374
923.659	9492
923.767	9481
923.876	9435
923.984	9519
924.092	9420
924.201	9428
924.309	9405
924.417	9416
924.525	9321
924.633	9428
924.741	10341
924.849	9230
924.956	9329
925.064	9233
925.172	9116
925.279	9222
925.387	9218
925.494	9161
925.602	9325
925.709	9344
925.816	9135
925.924	9203
926.031	9344
926.138	9165
926.245	9279
926.352	9074
926.459	9302
926.566	9253
926.673	9169
926.779	9055
926.886	9055
926.993	8929
927.099	8887
927.206	8906
927.312	8823
927.419	8906
927.525	8929
927.631	9013
927.737	8823
927.843	8800
927.95	8777
928.056	8773
928.162	8826
928.267	8868
928.373	9485
928.479	8910
928.585	8625
928.69	8804
928.796	8838
928.901	8708
929.007	8575
929.112	8769
929.218	8746
929.323	8625
929.428	8659
929.533	8735
929.638	8602
929.743	8598
929.848	8686
929.953	8560
930.058	8488
930.163	8389
930.267	8358
930.372	8514
930.477	8427
930.581	8686
930.685	8465
930.79	8282
930.894	8408
930.998	8366
931.103	8412
931.207	8100
931.311	8073
931.415	8050
931.519	7830
931.623	7814
