Data from test_V78500241_2632.txt Node
Date: Fri Mar 25 14:52:02 CST 2022
User: usil
Spectrometer: V785-0024
Trigger mode: 0
Integration Time (sec): 4.000000E-1
Scans to average: 1
Nonlinearity correction enabled: false
Boxcar width: 0
Storing dark spectrum: false
XAxis mode: Wavelengths
Number of Pixels in Spectrum: 1024
>>>>>Begin Spectral Data<<<<<
801.071	22082
801.214	21774
801.356	21667
801.499	21408
801.641	21488
801.783	21317
801.926	21397
802.068	21431
802.211	21146
802.353	21169
802.496	20990
802.638	20914
802.78	20800
802.923	20842
803.065	20579
803.208	20769
803.35	20750
803.492	20891
803.635	20857
803.777	20724
803.919	20830
804.061	21055
804.204	20701
804.346	20697
804.488	20579
804.63	20617
804.773	20526
804.915	20568
805.057	20697
805.199	20560
805.341	20644
805.483	20746
805.626	20769
805.768	20590
805.91	20583
806.052	20651
806.194	20476
806.336	20754
806.478	20575
806.62	20545
806.762	20587
806.904	20674
807.046	20906
807.188	20921
807.33	20960
807.472	20975
807.614	20826
807.756	20899
807.898	20727
808.04	20667
808.182	20796
808.324	20678
808.465	20571
808.607	20883
808.749	21005
808.891	21131
809.033	21226
809.174	21051
809.316	20868
809.458	20944
809.6	20902
809.741	20952
809.883	21009
810.025	21032
810.166	21135
810.308	21112
810.45	21032
810.591	20929
810.733	20963
810.875	20724
811.016	20716
811.158	20678
811.299	20853
811.441	20842
811.582	20830
811.724	20777
811.865	20564
812.007	20648
812.148	20629
812.29	20735
812.431	20944
812.573	21070
812.714	21161
812.855	21226
812.997	21294
813.138	21424
813.279	21294
813.421	21218
813.562	21195
813.703	20967
813.845	20853
813.986	20533
814.127	20408
814.268	20324
814.41	20237
814.551	20267
814.692	20271
814.833	20301
814.974	20347
815.115	20275
815.256	20111
815.397	20084
815.539	20149
815.68	20096
815.821	19875
815.962	20012
816.103	20058
816.244	19860
816.385	19818
816.526	19731
816.666	19483
816.807	19430
816.948	19384
817.089	19575
817.23	19521
817.371	19411
817.512	19411
817.653	19396
817.793	19327
817.934	19438
818.075	19521
818.216	19434
818.356	19274
818.497	19247
818.638	19084
818.778	19118
818.919	19190
819.06	19190
819.2	19282
819.341	19301
819.481	19304
819.622	19480
819.762	19643
819.903	19441
820.043	19460
820.184	19529
820.324	19377
820.465	19331
820.605	19476
820.746	19483
820.886	19221
821.026	19362
821.167	19358
821.307	19415
821.447	19301
821.588	19263
821.728	19099
821.868	18913
822.008	18817
822.149	18817
822.289	18802
822.429	18483
822.569	18475
822.709	18464
822.849	18292
822.99	18304
823.13	18296
823.27	18205
823.41	18060
823.55	18190
823.69	18171
823.83	18167
823.97	18045
824.11	17904
824.25	17748
824.389	17859
824.529	17950
824.669	17920
824.809	18087
824.949	17874
825.089	17912
825.228	17980
825.368	17707
825.508	17752
825.648	17707
825.787	17684
825.927	17729
826.067	17661
826.206	17619
826.346	17691
826.485	17710
826.625	17699
826.765	17832
826.904	17661
827.044	17455
827.183	17345
827.323	17345
827.462	17505
827.601	17433
827.741	17303
827.88	17311
828.02	17364
828.159	17258
828.298	17448
828.437	17429
828.577	17387
828.716	17414
828.855	17444
828.994	17185
829.134	17083
829.273	17060
829.412	17003
829.551	17025
829.69	17071
829.829	17170
829.968	17181
830.107	17193
830.246	17181
830.385	17029
830.524	17003
830.663	16927
830.802	16820
830.941	16710
831.08	16736
831.219	16896
831.357	16740
831.496	16919
831.635	16603
831.774	16774
831.913	16736
832.051	16588
832.19	16417
832.329	16569
832.467	16394
832.606	16443
832.744	16344
832.883	16497
833.022	16344
833.16	16459
833.299	16485
833.437	16398
833.576	16592
833.714	16523
833.852	16519
833.991	16466
834.129	16634
834.267	16531
834.406	16519
834.544	16546
834.682	16478
834.821	16432
834.959	16668
835.097	16398
835.235	16565
835.373	16577
835.511	16512
835.65	16470
835.788	16375
835.926	16166
836.064	16211
836.202	16181
836.34	16424
836.478	16516
836.615	16440
836.753	16413
836.891	16569
837.029	16424
837.167	16356
837.305	16382
837.443	16318
837.58	16261
837.718	16360
837.856	16291
837.993	16177
838.131	16390
838.269	16249
838.406	16291
838.544	16078
838.681	15960
838.819	16002
838.956	15892
839.094	15812
839.231	15918
839.369	16017
839.506	16299
839.643	16071
839.781	15854
839.918	15774
840.055	15850
840.193	15892
840.33	15739
840.467	15937
840.604	15800
840.742	16109
840.879	15720
841.016	15675
841.153	15755
841.29	15899
841.427	15895
841.564	15968
841.701	15857
841.838	15766
841.975	15808
842.112	15698
842.249	15545
842.385	15595
842.522	15793
842.659	15641
842.796	15599
842.933	15648
843.069	15500
843.206	15500
843.343	15686
843.479	15568
843.616	15625
843.752	15534
843.889	15485
844.025	15523
844.162	15344
844.298	15458
844.435	15443
844.571	15382
844.708	15424
844.844	15606
844.98	15591
845.117	15515
845.253	15523
845.389	15214
845.525	15374
845.661	15325
845.798	15207
845.934	15203
846.07	15135
846.206	15313
846.342	15264
846.478	15298
846.614	15074
846.75	14944
846.886	14933
847.022	15131
847.158	14986
847.294	14952
847.429	15024
847.565	14899
847.701	15245
847.837	14712
847.972	14716
848.108	14891
848.244	14792
848.379	14606
848.515	14621
848.65	14575
848.786	14564
848.921	14667
849.057	14746
849.192	14712
849.328	14651
849.463	14507
849.598	14545
849.734	14617
849.869	14408
850.004	14324
850.14	14465
850.275	14339
850.41	14195
850.545	14324
850.68	14366
850.815	14355
850.95	14278
851.085	14488
851.22	14419
851.355	14347
851.49	14332
851.625	14336
851.76	14336
851.895	14328
852.03	14221
852.165	14313
852.299	14301
852.434	14427
852.569	14313
852.703	14336
852.838	14473
852.973	14507
853.107	14431
853.242	14317
853.376	14195
853.511	14100
853.645	14202
853.78	14309
853.914	14263
854.048	14164
854.183	14138
854.317	14199
854.451	14381
854.585	14138
854.72	14195
854.854	14343
854.988	14191
855.122	14069
855.256	14100
855.39	14240
855.524	14244
855.658	14305
855.792	14282
855.926	14278
856.06	14263
856.194	14278
856.327	14210
856.461	14191
856.595	14218
856.729	14206
856.862	14355
856.996	14248
857.13	14305
857.263	14290
857.397	14256
857.53	14286
857.664	14286
857.797	14332
857.931	14229
858.064	14275
858.197	14408
858.331	14282
858.464	14218
858.597	14119
858.731	14275
858.864	14320
858.997	14176
859.13	14221
859.263	14275
859.396	14381
859.529	14229
859.662	14199
859.795	14202
859.928	14278
860.061	14396
860.194	14427
860.327	14206
860.46	14199
860.592	14290
860.725	14290
860.858	14256
860.99	14259
861.123	14157
861.256	14218
861.388	14202
861.521	14785
861.653	14035
861.786	14008
861.918	14142
862.05	14164
862.183	14191
862.315	14256
862.447	14218
862.58	14145
862.712	13989
862.844	13925
862.976	14020
863.108	14054
863.24	14503
863.372	14016
863.504	13974
863.636	14020
863.768	13970
863.9	13955
864.032	13890
864.164	14073
864.296	13944
864.428	14107
864.559	14183
864.691	14081
864.823	14035
864.954	14081
865.086	14073
865.217	14012
865.349	13936
865.48	14024
865.612	14084
865.743	14115
865.875	13986
866.006	13993
866.137	13928
866.269	14123
866.4	13951
866.531	13982
866.662	13921
866.793	13887
866.924	13932
867.055	13947
867.186	13898
867.317	13822
867.448	13890
867.579	13940
867.71	13841
867.841	13883
867.972	14012
868.103	14001
868.233	14069
868.364	14012
868.495	14005
868.625	14191
868.756	14271
868.886	14142
869.017	14252
869.147	14339
869.278	14370
869.408	14290
869.539	14275
869.669	14317
869.799	14256
869.929	14351
870.06	14339
870.19	14552
870.32	14549
870.45	14602
870.58	14636
870.71	14758
870.84	14750
870.97	14568
871.1	14682
871.23	14796
871.36	14868
871.489	14689
871.619	14746
871.749	14807
871.879	14864
872.008	14910
872.138	14838
872.267	14815
872.397	14781
872.526	14659
872.656	14731
872.785	14731
872.915	14880
873.044	14883
873.173	14929
873.303	14883
873.432	14944
873.561	14906
873.69	14872
873.819	14823
873.948	14857
874.077	14861
874.206	14906
874.335	14891
874.464	15039
874.593	15127
874.722	15100
874.851	15260
874.979	15188
875.108	15199
875.237	15184
875.365	15161
875.494	15195
875.623	15275
875.751	15241
875.88	15252
876.008	15325
876.136	15397
876.265	15576
876.393	15774
876.521	15675
876.65	15679
876.778	15599
876.906	15648
877.034	15584
877.162	15614
877.29	15542
877.418	15530
877.546	15720
877.674	15610
877.802	15656
877.93	15618
878.058	15580
878.185	15488
878.313	15599
878.441	15614
878.568	15462
878.696	15549
878.824	15648
878.951	15652
879.079	15774
879.206	15888
879.333	15732
879.461	15656
879.588	15610
879.715	15705
879.842	15956
879.97	15637
880.097	15500
880.224	15473
880.351	15538
880.478	15450
880.605	15519
880.732	15382
880.859	15694
880.986	15511
881.112	15507
881.239	15332
881.366	15298
881.493	15104
881.619	15195
881.746	15169
881.872	15184
881.999	15081
882.125	15062
882.252	15138
882.378	15226
882.505	15230
882.631	15081
882.757	15043
882.883	15039
883.01	14956
883.136	14823
883.262	14838
883.388	14773
883.514	15017
883.64	14948
883.766	14830
883.892	14720
884.018	14716
884.143	14891
884.269	15009
884.395	14754
884.52	14708
884.646	14629
884.772	14663
884.897	14613
885.023	14648
885.148	14792
885.274	14838
885.399	14769
885.524	14727
885.65	14724
885.775	14651
885.9	14644
886.025	14724
886.15	14731
886.275	14682
886.4	14579
886.525	14670
886.65	14594
886.775	14594
886.9	14712
887.025	14868
887.149	14701
887.274	14575
887.399	14415
887.523	14404
887.648	14351
887.773	14419
887.897	14560
888.021	14530
888.146	14396
888.27	14533
888.395	14545
888.519	14606
888.643	14545
888.767	14530
888.891	14431
889.015	14355
889.139	14305
889.263	14240
889.387	14450
889.511	14431
889.635	14473
889.759	14339
889.883	14317
890.006	14427
890.13	14404
890.254	14256
890.377	14225
890.501	14103
890.624	14172
890.748	14248
890.871	14153
890.995	14016
891.118	13928
891.241	14088
891.364	13989
891.488	14214
891.611	14077
891.734	14008
891.857	14039
891.98	14119
892.103	14138
892.226	14138
892.349	14035
892.471	13852
892.594	14058
892.717	14084
892.839	13986
892.962	14069
893.085	14221
893.207	14092
893.33	13955
893.452	13982
893.575	14069
893.697	13986
893.819	14278
893.941	14248
894.064	14267
894.186	14134
894.308	14054
894.43	14187
894.552	14214
894.674	14248
894.796	14031
894.918	14088
895.04	14096
895.161	14248
895.283	14195
895.405	14043
895.526	14157
895.648	14233
895.769	14134
895.891	14161
896.012	14358
896.134	14218
896.255	14237
896.376	14263
896.498	14206
896.619	14252
896.74	14240
896.861	14320
896.982	14556
897.103	14758
897.224	14492
897.345	14446
897.466	14393
897.587	14545
897.708	14621
897.828	14564
897.949	14495
898.07	14301
898.19	14457
898.311	14640
898.431	14541
898.552	14579
898.672	14739
898.792	14533
898.913	14571
899.033	14434
899.153	14476
899.273	14275
899.393	14396
899.513	14377
899.633	14396
899.753	14480
899.873	14282
899.993	14488
900.113	14385
900.232	14442
900.352	14450
900.472	14408
900.591	14298
900.711	14317
900.83	14233
900.95	14317
901.069	14457
901.189	14278
901.308	14027
901.427	13982
901.546	13944
901.665	14054
901.784	13959
901.904	13852
902.023	13784
902.141	13529
902.26	13556
902.379	13597
902.498	13521
902.617	13514
902.735	13552
902.854	13506
902.973	13430
903.091	13206
903.21	13263
903.328	13335
903.446	13198
903.565	13107
903.683	13190
903.801	12920
903.919	13046
904.038	13091
904.156	12859
904.274	12947
904.392	12844
904.51	12806
904.627	12996
904.745	12973
904.863	12932
904.981	12753
905.098	12620
905.216	12555
905.334	12662
905.451	12544
905.569	12597
905.686	12692
905.803	12597
905.921	12502
906.038	12536
906.155	12551
906.272	12357
906.389	12456
906.506	12175
906.623	12213
906.74	12194
906.857	12022
906.974	12209
907.091	12327
907.208	12334
907.324	12273
907.441	12125
907.557	11946
907.674	11935
907.79	11878
907.907	11931
908.023	12019
908.139	11977
908.256	11942
908.372	11843
908.488	11901
908.604	11710
908.72	11657
908.836	11668
908.952	11676
909.068	11733
909.184	11741
909.3	11737
909.415	11737
909.531	11688
909.647	11524
909.762	11520
909.878	11474
909.993	11440
910.108	11516
910.224	11429
910.339	11459
910.454	11307
910.57	11387
910.685	11296
910.8	11535
910.915	11417
911.03	11345
911.145	11124
911.259	11216
911.374	11261
911.489	11098
911.604	11079
911.718	10896
911.833	10968
911.947	10953
912.062	10774
912.176	10908
912.291	10904
912.405	10908
912.519	11124
912.633	11166
912.748	11041
912.862	10953
912.976	10850
913.09	10755
913.204	10729
913.318	10797
913.431	10915
913.545	10953
913.659	10881
913.772	10820
913.886	10733
914	10611
914.113	10835
914.226	10801
914.34	10759
914.453	10626
914.566	10828
914.68	10599
914.793	10645
914.906	10508
915.019	10421
915.132	10322
915.245	10405
915.358	10459
915.47	10462
915.583	10459
915.696	10462
915.809	10542
915.921	10558
916.034	10466
916.146	10386
916.259	10413
916.371	10500
916.483	10478
916.595	10341
916.708	10363
916.82	10333
916.932	10367
917.044	10337
917.156	10379
917.268	10268
917.38	10325
917.491	10284
917.603	10284
917.715	10356
917.826	10436
917.938	10204
918.049	10166
918.161	10238
918.272	10493
918.384	10489
918.495	10356
918.606	10173
918.717	10032
918.828	10272
918.939	10246
919.05	10101
919.161	10169
919.272	9915
919.383	10074
919.494	10246
919.604	10409
919.715	10139
919.826	10109
919.936	10166
920.047	10284
920.157	10276
920.267	10417
920.378	10185
920.488	10188
920.598	10466
920.708	10542
920.818	10466
920.928	10447
921.038	10580
921.148	10561
921.258	10303
921.368	10185
921.477	10101
921.587	10131
921.697	10017
921.806	10116
921.916	10010
922.025	9850
922.134	9800
922.244	9698
922.353	9838
922.462	9675
922.571	9610
922.68	9511
922.789	9454
922.898	9488
923.007	9420
923.116	9523
923.224	9523
923.333	9378
923.442	9310
923.55	9287
923.659	9386
923.767	9431
923.876	9367
923.984	9515
924.092	9279
924.201	9344
924.309	9340
924.417	9416
924.525	9332
924.633	9268
924.741	10071
924.849	9157
924.956	9321
925.064	9142
925.172	9112
925.279	9108
925.387	9150
925.494	9184
925.602	9233
925.709	9161
925.816	9085
925.924	9138
926.031	9275
926.138	9161
926.245	9253
926.352	9089
926.459	9154
926.566	9169
926.673	9089
926.779	8994
926.886	8967
926.993	8834
927.099	8845
927.206	8781
927.312	8777
927.419	8872
927.525	8834
927.631	8914
927.737	8739
927.843	8830
927.95	8610
928.056	8769
928.162	8773
928.267	8788
928.373	9416
928.479	8899
928.585	8583
928.69	8762
928.796	8727
928.901	8629
929.007	8571
929.112	8674
929.218	8598
929.323	8518
929.428	8518
929.533	8743
929.638	8427
929.743	8575
929.848	8610
929.953	8568
930.058	8457
930.163	8339
930.267	8317
930.372	8499
930.477	8309
930.581	8541
930.685	8450
930.79	8305
930.894	8358
930.998	8290
931.103	8362
931.207	8138
931.311	8046
931.415	7997
931.519	7742
931.623	7757
