Data from test_V78500241_3019.txt Node
Date: Fri Mar 25 14:54:44 CST 2022
User: usil
Spectrometer: V785-0024
Trigger mode: 0
Integration Time (sec): 4.000000E-1
Scans to average: 1
Nonlinearity correction enabled: false
Boxcar width: 0
Storing dark spectrum: false
XAxis mode: Wavelengths
Number of Pixels in Spectrum: 1024
>>>>>Begin Spectral Data<<<<<
801.071	22188
801.214	22078
801.356	21724
801.499	21618
801.641	21603
801.783	21450
801.926	21496
802.068	21431
802.211	21405
802.353	21252
802.496	21032
802.638	20925
802.78	20914
802.923	20853
803.065	20792
803.208	20804
803.35	20838
803.492	20910
803.635	20842
803.777	20857
803.919	20838
804.061	21199
804.204	20876
804.346	20667
804.488	20667
804.63	20712
804.773	20712
804.915	20727
805.057	20834
805.199	20697
805.341	20765
805.483	20716
805.626	20731
805.768	20686
805.91	20701
806.052	20796
806.194	20609
806.336	20891
806.478	20773
806.62	20689
806.762	20777
806.904	20857
807.046	21199
807.188	21138
807.33	21089
807.472	21051
807.614	20979
807.756	21119
807.898	20929
808.04	20826
808.182	20720
808.324	20994
808.465	20975
808.607	21024
808.749	21055
808.891	21199
809.033	21264
809.174	21119
809.316	21055
809.458	21043
809.6	21047
809.741	21184
809.883	21169
810.025	21340
810.166	21291
810.308	21188
810.45	21180
810.591	21154
810.733	20895
810.875	20845
811.016	20769
811.158	20746
811.299	20967
811.441	20960
811.582	20952
811.724	20849
811.865	20834
812.007	20727
812.148	20849
812.29	20918
812.431	20941
812.573	21222
812.714	21256
812.855	21321
812.997	21378
813.138	21549
813.279	21534
813.421	21351
813.562	21233
813.703	21131
813.845	21066
813.986	20781
814.127	20514
814.268	20530
814.41	20533
814.551	20450
814.692	20465
814.833	20290
814.974	20278
815.115	20450
815.256	20286
815.397	20336
815.539	20263
815.68	20267
815.821	20035
815.962	20210
816.103	20077
816.244	19963
816.385	19917
816.526	19753
816.666	19727
816.807	19586
816.948	19681
817.089	19674
817.23	19628
817.371	19548
817.512	19559
817.653	19518
817.793	19540
817.934	19438
818.075	19575
818.216	19544
818.356	19468
818.497	19400
818.638	19217
818.778	19164
818.919	19206
819.06	19255
819.2	19388
819.341	19430
819.481	19396
819.622	19632
819.762	19685
819.903	19643
820.043	19567
820.184	19578
820.324	19514
820.465	19586
820.605	19552
820.746	19438
820.886	19354
821.026	19499
821.167	19495
821.307	19411
821.447	19438
821.588	19381
821.728	19278
821.868	19057
822.008	19069
822.149	18970
822.289	18920
822.429	18551
822.569	18555
822.709	18597
822.849	18437
822.99	18357
823.13	18296
823.27	18281
823.41	18201
823.55	18121
823.69	18300
823.83	18205
823.97	18136
824.11	18106
824.25	17920
824.389	17893
824.529	17954
824.669	17954
824.809	17961
824.949	18041
825.089	17984
825.228	18007
825.368	17809
825.508	17760
825.648	17741
825.787	17786
825.927	17817
826.067	17779
826.206	17684
826.346	17794
826.485	17779
826.625	17676
826.765	17882
826.904	17726
827.044	17524
827.183	17581
827.323	17448
827.462	17627
827.601	17493
827.741	17436
827.88	17444
828.02	17322
828.159	17231
828.298	17433
828.437	17463
828.577	17452
828.716	17570
828.855	17341
828.994	17231
829.134	17265
829.273	17254
829.412	17105
829.551	17132
829.69	17162
829.829	17159
829.968	17284
830.107	17197
830.246	17147
830.385	17140
830.524	17155
830.663	16987
830.802	16881
830.941	16854
831.08	16752
831.219	16850
831.357	16812
831.496	16999
831.635	16774
831.774	16725
831.913	16687
832.051	16569
832.19	16550
832.329	16622
832.467	16497
832.606	16386
832.744	16462
832.883	16375
833.022	16443
833.16	16542
833.299	16523
833.437	16527
833.576	16527
833.714	16535
833.852	16588
833.991	16447
834.129	16607
834.267	16565
834.406	16493
834.544	16535
834.682	16561
834.821	16428
834.959	16664
835.097	16478
835.235	16649
835.373	16516
835.511	16542
835.65	16443
835.788	16428
835.926	16261
836.064	16192
836.202	16188
836.34	16443
836.478	16493
836.615	16325
836.753	16512
836.891	16436
837.029	16428
837.167	16390
837.305	16344
837.443	16242
837.58	16207
837.718	16337
837.856	16272
837.993	16226
838.131	16246
838.269	16185
838.406	16306
838.544	16181
838.681	16048
838.819	15888
838.956	15854
839.094	15827
839.231	15884
839.369	15903
839.506	16284
839.643	15998
839.781	15842
839.918	15804
840.055	15827
840.193	15842
840.33	15831
840.467	15823
840.604	15926
840.742	16139
840.879	15694
841.016	15781
841.153	15804
841.29	15857
841.427	15880
841.564	15869
841.701	15831
841.838	15895
841.975	15652
842.112	15854
842.249	15580
842.385	15545
842.522	15804
842.659	15568
842.796	15637
842.933	15599
843.069	15507
843.206	15526
843.343	15625
843.479	15724
843.616	15701
843.752	15363
843.889	15359
844.025	15538
844.162	15416
844.298	15572
844.435	15397
844.571	15363
844.708	15408
844.844	15576
844.98	15511
845.117	15523
845.253	15336
845.389	15272
845.525	15386
845.661	15313
845.798	15097
845.934	15264
846.07	15108
846.206	15192
846.342	15329
846.478	15195
846.614	15013
846.75	14902
846.886	14857
847.022	15097
847.158	14952
847.294	15070
847.429	15013
847.565	14925
847.701	15157
847.837	14674
847.972	14712
848.108	14899
848.244	14796
848.379	14720
848.515	14560
848.65	14564
848.786	14549
848.921	14552
849.057	14644
849.192	14583
849.328	14541
849.463	14571
849.598	14450
849.734	14560
849.869	14438
850.004	14294
850.14	14355
850.275	14389
850.41	14362
850.545	14202
850.68	14278
850.815	14317
850.95	14244
851.085	14454
851.22	14450
851.355	14343
851.49	14256
851.625	14351
851.76	14332
851.895	14301
852.03	14199
852.165	14298
852.299	14343
852.434	14336
852.569	14351
852.703	14282
852.838	14332
852.973	14454
853.107	14473
853.242	14191
853.376	14183
853.511	14081
853.645	14088
853.78	14313
853.914	14050
854.048	14065
854.183	14092
854.317	14275
854.451	14290
854.585	14172
854.72	14134
854.854	14271
854.988	14088
855.122	14164
855.256	14107
855.39	14195
855.524	14324
855.658	14305
855.792	14172
855.926	14278
856.06	14252
856.194	14366
856.327	14180
856.461	14111
856.595	14191
856.729	14153
856.862	14210
856.996	14237
857.13	14168
857.263	14362
857.397	14256
857.53	14214
857.664	14286
857.797	14358
857.931	14259
858.064	14199
858.197	14347
858.331	14092
858.464	14195
858.597	14092
858.731	14263
858.864	14145
858.997	14168
859.13	14206
859.263	14134
859.396	14339
859.529	14119
859.662	14088
859.795	14225
859.928	14237
860.061	14320
860.194	14339
860.327	14244
860.46	14229
860.592	14214
860.725	14225
860.858	14305
860.99	14161
861.123	14115
861.256	14081
861.388	14195
861.521	14910
861.653	14027
861.786	13932
861.918	14065
862.05	14161
862.183	14161
862.315	14172
862.447	14088
862.58	14176
862.712	13982
862.844	13875
862.976	14039
863.108	13986
863.24	14454
863.372	13974
863.504	13982
863.636	13963
863.768	14016
863.9	14024
864.032	13879
864.164	14005
864.296	13940
864.428	14054
864.559	14138
864.691	14126
864.823	14096
864.954	14043
865.086	13986
865.217	13909
865.349	13944
865.48	13917
865.612	14008
865.743	14176
865.875	13913
866.006	13955
866.137	14020
866.269	13913
866.4	13989
866.531	13959
866.662	13856
866.793	13807
866.924	13837
867.055	13909
867.186	13951
867.317	13822
867.448	13913
867.579	13887
867.71	13811
867.841	13902
867.972	13936
868.103	13974
868.233	13951
868.364	13959
868.495	14077
868.625	14199
868.756	14313
868.886	14103
869.017	14176
869.147	14408
869.278	14309
869.408	14187
869.539	14214
869.669	14233
869.799	14244
869.929	14347
870.06	14320
870.19	14560
870.32	14537
870.45	14560
870.58	14545
870.71	14724
870.84	14716
870.97	14583
871.1	14598
871.23	14796
871.36	14678
871.489	14689
871.619	14834
871.749	14777
871.879	14788
872.008	14941
872.138	14758
872.267	14853
872.397	14670
872.526	14640
872.656	14629
872.785	14659
872.915	14735
873.044	15017
873.173	14845
873.303	14823
873.432	14845
873.561	14918
873.69	14861
873.819	14849
873.948	14895
874.077	14921
874.206	14830
874.335	14781
874.464	14956
874.593	15199
874.722	15097
874.851	15089
874.979	15123
875.108	15241
875.237	15207
875.365	15169
875.494	15169
875.623	15260
875.751	15138
875.88	15370
876.008	15405
876.136	15397
876.265	15545
876.393	15724
876.521	15534
876.65	15675
876.778	15698
876.906	15507
877.034	15580
877.162	15523
877.29	15507
877.418	15606
877.546	15519
877.674	15538
877.802	15618
877.93	15507
878.058	15492
878.185	15332
878.313	15545
878.441	15603
878.568	15469
878.696	15401
878.824	15610
878.951	15610
879.079	15778
879.206	15747
879.333	15808
879.461	15625
879.588	15747
879.715	15846
879.842	15827
879.97	15827
880.097	15428
880.224	15519
880.351	15424
880.478	15469
880.605	15340
880.732	15431
880.859	15671
880.986	15504
881.112	15447
881.239	15348
881.366	15237
881.493	15116
881.619	15104
881.746	15176
881.872	15043
881.999	14963
882.125	15028
882.252	15226
882.378	15085
882.505	15157
882.631	14979
882.757	14921
882.883	14925
883.01	14864
883.136	14876
883.262	14735
883.388	14727
883.514	14872
883.64	14948
883.766	14861
883.892	14602
884.018	14705
884.143	14918
884.269	14929
884.395	14746
884.52	14583
884.646	14568
884.772	14530
884.897	14518
885.023	14583
885.148	14724
885.274	14651
885.399	14678
885.524	14667
885.65	14575
885.775	14693
885.9	14621
886.025	14739
886.15	14659
886.275	14583
886.4	14537
886.525	14514
886.65	14526
886.775	14480
886.9	14762
887.025	14826
887.149	14674
887.274	14457
887.399	14423
887.523	14484
887.648	14434
887.773	14317
887.897	14564
888.021	14514
888.146	14343
888.27	14522
888.395	14583
888.519	14522
888.643	14549
888.767	14526
888.891	14324
889.015	14317
889.139	14290
889.263	14301
889.387	14351
889.511	14518
889.635	14396
889.759	14221
889.883	14202
890.006	14320
890.13	14423
890.254	14248
890.377	14347
890.501	14084
890.624	14100
890.748	14176
890.871	14039
890.995	13997
891.118	13845
891.241	13967
891.364	14035
891.488	14153
891.611	13928
891.734	14031
891.857	14088
891.98	14100
892.103	14073
892.226	13978
892.349	13955
892.471	13898
892.594	13921
892.717	14046
892.839	13955
892.962	13921
893.085	14123
893.207	13993
893.33	13879
893.452	14005
893.575	14024
893.697	14050
893.819	14164
893.941	14210
894.064	14199
894.186	13959
894.308	13921
894.43	14195
894.552	14225
894.674	14039
894.796	14027
894.918	14043
895.04	14054
895.161	14142
895.283	14126
895.405	13986
895.526	14164
895.648	14187
895.769	14134
895.891	14263
896.012	14263
896.134	14218
896.255	14172
896.376	14134
896.498	14183
896.619	14233
896.74	14199
896.861	14172
896.982	14545
897.103	14663
897.224	14488
897.345	14404
897.466	14396
897.587	14423
897.708	14621
897.828	14492
897.949	14450
898.07	14294
898.19	14446
898.311	14579
898.431	14511
898.552	14568
898.672	14602
898.792	14644
898.913	14514
899.033	14492
899.153	14347
899.273	14393
899.393	14370
899.513	14415
899.633	14400
899.753	14434
899.873	14366
899.993	14507
900.113	14522
900.232	14396
900.352	14362
900.472	14355
900.591	14298
900.711	14381
900.83	14206
900.95	14237
901.069	14347
901.189	14119
901.308	13982
901.427	13936
901.546	13932
901.665	13921
901.784	14001
901.904	13883
902.023	13723
902.141	13624
902.26	13464
902.379	13556
902.498	13514
902.617	13472
902.735	13514
902.854	13525
902.973	13411
903.091	13225
903.21	13217
903.328	13202
903.446	13183
903.565	13160
903.683	13179
903.801	12981
903.919	13031
904.038	13019
904.156	12943
904.274	12913
904.392	12905
904.51	12924
904.627	12886
904.745	12905
904.863	12970
904.981	12738
905.098	12574
905.216	12601
905.334	12582
905.451	12585
905.569	12574
905.686	12559
905.803	12498
905.921	12456
906.038	12521
906.155	12433
906.272	12323
906.389	12323
906.506	12209
906.623	12148
906.74	12190
906.857	12030
906.974	12098
907.091	12140
907.208	12270
907.324	12175
907.441	12159
907.557	11931
907.674	12007
907.79	11809
907.907	11916
908.023	11984
908.139	12003
908.256	11840
908.372	11840
908.488	11920
908.604	11722
908.72	11672
908.836	11760
908.952	11703
909.068	11722
909.184	11771
909.3	11688
909.415	11764
909.531	11695
909.647	11425
909.762	11429
909.878	11406
909.993	11482
910.108	11452
910.224	11421
910.339	11455
910.454	11299
910.57	11261
910.685	11212
910.8	11490
910.915	11417
911.03	11227
911.145	11227
911.259	11155
911.374	11170
911.489	11060
911.604	11071
911.718	10980
911.833	10881
911.947	10786
912.062	10809
912.176	10896
912.291	10908
912.405	10885
912.519	11143
912.633	11098
912.748	11041
912.862	11006
912.976	10744
913.09	10675
913.204	10759
913.318	10778
913.431	10930
913.545	10904
913.659	10984
913.772	10748
913.886	10679
914	10656
914.113	10668
914.226	10801
914.34	10801
914.453	10577
914.566	10698
914.68	10664
914.793	10630
914.906	10409
915.019	10382
915.132	10284
915.245	10417
915.358	10424
915.47	10493
915.583	10440
915.696	10516
915.809	10485
915.921	10580
916.034	10447
916.146	10356
916.259	10405
916.371	10443
916.483	10459
916.595	10306
916.708	10379
916.82	10333
916.932	10333
917.044	10375
917.156	10325
917.268	10268
917.38	10268
917.491	10249
917.603	10211
917.715	10394
917.826	10318
917.938	10295
918.049	10158
918.161	10257
918.272	10451
918.384	10466
918.495	10318
918.606	10143
918.717	10059
918.828	10173
918.939	10166
919.05	10048
919.161	10093
919.272	9956
919.383	9895
919.494	10215
919.604	10421
919.715	10219
919.826	10025
919.936	10040
920.047	10188
920.157	10177
920.267	10360
920.378	10192
920.488	10177
920.598	10314
920.708	10462
920.818	10382
920.928	10398
921.038	10527
921.148	10508
921.258	10192
921.368	10169
921.477	10040
921.587	9979
921.697	9994
921.806	9968
921.916	9937
922.025	9827
922.134	9736
922.244	9606
922.353	9808
922.462	9606
922.571	9599
922.68	9466
922.789	9382
922.898	9485
923.007	9386
923.116	9466
923.224	9420
923.333	9473
923.442	9272
923.55	9340
923.659	9302
923.767	9412
923.876	9275
923.984	9367
924.092	9256
924.201	9241
924.309	9351
924.417	9294
924.525	9256
924.633	9256
924.741	10185
924.849	9108
924.956	9260
925.064	9074
925.172	9081
925.279	8990
925.387	9077
925.494	9157
925.602	9249
925.709	9207
925.816	9055
925.924	9100
926.031	9165
926.138	9100
926.245	9157
926.352	9039
926.459	9211
926.566	9150
926.673	9180
926.779	8998
926.886	9058
926.993	8857
927.099	8796
927.206	8804
927.312	8811
927.419	8880
927.525	8834
927.631	8834
927.737	8727
927.843	8689
927.95	8644
928.056	8682
928.162	8716
928.267	8788
928.373	9344
928.479	8727
928.585	8625
928.69	8796
928.796	8739
928.901	8648
929.007	8522
929.112	8682
929.218	8663
929.323	8587
929.428	8545
929.533	8667
929.638	8583
929.743	8552
929.848	8587
929.953	8556
930.058	8454
930.163	8339
930.267	8362
930.372	8465
930.477	8336
930.581	8575
930.685	8533
930.79	8267
930.894	8320
930.998	8248
931.103	8434
931.207	8065
931.311	7974
931.415	7940
931.519	7757
931.623	7769
