Data from test_V78500241_3109.txt Node
Date: Fri Mar 25 14:55:21 CST 2022
User: usil
Spectrometer: V785-0024
Trigger mode: 0
Integration Time (sec): 4.000000E-1
Scans to average: 1
Nonlinearity correction enabled: false
Boxcar width: 0
Storing dark spectrum: false
XAxis mode: Wavelengths
Number of Pixels in Spectrum: 1024
>>>>>Begin Spectral Data<<<<<
801.071	22063
801.214	21880
801.356	21915
801.499	21701
801.641	21496
801.783	21359
801.926	21412
802.068	21359
802.211	21306
802.353	21256
802.496	21058
802.638	20914
802.78	20937
802.923	20830
803.065	20845
803.208	20804
803.35	20625
803.492	20853
803.635	20921
803.777	20762
803.919	20815
804.061	21165
804.204	20834
804.346	20636
804.488	20712
804.63	20819
804.773	20674
804.915	20648
805.057	20758
805.199	20674
805.341	20705
805.483	20853
805.626	20765
805.768	20693
805.91	20739
806.052	20807
806.194	20621
806.336	20876
806.478	20674
806.62	20571
806.762	20587
806.904	20823
807.046	21028
807.188	20986
807.33	20941
807.472	21070
807.614	20979
807.756	20830
807.898	20655
808.04	20731
808.182	20613
808.324	20804
808.465	20796
808.607	20887
808.749	20990
808.891	21104
809.033	21211
809.174	21089
809.316	21001
809.458	21024
809.6	20952
809.741	21070
809.883	21119
810.025	21173
810.166	21279
810.308	21173
810.45	21100
810.591	21058
810.733	20883
810.875	20849
811.016	20659
811.158	20800
811.299	20960
811.441	21001
811.582	20914
811.724	20823
811.865	20739
812.007	20762
812.148	20777
812.29	20887
812.431	20971
812.573	21108
812.714	21142
812.855	21336
812.997	21397
813.138	21587
813.279	21469
813.421	21275
813.562	21294
813.703	21081
813.845	20948
813.986	20785
814.127	20564
814.268	20400
814.41	20358
814.551	20309
814.692	20393
814.833	20362
814.974	20275
815.115	20317
815.256	20282
815.397	20256
815.539	20172
815.68	20088
815.821	20107
815.962	20088
816.103	20195
816.244	19887
816.385	19818
816.526	19845
816.666	19643
816.807	19422
816.948	19582
817.089	19529
817.23	19556
817.371	19590
817.512	19514
817.653	19460
817.793	19495
817.934	19464
818.075	19533
818.216	19605
818.356	19441
818.497	19259
818.638	19031
818.778	19126
818.919	19156
819.06	19255
819.2	19301
819.341	19346
819.481	19392
819.622	19544
819.762	19696
819.903	19613
820.043	19521
820.184	19480
820.324	19502
820.465	19445
820.605	19529
820.746	19430
820.886	19278
821.026	19453
821.167	19426
821.307	19434
821.447	19327
821.588	19327
821.728	19160
821.868	19114
822.008	18875
822.149	18867
822.289	18791
822.429	18661
822.569	18460
822.709	18483
822.849	18433
822.99	18289
823.13	18300
823.27	18277
823.41	18159
823.55	18228
823.69	18140
823.83	18072
823.97	18133
824.11	17942
824.25	17859
824.389	17836
824.529	18038
824.669	17901
824.809	18015
824.949	18049
825.089	17893
825.228	17904
825.368	17691
825.508	17817
825.648	17733
825.787	17642
825.927	17775
826.067	17611
826.206	17642
826.346	17729
826.485	17710
826.625	17722
826.765	17726
826.904	17794
827.044	17585
827.183	17581
827.323	17395
827.462	17425
827.601	17337
827.741	17391
827.88	17398
828.02	17277
828.159	17280
828.298	17364
828.437	17551
828.577	17341
828.716	17501
828.855	17345
828.994	17242
829.134	17075
829.273	17143
829.412	17102
829.551	17060
829.69	17216
829.829	17212
829.968	17174
830.107	17322
830.246	17109
830.385	17090
830.524	16927
830.663	16999
830.802	16869
830.941	16771
831.08	16725
831.219	16866
831.357	16831
831.496	16946
831.635	16797
831.774	16721
831.913	16622
832.051	16558
832.19	16527
832.329	16660
832.467	16474
832.606	16432
832.744	16405
832.883	16405
833.022	16367
833.16	16489
833.299	16478
833.437	16493
833.576	16451
833.714	16531
833.852	16569
833.991	16577
834.129	16653
834.267	16584
834.406	16580
834.544	16618
834.682	16653
834.821	16565
834.959	16729
835.097	16470
835.235	16672
835.373	16550
835.511	16565
835.65	16405
835.788	16432
835.926	16246
836.064	16207
836.202	16291
836.34	16341
836.478	16508
836.615	16424
836.753	16367
836.891	16413
837.029	16493
837.167	16405
837.305	16352
837.443	16398
837.58	16295
837.718	16348
837.856	16226
837.993	16268
838.131	16280
838.269	16268
838.406	16291
838.544	16158
838.681	16017
838.819	16006
838.956	15819
839.094	15755
839.231	15956
839.369	15994
839.506	16306
839.643	16082
839.781	15781
839.918	15774
840.055	15781
840.193	15854
840.33	15747
840.467	15876
840.604	15804
840.742	16051
840.879	15675
841.016	15747
841.153	15793
841.29	16013
841.427	15827
841.564	15835
841.701	15907
841.838	15789
841.975	15797
842.112	15690
842.249	15663
842.385	15545
842.522	15808
842.659	15690
842.796	15587
842.933	15599
843.069	15629
843.206	15641
843.343	15739
843.479	15603
843.616	15599
843.752	15374
843.889	15370
844.025	15614
844.162	15389
844.298	15477
844.435	15431
844.571	15374
844.708	15458
844.844	15454
844.98	15576
845.117	15515
845.253	15310
845.389	15264
845.525	15348
845.661	15370
845.798	15142
845.934	15214
846.07	15154
846.206	15173
846.342	15386
846.478	15100
846.614	15017
846.75	14910
846.886	14998
847.022	14975
847.158	14929
847.294	15055
847.429	14937
847.565	14967
847.701	15222
847.837	14804
847.972	14720
848.108	14731
848.244	14792
848.379	14560
848.515	14473
848.65	14480
848.786	14568
848.921	14492
849.057	14613
849.192	14651
849.328	14552
849.463	14549
849.598	14571
849.734	14556
849.869	14495
850.004	14355
850.14	14427
850.275	14343
850.41	14244
850.545	14275
850.68	14298
850.815	14301
850.95	14339
851.085	14610
851.22	14446
851.355	14389
851.49	14309
851.625	14374
851.76	14221
851.895	14195
852.03	14358
852.165	14370
852.299	14362
852.434	14347
852.569	14381
852.703	14393
852.838	14374
852.973	14419
853.107	14518
853.242	14259
853.376	14290
853.511	14119
853.645	14210
853.78	14381
853.914	14233
854.048	14256
854.183	14084
854.317	14282
854.451	14427
854.585	14187
854.72	14225
854.854	14240
854.988	14058
855.122	14145
855.256	14054
855.39	14214
855.524	14286
855.658	14142
855.792	14157
855.926	14172
856.06	14290
856.194	14237
856.327	14256
856.461	14172
856.595	14214
856.729	14126
856.862	14370
856.996	14298
857.13	14278
857.263	14320
857.397	14328
857.53	14237
857.664	14263
857.797	14358
857.931	14339
858.064	14259
858.197	14248
858.331	14157
858.464	14199
858.597	14123
858.731	14206
858.864	14195
858.997	14187
859.13	14123
859.263	14275
859.396	14400
859.529	14191
859.662	14168
859.795	14199
859.928	14225
860.061	14313
860.194	14347
860.327	14206
860.46	14123
860.592	14225
860.725	14366
860.858	14206
860.99	14199
861.123	14043
861.256	14168
861.388	14191
861.521	14887
861.653	14077
861.786	13986
861.918	14050
862.05	14126
862.183	14058
862.315	14267
862.447	14187
862.58	14142
862.712	13883
862.844	13955
862.976	14130
863.108	14161
863.24	14400
863.372	13868
863.504	13856
863.636	13936
863.768	14069
863.9	14069
864.032	13947
864.164	13909
864.296	14062
864.428	13974
864.559	13986
864.691	14084
864.823	14024
864.954	13967
865.086	13997
865.217	13947
865.349	13898
865.48	14043
865.612	13959
865.743	14062
865.875	14020
866.006	13925
866.137	14035
866.269	13921
866.4	13970
866.531	13921
866.662	13906
866.793	13940
866.924	13902
867.055	13921
867.186	13993
867.317	14005
867.448	13925
867.579	13967
867.71	13936
867.841	13856
867.972	13993
868.103	13940
868.233	13970
868.364	13970
868.495	14008
868.625	14199
868.756	14267
868.886	14035
869.017	14168
869.147	14358
869.278	14393
869.408	14218
869.539	14199
869.669	14317
869.799	14202
869.929	14366
870.06	14317
870.19	14613
870.32	14495
870.45	14507
870.58	14663
870.71	14731
870.84	14674
870.97	14583
871.1	14530
871.23	14777
871.36	14826
871.489	14800
871.619	14781
871.749	14826
871.879	14864
872.008	15028
872.138	14769
872.267	14868
872.397	14758
872.526	14663
872.656	14587
872.785	14769
872.915	14838
873.044	14819
873.173	14819
873.303	14941
873.432	14872
873.561	14982
873.69	14887
873.819	14758
873.948	15001
874.077	14895
874.206	14826
874.335	14887
874.464	14990
874.593	15157
874.722	15017
874.851	15100
874.979	15020
875.108	15230
875.237	15058
875.365	15123
875.494	15100
875.623	15245
875.751	15116
875.88	15218
876.008	15294
876.136	15355
876.265	15618
876.393	15557
876.521	15644
876.65	15606
876.778	15595
876.906	15580
877.034	15492
877.162	15545
877.29	15564
877.418	15576
877.546	15644
877.674	15622
877.802	15603
877.93	15561
878.058	15454
878.185	15454
878.313	15481
878.441	15625
878.568	15386
878.696	15591
878.824	15568
878.951	15656
879.079	15759
879.206	15865
879.333	15728
879.461	15652
879.588	15831
879.715	15759
879.842	15884
879.97	15739
880.097	15469
880.224	15469
880.351	15420
880.478	15496
880.605	15424
880.732	15526
880.859	15728
880.986	15485
881.112	15466
881.239	15264
881.366	15222
881.493	15237
881.619	15062
881.746	15127
881.872	15077
881.999	15108
882.125	15001
882.252	15207
882.378	15150
882.505	15260
882.631	15032
882.757	14853
882.883	14937
883.01	14998
883.136	14891
883.262	14708
883.388	14762
883.514	14899
883.64	14883
883.766	14811
883.892	14739
884.018	14750
884.143	14842
884.269	14918
884.395	14686
884.52	14678
884.646	14579
884.772	14621
884.897	14507
885.023	14629
885.148	14651
885.274	14720
885.399	14739
885.524	14530
885.65	14663
885.775	14750
885.9	14579
886.025	14762
886.15	14617
886.275	14598
886.4	14541
886.525	14602
886.65	14514
886.775	14568
886.9	14792
887.025	14838
887.149	14590
887.274	14488
887.399	14427
887.523	14423
887.648	14324
887.773	14339
887.897	14476
888.021	14625
888.146	14446
888.27	14476
888.395	14499
888.519	14438
888.643	14537
888.767	14461
888.891	14377
889.015	14339
889.139	14400
889.263	14229
889.387	14370
889.511	14564
889.635	14503
889.759	14347
889.883	14240
890.006	14381
890.13	14427
890.254	14119
890.377	14240
890.501	14046
890.624	14107
890.748	14233
890.871	14039
890.995	13982
891.118	13932
891.241	14016
891.364	13967
891.488	14142
891.611	13974
891.734	14024
891.857	14073
891.98	13993
892.103	14081
892.226	14103
892.349	14008
892.471	13887
892.594	14012
892.717	14168
892.839	13959
892.962	14088
893.085	14012
893.207	14008
893.33	13955
893.452	13906
893.575	14024
893.697	14043
893.819	14187
893.941	14180
894.064	14244
894.186	13982
894.308	13887
894.43	14058
894.552	14199
894.674	14111
894.796	13963
894.918	14161
895.04	14092
895.161	14195
895.283	14103
895.405	14027
895.526	14176
895.648	14130
895.769	14130
895.891	14176
896.012	14248
896.134	14248
896.255	14248
896.376	14054
896.498	14210
896.619	14263
896.74	14225
896.861	14263
896.982	14488
897.103	14621
897.224	14545
897.345	14355
897.466	14438
897.587	14461
897.708	14583
897.828	14556
897.949	14408
898.07	14366
898.19	14526
898.311	14590
898.431	14533
898.552	14568
898.672	14602
898.792	14598
898.913	14564
899.033	14492
899.153	14286
899.273	14313
899.393	14454
899.513	14518
899.633	14396
899.753	14381
899.873	14377
899.993	14511
900.113	14484
900.232	14446
900.352	14317
900.472	14336
900.591	14309
900.711	14294
900.83	14237
900.95	14381
901.069	14377
901.189	14138
901.308	14027
901.427	13959
901.546	13959
901.665	14020
901.784	13940
901.904	13841
902.023	13788
902.141	13628
902.26	13567
902.379	13533
902.498	13578
902.617	13415
902.735	13537
902.854	13571
902.973	13422
903.091	13187
903.21	13263
903.328	13343
903.446	13194
903.565	13114
903.683	13091
903.801	13076
903.919	13012
904.038	13126
904.156	12958
904.274	13034
904.392	12825
904.51	12882
904.627	12878
904.745	12985
904.863	12951
904.981	12654
905.098	12646
905.216	12711
905.334	12627
905.451	12623
905.569	12551
905.686	12658
905.803	12696
905.921	12452
906.038	12471
906.155	12376
906.272	12353
906.389	12380
906.506	12258
906.623	12216
906.74	12190
906.857	12057
906.974	12117
907.091	12254
907.208	12361
907.324	12235
907.441	12083
907.557	11996
907.674	11973
907.79	11927
907.907	11802
908.023	12057
908.139	11954
908.256	11923
908.372	11878
908.488	11935
908.604	11668
908.72	11680
908.836	11764
908.952	11570
909.068	11710
909.184	11790
909.3	11726
909.415	11802
909.531	11764
909.647	11585
909.762	11512
909.878	11425
909.993	11554
910.108	11497
910.224	11471
910.339	11505
910.454	11387
910.57	11345
910.685	11360
910.8	11566
910.915	11562
911.03	11410
911.145	11185
911.259	11223
911.374	11246
911.489	11128
911.604	11109
911.718	10965
911.833	10984
911.947	10828
912.062	10839
912.176	11003
912.291	10946
912.405	10938
912.519	11132
912.633	11132
912.748	11003
912.862	11022
912.976	10812
913.09	10668
913.204	10790
913.318	10858
913.431	10923
913.545	10946
913.659	10892
913.772	10820
913.886	10729
914	10721
914.113	10866
914.226	10927
914.34	10809
914.453	10664
914.566	10759
914.68	10630
914.793	10710
914.906	10558
915.019	10459
915.132	10367
915.245	10447
915.358	10386
915.47	10500
915.583	10405
915.696	10538
915.809	10584
915.921	10573
916.034	10489
916.146	10443
916.259	10390
916.371	10485
916.483	10527
916.595	10417
916.708	10417
916.82	10363
916.932	10436
917.044	10428
917.156	10409
917.268	10280
917.38	10306
917.491	10211
917.603	10303
917.715	10348
917.826	10375
917.938	10322
918.049	10158
918.161	10291
918.272	10428
918.384	10436
918.495	10318
918.606	10261
918.717	10090
918.828	10185
918.939	10215
919.05	10078
919.161	10166
919.272	9941
919.383	10021
919.494	10246
919.604	10379
919.715	10207
919.826	10078
919.936	10215
920.047	10234
920.157	10204
920.267	10375
920.378	10192
920.488	10215
920.598	10394
920.708	10523
920.818	10417
920.928	10360
921.038	10569
921.148	10459
921.258	10257
921.368	10143
921.477	10074
921.587	10002
921.697	9907
921.806	10112
921.916	9934
922.025	9785
922.134	9781
922.244	9705
922.353	9800
922.462	9690
922.571	9591
922.68	9485
922.789	9412
922.898	9412
923.007	9424
923.116	9447
923.224	9393
923.333	9473
923.442	9291
923.55	9374
923.659	9302
923.767	9370
923.876	9344
923.984	9351
924.092	9256
924.201	9336
924.309	9340
924.417	9348
924.525	9218
924.633	9302
924.741	10147
924.849	9024
924.956	9253
925.064	9074
925.172	8986
925.279	9032
925.387	9135
925.494	9131
925.602	9214
925.709	9214
925.816	8967
925.924	9070
926.031	9332
926.138	9093
926.245	9085
926.352	9039
926.459	9100
926.566	9173
926.673	9081
926.779	8960
926.886	8823
926.993	8762
927.099	8857
927.206	8792
927.312	8796
927.419	8857
927.525	8773
927.631	8834
927.737	8724
927.843	8762
927.95	8659
928.056	8659
928.162	8693
928.267	8731
928.373	9283
928.479	8842
928.585	8492
928.69	8640
928.796	8712
928.901	8629
929.007	8461
929.112	8629
929.218	8583
929.323	8564
929.428	8507
929.533	8659
929.638	8476
929.743	8530
929.848	8495
929.953	8488
930.058	8461
930.163	8298
930.267	8294
930.372	8511
930.477	8309
930.581	8492
930.685	8431
930.79	8263
930.894	8237
930.998	8282
931.103	8362
931.207	8024
931.311	7982
931.415	7955
931.519	7784
931.623	7746
