Data from test_V78500241_2680.txt Node
Date: Fri Mar 25 14:52:22 CST 2022
User: usil
Spectrometer: V785-0024
Trigger mode: 0
Integration Time (sec): 4.000000E-1
Scans to average: 1
Nonlinearity correction enabled: false
Boxcar width: 0
Storing dark spectrum: false
XAxis mode: Wavelengths
Number of Pixels in Spectrum: 1024
>>>>>Begin Spectral Data<<<<<
801.071	21991
801.214	21846
801.356	21641
801.499	21435
801.641	21595
801.783	21313
801.926	21389
802.068	21359
802.211	21241
802.353	21112
802.496	20899
802.638	20975
802.78	20758
802.923	20804
803.065	20762
803.208	20667
803.35	20678
803.492	20758
803.635	20868
803.777	20598
803.919	20781
804.061	21028
804.204	20670
804.346	20689
804.488	20613
804.63	20621
804.773	20412
804.915	20602
805.057	20526
805.199	20617
805.341	20686
805.483	20720
805.626	20689
805.768	20583
805.91	20670
806.052	20564
806.194	20446
806.336	20693
806.478	20678
806.62	20560
806.762	20705
806.904	20823
807.046	21051
807.188	20944
807.33	20956
807.472	21093
807.614	20921
807.756	20883
807.898	20773
808.04	20644
808.182	20800
808.324	20708
808.465	20769
808.607	20857
808.749	20979
808.891	21154
809.033	21195
809.174	21070
809.316	20899
809.458	20902
809.6	20971
809.741	21058
809.883	21058
810.025	21123
810.166	21195
810.308	21066
810.45	21039
810.591	21001
810.733	20921
810.875	20769
811.016	20629
811.158	20587
811.299	20785
811.441	20914
811.582	20880
811.724	20769
811.865	20731
812.007	20705
812.148	20777
812.29	20727
812.431	20895
812.573	21062
812.714	21135
812.855	21180
812.997	21412
813.138	21447
813.279	21329
813.421	21233
813.562	21218
813.703	20979
813.845	20960
813.986	20648
814.127	20537
814.268	20332
814.41	20393
814.551	20248
814.692	20339
814.833	20370
814.974	20275
815.115	20294
815.256	20157
815.397	20191
815.539	20195
815.68	20058
815.821	20069
815.962	20092
816.103	20077
816.244	19826
816.385	19643
816.526	19750
816.666	19719
816.807	19499
816.948	19483
817.089	19548
817.23	19533
817.371	19426
817.512	19529
817.653	19354
817.793	19320
817.934	19422
818.075	19381
818.216	19411
818.356	19411
818.497	19308
818.638	19179
818.778	19023
818.919	19103
819.06	19080
819.2	19263
819.341	19422
819.481	19350
819.622	19430
819.762	19582
819.903	19537
820.043	19449
820.184	19464
820.324	19457
820.465	19487
820.605	19407
820.746	19415
820.886	19244
821.026	19453
821.167	19354
821.307	19540
821.447	19377
821.588	19156
821.728	19031
821.868	18977
822.008	18829
822.149	18768
822.289	18726
822.429	18604
822.569	18467
822.709	18506
822.849	18239
822.99	18414
823.13	18258
823.27	18235
823.41	18087
823.55	18045
823.69	18186
823.83	18091
823.97	18007
824.11	17916
824.25	17889
824.389	17843
824.529	17916
824.669	17809
824.809	17958
824.949	17980
825.089	17973
825.228	17923
825.368	17684
825.508	17608
825.648	17817
825.787	17786
825.927	17737
826.067	17653
826.206	17589
826.346	17764
826.485	17665
826.625	17581
826.765	17703
826.904	17585
827.044	17474
827.183	17406
827.323	17349
827.462	17379
827.601	17509
827.741	17315
827.88	17376
828.02	17303
828.159	17387
828.298	17448
828.437	17474
828.577	17360
828.716	17509
828.855	17433
828.994	17121
829.134	17121
829.273	17064
829.412	17200
829.551	16995
829.69	17048
829.829	17140
829.968	17246
830.107	17071
830.246	17124
830.385	17086
830.524	16999
830.663	16881
830.802	16782
830.941	16729
831.08	16763
831.219	16771
831.357	16812
831.496	16946
831.635	16744
831.774	16649
831.913	16626
832.051	16637
832.19	16565
832.329	16478
832.467	16516
832.606	16440
832.744	16333
832.883	16535
833.022	16379
833.16	16485
833.299	16466
833.437	16459
833.576	16478
833.714	16508
833.852	16474
833.991	16622
834.129	16512
834.267	16630
834.406	16470
834.544	16519
834.682	16497
834.821	16497
834.959	16774
835.097	16379
835.235	16588
835.373	16630
835.511	16493
835.65	16481
835.788	16417
835.926	16360
836.064	16253
836.202	16253
836.34	16569
836.478	16531
836.615	16402
836.753	16367
836.891	16440
837.029	16493
837.167	16341
837.305	16390
837.443	16223
837.58	16246
837.718	16341
837.856	16299
837.993	16188
838.131	16253
838.269	16188
838.406	16207
838.544	16219
838.681	15968
838.819	16048
838.956	15861
839.094	15732
839.231	15949
839.369	15968
839.506	16188
839.643	16059
839.781	15884
839.918	15831
840.055	15781
840.193	15835
840.33	15842
840.467	15873
840.604	15774
840.742	16036
840.879	15785
841.016	15751
841.153	15720
841.29	15895
841.427	15781
841.564	15876
841.701	15918
841.838	15797
841.975	15781
842.112	15679
842.249	15614
842.385	15557
842.522	15854
842.659	15663
842.796	15667
842.933	15599
843.069	15473
843.206	15485
843.343	15660
843.479	15599
843.616	15690
843.752	15454
843.889	15340
844.025	15587
844.162	15252
844.298	15447
844.435	15492
844.571	15340
844.708	15477
844.844	15561
844.98	15428
845.117	15500
845.253	15424
845.389	15291
845.525	15405
845.661	15325
845.798	15203
845.934	15275
846.07	15165
846.206	15188
846.342	15367
846.478	15226
846.614	15020
846.75	14960
846.886	14956
847.022	15135
847.158	15058
847.294	15062
847.429	15051
847.565	15062
847.701	15306
847.837	14830
847.972	14712
848.108	14872
848.244	14815
848.379	14632
848.515	14579
848.65	14625
848.786	14644
848.921	14621
849.057	14743
849.192	14765
849.328	14579
849.463	14644
849.598	14632
849.734	14438
849.869	14434
850.004	14427
850.14	14495
850.275	14442
850.41	14244
850.545	14317
850.68	14351
850.815	14389
850.95	14396
851.085	14613
851.22	14461
851.355	14298
851.49	14393
851.625	14301
851.76	14370
851.895	14343
852.03	14294
852.165	14370
852.299	14362
852.434	14454
852.569	14393
852.703	14377
852.838	14396
852.973	14579
853.107	14522
853.242	14381
853.376	14298
853.511	14130
853.645	14240
853.78	14514
853.914	14199
854.048	14153
854.183	14301
854.317	14256
854.451	14465
854.585	14256
854.72	14218
854.854	14343
854.988	14183
855.122	14252
855.256	14043
855.39	14256
855.524	14267
855.658	14305
855.792	14294
855.926	14244
856.06	14393
856.194	14374
856.327	14324
856.461	14214
856.595	14187
856.729	14233
856.862	14313
856.996	14355
857.13	14278
857.263	14328
857.397	14305
857.53	14290
857.664	14324
857.797	14301
857.931	14336
858.064	14256
858.197	14343
858.331	14210
858.464	14199
858.597	14164
858.731	14172
858.864	14263
858.997	14244
859.13	14210
859.263	14282
859.396	14320
859.529	14183
859.662	14290
859.795	14271
859.928	14286
860.061	14427
860.194	14434
860.327	14290
860.46	14225
860.592	14332
860.725	14400
860.858	14374
860.99	14256
861.123	14073
861.256	14221
861.388	14336
861.521	14842
861.653	14157
861.786	14092
861.918	14111
862.05	14172
862.183	14229
862.315	14145
862.447	14206
862.58	14176
862.712	14084
862.844	13947
862.976	14062
863.108	14145
863.24	14309
863.372	13909
863.504	14008
863.636	14024
863.768	14050
863.9	13963
864.032	13928
864.164	14039
864.296	14024
864.428	14161
864.559	14229
864.691	13982
864.823	14054
864.954	14020
865.086	14149
865.217	14054
865.349	13921
865.48	14008
865.612	13970
865.743	14290
865.875	13989
866.006	13993
866.137	13936
866.269	13997
866.4	13986
866.531	14035
866.662	13940
866.793	14016
866.924	13928
867.055	14050
867.186	13959
867.317	13883
867.448	13909
867.579	13997
867.71	13932
867.841	13993
867.972	13913
868.103	13940
868.233	14077
868.364	14050
868.495	14020
868.625	14252
868.756	14301
868.886	14214
869.017	14202
869.147	14366
869.278	14427
869.408	14366
869.539	14271
869.669	14332
869.799	14328
869.929	14370
870.06	14320
870.19	14549
870.32	14568
870.45	14537
870.58	14644
870.71	14727
870.84	14743
870.97	14667
871.1	14686
871.23	14823
871.36	14899
871.489	14769
871.619	14880
871.749	14796
871.879	14883
872.008	14967
872.138	15024
872.267	14834
872.397	14663
872.526	14743
872.656	14590
872.785	14689
872.915	14918
873.044	15005
873.173	14921
873.303	14941
873.432	14956
873.561	14872
873.69	14986
873.819	14883
873.948	14963
874.077	14902
874.206	14807
874.335	14921
874.464	15066
874.593	15157
874.722	15138
874.851	15233
874.979	15207
875.108	15241
875.237	15146
875.365	15081
875.494	15230
875.623	15245
875.751	15127
875.88	15287
876.008	15458
876.136	15466
876.265	15679
876.393	15641
876.521	15701
876.65	15778
876.778	15656
876.906	15675
877.034	15614
877.162	15633
877.29	15625
877.418	15637
877.546	15736
877.674	15652
877.802	15644
877.93	15663
878.058	15542
878.185	15629
878.313	15698
878.441	15679
878.568	15511
878.696	15599
878.824	15713
878.951	15736
879.079	15789
879.206	15892
879.333	15827
879.461	15717
879.588	15728
879.715	15831
879.842	15930
879.97	15618
880.097	15515
880.224	15515
880.351	15420
880.478	15511
880.605	15496
880.732	15500
880.859	15762
880.986	15564
881.112	15481
881.239	15382
881.366	15245
881.493	15279
881.619	15123
881.746	15116
881.872	15131
881.999	15104
882.125	15256
882.252	15264
882.378	15195
882.505	15329
882.631	15036
882.757	14960
882.883	15013
883.01	15001
883.136	14918
883.262	14899
883.388	14773
883.514	14876
883.64	14971
883.766	14948
883.892	14792
884.018	14823
884.143	15028
884.269	15066
884.395	14769
884.52	14716
884.646	14674
884.772	14610
884.897	14552
885.023	14667
885.148	14773
885.274	14777
885.399	14781
885.524	14705
885.65	14712
885.775	14845
885.9	14727
886.025	14708
886.15	14720
886.275	14655
886.4	14530
886.525	14560
886.65	14689
886.775	14590
886.9	14735
887.025	14902
887.149	14727
887.274	14476
887.399	14434
887.523	14495
887.648	14480
887.773	14393
887.897	14533
888.021	14545
888.146	14339
888.27	14606
888.395	14712
888.519	14571
888.643	14511
888.767	14590
888.891	14518
889.015	14412
889.139	14366
889.263	14332
889.387	14480
889.511	14495
889.635	14454
889.759	14275
889.883	14240
890.006	14358
890.13	14503
890.254	14259
890.377	14256
890.501	14199
890.624	14180
890.748	14191
890.871	14126
890.995	14077
891.118	13936
891.241	14073
891.364	14111
891.488	14210
891.611	14126
891.734	14100
891.857	14073
891.98	14084
892.103	14191
892.226	14210
892.349	14088
892.471	13902
892.594	14046
892.717	14046
892.839	14054
892.962	13993
893.085	14142
893.207	14001
893.33	13936
893.452	13967
893.575	14153
893.697	14027
893.819	14199
893.941	14225
894.064	14244
894.186	14027
894.308	14103
894.43	14138
894.552	14275
894.674	14229
894.796	13974
894.918	14111
895.04	14050
895.161	14210
895.283	14145
895.405	14119
895.526	14176
895.648	14145
895.769	14237
895.891	14324
896.012	14271
896.134	14305
896.255	14214
896.376	14248
896.498	14187
896.619	14225
896.74	14237
896.861	14275
896.982	14587
897.103	14830
897.224	14579
897.345	14545
897.466	14552
897.587	14377
897.708	14594
897.828	14587
897.949	14419
898.07	14362
898.19	14442
898.311	14629
898.431	14499
898.552	14606
898.672	14659
898.792	14727
898.913	14621
899.033	14507
899.153	14438
899.273	14427
899.393	14446
899.513	14473
899.633	14358
899.753	14389
899.873	14484
899.993	14526
900.113	14415
900.232	14499
900.352	14476
900.472	14256
900.591	14256
900.711	14366
900.83	14343
900.95	14423
901.069	14351
901.189	14324
901.308	14062
901.427	13951
901.546	13982
901.665	13940
901.784	13982
901.904	13845
902.023	13746
902.141	13616
902.26	13502
902.379	13590
902.498	13556
902.617	13559
902.735	13548
902.854	13502
902.973	13400
903.091	13263
903.21	13346
903.328	13285
903.446	13160
903.565	13091
903.683	13061
903.801	13114
903.919	13103
904.038	13065
904.156	12848
904.274	12985
904.392	12905
904.51	12958
904.627	12947
904.745	13099
904.863	13015
904.981	12776
905.098	12620
905.216	12642
905.334	12677
905.451	12612
905.569	12551
905.686	12703
905.803	12696
905.921	12426
906.038	12555
906.155	12502
906.272	12414
906.389	12384
906.506	12308
906.623	12273
906.74	12277
906.857	12076
906.974	12129
907.091	12296
907.208	12319
907.324	12235
907.441	12182
907.557	11935
907.674	11935
907.79	11946
907.907	12030
908.023	11980
908.139	11996
908.256	11847
908.372	11813
908.488	11882
908.604	11756
908.72	11642
908.836	11798
908.952	11718
909.068	11756
909.184	11847
909.3	11718
909.415	11756
909.531	11764
909.647	11516
909.762	11452
909.878	11341
909.993	11554
910.108	11444
910.224	11463
910.339	11532
910.454	11391
910.57	11311
910.685	11235
910.8	11600
910.915	11482
911.03	11425
911.145	11246
911.259	11261
911.374	11220
911.489	11075
911.604	11045
911.718	10930
911.833	10976
911.947	10801
912.062	10862
912.176	10927
912.291	10961
912.405	11018
912.519	11147
912.633	11231
912.748	11090
912.862	11071
912.976	10809
913.09	10763
913.204	10771
913.318	10847
913.431	10915
913.545	10972
913.659	11022
913.772	10786
913.886	10668
914	10668
914.113	10835
914.226	10850
914.34	10771
914.453	10656
914.566	10824
914.68	10611
914.793	10599
914.906	10558
915.019	10428
915.132	10402
915.245	10436
915.358	10379
915.47	10474
915.583	10455
915.696	10485
915.809	10653
915.921	10565
916.034	10474
916.146	10413
916.259	10325
916.371	10489
916.483	10447
916.595	10405
916.708	10402
916.82	10375
916.932	10489
917.044	10421
917.156	10325
917.268	10249
917.38	10318
917.491	10253
917.603	10284
917.715	10405
917.826	10451
917.938	10291
918.049	10128
918.161	10341
918.272	10356
918.384	10493
918.495	10348
918.606	10192
918.717	10048
918.828	10173
918.939	10162
919.05	10101
919.161	10185
919.272	9972
919.383	10082
919.494	10253
919.604	10356
919.715	10192
919.826	10158
919.936	10204
920.047	10238
920.157	10196
920.267	10398
920.378	10268
920.488	10158
920.598	10363
920.708	10523
920.818	10421
920.928	10306
921.038	10500
921.148	10500
921.258	10154
921.368	10166
921.477	10097
921.587	10032
921.697	9949
921.806	10025
921.916	9930
922.025	9778
922.134	9736
922.244	9747
922.353	9774
922.462	9690
922.571	9591
922.68	9401
922.789	9329
922.898	9435
923.007	9428
923.116	9405
923.224	9450
923.333	9473
923.442	9275
923.55	9287
923.659	9313
923.767	9351
923.876	9256
923.984	9370
924.092	9207
924.201	9313
924.309	9359
924.417	9317
924.525	9260
924.633	9336
924.741	10112
924.849	9119
924.956	9230
925.064	9074
925.172	8986
925.279	9097
925.387	9104
925.494	9093
925.602	9272
925.709	9123
925.816	9058
925.924	9097
926.031	9214
926.138	9131
926.245	9142
926.352	8990
926.459	9169
926.566	9188
926.673	9104
926.779	8986
926.886	8925
926.993	8834
927.099	8773
927.206	8720
927.312	8811
927.419	8899
927.525	8811
927.631	8929
927.737	8746
927.843	8682
927.95	8606
928.056	8705
928.162	8766
928.267	8739
928.373	9355
928.479	8743
928.585	8575
928.69	8674
928.796	8781
928.901	8606
929.007	8522
929.112	8598
929.218	8659
929.323	8503
929.428	8457
929.533	8667
929.638	8533
929.743	8499
929.848	8571
929.953	8545
930.058	8461
930.163	8294
930.267	8313
930.372	8457
930.477	8305
930.581	8522
930.685	8355
930.79	8191
930.894	8298
930.998	8218
931.103	8431
931.207	8008
931.311	7932
931.415	7856
931.519	7715
931.623	7738
