Data from test_V78500241_252.txt Node
Date: Fri Mar 25 14:35:28 CST 2022
User: usil
Spectrometer: V785-0024
Trigger mode: 0
Integration Time (sec): 4.000000E-1
Scans to average: 1
Nonlinearity correction enabled: false
Boxcar width: 0
Storing dark spectrum: false
XAxis mode: Wavelengths
Number of Pixels in Spectrum: 1024
>>>>>Begin Spectral Data<<<<<
801.071	27473
801.214	27374
801.356	27249
801.499	27085
801.641	26944
801.783	26914
801.926	26940
802.068	26807
802.211	26674
802.353	26648
802.496	26579
802.638	26465
802.78	26541
802.923	26419
803.065	26328
803.208	26427
803.35	26419
803.492	26514
803.635	26530
803.777	26404
803.919	26636
804.061	26773
804.204	26389
804.346	26419
804.488	26320
804.63	26404
804.773	26275
804.915	26313
805.057	26507
805.199	26415
805.341	26358
805.483	26522
805.626	26389
805.768	26385
805.91	26511
806.052	26629
806.194	26412
806.336	26659
806.478	26606
806.62	26579
806.762	26556
806.904	26746
807.046	26864
807.188	26887
807.33	26708
807.472	26883
807.614	26864
807.756	26826
807.898	26659
808.04	26693
808.182	26644
808.324	26982
808.465	26800
808.607	27020
808.749	27017
808.891	27302
809.033	27359
809.174	27199
809.316	27127
809.458	27089
809.6	27062
809.741	27070
809.883	27173
810.025	27070
810.166	27287
810.308	27154
810.45	27294
810.591	27123
810.733	26861
810.875	26990
811.016	26754
811.158	26724
811.299	26796
811.441	27093
811.582	26948
811.724	26815
811.865	26804
812.007	26929
812.148	26788
812.29	26845
812.431	27028
812.573	27184
812.714	27222
812.855	27332
812.997	27386
813.138	27545
813.279	27275
813.421	27370
813.562	27207
813.703	27074
813.845	26925
813.986	26667
814.127	26522
814.268	26415
814.41	26404
814.551	26358
814.692	26446
814.833	26301
814.974	26381
815.115	26423
815.256	26305
815.397	26164
815.539	26168
815.68	26202
815.821	26054
815.962	26187
816.103	26149
816.244	26024
816.385	25822
816.526	25875
816.666	25651
816.807	25559
816.948	25502
817.089	25609
817.23	25537
817.371	25483
817.512	25468
817.653	25369
817.793	25544
817.934	25514
818.075	25521
818.216	25544
818.356	25514
818.497	25422
818.638	25278
818.778	25259
818.919	25232
819.06	25274
819.2	25415
819.341	25362
819.481	25468
819.622	25525
819.762	25559
819.903	25677
820.043	25597
820.184	25544
820.324	25430
820.465	25556
820.605	25400
820.746	25400
820.886	25434
821.026	25449
821.167	25491
821.307	25449
821.447	25392
821.588	25213
821.728	25160
821.868	24992
822.008	24951
822.149	24760
822.289	24772
822.429	24639
822.569	24563
822.709	24471
822.849	24346
822.99	24422
823.13	24228
823.27	24289
823.41	24076
823.55	24057
823.69	24076
823.83	24091
823.97	24015
824.11	23912
824.25	23836
824.389	23813
824.529	23828
824.669	23756
824.809	23939
824.949	23828
825.089	23999
825.228	23912
825.368	23726
825.508	23737
825.648	23566
825.787	23813
825.927	23722
826.067	23623
826.206	23642
826.346	23592
826.485	23668
826.625	23615
826.765	23710
826.904	23653
827.044	23493
827.183	23539
827.323	23246
827.462	23395
827.601	23299
827.741	23296
827.88	23337
828.02	23109
828.159	23311
828.298	23216
828.437	23330
828.577	23345
828.716	23387
828.855	23250
828.994	23033
829.134	23033
829.273	23086
829.412	22881
829.551	23025
829.69	22908
829.829	23086
829.968	23098
830.107	23033
830.246	23037
830.385	23010
830.524	22847
830.663	22672
830.802	22656
830.941	22596
831.08	22611
831.219	22706
831.357	22691
831.496	22786
831.635	22577
831.774	22523
831.913	22402
832.051	22424
832.19	22367
832.329	22234
832.467	22295
832.606	22306
832.744	22158
832.883	22219
833.022	22261
833.16	22181
833.299	22223
833.437	22226
833.576	22287
833.714	22109
833.852	22207
833.991	22234
834.129	22219
834.267	22329
834.406	22169
834.544	22249
834.682	22268
834.821	22215
834.959	22402
835.097	22207
835.235	22192
835.373	22253
835.511	22109
835.65	22070
835.788	22150
835.926	21827
836.064	21865
836.202	21937
836.34	22044
836.478	22230
836.615	22040
836.753	22143
836.891	22086
837.029	22048
837.167	22074
837.305	21930
837.443	21941
837.58	21861
837.718	21876
837.856	21968
837.993	21930
838.131	21827
838.269	21907
838.406	21793
838.544	21679
838.681	21435
838.819	21591
838.956	21233
839.094	21298
839.231	21351
839.369	21504
839.506	21800
839.643	21481
839.781	21294
839.918	21268
840.055	21283
840.193	21321
840.33	21291
840.467	21230
840.604	21233
840.742	21397
840.879	21055
841.016	21135
841.153	21127
841.29	21310
841.427	21184
841.564	21207
841.701	21226
841.838	21138
841.975	21081
842.112	21142
842.249	21100
842.385	20933
842.522	21058
842.659	20998
842.796	20876
842.933	20918
843.069	20807
843.206	20918
843.343	20948
843.479	21028
843.616	21009
843.752	20686
843.889	20720
844.025	20872
844.162	20655
844.298	20842
844.435	20712
844.571	20606
844.708	20754
844.844	20819
844.98	20929
845.117	20708
845.253	20663
845.389	20655
845.525	20712
845.661	20644
845.798	20693
845.934	20769
846.07	20670
846.206	20708
846.342	20769
846.478	20655
846.614	20362
846.75	20126
846.886	20267
847.022	20218
847.158	20202
847.294	20050
847.429	20229
847.565	20031
847.701	20377
847.837	19947
847.972	19807
848.108	19890
848.244	19902
848.379	19818
848.515	19712
848.65	19674
848.786	19658
848.921	19696
849.057	19731
849.192	19734
849.328	19761
849.463	19750
849.598	19689
849.734	19601
849.869	19540
850.004	19449
850.14	19518
850.275	19396
850.41	19422
850.545	19358
850.68	19422
850.815	19521
850.95	19373
851.085	19426
851.22	19521
851.355	19339
851.49	19350
851.625	19373
851.76	19289
851.895	19278
852.03	19316
852.165	19358
852.299	19438
852.434	19510
852.569	19495
852.703	19400
852.838	19483
852.973	19464
853.107	19438
853.242	19350
853.376	19259
853.511	19251
853.645	19202
853.78	19270
853.914	19320
854.048	19259
854.183	19247
854.317	19129
854.451	19324
854.585	19183
854.72	19202
854.854	19339
854.988	19171
855.122	19164
855.256	19042
855.39	19160
855.524	19259
855.658	19312
855.792	19384
855.926	19236
856.06	19297
856.194	19232
856.327	19164
856.461	19198
856.595	19141
856.729	19122
856.862	19247
856.996	19171
857.13	19263
857.263	19377
857.397	19285
857.53	19183
857.664	19244
857.797	19209
857.931	19320
858.064	19209
858.197	19297
858.331	19164
858.464	19114
858.597	18973
858.731	19110
858.864	19137
858.997	19187
859.13	19137
859.263	19190
859.396	19293
859.529	19080
859.662	19160
859.795	19084
859.928	19091
860.061	19232
860.194	19339
860.327	19088
860.46	19080
860.592	19236
860.725	19278
860.858	19263
860.99	19133
861.123	18996
861.256	19042
861.388	19183
861.521	19708
861.653	18958
861.786	18985
861.918	19042
862.05	19110
862.183	19232
862.315	19202
862.447	19343
862.58	19228
862.712	18913
862.844	18897
862.976	19019
863.108	18962
863.24	19316
863.372	18875
863.504	18856
863.636	18863
863.768	18935
863.9	18878
864.032	18829
864.164	18829
864.296	18871
864.428	18882
864.559	18951
864.691	18909
864.823	18905
864.954	18913
865.086	18795
865.217	18825
865.349	18631
865.48	18700
865.612	18859
865.743	18897
865.875	18840
866.006	18734
866.137	18764
866.269	18711
866.4	18776
866.531	18688
866.662	18639
866.793	18726
866.924	18696
867.055	18749
867.186	18791
867.317	18707
867.448	18612
867.579	18719
867.71	18703
867.841	18589
867.972	18798
868.103	18791
868.233	18757
868.364	18719
868.495	18760
868.625	18901
868.756	19015
868.886	18859
869.017	18916
869.147	19004
869.278	19088
869.408	19023
869.539	18989
869.669	19000
869.799	18958
869.929	19129
870.06	19080
870.19	19263
870.32	19190
870.45	19183
870.58	19369
870.71	19487
870.84	19358
870.97	19362
871.1	19270
871.23	19521
871.36	19464
871.489	19521
871.619	19525
871.749	19445
871.879	19529
872.008	19559
872.138	19586
872.267	19518
872.397	19411
872.526	19396
872.656	19407
872.785	19419
872.915	19540
873.044	19563
873.173	19548
873.303	19556
873.432	19544
873.561	19761
873.69	19518
873.819	19521
873.948	19590
874.077	19559
874.206	19533
874.335	19502
874.464	19616
874.593	19868
874.722	19746
874.851	19932
874.979	19955
875.108	19864
875.237	19799
875.365	19708
875.494	19807
875.623	19894
875.751	19772
875.88	19791
876.008	19959
876.136	20035
876.265	20271
876.393	20423
876.521	20385
876.65	20225
876.778	20313
876.906	20172
877.034	20157
877.162	20298
877.29	20122
877.418	20202
877.546	20218
877.674	20183
877.802	20199
877.93	20134
878.058	20050
878.185	20134
878.313	20157
878.441	20298
878.568	20138
878.696	20145
878.824	20362
878.951	20343
879.079	20533
879.206	20590
879.333	20533
879.461	20366
879.588	20461
879.715	20541
879.842	20636
879.97	20404
880.097	20081
880.224	20115
880.351	20153
880.478	20252
880.605	20145
880.732	20092
880.859	20328
880.986	20149
881.112	20134
881.239	19944
881.366	19837
881.493	19765
881.619	19750
881.746	19742
881.872	19613
881.999	19594
882.125	19533
882.252	19704
882.378	19647
882.505	19788
882.631	19544
882.757	19540
882.883	19464
883.01	19434
883.136	19453
883.262	19316
883.388	19240
883.514	19407
883.64	19510
883.766	19297
883.892	19255
884.018	19339
884.143	19358
884.269	19449
884.395	19122
884.52	19270
884.646	19118
884.772	19110
884.897	19031
885.023	19061
885.148	19202
885.274	19354
885.399	19365
885.524	19126
885.65	19057
885.775	19213
885.9	19012
886.025	19175
886.15	19190
886.275	19050
886.4	19012
886.525	19061
886.65	18977
886.775	18954
886.9	19148
887.025	19297
887.149	19137
887.274	18939
887.399	18779
887.523	18924
887.648	18859
887.773	18791
887.897	19004
888.021	18909
888.146	18745
888.27	18897
888.395	18916
888.519	18981
888.643	18837
888.767	18810
888.891	18684
889.015	18681
889.139	18616
889.263	18620
889.387	18764
889.511	18867
889.635	18654
889.759	18654
889.883	18673
890.006	18639
890.13	18658
890.254	18604
890.377	18547
890.501	18566
890.624	18346
890.748	18479
890.871	18273
890.995	18155
891.118	18155
891.241	18266
891.364	18228
891.488	18357
891.611	18201
891.734	18254
891.857	18281
891.98	18247
892.103	18372
892.226	18334
892.349	18281
892.471	17939
892.594	18155
892.717	18323
892.839	18197
892.962	18144
893.085	18319
893.207	18220
893.33	18079
893.452	18076
893.575	18426
893.697	18102
893.819	18308
893.941	18380
894.064	18315
894.186	18098
894.308	18155
894.43	18239
894.552	18338
894.674	18235
894.796	18258
894.918	18133
895.04	18114
895.161	18213
895.283	18194
895.405	18049
895.526	18117
895.648	18186
895.769	18232
895.891	18350
896.012	18311
896.134	18308
896.255	18289
896.376	18167
896.498	18205
896.619	18285
896.74	18232
896.861	18304
896.982	18658
897.103	18745
897.224	18525
897.345	18509
897.466	18407
897.587	18422
897.708	18631
897.828	18494
897.949	18471
898.07	18494
898.19	18437
898.311	18536
898.431	18403
898.552	18437
898.672	18532
898.792	18490
898.913	18460
899.033	18407
899.153	18243
899.273	18285
899.393	18247
899.513	18342
899.633	18224
899.753	18380
899.873	18133
899.993	18277
900.113	18174
900.232	18216
900.352	18167
900.472	18087
900.591	17992
900.711	18125
900.83	17958
900.95	18216
901.069	18254
901.189	17992
901.308	17859
901.427	17798
901.546	17718
901.665	17794
901.784	17642
901.904	17497
902.023	17463
902.141	17315
902.26	17212
902.379	17277
902.498	17090
902.617	17170
902.735	17181
902.854	17261
902.973	17079
903.091	16904
903.21	16908
903.328	16812
903.446	16873
903.565	16733
903.683	16778
903.801	16683
903.919	16706
904.038	16717
904.156	16550
904.274	16542
904.392	16421
904.51	16417
904.627	16485
904.745	16538
904.863	16523
904.981	16287
905.098	16147
905.216	16188
905.334	16196
905.451	16188
905.569	16017
905.686	16211
905.803	16071
905.921	15911
906.038	16006
906.155	15930
906.272	15895
906.389	15812
906.506	15675
906.623	15694
906.74	15671
906.857	15587
906.974	15466
907.091	15713
907.208	15800
907.324	15701
907.441	15473
907.557	15450
907.674	15450
907.79	15401
907.907	15283
908.023	15412
908.139	15291
908.256	15264
908.372	15344
908.488	15154
908.604	15081
908.72	15116
908.836	15093
908.952	14914
909.068	15100
909.184	15112
909.3	15028
909.415	15051
909.531	15066
909.647	14880
909.762	14750
909.878	14788
909.993	14811
910.108	14777
910.224	14773
910.339	14716
910.454	14689
910.57	14720
910.685	14454
910.8	14746
910.915	14739
911.03	14522
911.145	14393
911.259	14374
911.374	14396
911.489	14309
911.604	14218
911.718	14164
911.833	14195
911.947	14035
912.062	13951
912.176	14111
912.291	14115
912.405	14187
912.519	14328
912.633	14282
912.748	14206
912.862	14123
912.976	13978
913.09	13849
913.204	13890
913.318	13974
913.431	14050
913.545	14035
913.659	14077
913.772	13925
913.886	13849
914	13734
914.113	13860
914.226	13917
914.34	13856
914.453	13704
914.566	13826
914.68	13605
914.793	13616
914.906	13590
915.019	13422
915.132	13407
915.245	13468
915.358	13457
915.47	13521
915.583	13460
915.696	13518
915.809	13571
915.921	13578
916.034	13346
916.146	13362
916.259	13384
916.371	13480
916.483	13381
916.595	13365
916.708	13384
916.82	13247
916.932	13327
917.044	13316
917.156	13236
917.268	13179
917.38	13228
917.491	13156
917.603	13183
917.715	13149
917.826	13282
917.938	13046
918.049	12989
918.161	13110
918.272	13202
918.384	13206
918.495	13164
918.606	13012
918.717	12821
918.828	12985
918.939	12951
919.05	12890
919.161	12867
919.272	12719
919.383	12776
919.494	12962
919.604	13156
919.715	12878
919.826	12833
919.936	12810
920.047	12951
920.157	12920
920.267	13084
920.378	12878
920.488	12909
920.598	13080
920.708	13187
920.818	13072
920.928	13000
921.038	13206
921.148	13114
921.258	12863
921.368	12844
921.477	12673
921.587	12741
921.697	12555
921.806	12673
921.916	12555
922.025	12311
922.134	12369
922.244	12194
922.353	12346
922.462	12262
922.571	12228
922.68	11961
922.789	11980
922.898	11992
923.007	11908
923.116	11984
923.224	12022
923.333	11942
923.442	11863
923.55	11779
923.659	11847
923.767	11889
923.876	11737
923.984	11809
924.092	11676
924.201	11771
924.309	11718
924.417	11798
924.525	11722
924.633	11653
924.741	12604
924.849	11539
924.956	11680
925.064	11516
925.172	11455
925.279	11478
925.387	11414
925.494	11440
925.602	11608
925.709	11570
925.816	11391
925.924	11471
926.031	11596
926.138	11448
926.245	11532
926.352	11372
926.459	11486
926.566	11516
926.673	11379
926.779	11208
926.886	11315
926.993	11102
927.099	11086
927.206	11045
927.312	11079
927.419	11227
927.525	11109
927.631	11132
927.737	11064
927.843	10904
927.95	10911
928.056	10923
928.162	11014
928.267	11052
928.373	11501
928.479	11086
928.585	10824
928.69	10968
928.796	10923
928.901	10824
929.007	10683
929.112	10797
929.218	10786
929.323	10622
929.428	10782
929.533	10812
929.638	10664
929.743	10702
929.848	10645
929.953	10641
930.058	10577
930.163	10379
930.267	10382
930.372	10527
930.477	10424
930.581	10607
930.685	10436
930.79	10337
930.894	10284
930.998	10207
931.103	10421
931.207	10071
931.311	10006
931.415	9949
931.519	9709
931.623	9755
