Data from test_V78500241_1734.txt Node
Date: Fri Mar 25 14:45:47 CST 2022
User: usil
Spectrometer: V785-0024
Trigger mode: 0
Integration Time (sec): 4.000000E-1
Scans to average: 1
Nonlinearity correction enabled: false
Boxcar width: 0
Storing dark spectrum: false
XAxis mode: Wavelengths
Number of Pixels in Spectrum: 1024
>>>>>Begin Spectral Data<<<<<
801.071	22200
801.214	22177
801.356	21873
801.499	21774
801.641	21576
801.783	21507
801.926	21610
802.068	21530
802.211	21431
802.353	21488
802.496	21074
802.638	20925
802.78	20994
802.923	20929
803.065	20845
803.208	20864
803.35	21024
803.492	21081
803.635	21005
803.777	20876
803.919	21043
804.061	21260
804.204	21032
804.346	20777
804.488	20788
804.63	20819
804.773	20819
804.915	20876
805.057	21039
805.199	20849
805.341	21017
805.483	20982
805.626	20895
805.768	20838
805.91	20864
806.052	20876
806.194	20689
806.336	21108
806.478	20830
806.62	20705
806.762	20872
806.904	21081
807.046	21226
807.188	21192
807.33	21351
807.472	21199
807.614	21077
807.756	21203
807.898	21001
808.04	20990
808.182	20845
808.324	20921
808.465	21005
808.607	21249
808.749	21203
808.891	21393
809.033	21431
809.174	21359
809.316	21291
809.458	21230
809.6	21321
809.741	21279
809.883	21325
810.025	21332
810.166	21401
810.308	21291
810.45	21348
810.591	21108
810.733	21275
810.875	21123
811.016	21009
811.158	20830
811.299	20906
811.441	21138
811.582	21085
811.724	21150
811.865	21066
812.007	20887
812.148	20982
812.29	21024
812.431	21150
812.573	21306
812.714	21466
812.855	21568
812.997	21587
813.138	21625
813.279	21583
813.421	21450
813.562	21370
813.703	21249
813.845	21138
813.986	20918
814.127	20777
814.268	20568
814.41	20552
814.551	20438
814.692	20674
814.833	20469
814.974	20446
815.115	20518
815.256	20415
815.397	20305
815.539	20298
815.68	20256
815.821	20168
815.962	20252
816.103	20267
816.244	20084
816.385	20062
816.526	19936
816.666	19898
816.807	19647
816.948	19803
817.089	19849
817.23	19750
817.371	19791
817.512	19723
817.653	19727
817.793	19670
817.934	19761
818.075	19647
818.216	19696
818.356	19571
818.497	19483
818.638	19373
818.778	19346
818.919	19289
819.06	19377
819.2	19468
819.341	19510
819.481	19586
819.622	19696
819.762	19856
819.903	19799
820.043	19712
820.184	19632
820.324	19685
820.465	19628
820.605	19708
820.746	19742
820.886	19590
821.026	19457
821.167	19582
821.307	19727
821.447	19620
821.588	19590
821.728	19331
821.868	19198
822.008	19069
822.149	18981
822.289	19023
822.429	18882
822.569	18760
822.709	18894
822.849	18574
822.99	18555
823.13	18604
823.27	18506
823.41	18376
823.55	18410
823.69	18311
823.83	18384
823.97	18323
824.11	18182
824.25	18045
824.389	18121
824.529	18262
824.669	18167
824.809	18224
824.949	18064
825.089	18228
825.228	18159
825.368	18030
825.508	18015
825.648	18095
825.787	18026
825.927	17977
826.067	17817
826.206	17965
826.346	17942
826.485	18053
826.625	17920
826.765	18110
826.904	17893
827.044	17786
827.183	17657
827.323	17596
827.462	17733
827.601	17623
827.741	17630
827.88	17627
828.02	17581
828.159	17627
828.298	17615
828.437	17764
828.577	17577
828.716	17657
828.855	17623
828.994	17558
829.134	17322
829.273	17414
829.412	17406
829.551	17376
829.69	17364
829.829	17421
829.968	17471
830.107	17440
830.246	17425
830.385	17360
830.524	17273
830.663	17258
830.802	17147
830.941	17022
831.08	16835
831.219	17121
831.357	17037
831.496	17296
831.635	16968
831.774	16972
831.913	16923
832.051	16934
832.19	16763
832.329	16892
832.467	16801
832.606	16694
832.744	16641
832.883	16831
833.022	16630
833.16	16664
833.299	16744
833.437	16801
833.576	16820
833.714	16774
833.852	16713
833.991	16866
834.129	16850
834.267	16858
834.406	16649
834.544	16797
834.682	16767
834.821	16675
834.959	16892
835.097	16634
835.235	16900
835.373	16786
835.511	16698
835.65	16645
835.788	16641
835.926	16531
836.064	16535
836.202	16592
836.34	16694
836.478	16733
836.615	16584
836.753	16717
836.891	16759
837.029	16634
837.167	16626
837.305	16672
837.443	16569
837.58	16493
837.718	16645
837.856	16493
837.993	16462
838.131	16504
838.269	16398
838.406	16474
838.544	16363
838.681	16188
838.819	16192
838.956	16200
839.094	16143
839.231	16124
839.369	16169
839.506	16462
839.643	16405
839.781	16063
839.918	15998
840.055	16074
840.193	15934
840.33	15964
840.467	15994
840.604	16002
840.742	16253
840.879	15975
841.016	15975
841.153	16036
841.29	16124
841.427	16109
841.564	16074
841.701	16128
841.838	16059
841.975	16013
842.112	16051
842.249	15861
842.385	15789
842.522	16029
842.659	15895
842.796	15884
842.933	15895
843.069	15835
843.206	15823
843.343	15930
843.479	15861
843.616	15812
843.752	15686
843.889	15663
844.025	15747
844.162	15625
844.298	15793
844.435	15675
844.571	15603
844.708	15717
844.844	15838
844.98	15869
845.117	15713
845.253	15618
845.389	15523
845.525	15633
845.661	15507
845.798	15488
845.934	15477
846.07	15355
846.206	15549
846.342	15637
846.478	15439
846.614	15222
846.75	15211
846.886	15150
847.022	15386
847.158	15173
847.294	15173
847.429	15272
847.565	15116
847.701	15481
847.837	15051
847.972	14842
848.108	15039
848.244	15051
848.379	14921
848.515	14838
848.65	14743
848.786	14800
848.921	14876
849.057	14857
849.192	14872
849.328	14842
849.463	14853
849.598	14849
849.734	14720
849.869	14720
850.004	14636
850.14	14541
850.275	14526
850.41	14488
850.545	14541
850.68	14564
850.815	14613
850.95	14423
851.085	14686
851.22	14705
851.355	14533
851.49	14530
851.625	14533
851.76	14575
851.895	14381
852.03	14347
852.165	14492
852.299	14602
852.434	14598
852.569	14522
852.703	14587
852.838	14629
852.973	14682
853.107	14758
853.242	14594
853.376	14419
853.511	14343
853.645	14450
853.78	14587
853.914	14457
854.048	14488
854.183	14339
854.317	14419
854.451	14533
854.585	14412
854.72	14286
854.854	14560
854.988	14313
855.122	14385
855.256	14286
855.39	14454
855.524	14518
855.658	14518
855.792	14457
855.926	14495
856.06	14541
856.194	14568
856.327	14442
856.461	14317
856.595	14446
856.729	14533
856.862	14461
856.996	14522
857.13	14590
857.263	14575
857.397	14549
857.53	14503
857.664	14549
857.797	14526
857.931	14610
858.064	14571
858.197	14644
858.331	14419
858.464	14431
858.597	14377
858.731	14415
858.864	14431
858.997	14343
859.13	14454
859.263	14393
859.396	14541
859.529	14503
859.662	14351
859.795	14446
859.928	14480
860.061	14610
860.194	14564
860.327	14457
860.46	14492
860.592	14514
860.725	14648
860.858	14602
860.99	14469
861.123	14347
861.256	14271
861.388	14355
861.521	15146
861.653	14347
861.786	14263
861.918	14271
862.05	14256
862.183	14396
862.315	14434
862.447	14454
862.58	14324
862.712	14153
862.844	14218
862.976	14434
863.108	14263
863.24	14621
863.372	14058
863.504	14142
863.636	14161
863.768	14214
863.9	14202
864.032	14107
864.164	14111
864.296	14233
864.428	14370
864.559	14317
864.691	14301
864.823	14256
864.954	14229
865.086	14172
865.217	14263
865.349	14100
865.48	14191
865.612	14298
865.743	14309
865.875	14267
866.006	14214
866.137	14191
866.269	14187
866.4	14126
866.531	14218
866.662	14187
866.793	14199
866.924	14123
867.055	14157
867.186	14168
867.317	14176
867.448	14096
867.579	14187
867.71	14157
867.841	14123
867.972	14259
868.103	14183
868.233	14123
868.364	14229
868.495	14221
868.625	14389
868.756	14533
868.886	14328
869.017	14461
869.147	14480
869.278	14530
869.408	14522
869.539	14488
869.669	14415
869.799	14396
869.929	14568
870.06	14530
870.19	14765
870.32	14739
870.45	14746
870.58	14864
870.71	14948
870.84	14982
870.97	14845
871.1	14781
871.23	14956
871.36	15100
871.489	14960
871.619	15070
871.749	15093
871.879	14994
872.008	15131
872.138	15188
872.267	15131
872.397	14872
872.526	14880
872.656	14815
872.785	14906
872.915	15047
873.044	15154
873.173	15047
873.303	15077
873.432	15104
873.561	15199
873.69	15112
873.819	15051
873.948	15161
874.077	15142
874.206	15169
874.335	15081
874.464	15230
874.593	15526
874.722	15279
874.851	15439
874.979	15477
875.108	15481
875.237	15351
875.365	15325
875.494	15332
875.623	15504
875.751	15344
875.88	15504
876.008	15587
876.136	15637
876.265	15812
876.393	15979
876.521	15945
876.65	15937
876.778	15812
876.906	15770
877.034	15838
877.162	15804
877.29	15736
877.418	15819
877.546	15751
877.674	15789
877.802	15842
877.93	15838
878.058	15720
878.185	15789
878.313	15774
878.441	15781
878.568	15675
878.696	15766
878.824	15762
878.951	15888
879.079	15949
879.206	16166
879.333	16002
879.461	15838
879.588	15915
879.715	16040
879.842	16082
879.97	15956
880.097	15618
880.224	15690
880.351	15724
880.478	15671
880.605	15652
880.732	15732
880.859	15880
880.986	15694
881.112	15759
881.239	15466
881.366	15473
881.493	15351
881.619	15294
881.746	15332
881.872	15359
881.999	15329
882.125	15192
882.252	15230
882.378	15222
882.505	15450
882.631	15302
882.757	15093
882.883	15203
883.01	15150
883.136	15112
883.262	14971
883.388	14990
883.514	15184
883.64	15119
883.766	15119
883.892	14929
884.018	14929
884.143	15036
884.269	15272
884.395	14815
884.52	14826
884.646	14796
884.772	14724
884.897	14750
885.023	14834
885.148	14975
885.274	14963
885.399	14891
885.524	14686
885.65	14857
885.775	14857
885.9	14845
886.025	14948
886.15	14853
886.275	14826
886.4	14731
886.525	14746
886.65	14781
886.775	14796
886.9	14948
887.025	15032
887.149	14834
887.274	14686
887.399	14640
887.523	14579
887.648	14663
887.773	14648
887.897	14804
888.021	14629
888.146	14629
888.27	14712
888.395	14815
888.519	14686
888.643	14693
888.767	14769
888.891	14617
889.015	14522
889.139	14541
889.263	14492
889.387	14587
889.511	14686
889.635	14541
889.759	14450
889.883	14530
890.006	14526
890.13	14606
890.254	14408
890.377	14469
890.501	14298
890.624	14263
890.748	14358
890.871	14218
890.995	14084
891.118	14199
891.241	14218
891.364	14248
891.488	14381
891.611	14267
891.734	14191
891.857	14290
891.98	14271
892.103	14324
892.226	14221
892.349	14290
892.471	14077
892.594	14240
892.717	14271
892.839	14081
892.962	14195
893.085	14225
893.207	14218
893.33	14096
893.452	14183
893.575	14271
893.697	14134
893.819	14328
893.941	14374
894.064	14438
894.186	14199
894.308	14168
894.43	14389
894.552	14404
894.674	14343
894.796	14199
894.918	14377
895.04	14282
895.161	14423
895.283	14396
895.405	14206
895.526	14176
895.648	14256
895.769	14400
895.891	14419
896.012	14336
896.134	14415
896.255	14351
896.376	14294
896.498	14381
896.619	14317
896.74	14469
896.861	14518
896.982	14739
897.103	14815
897.224	14731
897.345	14625
897.466	14594
897.587	14579
897.708	14686
897.828	14765
897.949	14590
898.07	14488
898.19	14602
898.311	14788
898.431	14602
898.552	14712
898.672	14785
898.792	14705
898.913	14868
899.033	14739
899.153	14560
899.273	14511
899.393	14617
899.513	14724
899.633	14568
899.753	14705
899.873	14533
899.993	14701
900.113	14640
900.232	14674
900.352	14564
900.472	14454
900.591	14442
900.711	14396
900.83	14442
900.95	14511
901.069	14492
901.189	14492
901.308	14183
901.427	14107
901.546	14081
901.665	14168
901.784	14172
901.904	14092
902.023	13807
902.141	13681
902.26	13689
902.379	13788
902.498	13594
902.617	13643
902.735	13689
902.854	13685
902.973	13552
903.091	13487
903.21	13384
903.328	13415
903.446	13297
903.565	13228
903.683	13278
903.801	13240
903.919	13141
904.038	13221
904.156	13107
904.274	13091
904.392	13080
904.51	13122
904.627	13099
904.745	13057
904.863	13110
904.981	12901
905.098	12734
905.216	12757
905.334	12806
905.451	12814
905.569	12692
905.686	12878
905.803	12745
905.921	12597
906.038	12623
906.155	12665
906.272	12471
906.389	12502
906.506	12365
906.623	12342
906.74	12315
906.857	12251
906.974	12228
907.091	12384
907.208	12517
907.324	12369
907.441	12327
907.557	12136
907.674	12144
907.79	12049
907.907	11999
908.023	12106
908.139	12129
908.256	12072
908.372	12022
908.488	11942
908.604	11889
908.72	11817
908.836	11809
908.952	11821
909.068	11931
909.184	11988
909.3	11836
909.415	11851
909.531	11859
909.647	11672
909.762	11657
909.878	11570
909.993	11672
910.108	11611
910.224	11600
910.339	11634
910.454	11554
910.57	11486
910.685	11372
910.8	11676
910.915	11581
911.03	11505
911.145	11391
911.259	11322
911.374	11395
911.489	11246
911.604	11254
911.718	11109
911.833	11105
911.947	10923
912.062	10904
912.176	11090
912.291	11075
912.405	11029
912.519	11212
912.633	11189
912.748	11212
912.862	11083
912.976	11003
913.09	10797
913.204	10908
913.318	10991
913.431	11048
913.545	10972
913.659	11045
913.772	10938
913.886	10797
914	10839
914.113	10946
914.226	10965
914.34	10904
914.453	10733
914.566	10839
914.68	10843
914.793	10820
914.906	10588
915.019	10546
915.132	10519
915.245	10512
915.358	10577
915.47	10558
915.583	10672
915.696	10634
915.809	10714
915.921	10786
916.034	10565
916.146	10546
916.259	10546
916.371	10626
916.483	10615
916.595	10516
916.708	10417
916.82	10443
916.932	10603
917.044	10481
917.156	10417
917.268	10352
917.38	10424
917.491	10360
917.603	10459
917.715	10432
917.826	10554
917.938	10413
918.049	10318
918.161	10478
918.272	10519
918.384	10493
918.495	10538
918.606	10310
918.717	10181
918.828	10333
918.939	10291
919.05	10219
919.161	10261
919.272	10097
919.383	10246
919.494	10367
919.604	10531
919.715	10352
919.826	10211
919.936	10234
920.047	10417
920.157	10257
920.267	10470
920.378	10333
920.488	10280
920.598	10474
920.708	10607
920.818	10504
920.928	10630
921.038	10740
921.148	10599
921.258	10333
921.368	10219
921.477	10280
921.587	10181
921.697	10044
921.806	10196
921.916	10021
922.025	9873
922.134	9899
922.244	9774
922.353	9895
922.462	9701
922.571	9606
922.68	9545
922.789	9473
922.898	9610
923.007	9477
923.116	9618
923.224	9572
923.333	9625
923.442	9408
923.55	9401
923.659	9420
923.767	9424
923.876	9351
923.984	9519
924.092	9332
924.201	9435
924.309	9367
924.417	9412
924.525	9355
924.633	9294
924.741	10367
924.849	9127
924.956	9374
925.064	9154
925.172	9131
925.279	9146
925.387	9195
925.494	9279
925.602	9302
925.709	9245
925.816	9119
925.924	9150
926.031	9268
926.138	9176
926.245	9226
926.352	9112
926.459	9317
926.566	9325
926.673	9154
926.779	9074
926.886	9024
926.993	8967
927.099	8902
927.206	8887
927.312	8842
927.419	9009
927.525	8914
927.631	8944
927.737	8769
927.843	8857
927.95	8659
928.056	8773
928.162	8769
928.267	8838
928.373	9473
928.479	8864
928.585	8651
928.69	8758
928.796	8819
928.901	8708
929.007	8552
929.112	8712
929.218	8697
929.323	8705
929.428	8659
929.533	8731
929.638	8571
929.743	8575
929.848	8640
929.953	8648
930.058	8571
930.163	8328
930.267	8393
930.372	8530
930.477	8362
930.581	8613
930.685	8419
930.79	8317
930.894	8271
930.998	8298
931.103	8514
931.207	8107
931.311	8115
931.415	8039
931.519	7799
931.623	7837
