Data from test_V78500241_963.txt Node
Date: Fri Mar 25 14:40:25 CST 2022
User: usil
Spectrometer: V785-0024
Trigger mode: 0
Integration Time (sec): 4.000000E-1
Scans to average: 1
Nonlinearity correction enabled: false
Boxcar width: 0
Storing dark spectrum: false
XAxis mode: Wavelengths
Number of Pixels in Spectrum: 1024
>>>>>Begin Spectral Data<<<<<
801.071	23524
801.214	23395
801.356	23147
801.499	23048
801.641	22953
801.783	22839
801.926	22869
802.068	22782
802.211	22637
802.353	22672
802.496	22402
802.638	22348
802.78	22287
802.923	22257
803.065	22265
803.208	22177
803.35	22257
803.492	22280
803.635	22268
803.777	22196
803.919	22272
804.061	22527
804.204	22276
804.346	22177
804.488	22055
804.63	22105
804.773	22006
804.915	22101
805.057	22135
805.199	22070
805.341	22067
805.483	22386
805.626	22325
805.768	22082
805.91	22177
806.052	22196
806.194	22082
806.336	22272
806.478	22284
806.62	22291
806.762	22238
806.904	22561
807.046	22679
807.188	22588
807.33	22645
807.472	22835
807.614	22812
807.756	22816
807.898	22946
808.04	23025
808.182	23189
808.324	23528
808.465	23611
808.607	24133
808.749	24479
808.891	24639
809.033	24700
809.174	24388
809.316	24076
809.458	23863
809.6	23509
809.741	23551
809.883	23185
810.025	23265
810.166	23162
810.308	22999
810.45	22881
810.591	22999
810.733	22721
810.875	22497
811.016	22470
811.158	22497
811.299	22615
811.441	22660
811.582	22554
811.724	22413
811.865	22268
812.007	22470
812.148	22333
812.29	22421
812.431	22538
812.573	22744
812.714	22767
812.855	22889
812.997	23105
813.138	23132
813.279	23064
813.421	22934
813.562	22786
813.703	22767
813.845	22481
813.986	22314
814.127	22093
814.268	21960
814.41	21945
814.551	21800
814.692	22013
814.833	21884
814.974	21869
815.115	21876
815.256	21755
815.397	21705
815.539	21728
815.68	21682
815.821	21576
815.962	21641
816.103	21690
816.244	21416
816.385	21420
816.526	21454
816.666	21241
816.807	21020
816.948	21230
817.089	21150
817.23	21165
817.371	21062
817.512	21017
817.653	21028
817.793	21017
817.934	21055
818.075	21017
818.216	21112
818.356	20891
818.497	20899
818.638	20678
818.778	20731
818.919	20724
819.06	20796
819.2	20731
819.341	20910
819.481	20921
819.622	20998
819.762	21123
819.903	21207
820.043	21127
820.184	20960
820.324	21055
820.465	21085
820.605	20986
820.746	20941
820.886	20883
821.026	20937
821.167	20910
821.307	21081
821.447	20918
821.588	20921
821.728	20632
821.868	20617
822.008	20339
822.149	20347
822.289	20286
822.429	20077
822.569	19963
822.709	20145
822.849	19997
822.99	19890
823.13	19856
823.27	19871
823.41	19563
823.55	19594
823.69	19628
823.83	19689
823.97	19483
824.11	19514
824.25	19468
824.389	19350
824.529	19438
824.669	19472
824.809	19548
824.949	19556
825.089	19480
825.228	19441
825.368	19270
825.508	19289
825.648	19221
825.787	19183
825.927	19255
826.067	19206
826.206	19206
826.346	19320
826.485	19126
826.625	19175
826.765	19240
826.904	19225
827.044	19019
827.183	18939
827.323	18821
827.462	18928
827.601	18901
827.741	18848
827.88	18859
828.02	18863
828.159	18833
828.298	18825
828.437	18909
828.577	18783
828.716	19000
828.855	18806
828.994	18734
829.134	18684
829.273	18593
829.412	18582
829.551	18544
829.69	18658
829.829	18726
829.968	18684
830.107	18597
830.246	18654
830.385	18532
830.524	18540
830.663	18433
830.802	18369
830.941	18258
831.08	18186
831.219	18342
831.357	18357
831.496	18479
831.635	18285
831.774	18148
831.913	18102
832.051	18045
832.19	18057
832.329	18053
832.467	17870
832.606	17965
832.744	18034
832.883	17984
833.022	17931
833.16	18019
833.299	17980
833.437	18079
833.576	17935
833.714	18148
833.852	18019
833.991	18095
834.129	18186
834.267	18190
834.406	18133
834.544	18148
834.682	18026
834.821	17897
834.959	18186
835.097	17893
835.235	18083
835.373	18041
835.511	17961
835.65	17874
835.788	17878
835.926	17794
836.064	17733
836.202	17771
836.34	17946
836.478	17904
836.615	17832
836.753	17984
836.891	18030
837.029	17923
837.167	17783
837.305	17809
837.443	17752
837.58	17665
837.718	17840
837.856	17760
837.993	17714
838.131	17726
838.269	17642
838.406	17627
838.544	17535
838.681	17410
838.819	17356
838.956	17212
839.094	17090
839.231	17334
839.369	17379
839.506	17600
839.643	17463
839.781	17200
839.918	17124
840.055	17162
840.193	17242
840.33	17181
840.467	17162
840.604	17250
840.742	17425
840.879	17029
841.016	17151
841.153	17200
841.29	17288
841.427	17170
841.564	17284
841.701	17178
841.838	17067
841.975	17105
842.112	17056
842.249	17071
842.385	16999
842.522	17056
842.659	16984
842.796	16976
842.933	16934
843.069	16946
843.206	16957
843.343	17132
843.479	16984
843.616	16919
843.752	16843
843.889	16740
844.025	16942
844.162	16793
844.298	16847
844.435	16786
844.571	16755
844.708	16911
844.844	16991
844.98	17006
845.117	17124
845.253	17052
845.389	17094
845.525	17337
845.661	17767
845.798	18201
845.934	18715
846.07	18935
846.206	18977
846.342	18715
846.478	17965
846.614	17216
846.75	16854
846.886	16630
847.022	16599
847.158	16478
847.294	16459
847.429	16341
847.565	16405
847.701	16550
847.837	16109
847.972	16074
848.108	16177
848.244	16044
848.379	15998
848.515	15865
848.65	15793
848.786	15880
848.921	16002
849.057	15930
849.192	15922
849.328	15873
849.463	15911
849.598	15876
849.734	15873
849.869	15774
850.004	15603
850.14	15739
850.275	15698
850.41	15591
850.545	15652
850.68	15629
850.815	15686
850.95	15595
851.085	15759
851.22	15667
851.355	15720
851.49	15618
851.625	15507
851.76	15671
851.895	15469
852.03	15511
852.165	15599
852.299	15603
852.434	15671
852.569	15694
852.703	15660
852.838	15705
852.973	15816
853.107	15755
853.242	15606
853.376	15450
853.511	15302
853.645	15447
853.78	15667
853.914	15545
854.048	15485
854.183	15507
854.317	15622
854.451	15747
854.585	15435
854.72	15580
854.854	15606
854.988	15507
855.122	15500
855.256	15382
855.39	15606
855.524	15576
855.658	15561
855.792	15538
855.926	15545
856.06	15572
856.194	15739
856.327	15458
856.461	15412
856.595	15386
856.729	15401
856.862	15564
856.996	15576
857.13	15641
857.263	15660
857.397	15568
857.53	15519
857.664	15496
857.797	15663
857.931	15568
858.064	15515
858.197	15622
858.331	15542
858.464	15340
858.597	15386
858.731	15466
858.864	15477
858.997	15473
859.13	15542
859.263	15603
859.396	15557
859.529	15511
859.662	15401
859.795	15428
859.928	15447
860.061	15599
860.194	15599
860.327	15454
860.46	15439
860.592	15534
860.725	15644
860.858	15606
860.99	15473
861.123	15283
861.256	15370
861.388	15416
861.521	16124
861.653	15454
861.786	15321
861.918	15332
862.05	15420
862.183	15515
862.315	15450
862.447	15443
862.58	15443
862.712	15283
862.844	15237
862.976	15325
863.108	15275
863.24	15686
863.372	15154
863.504	15264
863.636	15154
863.768	15302
863.9	15302
864.032	15157
864.164	15218
864.296	15268
864.428	15405
864.559	15382
864.691	15329
864.823	15340
864.954	15351
865.086	15260
865.217	15154
865.349	15180
865.48	15195
865.612	15317
865.743	15329
865.875	15176
866.006	15180
866.137	15252
866.269	15188
866.4	15154
866.531	15062
866.662	15169
866.793	15131
866.924	15176
867.055	15317
867.186	15230
867.317	15066
867.448	15089
867.579	15119
867.71	15104
867.841	15066
867.972	15249
868.103	15135
868.233	15252
868.364	15241
868.495	15184
868.625	15443
868.756	15584
868.886	15344
869.017	15492
869.147	15568
869.278	15660
869.408	15500
869.539	15435
869.669	15500
869.799	15580
869.929	15603
870.06	15568
870.19	15854
870.32	15732
870.45	15835
870.58	15804
870.71	15949
870.84	15937
870.97	15876
871.1	15915
871.23	16013
871.36	16105
871.489	15983
871.619	15979
871.749	15983
871.879	16093
872.008	16109
872.138	16124
872.267	16105
872.397	15846
872.526	15953
872.656	15876
872.785	15835
872.915	16036
873.044	16226
873.173	16036
873.303	16253
873.432	16112
873.561	16158
873.69	16166
873.819	16200
873.948	16234
874.077	16147
874.206	15987
874.335	16120
874.464	16169
874.593	16325
874.722	16375
874.851	16455
874.979	16459
875.108	16451
875.237	16318
875.365	16341
875.494	16375
875.623	16455
875.751	16360
875.88	16459
876.008	16626
876.136	16675
876.265	16900
876.393	16976
876.521	16946
876.65	16908
876.778	16934
876.906	16801
877.034	16793
877.162	16877
877.29	16782
877.418	16854
877.546	16839
877.674	16877
877.802	16869
877.93	16923
878.058	16934
878.185	16877
878.313	16885
878.441	16923
878.568	16930
878.696	16957
878.824	17098
878.951	17337
879.079	17463
879.206	17897
879.333	17946
879.461	17942
879.588	18030
879.715	18148
879.842	18235
879.97	17756
880.097	17463
880.224	17318
880.351	17280
880.478	17086
880.605	16938
880.732	17014
880.859	17223
880.986	17010
881.112	17037
881.239	16900
881.366	16767
881.493	16634
881.619	16618
881.746	16672
881.872	16664
881.999	16523
882.125	16538
882.252	16713
882.378	16748
882.505	16672
882.631	16622
882.757	16478
882.883	16527
883.01	16398
883.136	16409
883.262	16295
883.388	16280
883.514	16443
883.64	16478
883.766	16379
883.892	16280
884.018	16295
884.143	16421
884.269	16519
884.395	16143
884.52	16147
884.646	16166
884.772	16021
884.897	15975
885.023	16044
885.148	16295
885.274	16230
885.399	16261
885.524	16147
885.65	16188
885.775	16162
885.9	16105
886.025	16207
886.15	16124
886.275	16048
886.4	15949
886.525	16002
886.65	15937
886.775	15857
886.9	16128
887.025	16185
887.149	15945
887.274	15774
887.399	15850
887.523	15762
887.648	15637
887.773	15747
887.897	15884
888.021	15857
888.146	15667
888.27	15800
888.395	15884
888.519	15816
888.643	15778
888.767	15804
888.891	15610
889.015	15606
889.139	15736
889.263	15561
889.387	15709
889.511	15759
889.635	15679
889.759	15530
889.883	15534
890.006	15656
890.13	15663
890.254	15534
890.377	15458
890.501	15313
890.624	15367
890.748	15374
890.871	15264
890.995	15165
891.118	15112
891.241	15218
891.364	15279
891.488	15416
891.611	15108
891.734	15230
891.857	15351
891.98	15256
892.103	15291
892.226	15173
892.349	15169
892.471	15116
892.594	15131
892.717	15275
892.839	15207
892.962	15150
893.085	15306
893.207	15211
893.33	15104
893.452	15093
893.575	15222
893.697	15138
893.819	15256
893.941	15359
894.064	15294
894.186	15085
894.308	15013
894.43	15252
894.552	15340
894.674	15325
894.796	15104
894.918	15176
895.04	15112
895.161	15279
895.283	15287
895.405	15077
895.526	15207
895.648	15260
895.769	15332
895.891	15252
896.012	15344
896.134	15378
896.255	15340
896.376	15287
896.498	15401
896.619	15355
896.74	15298
896.861	15386
896.982	15591
897.103	15778
897.224	15656
897.345	15572
897.466	15466
897.587	15614
897.708	15667
897.828	15599
897.949	15534
898.07	15439
898.19	15485
898.311	15789
898.431	15591
898.552	15561
898.672	15793
898.792	15686
898.913	15641
899.033	15652
899.153	15477
899.273	15443
899.393	15511
899.513	15443
899.633	15458
899.753	15545
899.873	15496
899.993	15572
900.113	15386
900.232	15576
900.352	15450
900.472	15401
900.591	15374
900.711	15321
900.83	15241
900.95	15515
901.069	15591
901.189	15272
901.308	15085
901.427	15020
901.546	14944
901.665	15051
901.784	14952
901.904	14880
902.023	14769
902.141	14727
902.26	14492
902.379	14701
902.498	14499
902.617	14469
902.735	14636
902.854	14450
902.973	14530
903.091	14202
903.21	14195
903.328	14286
903.446	14172
903.565	14031
903.683	14111
903.801	14062
903.919	14046
904.038	14054
904.156	13932
904.274	13974
904.392	13883
904.51	13826
904.627	13818
904.745	13906
904.863	13955
904.981	13712
905.098	13487
905.216	13525
905.334	13548
905.451	13483
905.569	13483
905.686	13594
905.803	13521
905.921	13350
906.038	13415
906.155	13358
906.272	13266
906.389	13270
906.506	13141
906.623	13110
906.74	13114
906.857	13069
906.974	13031
907.091	13194
907.208	13206
907.324	13168
907.441	13038
907.557	12882
907.674	12810
907.79	12768
907.907	12783
908.023	12814
908.139	12859
908.256	12772
908.372	12776
908.488	12696
908.604	12669
908.72	12547
908.836	12521
908.952	12555
909.068	12574
909.184	12783
909.3	12536
909.415	12601
909.531	12582
909.647	12369
909.762	12418
909.878	12308
909.993	12334
910.108	12296
910.224	12315
910.339	12346
910.454	12197
910.57	12209
910.685	12098
910.8	12391
910.915	12319
911.03	12334
911.145	11996
911.259	12011
911.374	11996
911.489	12030
911.604	11882
911.718	11855
911.833	11745
911.947	11733
912.062	11604
912.176	11840
912.291	11733
912.405	11745
912.519	11958
912.633	11988
912.748	11836
912.862	11729
912.976	11634
913.09	11528
913.204	11604
913.318	11604
913.431	11680
913.545	11729
913.659	11752
913.772	11570
913.886	11509
914	11463
914.113	11566
914.226	11619
914.34	11558
914.453	11467
914.566	11512
914.68	11417
914.793	11334
914.906	11261
915.019	11204
915.132	11132
915.245	11269
915.358	11193
915.47	11227
915.583	11280
915.696	11280
915.809	11303
915.921	11436
916.034	11174
916.146	11174
916.259	11197
916.371	11254
916.483	11242
916.595	11128
916.708	11159
916.82	11151
916.932	11204
917.044	11090
917.156	11094
917.268	11018
917.38	10999
917.491	11006
917.603	11010
917.715	11067
917.826	11181
917.938	10991
918.049	10919
918.161	11052
918.272	11128
918.384	11128
918.495	11071
918.606	10869
918.717	10828
918.828	10987
918.939	10972
919.05	10797
919.161	10835
919.272	10672
919.383	10744
919.494	10930
919.604	11109
919.715	10942
919.826	10790
919.936	10889
920.047	10991
920.157	10919
920.267	11132
920.378	10976
920.488	10934
920.598	11029
920.708	11193
920.818	11079
920.928	11010
921.038	11296
921.148	11140
921.258	10896
921.368	10809
921.477	10752
921.587	10698
921.697	10580
921.806	10793
921.916	10618
922.025	10447
922.134	10394
922.244	10375
922.353	10455
922.462	10318
922.571	10291
922.68	10086
922.789	10063
922.898	10143
923.007	10078
923.116	10154
923.224	10032
923.333	10124
923.442	10025
923.55	9926
923.659	10017
923.767	10048
923.876	9899
923.984	10032
924.092	9903
924.201	10055
924.309	9899
924.417	10048
924.525	9861
924.633	9934
924.741	10710
924.849	9789
924.956	9804
925.064	9690
925.172	9606
925.279	9618
925.387	9732
925.494	9720
925.602	9907
925.709	9800
925.816	9656
925.924	9705
926.031	9793
926.138	9724
926.245	9770
926.352	9622
926.459	9774
926.566	9762
926.673	9595
926.779	9622
926.886	9618
926.993	9473
927.099	9424
927.206	9389
927.312	9340
927.419	9488
927.525	9439
927.631	9443
927.737	9321
927.843	9294
927.95	9222
928.056	9291
928.162	9233
928.267	9340
928.373	9846
928.479	9359
928.585	9165
928.69	9332
928.796	9298
928.901	9218
929.007	9085
929.112	9207
929.218	9116
929.323	9070
929.428	9142
929.533	9214
929.638	9100
929.743	9047
929.848	9097
929.953	9116
930.058	8979
930.163	8891
930.267	8929
930.372	9017
930.477	8849
930.581	9081
930.685	8899
930.79	8769
930.894	8796
930.998	8807
931.103	8902
931.207	8575
931.311	8495
931.415	8446
931.519	8374
931.623	8294
