Data from test_V78500241_2995.txt Node
Date: Fri Mar 25 14:54:34 CST 2022
User: usil
Spectrometer: V785-0024
Trigger mode: 0
Integration Time (sec): 4.000000E-1
Scans to average: 1
Nonlinearity correction enabled: false
Boxcar width: 0
Storing dark spectrum: false
XAxis mode: Wavelengths
Number of Pixels in Spectrum: 1024
>>>>>Begin Spectral Data<<<<<
801.071	22059
801.214	21991
801.356	21812
801.499	21663
801.641	21485
801.783	21443
801.926	21538
802.068	21511
802.211	21321
802.353	21245
802.496	20979
802.638	20960
802.78	20979
802.923	20853
803.065	20762
803.208	20830
803.35	20716
803.492	21081
803.635	20944
803.777	20838
803.919	20842
804.061	21184
804.204	20864
804.346	20746
804.488	20670
804.63	20800
804.773	20648
804.915	20735
805.057	20842
805.199	20777
805.341	20826
805.483	20834
805.626	20857
805.768	20701
805.91	20724
806.052	20686
806.194	20739
806.336	20975
806.478	20720
806.62	20629
806.762	20830
806.904	20967
807.046	20986
807.188	21036
807.33	20986
807.472	21001
807.614	20868
807.756	20941
807.898	20857
808.04	20739
808.182	20807
808.324	20849
808.465	20845
808.607	20941
808.749	21127
808.891	21123
809.033	21329
809.174	21150
809.316	21085
809.458	21154
809.6	21062
809.741	21085
809.883	21157
810.025	21233
810.166	21287
810.308	21169
810.45	21093
810.591	21207
810.733	21024
810.875	20944
811.016	20826
811.158	20781
811.299	20941
811.441	20811
811.582	20994
811.724	20967
811.865	20842
812.007	20838
812.148	20876
812.29	20899
812.431	21001
812.573	21199
812.714	21279
812.855	21382
812.997	21557
813.138	21648
813.279	21363
813.421	21336
813.562	21431
813.703	21131
813.845	21047
813.986	20708
814.127	20602
814.268	20541
814.41	20545
814.551	20457
814.692	20427
814.833	20408
814.974	20404
815.115	20404
815.256	20237
815.397	20225
815.539	20229
815.68	20081
815.821	20195
815.962	20054
816.103	20050
816.244	20027
816.385	19944
816.526	19932
816.666	19693
816.807	19491
816.948	19651
817.089	19700
817.23	19594
817.371	19537
817.512	19544
817.653	19510
817.793	19533
817.934	19518
818.075	19529
818.216	19487
818.356	19472
818.497	19327
818.638	19228
818.778	19221
818.919	19213
819.06	19187
819.2	19251
819.341	19388
819.481	19457
819.622	19597
819.762	19693
819.903	19594
820.043	19460
820.184	19567
820.324	19472
820.465	19605
820.605	19472
820.746	19518
820.886	19384
821.026	19400
821.167	19339
821.307	19597
821.447	19430
821.588	19350
821.728	19217
821.868	19099
822.008	19008
822.149	18913
822.289	18958
822.429	18703
822.569	18563
822.709	18593
822.849	18456
822.99	18365
823.13	18384
823.27	18410
823.41	18136
823.55	18232
823.69	18350
823.83	18311
823.97	18190
824.11	18045
824.25	17950
824.389	17996
824.529	18095
824.669	18136
824.809	18079
824.949	18133
825.089	17984
825.228	18095
825.368	17798
825.508	17832
825.648	17847
825.787	17889
825.927	17790
826.067	17680
826.206	17813
826.346	17809
826.485	17863
826.625	17760
826.765	17802
826.904	17779
827.044	17524
827.183	17535
827.323	17501
827.462	17501
827.601	17425
827.741	17493
827.88	17497
828.02	17299
828.159	17376
828.298	17448
828.437	17455
828.577	17345
828.716	17551
828.855	17429
828.994	17239
829.134	17273
829.273	17185
829.412	17231
829.551	17140
829.69	17159
829.829	17212
829.968	17292
830.107	17284
830.246	17143
830.385	17242
830.524	17075
830.663	17083
830.802	16908
830.941	16797
831.08	16725
831.219	16972
831.357	16885
831.496	17121
831.635	16877
831.774	16748
831.913	16736
832.051	16645
832.19	16554
832.329	16649
832.467	16542
832.606	16531
832.744	16485
832.883	16584
833.022	16459
833.16	16322
833.299	16558
833.437	16481
833.576	16573
833.714	16554
833.852	16691
833.991	16550
834.129	16584
834.267	16599
834.406	16519
834.544	16664
834.682	16618
834.821	16485
834.959	16656
835.097	16466
835.235	16584
835.373	16508
835.511	16519
835.65	16497
835.788	16527
835.926	16341
836.064	16276
836.202	16310
836.34	16459
836.478	16573
836.615	16474
836.753	16398
836.891	16531
837.029	16588
837.167	16337
837.305	16402
837.443	16333
837.58	16322
837.718	16390
837.856	16402
837.993	16204
838.131	16242
838.269	16242
838.406	16223
838.544	16223
838.681	16071
838.819	15991
838.956	15785
839.094	15835
839.231	16010
839.369	16006
839.506	16303
839.643	16139
839.781	15774
839.918	15888
840.055	15895
840.193	15865
840.33	15865
840.467	15953
840.604	15785
840.742	16021
840.879	15739
841.016	15778
841.153	15720
841.29	15892
841.427	15812
841.564	15884
841.701	15831
841.838	15819
841.975	15732
842.112	15713
842.249	15739
842.385	15599
842.522	15827
842.659	15610
842.796	15682
842.933	15603
843.069	15568
843.206	15515
843.343	15652
843.479	15641
843.616	15701
843.752	15469
843.889	15447
844.025	15625
844.162	15401
844.298	15523
844.435	15279
844.571	15370
844.708	15496
844.844	15511
844.98	15603
845.117	15401
845.253	15325
845.389	15291
845.525	15397
845.661	15291
845.798	15188
845.934	15207
846.07	15116
846.206	15252
846.342	15386
846.478	15252
846.614	15070
846.75	14849
846.886	15058
847.022	15131
847.158	15013
847.294	14948
847.429	14967
847.565	15020
847.701	15211
847.837	14777
847.972	14667
848.108	14842
848.244	14727
848.379	14598
848.515	14636
848.65	14522
848.786	14613
848.921	14583
849.057	14667
849.192	14632
849.328	14655
849.463	14651
849.598	14583
849.734	14450
849.869	14438
850.004	14442
850.14	14457
850.275	14336
850.41	14233
850.545	14415
850.68	14374
850.815	14381
850.95	14256
851.085	14503
851.22	14492
851.355	14438
851.49	14271
851.625	14282
851.76	14343
851.895	14244
852.03	14252
852.165	14305
852.299	14240
852.434	14393
852.569	14465
852.703	14328
852.838	14374
852.973	14533
853.107	14442
853.242	14309
853.376	14362
853.511	14103
853.645	14229
853.78	14381
853.914	14221
854.048	14218
854.183	14218
854.317	14195
854.451	14351
854.585	14218
854.72	14240
854.854	14233
854.988	14043
855.122	14237
855.256	14024
855.39	14225
855.524	14248
855.658	14237
855.792	14282
855.926	14355
856.06	14301
856.194	14370
856.327	14199
856.461	14164
856.595	14199
856.729	14164
856.862	14202
856.996	14240
857.13	14328
857.263	14294
857.397	14317
857.53	14172
857.664	14298
857.797	14377
857.931	14301
858.064	14248
858.197	14347
858.331	14183
858.464	14134
858.597	14077
858.731	14206
858.864	14191
858.997	14191
859.13	14298
859.263	14252
859.396	14282
859.529	14084
859.662	14199
859.795	14115
859.928	14252
860.061	14351
860.194	14393
860.327	14221
860.46	14237
860.592	14355
860.725	14324
860.858	14229
860.99	14214
861.123	14092
861.256	14225
861.388	14256
861.521	14952
861.653	14081
861.786	14016
861.918	14031
862.05	14195
862.183	14138
862.315	14256
862.447	14271
862.58	14172
862.712	13913
862.844	13928
862.976	14084
863.108	14039
863.24	14438
863.372	13928
863.504	13913
863.636	13955
863.768	14088
863.9	14016
864.032	13894
864.164	13951
864.296	14054
864.428	14168
864.559	14012
864.691	14008
864.823	13989
864.954	14069
865.086	14001
865.217	13974
865.349	13909
865.48	13902
865.612	13993
865.743	14172
865.875	14043
866.006	13940
866.137	13959
866.269	13982
866.4	13959
866.531	13890
866.662	13856
866.793	13818
866.924	13890
867.055	13963
867.186	13997
867.317	13986
867.448	13894
867.579	13986
867.71	13940
867.841	13879
867.972	14001
868.103	14001
868.233	13947
868.364	14012
868.495	14012
868.625	14206
868.756	14313
868.886	14081
869.017	14187
869.147	14332
869.278	14275
869.408	14259
869.539	14218
869.669	14366
869.799	14267
869.929	14351
870.06	14358
870.19	14552
870.32	14522
870.45	14514
870.58	14625
870.71	14663
870.84	14674
870.97	14659
871.1	14693
871.23	14811
871.36	14804
871.489	14667
871.619	14800
871.749	14838
871.879	14857
872.008	14861
872.138	14872
872.267	14845
872.397	14686
872.526	14758
872.656	14625
872.785	14625
872.915	14914
873.044	14823
873.173	14815
873.303	14880
873.432	14910
873.561	14883
873.69	14785
873.819	14849
873.948	14918
874.077	14990
874.206	14823
874.335	14861
874.464	14933
874.593	15180
874.722	15081
874.851	15173
874.979	15180
875.108	15260
875.237	15077
875.365	15135
875.494	15081
875.623	15233
875.751	15180
875.88	15135
876.008	15329
876.136	15431
876.265	15519
876.393	15709
876.521	15599
876.65	15599
876.778	15656
876.906	15614
877.034	15530
877.162	15660
877.29	15447
877.418	15641
877.546	15660
877.674	15648
877.802	15644
877.93	15595
878.058	15534
878.185	15545
878.313	15587
878.441	15622
878.568	15485
878.696	15496
878.824	15587
878.951	15663
879.079	15808
879.206	15899
879.333	15755
879.461	15675
879.588	15739
879.715	15861
879.842	15827
879.97	15713
880.097	15477
880.224	15424
880.351	15466
880.478	15469
880.605	15317
880.732	15473
880.859	15637
880.986	15553
881.112	15496
881.239	15374
881.366	15218
881.493	15097
881.619	15108
881.746	15074
881.872	15077
881.999	15157
882.125	15131
882.252	15199
882.378	15074
882.505	15218
882.631	15123
882.757	14910
882.883	14971
883.01	15005
883.136	14842
883.262	14777
883.388	14765
883.514	14944
883.64	14979
883.766	14899
883.892	14716
884.018	14910
884.143	14910
884.269	14929
884.395	14773
884.52	14617
884.646	14621
884.772	14514
884.897	14469
885.023	14621
885.148	14743
885.274	14689
885.399	14773
885.524	14735
885.65	14651
885.775	14617
885.9	14568
886.025	14796
886.15	14625
886.275	14518
886.4	14594
886.525	14613
886.65	14579
886.775	14499
886.9	14705
887.025	14830
887.149	14644
887.274	14488
887.399	14495
887.523	14366
887.648	14313
887.773	14324
887.897	14495
888.021	14511
888.146	14541
888.27	14571
888.395	14617
888.519	14454
888.643	14495
888.767	14594
888.891	14404
889.015	14370
889.139	14389
889.263	14305
889.387	14465
889.511	14564
889.635	14324
889.759	14377
889.883	14263
890.006	14256
890.13	14438
890.254	14286
890.377	14313
890.501	14119
890.624	14092
890.748	14221
890.871	14073
890.995	13883
891.118	13974
891.241	13978
891.364	14031
891.488	14161
891.611	14008
891.734	14130
891.857	14107
891.98	14054
892.103	14119
892.226	14103
892.349	14008
892.471	13974
892.594	13989
892.717	14008
892.839	13906
892.962	14031
893.085	14035
893.207	14073
893.33	13852
893.452	14050
893.575	14092
893.697	13928
893.819	14191
893.941	14240
894.064	14126
894.186	13978
894.308	13928
894.43	14187
894.552	14229
894.674	14206
894.796	13978
894.918	14111
895.04	14157
895.161	14161
895.283	14240
895.405	14172
895.526	14111
895.648	14107
895.769	14202
895.891	14233
896.012	14286
896.134	14248
896.255	14199
896.376	14084
896.498	14195
896.619	14240
896.74	14191
896.861	14328
896.982	14590
897.103	14667
897.224	14362
897.345	14442
897.466	14385
897.587	14454
897.708	14613
897.828	14514
897.949	14511
898.07	14362
898.19	14385
898.311	14549
898.431	14533
898.552	14488
898.672	14689
898.792	14705
898.913	14480
899.033	14503
899.153	14396
899.273	14294
899.393	14374
899.513	14442
899.633	14454
899.753	14362
899.873	14366
899.993	14465
900.113	14454
900.232	14469
900.352	14412
900.472	14343
900.591	14229
900.711	14358
900.83	14240
900.95	14461
901.069	14362
901.189	14221
901.308	14050
901.427	13917
901.546	13989
901.665	14001
901.784	14005
901.904	13757
902.023	13658
902.141	13556
902.26	13548
902.379	13616
902.498	13540
902.617	13457
902.735	13483
902.854	13552
902.973	13491
903.091	13137
903.21	13152
903.328	13240
903.446	13175
903.565	13152
903.683	13160
903.801	13038
903.919	13095
904.038	13118
904.156	12932
904.274	12970
904.392	12920
904.51	12894
904.627	12802
904.745	12970
904.863	12951
904.981	12688
905.098	12506
905.216	12582
905.334	12696
905.451	12635
905.569	12566
905.686	12650
905.803	12532
905.921	12414
906.038	12566
906.155	12422
906.272	12296
906.389	12266
906.506	12155
906.623	12243
906.74	12232
906.857	12083
906.974	12140
907.091	12205
907.208	12330
907.324	12235
907.441	12102
907.557	11965
907.674	11961
907.79	11809
907.907	11920
908.023	11923
908.139	11965
908.256	11889
908.372	11912
908.488	11802
908.604	11703
908.72	11771
908.836	11688
908.952	11680
909.068	11726
909.184	11741
909.3	11760
909.415	11699
909.531	11722
909.647	11478
909.762	11528
909.878	11486
909.993	11551
910.108	11474
910.224	11463
910.339	11467
910.454	11379
910.57	11223
910.685	11265
910.8	11505
910.915	11490
911.03	11395
911.145	11170
911.259	11159
911.374	11094
911.489	11132
911.604	11075
911.718	10968
911.833	10953
911.947	10790
912.062	10774
912.176	10904
912.291	10881
912.405	10873
912.519	11105
912.633	11102
912.748	11022
912.862	10957
912.976	10843
913.09	10714
913.204	10824
913.318	10812
913.431	10904
913.545	10938
913.659	10927
913.772	10771
913.886	10683
914	10622
914.113	10809
914.226	10835
914.34	10786
914.453	10618
914.566	10733
914.68	10675
914.793	10637
914.906	10531
915.019	10428
915.132	10379
915.245	10363
915.358	10379
915.47	10500
915.583	10424
915.696	10375
915.809	10611
915.921	10569
916.034	10386
916.146	10375
916.259	10470
916.371	10527
916.483	10455
916.595	10356
916.708	10337
916.82	10386
916.932	10402
917.044	10303
917.156	10356
917.268	10280
917.38	10295
917.491	10280
917.603	10238
917.715	10379
917.826	10421
917.938	10211
918.049	10185
918.161	10268
918.272	10390
918.384	10382
918.495	10257
918.606	10181
918.717	10090
918.828	10071
918.939	10166
919.05	10109
919.161	10185
919.272	9960
919.383	9979
919.494	10242
919.604	10344
919.715	10169
919.826	10105
919.936	10086
920.047	10234
920.157	10181
920.267	10402
920.378	10284
920.488	10090
920.598	10394
920.708	10508
920.818	10284
920.928	10436
921.038	10432
921.148	10527
921.258	10143
921.368	10169
921.477	10029
921.587	10002
921.697	9846
921.806	10055
921.916	9884
922.025	9755
922.134	9740
922.244	9694
922.353	9755
922.462	9637
922.571	9561
922.68	9435
922.789	9412
922.898	9393
923.007	9412
923.116	9405
923.224	9443
923.333	9401
923.442	9264
923.55	9275
923.659	9382
923.767	9344
923.876	9249
923.984	9363
924.092	9230
924.201	9298
924.309	9245
924.417	9298
924.525	9241
924.633	9256
924.741	10166
924.849	9058
924.956	9180
925.064	9043
925.172	9005
925.279	9085
925.387	9051
925.494	9051
925.602	9184
925.709	9074
925.816	9062
925.924	9036
926.031	9123
926.138	9062
926.245	9100
926.352	9009
926.459	9157
926.566	9154
926.673	8967
926.779	8910
926.886	8998
926.993	8902
927.099	8746
927.206	8845
927.312	8686
927.419	8826
927.525	8750
927.631	8823
927.737	8701
927.843	8697
927.95	8598
928.056	8667
928.162	8697
928.267	8773
928.373	9161
928.479	8838
928.585	8533
928.69	8701
928.796	8697
928.901	8533
929.007	8450
929.112	8556
929.218	8514
929.323	8465
929.428	8454
929.533	8682
929.638	8457
929.743	8473
929.848	8530
929.953	8499
930.058	8457
930.163	8237
930.267	8358
930.372	8427
930.477	8275
930.581	8492
930.685	8370
930.79	8195
930.894	8309
930.998	8187
931.103	8320
931.207	7997
931.311	7997
931.415	7970
931.519	7696
931.623	7658
