Data from test_V78500241_2886.txt Node
Date: Fri Mar 25 14:53:48 CST 2022
User: usil
Spectrometer: V785-0024
Trigger mode: 0
Integration Time (sec): 4.000000E-1
Scans to average: 1
Nonlinearity correction enabled: false
Boxcar width: 0
Storing dark spectrum: false
XAxis mode: Wavelengths
Number of Pixels in Spectrum: 1024
>>>>>Begin Spectral Data<<<<<
801.071	22196
801.214	22044
801.356	21652
801.499	21606
801.641	21511
801.783	21462
801.926	21447
802.068	21363
802.211	21340
802.353	21256
802.496	21001
802.638	21028
802.78	20842
802.923	20792
803.065	20769
803.208	20819
803.35	20842
803.492	20842
803.635	20880
803.777	20823
803.919	20815
804.061	21100
804.204	20823
804.346	20663
804.488	20655
804.63	20781
804.773	20693
804.915	20701
805.057	20746
805.199	20701
805.341	20819
805.483	20834
805.626	20773
805.768	20632
805.91	20667
806.052	20644
806.194	20495
806.336	20781
806.478	20686
806.62	20587
806.762	20678
806.904	20929
807.046	21017
807.188	20944
807.33	21039
807.472	21028
807.614	20899
807.756	20868
807.898	20796
808.04	20727
808.182	20864
808.324	20781
808.465	20834
808.607	21001
808.749	21017
808.891	21146
809.033	21123
809.174	21104
809.316	21013
809.458	21096
809.6	21093
809.741	21123
809.883	21116
810.025	21218
810.166	21218
810.308	21184
810.45	21135
810.591	21188
810.733	20925
810.875	20891
811.016	20769
811.158	20788
811.299	20906
811.441	21055
811.582	20910
811.724	20819
811.865	20796
812.007	20735
812.148	20739
812.29	20838
812.431	20994
812.573	21055
812.714	21226
812.855	21351
812.997	21526
813.138	21557
813.279	21595
813.421	21256
813.562	21222
813.703	20967
813.845	20944
813.986	20746
814.127	20461
814.268	20419
814.41	20370
814.551	20355
814.692	20324
814.833	20412
814.974	20343
815.115	20259
815.256	20237
815.397	20336
815.539	20237
815.68	20035
815.821	20115
815.962	20107
816.103	20054
816.244	19875
816.385	19894
816.526	19833
816.666	19772
816.807	19495
816.948	19616
817.089	19651
817.23	19521
817.371	19559
817.512	19647
817.653	19559
817.793	19422
817.934	19457
818.075	19449
818.216	19400
818.356	19495
818.497	19350
818.638	19088
818.778	19137
818.919	19126
819.06	19308
819.2	19362
819.341	19457
819.481	19316
819.622	19655
819.762	19708
819.903	19674
820.043	19510
820.184	19441
820.324	19559
820.465	19525
820.605	19445
820.746	19362
820.886	19373
821.026	19369
821.167	19377
821.307	19411
821.447	19354
821.588	19179
821.728	19160
821.868	19050
822.008	18840
822.149	18905
822.289	18817
822.429	18692
822.569	18517
822.709	18513
822.849	18448
822.99	18361
823.13	18418
823.27	18289
823.41	18254
823.55	18140
823.69	18243
823.83	18205
823.97	18068
824.11	17977
824.25	17927
824.389	17901
824.529	18038
824.669	18057
824.809	17958
824.949	17980
825.089	18060
825.228	17961
825.368	17786
825.508	17783
825.648	17851
825.787	17722
825.927	17809
826.067	17703
826.206	17672
826.346	17695
826.485	17855
826.625	17752
826.765	17828
826.904	17691
827.044	17512
827.183	17391
827.323	17417
827.462	17516
827.601	17436
827.741	17406
827.88	17467
828.02	17334
828.159	17330
828.298	17455
828.437	17493
828.577	17315
828.716	17589
828.855	17315
828.994	17159
829.134	17178
829.273	17121
829.412	17227
829.551	17102
829.69	17117
829.829	17155
829.968	17326
830.107	17128
830.246	17273
830.385	17022
830.524	17041
830.663	17010
830.802	16869
830.941	16858
831.08	16721
831.219	16816
831.357	16938
831.496	17003
831.635	16797
831.774	16634
831.913	16717
832.051	16603
832.19	16409
832.329	16634
832.467	16481
832.606	16405
832.744	16523
832.883	16462
833.022	16390
833.16	16466
833.299	16519
833.437	16516
833.576	16607
833.714	16523
833.852	16645
833.991	16538
834.129	16615
834.267	16497
834.406	16577
834.544	16554
834.682	16725
834.821	16455
834.959	16603
835.097	16481
835.235	16512
835.373	16531
835.511	16577
835.65	16394
835.788	16367
835.926	16272
836.064	16215
836.202	16257
836.34	16474
836.478	16569
836.615	16428
836.753	16523
836.891	16508
837.029	16459
837.167	16443
837.305	16413
837.443	16306
837.58	16253
837.718	16356
837.856	16409
837.993	16242
838.131	16185
838.269	16265
838.406	16230
838.544	16143
838.681	16032
838.819	15979
838.956	15835
839.094	15876
839.231	15884
839.369	16010
839.506	16169
839.643	16063
839.781	15854
839.918	15827
840.055	15888
840.193	15861
840.33	15812
840.467	15800
840.604	16051
840.742	16078
840.879	15671
841.016	15686
841.153	15724
841.29	15838
841.427	15964
841.564	15827
841.701	15755
841.838	15766
841.975	15679
842.112	15694
842.249	15580
842.385	15538
842.522	15819
842.659	15652
842.796	15507
842.933	15595
843.069	15545
843.206	15534
843.343	15652
843.479	15660
843.616	15606
843.752	15389
843.889	15294
844.025	15606
844.162	15386
844.298	15450
844.435	15401
844.571	15363
844.708	15450
844.844	15519
844.98	15542
845.117	15507
845.253	15401
845.389	15275
845.525	15325
845.661	15272
845.798	15192
845.934	15272
846.07	15104
846.206	15264
846.342	15306
846.478	15272
846.614	14914
846.75	14963
846.886	15013
847.022	15097
847.158	14986
847.294	15043
847.429	15062
847.565	14910
847.701	15226
847.837	14708
847.972	14815
848.108	14788
848.244	14864
848.379	14686
848.515	14457
848.65	14503
848.786	14617
848.921	14587
849.057	14640
849.192	14716
849.328	14602
849.463	14716
849.598	14587
849.734	14571
849.869	14419
850.004	14347
850.14	14415
850.275	14427
850.41	14294
850.545	14366
850.68	14317
850.815	14328
850.95	14278
851.085	14461
851.22	14404
851.355	14393
851.49	14301
851.625	14282
851.76	14389
851.895	14130
852.03	14195
852.165	14339
852.299	14370
852.434	14450
852.569	14366
852.703	14301
852.838	14396
852.973	14294
853.107	14492
853.242	14180
853.376	14229
853.511	14092
853.645	14256
853.78	14317
853.914	14214
854.048	14183
854.183	14149
854.317	14168
854.451	14351
854.585	14145
854.72	14103
854.854	14294
854.988	14126
855.122	14259
855.256	14107
855.39	14180
855.524	14225
855.658	14218
855.792	14202
855.926	14271
856.06	14172
856.194	14252
856.327	14130
856.461	14145
856.595	14126
856.729	14164
856.862	14206
856.996	14202
857.13	14263
857.263	14263
857.397	14259
857.53	14145
857.664	14149
857.797	14244
857.931	14362
858.064	14252
858.197	14301
858.331	14100
858.464	14054
858.597	14024
858.731	14237
858.864	14259
858.997	14138
859.13	14206
859.263	14252
859.396	14320
859.529	14134
859.662	14149
859.795	14115
859.928	14180
860.061	14358
860.194	14317
860.327	14187
860.46	14111
860.592	14351
860.725	14393
860.858	14377
860.99	14153
861.123	14107
861.256	14153
861.388	14214
861.521	14933
861.653	14103
861.786	14039
861.918	14062
862.05	14225
862.183	14161
862.315	14263
862.447	14366
862.58	14134
862.712	13913
862.844	13928
862.976	14145
863.108	14046
863.24	14339
863.372	13997
863.504	14077
863.636	13959
863.768	14142
863.9	14035
864.032	13997
864.164	13993
864.296	14069
864.428	14096
864.559	14134
864.691	14073
864.823	14039
864.954	14043
865.086	14024
865.217	14062
865.349	14008
865.48	14001
865.612	14005
865.743	14153
865.875	14134
866.006	13902
866.137	13951
866.269	14043
866.4	14031
866.531	13894
866.662	13906
866.793	13967
866.924	13982
867.055	14054
867.186	14035
867.317	13982
867.448	13959
867.579	13944
867.71	13963
867.841	13852
867.972	13970
868.103	14058
868.233	14084
868.364	14035
868.495	14081
868.625	14244
868.756	14351
868.886	14218
869.017	14229
869.147	14320
869.278	14370
869.408	14225
869.539	14313
869.669	14404
869.799	14385
869.929	14324
870.06	14438
870.19	14571
870.32	14587
870.45	14541
870.58	14686
870.71	14697
870.84	14746
870.97	14678
871.1	14705
871.23	14811
871.36	14887
871.489	14705
871.619	14868
871.749	14933
871.879	14918
872.008	14994
872.138	14853
872.267	14967
872.397	14720
872.526	14739
872.656	14697
872.785	14701
872.915	14887
873.044	15032
873.173	14883
873.303	14929
873.432	14944
873.561	14952
873.69	14960
873.819	14857
873.948	15020
874.077	14998
874.206	14826
874.335	14963
874.464	15051
874.593	15199
874.722	15100
874.851	15268
874.979	15294
875.108	15294
875.237	15226
875.365	15146
875.494	15138
875.623	15283
875.751	15275
875.88	15218
876.008	15294
876.136	15511
876.265	15728
876.393	15785
876.521	15675
876.65	15800
876.778	15694
876.906	15675
877.034	15606
877.162	15682
877.29	15564
877.418	15603
877.546	15614
877.674	15595
877.802	15705
877.93	15614
878.058	15595
878.185	15401
878.313	15629
878.441	15671
878.568	15473
878.696	15595
878.824	15717
878.951	15660
879.079	15892
879.206	15953
879.333	15823
879.461	15618
879.588	15686
879.715	15876
879.842	15895
879.97	15732
880.097	15557
880.224	15443
880.351	15473
880.478	15523
880.605	15447
880.732	15545
880.859	15743
880.986	15523
881.112	15584
881.239	15458
881.366	15321
881.493	15222
881.619	15188
881.746	15154
881.872	15165
881.999	15055
882.125	15055
882.252	15188
882.378	15142
882.505	15226
882.631	15176
882.757	14937
882.883	15032
883.01	15074
883.136	14910
883.262	14750
883.388	14933
883.514	14963
883.64	14990
883.766	14948
883.892	14731
884.018	14731
884.143	14986
884.269	15123
884.395	14838
884.52	14629
884.646	14693
884.772	14659
884.897	14545
885.023	14686
885.148	14712
885.274	14689
885.399	14921
885.524	14708
885.65	14678
885.775	14716
885.9	14613
886.025	14754
886.15	14743
886.275	14705
886.4	14655
886.525	14594
886.65	14594
886.775	14625
886.9	14895
887.025	14883
887.149	14610
887.274	14549
887.399	14412
887.523	14408
887.648	14465
887.773	14465
887.897	14518
888.021	14476
888.146	14438
888.27	14545
888.395	14571
888.519	14602
888.643	14587
888.767	14560
888.891	14480
889.015	14339
889.139	14377
889.263	14423
889.387	14492
889.511	14530
889.635	14476
889.759	14290
889.883	14389
890.006	14374
890.13	14457
890.254	14305
890.377	14377
890.501	14206
890.624	14130
890.748	14145
890.871	14046
890.995	14069
891.118	13967
891.241	14168
891.364	14050
891.488	14119
891.611	13986
891.734	14126
891.857	14130
891.98	14069
892.103	14058
892.226	14001
892.349	14012
892.471	13864
892.594	13967
892.717	14058
892.839	14043
892.962	14100
893.085	14103
893.207	14012
893.33	13967
893.452	14024
893.575	14229
893.697	14012
893.819	14161
893.941	14278
894.064	14275
894.186	14020
894.308	14008
894.43	14187
894.552	14309
894.674	14290
894.796	14046
894.918	14100
895.04	14027
895.161	14221
895.283	14233
895.405	14221
895.526	14187
895.648	14157
895.769	14225
895.891	14187
896.012	14263
896.134	14317
896.255	14267
896.376	14183
896.498	14214
896.619	14286
896.74	14134
896.861	14366
896.982	14575
897.103	14785
897.224	14629
897.345	14374
897.466	14507
897.587	14511
897.708	14526
897.828	14549
897.949	14438
898.07	14366
898.19	14492
898.311	14731
898.431	14431
898.552	14651
898.672	14602
898.792	14716
898.913	14594
899.033	14571
899.153	14454
899.273	14389
899.393	14442
899.513	14492
899.633	14492
899.753	14469
899.873	14503
899.993	14545
900.113	14473
900.232	14473
900.352	14400
900.472	14278
900.591	14256
900.711	14412
900.83	14244
900.95	14412
901.069	14351
901.189	14149
901.308	14065
901.427	13947
901.546	13970
901.665	14054
901.784	14062
901.904	13799
902.023	13772
902.141	13624
902.26	13567
902.379	13753
902.498	13540
902.617	13502
902.735	13628
902.854	13578
902.973	13495
903.091	13209
903.21	13297
903.328	13293
903.446	13259
903.565	13187
903.683	13145
903.801	13057
903.919	13141
904.038	13129
904.156	12928
904.274	12996
904.392	13023
904.51	12981
904.627	12928
904.745	13000
904.863	12951
904.981	12802
905.098	12608
905.216	12665
905.334	12677
905.451	12620
905.569	12627
905.686	12589
905.803	12665
905.921	12494
906.038	12456
906.155	12502
906.272	12365
906.389	12380
906.506	12239
906.623	12197
906.74	12239
906.857	12087
906.974	12106
907.091	12323
907.208	12369
907.324	12205
907.441	12171
907.557	11942
907.674	11965
907.79	11901
907.907	11916
908.023	12057
908.139	11988
908.256	11942
908.372	11916
908.488	11866
908.604	11767
908.72	11710
908.836	11752
908.952	11745
909.068	11733
909.184	11794
909.3	11657
909.415	11726
909.531	11779
909.647	11524
909.762	11535
909.878	11547
909.993	11547
910.108	11474
910.224	11520
910.339	11482
910.454	11406
910.57	11288
910.685	11269
910.8	11509
910.915	11604
911.03	11379
911.145	11242
911.259	11147
911.374	11204
911.489	11109
911.604	11071
911.718	10908
911.833	11022
911.947	10809
912.062	10759
912.176	10900
912.291	10991
912.405	10946
912.519	11105
912.633	11159
912.748	11060
912.862	10999
912.976	10858
913.09	10729
913.204	10812
913.318	10831
913.431	10915
913.545	10930
913.659	10930
913.772	10858
913.886	10752
914	10717
914.113	10725
914.226	10873
914.34	10801
914.453	10706
914.566	10771
914.68	10672
914.793	10584
914.906	10504
915.019	10329
915.132	10379
915.245	10481
915.358	10531
915.47	10519
915.583	10497
915.696	10516
915.809	10554
915.921	10603
916.034	10478
916.146	10409
916.259	10440
916.371	10531
916.483	10497
916.595	10382
916.708	10379
916.82	10402
916.932	10421
917.044	10413
917.156	10363
917.268	10249
917.38	10238
917.491	10295
917.603	10394
917.715	10421
917.826	10371
917.938	10284
918.049	10207
918.161	10318
918.272	10348
918.384	10386
918.495	10318
918.606	10150
918.717	10177
918.828	10207
918.939	10154
919.05	10036
919.161	10154
919.272	9979
919.383	10063
919.494	10276
919.604	10417
919.715	10257
919.826	10116
919.936	10158
920.047	10204
920.157	10257
920.267	10314
920.378	10200
920.488	10227
920.598	10451
920.708	10550
920.818	10390
920.928	10341
921.038	10550
921.148	10481
921.258	10230
921.368	10162
921.477	10025
921.587	10051
921.697	9865
921.806	10074
921.916	9895
922.025	9762
922.134	9713
922.244	9709
922.353	9838
922.462	9568
922.571	9622
922.68	9454
922.789	9393
922.898	9435
923.007	9332
923.116	9447
923.224	9477
923.333	9412
923.442	9336
923.55	9329
923.659	9401
923.767	9363
923.876	9279
923.984	9401
924.092	9241
924.201	9272
924.309	9408
924.417	9237
924.525	9302
924.633	9222
924.741	10253
924.849	9066
924.956	9256
925.064	9047
925.172	9047
925.279	9036
925.387	9127
925.494	9104
925.602	9268
925.709	9173
925.816	9066
925.924	9062
926.031	9233
926.138	9093
926.245	9077
926.352	9043
926.459	9173
926.566	9173
926.673	9055
926.779	8952
926.886	8990
926.993	8868
927.099	8788
927.206	8842
927.312	8720
927.419	8773
927.525	8830
927.631	8849
927.737	8773
927.843	8769
927.95	8511
928.056	8644
928.162	8674
928.267	8785
928.373	9340
928.479	8792
928.585	8545
928.69	8773
928.796	8678
928.901	8621
929.007	8473
929.112	8629
929.218	8598
929.323	8533
929.428	8511
929.533	8743
929.638	8419
929.743	8465
929.848	8568
929.953	8522
930.058	8511
930.163	8336
930.267	8320
930.372	8465
930.477	8328
930.581	8518
930.685	8393
930.79	8313
930.894	8324
930.998	8240
931.103	8431
931.207	8050
931.311	8058
931.415	7928
931.519	7769
931.623	7784
