Data from test_V78500241_2210.txt Node
Date: Fri Mar 25 14:49:06 CST 2022
User: usil
Spectrometer: V785-0024
Trigger mode: 0
Integration Time (sec): 4.000000E-1
Scans to average: 1
Nonlinearity correction enabled: false
Boxcar width: 0
Storing dark spectrum: false
XAxis mode: Wavelengths
Number of Pixels in Spectrum: 1024
>>>>>Begin Spectral Data<<<<<
801.071	22124
801.214	21953
801.356	21781
801.499	21698
801.641	21549
801.783	21576
801.926	21538
802.068	21439
802.211	21420
802.353	21233
802.496	21096
802.638	21047
802.78	21074
802.923	20925
803.065	20830
803.208	20838
803.35	20872
803.492	21077
803.635	20994
803.777	20952
803.919	20902
804.061	21207
804.204	20948
804.346	20845
804.488	20758
804.63	20823
804.773	20689
804.915	20754
805.057	20883
805.199	20727
805.341	20804
805.483	20902
805.626	20899
805.768	20720
805.91	20807
806.052	20659
806.194	20636
806.336	20990
806.478	20743
806.62	20743
806.762	20826
806.904	20982
807.046	21176
807.188	20906
807.33	21116
807.472	21188
807.614	21020
807.756	21081
807.898	20823
808.04	20724
808.182	20830
808.324	20941
808.465	20823
808.607	20975
808.749	21241
808.891	21222
809.033	21332
809.174	21195
809.316	21089
809.458	21100
809.6	21085
809.741	21256
809.883	21211
810.025	21336
810.166	21351
810.308	21321
810.45	21287
810.591	21275
810.733	20906
810.875	21028
811.016	20864
811.158	20887
811.299	20895
811.441	21066
811.582	21081
811.724	20929
811.865	20872
812.007	20811
812.148	20902
812.29	20918
812.431	21043
812.573	21264
812.714	21245
812.855	21458
812.997	21466
813.138	21507
813.279	21511
813.421	21450
813.562	21317
813.703	21245
813.845	21066
813.986	20697
814.127	20629
814.268	20587
814.41	20625
814.551	20492
814.692	20495
814.833	20366
814.974	20389
815.115	20560
815.256	20351
815.397	20320
815.539	20351
815.68	20210
815.821	20206
815.962	20248
816.103	20195
816.244	20077
816.385	19875
816.526	19928
816.666	19704
816.807	19693
816.948	19776
817.089	19693
817.23	19651
817.371	19624
817.512	19597
817.653	19575
817.793	19563
817.934	19586
818.075	19731
818.216	19594
818.356	19681
818.497	19460
818.638	19285
818.778	19335
818.919	19285
819.06	19324
819.2	19449
819.341	19480
819.481	19415
819.622	19556
819.762	19693
819.903	19712
820.043	19655
820.184	19506
820.324	19537
820.465	19655
820.605	19639
820.746	19544
820.886	19449
821.026	19518
821.167	19597
821.307	19643
821.447	19438
821.588	19426
821.728	19362
821.868	19247
822.008	18890
822.149	19023
822.289	18993
822.429	18711
822.569	18776
822.709	18753
822.849	18612
822.99	18475
823.13	18426
823.27	18502
823.41	18285
823.55	18220
823.69	18338
823.83	18308
823.97	18072
824.11	18102
824.25	17984
824.389	18133
824.529	18133
824.669	18072
824.809	18117
824.949	18133
825.089	18106
825.228	18045
825.368	17889
825.508	17859
825.648	17912
825.787	17950
825.927	17935
826.067	17722
826.206	17764
826.346	17870
826.485	17809
826.625	17760
826.765	17843
826.904	17794
827.044	17566
827.183	17592
827.323	17490
827.462	17642
827.601	17551
827.741	17425
827.88	17497
828.02	17398
828.159	17551
828.298	17554
828.437	17573
828.577	17482
828.716	17604
828.855	17436
828.994	17246
829.134	17296
829.273	17277
829.412	17311
829.551	17124
829.69	17273
829.829	17239
829.968	17318
830.107	17307
830.246	17284
830.385	17124
830.524	17220
830.663	17064
830.802	17048
830.941	16824
831.08	16927
831.219	16915
831.357	16923
831.496	17143
831.635	16828
831.774	16752
831.913	16786
832.051	16641
832.19	16675
832.329	16786
832.467	16485
832.606	16580
832.744	16470
832.883	16535
833.022	16577
833.16	16584
833.299	16519
833.437	16637
833.576	16630
833.714	16615
833.852	16713
833.991	16603
834.129	16660
834.267	16656
834.406	16645
834.544	16710
834.682	16565
834.821	16592
834.959	16752
835.097	16634
835.235	16653
835.373	16573
835.511	16660
835.65	16542
835.788	16466
835.926	16291
836.064	16333
836.202	16310
836.34	16580
836.478	16691
836.615	16440
836.753	16527
836.891	16603
837.029	16550
837.167	16485
837.305	16432
837.443	16485
837.58	16379
837.718	16459
837.856	16337
837.993	16382
838.131	16333
838.269	16310
838.406	16284
838.544	16360
838.681	16086
838.819	16097
838.956	15994
839.094	15850
839.231	16013
839.369	16169
839.506	16371
839.643	16234
839.781	16010
839.918	15911
840.055	15915
840.193	15838
840.33	16010
840.467	15915
840.604	15956
840.742	16196
840.879	15873
841.016	15930
841.153	15671
841.29	15991
841.427	15915
841.564	15979
841.701	16002
841.838	15861
841.975	15888
842.112	15785
842.249	15770
842.385	15679
842.522	15899
842.659	15743
842.796	15770
842.933	15671
843.069	15717
843.206	15648
843.343	15812
843.479	15732
843.616	15641
843.752	15553
843.889	15500
844.025	15682
844.162	15439
844.298	15614
844.435	15492
844.571	15374
844.708	15504
844.844	15606
844.98	15652
845.117	15625
845.253	15439
845.389	15291
845.525	15450
845.661	15431
845.798	15211
845.934	15408
846.07	15264
846.206	15397
846.342	15466
846.478	15348
846.614	15184
846.75	14998
846.886	14952
847.022	15169
847.158	15051
847.294	15077
847.429	15100
847.565	15024
847.701	15294
847.837	14899
847.972	14807
848.108	14937
848.244	14819
848.379	14765
848.515	14583
848.65	14636
848.786	14792
848.921	14735
849.057	14785
849.192	14853
849.328	14705
849.463	14629
849.598	14590
849.734	14560
849.869	14511
850.004	14499
850.14	14484
850.275	14492
850.41	14408
850.545	14374
850.68	14374
850.815	14476
850.95	14461
851.085	14564
851.22	14533
851.355	14339
851.49	14461
851.625	14473
851.76	14396
851.895	14282
852.03	14286
852.165	14442
852.299	14374
852.434	14492
852.569	14488
852.703	14499
852.838	14526
852.973	14530
853.107	14556
853.242	14294
853.376	14305
853.511	14180
853.645	14301
853.78	14370
853.914	14313
854.048	14294
854.183	14309
854.317	14267
854.451	14374
854.585	14278
854.72	14229
854.854	14286
854.988	14263
855.122	14256
855.256	14229
855.39	14324
855.524	14358
855.658	14332
855.792	14377
855.926	14362
856.06	14393
856.194	14355
856.327	14328
856.461	14256
856.595	14225
856.729	14237
856.862	14370
856.996	14328
857.13	14374
857.263	14454
857.397	14339
857.53	14309
857.664	14351
857.797	14332
857.931	14275
858.064	14252
858.197	14396
858.331	14393
858.464	14366
858.597	14191
858.731	14355
858.864	14282
858.997	14225
859.13	14328
859.263	14362
859.396	14358
859.529	14313
859.662	14218
859.795	14244
859.928	14374
860.061	14450
860.194	14423
860.327	14400
860.46	14294
860.592	14465
860.725	14393
860.858	14499
860.99	14355
861.123	14248
861.256	14210
861.388	14244
861.521	14773
861.653	14210
861.786	14130
861.918	14172
862.05	14199
862.183	14282
862.315	14252
862.447	14377
862.58	14191
862.712	14065
862.844	14016
862.976	14123
863.108	14134
863.24	14419
863.372	13974
863.504	14081
863.636	14065
863.768	14142
863.9	14164
864.032	14043
864.164	14043
864.296	14054
864.428	14252
864.559	14142
864.691	14142
864.823	14176
864.954	14153
865.086	14073
865.217	14134
865.349	14058
865.48	14020
865.612	14046
865.743	14161
865.875	14046
866.006	14134
866.137	14092
866.269	14008
866.4	14046
866.531	14073
866.662	13959
866.793	13963
866.924	13986
867.055	14012
867.186	14103
867.317	13944
867.448	13921
867.579	14001
867.71	14001
867.841	13974
867.972	14180
868.103	14054
868.233	13978
868.364	14020
868.495	14119
868.625	14218
868.756	14362
868.886	14168
869.017	14290
869.147	14355
869.278	14400
869.408	14377
869.539	14282
869.669	14278
869.799	14336
869.929	14362
870.06	14419
870.19	14689
870.32	14564
870.45	14670
870.58	14746
870.71	14880
870.84	14914
870.97	14625
871.1	14625
871.23	14918
871.36	14883
871.489	14834
871.619	14872
871.749	14876
871.879	14887
872.008	14914
872.138	14883
872.267	14941
872.397	14743
872.526	14682
872.656	14849
872.785	14731
872.915	14925
873.044	15001
873.173	14979
873.303	15013
873.432	14918
873.561	15036
873.69	15043
873.819	14944
873.948	15100
874.077	15020
874.206	14925
874.335	14899
874.464	15081
874.593	15268
874.722	15188
874.851	15283
874.979	15116
875.108	15370
875.237	15173
875.365	15249
875.494	15218
875.623	15344
875.751	15176
875.88	15363
876.008	15397
876.136	15492
876.265	15705
876.393	15770
876.521	15804
876.65	15747
876.778	15663
876.906	15656
877.034	15694
877.162	15660
877.29	15614
877.418	15698
877.546	15739
877.674	15713
877.802	15648
877.93	15736
878.058	15717
878.185	15549
878.313	15690
878.441	15641
878.568	15462
878.696	15549
878.824	15736
878.951	15781
879.079	15915
879.206	16048
879.333	15785
879.461	15724
879.588	15751
879.715	15827
879.842	15937
879.97	15747
880.097	15523
880.224	15542
880.351	15530
880.478	15485
880.605	15492
880.732	15416
880.859	15728
880.986	15561
881.112	15542
881.239	15378
881.366	15325
881.493	15211
881.619	15093
881.746	15131
881.872	15093
881.999	15173
882.125	15123
882.252	15252
882.378	15150
882.505	15313
882.631	15039
882.757	15062
882.883	15085
883.01	15074
883.136	15009
883.262	14902
883.388	14967
883.514	15001
883.64	15013
883.766	14948
883.892	14826
884.018	14872
884.143	14952
884.269	15085
884.395	14629
884.52	14674
884.646	14807
884.772	14610
884.897	14568
885.023	14788
885.148	14758
885.274	14807
885.399	14948
885.524	14746
885.65	14689
885.775	14746
885.9	14727
886.025	14902
886.15	14735
886.275	14701
886.4	14613
886.525	14629
886.65	14598
886.775	14655
886.9	14830
887.025	14868
887.149	14670
887.274	14598
887.399	14454
887.523	14549
887.648	14488
887.773	14423
887.897	14663
888.021	14606
888.146	14560
888.27	14594
888.395	14568
888.519	14629
888.643	14629
888.767	14579
888.891	14431
889.015	14385
889.139	14442
889.263	14347
889.387	14533
889.511	14564
889.635	14667
889.759	14400
889.883	14404
890.006	14438
890.13	14530
890.254	14370
890.377	14370
890.501	14229
890.624	14263
890.748	14374
890.871	14183
890.995	14069
891.118	14069
891.241	14111
891.364	14161
891.488	14126
891.611	14069
891.734	14027
891.857	14206
891.98	14202
892.103	14244
892.226	14187
892.349	14244
892.471	14020
892.594	14043
892.717	14054
892.839	14134
892.962	14218
893.085	14130
893.207	14134
893.33	14027
893.452	14145
893.575	14145
893.697	14115
893.819	14305
893.941	14320
894.064	14301
894.186	14134
894.308	14199
894.43	14267
894.552	14324
894.674	14252
894.796	14050
894.918	14172
895.04	14062
895.161	14355
895.283	14332
895.405	14214
895.526	14218
895.648	14233
895.769	14301
895.891	14362
896.012	14317
896.134	14366
896.255	14389
896.376	14229
896.498	14446
896.619	14317
896.74	14317
896.861	14408
896.982	14746
897.103	14891
897.224	14689
897.345	14590
897.466	14541
897.587	14602
897.708	14731
897.828	14621
897.949	14476
898.07	14457
898.19	14530
898.311	14804
898.431	14594
898.552	14682
898.672	14746
898.792	14686
898.913	14670
899.033	14644
899.153	14564
899.273	14434
899.393	14541
899.513	14564
899.633	14457
899.753	14457
899.873	14473
899.993	14495
900.113	14533
900.232	14484
900.352	14511
900.472	14511
900.591	14256
900.711	14343
900.83	14343
900.95	14465
901.069	14454
901.189	14309
901.308	14100
901.427	14088
901.546	14046
901.665	14065
901.784	14062
901.904	13894
902.023	13841
902.141	13639
902.26	13548
902.379	13719
902.498	13578
902.617	13506
902.735	13616
902.854	13658
902.973	13586
903.091	13304
903.21	13453
903.328	13381
903.446	13278
903.565	13202
903.683	13175
903.801	13187
903.919	13152
904.038	13118
904.156	12970
904.274	13069
904.392	12989
904.51	13015
904.627	12939
904.745	12966
904.863	13065
904.981	12840
905.098	12681
905.216	12783
905.334	12696
905.451	12707
905.569	12688
905.686	12673
905.803	12745
905.921	12585
906.038	12707
906.155	12517
906.272	12426
906.389	12494
906.506	12270
906.623	12251
906.74	12235
906.857	12068
906.974	12152
907.091	12380
907.208	12437
907.324	12346
907.441	12178
907.557	12057
907.674	12087
907.79	11973
907.907	12045
908.023	12095
908.139	12102
908.256	12068
908.372	12007
908.488	11901
908.604	11885
908.72	11615
908.836	11824
908.952	11817
909.068	11828
909.184	11916
909.3	11821
909.415	11885
909.531	11824
909.647	11577
909.762	11524
909.878	11528
909.993	11611
910.108	11524
910.224	11520
910.339	11562
910.454	11459
910.57	11395
910.685	11364
910.8	11638
910.915	11497
911.03	11376
911.145	11284
911.259	11277
911.374	11288
911.489	11178
911.604	11132
911.718	10995
911.833	11067
911.947	10923
912.062	10908
912.176	10938
912.291	10999
912.405	10961
912.519	11231
912.633	11383
912.748	11151
912.862	11045
912.976	10831
913.09	10721
913.204	10771
913.318	10904
913.431	11003
913.545	10938
913.659	11090
913.772	10877
913.886	10797
914	10748
914.113	10892
914.226	10949
914.34	10885
914.453	10702
914.566	10900
914.68	10767
914.793	10752
914.906	10584
915.019	10519
915.132	10485
915.245	10550
915.358	10516
915.47	10554
915.583	10500
915.696	10554
915.809	10736
915.921	10714
916.034	10470
916.146	10569
916.259	10462
916.371	10565
916.483	10584
916.595	10470
916.708	10409
916.82	10504
916.932	10417
917.044	10474
917.156	10424
917.268	10337
917.38	10341
917.491	10238
917.603	10409
917.715	10508
917.826	10390
917.938	10363
918.049	10310
918.161	10371
918.272	10599
918.384	10527
918.495	10371
918.606	10242
918.717	10173
918.828	10227
918.939	10314
919.05	10188
919.161	10173
919.272	10109
919.383	10071
919.494	10360
919.604	10497
919.715	10295
919.826	10230
919.936	10204
920.047	10360
920.157	10257
920.267	10523
920.378	10314
920.488	10219
920.598	10417
920.708	10603
920.818	10405
920.928	10470
921.038	10611
921.148	10558
921.258	10238
921.368	10261
921.477	10059
921.587	10078
921.697	9956
921.806	10150
921.916	9994
922.025	9823
922.134	9740
922.244	9728
922.353	9865
922.462	9694
922.571	9564
922.68	9515
922.789	9462
922.898	9473
923.007	9405
923.116	9591
923.224	9557
923.333	9469
923.442	9393
923.55	9313
923.659	9450
923.767	9515
923.876	9291
923.984	9458
924.092	9336
924.201	9424
924.309	9386
924.417	9348
924.525	9355
924.633	9355
924.741	10325
924.849	9173
924.956	9283
925.064	9150
925.172	9032
925.279	9097
925.387	9188
925.494	9188
925.602	9203
925.709	9245
925.816	9142
925.924	9119
926.031	9298
926.138	9142
926.245	9203
926.352	9085
926.459	9268
926.566	9253
926.673	9062
926.779	9077
926.886	9005
926.993	8941
927.099	8876
927.206	8785
927.312	8834
927.419	8941
927.525	8868
927.631	8914
927.737	8762
927.843	8773
927.95	8693
928.056	8735
928.162	8788
928.267	8823
928.373	9485
928.479	8830
928.585	8636
928.69	8758
928.796	8785
928.901	8644
929.007	8514
929.112	8686
929.218	8674
929.323	8545
929.428	8636
929.533	8727
929.638	8556
929.743	8556
929.848	8610
929.953	8571
930.058	8465
930.163	8358
930.267	8317
930.372	8514
930.477	8313
930.581	8530
930.685	8507
930.79	8279
930.894	8362
930.998	8263
931.103	8499
931.207	8183
931.311	8039
931.415	7932
931.519	7826
931.623	7753
