Data from test_V78500241_611.txt Node
Date: Fri Mar 25 14:37:58 CST 2022
User: usil
Spectrometer: V785-0024
Trigger mode: 0
Integration Time (sec): 4.000000E-1
Scans to average: 1
Nonlinearity correction enabled: false
Boxcar width: 0
Storing dark spectrum: false
XAxis mode: Wavelengths
Number of Pixels in Spectrum: 1024
>>>>>Begin Spectral Data<<<<<
801.071	27922
801.214	27960
801.356	27694
801.499	27614
801.641	27519
801.783	27431
801.926	27363
802.068	27340
802.211	27203
802.353	27199
802.496	26872
802.638	26940
802.78	26853
802.923	26868
803.065	26853
803.208	26834
803.35	26849
803.492	27066
803.635	27093
803.777	26925
803.919	27165
804.061	27329
804.204	27192
804.346	27051
804.488	27116
804.63	27146
804.773	27100
804.915	27226
805.057	27310
805.199	27325
805.341	27386
805.483	27500
805.626	27473
805.768	27462
805.91	27545
806.052	27736
806.194	27682
806.336	27945
806.478	27827
806.62	28139
806.762	28356
806.904	28778
807.046	29197
807.188	29395
807.33	29611
807.472	30110
807.614	30578
807.756	31285
807.898	31955
808.04	32948
808.182	34314
808.324	36292
808.465	38579
808.607	40873
808.749	43034
808.891	44138
809.033	44256
809.174	43034
809.316	40805
809.458	38526
809.6	35840
809.741	34143
809.883	32560
810.025	31620
810.166	30840
810.308	30251
810.45	29783
810.591	29455
810.733	29033
810.875	28854
811.016	28440
811.158	28318
811.299	28356
811.441	28341
811.582	28253
811.724	27991
811.865	27781
812.007	27663
812.148	27694
812.29	27652
812.431	27797
812.573	27914
812.714	27797
812.855	28021
812.997	27949
813.138	28200
813.279	28074
813.421	27918
813.562	27759
813.703	27660
813.845	27393
813.986	27180
814.127	26853
814.268	26883
814.41	26914
814.551	26701
814.692	26762
814.833	26758
814.974	26606
815.115	26545
815.256	26465
815.397	26476
815.539	26488
815.68	26450
815.821	26377
815.962	26446
816.103	26366
816.244	26050
816.385	25811
816.526	25963
816.666	25696
816.807	25826
816.948	25822
817.089	25723
817.23	25559
817.371	25578
817.512	25533
817.653	25567
817.793	25491
817.934	25624
818.075	25620
818.216	25483
818.356	25556
818.497	25396
818.638	25381
818.778	25244
818.919	25244
819.06	25343
819.2	25445
819.341	25502
819.481	25392
819.622	25571
819.762	25780
819.903	25655
820.043	25533
820.184	25540
820.324	25502
820.465	25624
820.605	25635
820.746	25434
820.886	25392
821.026	25388
821.167	25403
821.307	25464
821.447	25251
821.588	25232
821.728	25012
821.868	24856
822.008	24909
822.149	24817
822.289	24658
822.429	24422
822.569	24475
822.709	24357
822.849	24102
822.99	24098
823.13	24125
823.27	24117
823.41	23767
823.55	23969
823.69	24015
823.83	23904
823.97	23847
824.11	23668
824.25	23699
824.389	23859
824.529	23745
824.669	23657
824.809	23809
824.949	23638
825.089	23840
825.228	23733
825.368	23573
825.508	23501
825.648	23547
825.787	23455
825.927	23554
826.067	23490
826.206	23353
826.346	23524
826.485	23501
826.625	23395
826.765	23558
826.904	23551
827.044	23220
827.183	23307
827.323	23132
827.462	23155
827.601	23220
827.741	23197
827.88	23159
828.02	23006
828.159	23044
828.298	23136
828.437	23166
828.577	23048
828.716	23250
828.855	22976
828.994	22862
829.134	22831
829.273	22835
829.412	22744
829.551	22744
829.69	22767
829.829	22744
829.968	22946
830.107	22847
830.246	22733
830.385	22687
830.524	22687
830.663	22561
830.802	22424
830.941	22329
831.08	22413
831.219	22421
831.357	22371
831.496	22535
831.635	22413
831.774	22360
831.913	22295
832.051	22306
832.19	22147
832.329	22261
832.467	22196
832.606	22086
832.744	22147
832.883	22109
833.022	22078
833.16	22333
833.299	22367
833.437	22325
833.576	22603
833.714	22729
833.852	22767
833.991	22927
834.129	22927
834.267	23014
834.406	22946
834.544	22900
834.682	22843
834.821	22706
834.959	22797
835.097	22527
835.235	22622
835.373	22371
835.511	22341
835.65	22181
835.788	22101
835.926	21903
836.064	21823
836.202	21968
836.34	22013
836.478	21907
836.615	21823
836.753	21895
836.891	21968
837.029	21876
837.167	21846
837.305	21785
837.443	21793
837.58	21686
837.718	21671
837.856	21785
837.993	21603
838.131	21667
838.269	21557
838.406	21641
838.544	21466
838.681	21378
838.819	21279
838.956	21279
839.094	21100
839.231	21275
839.369	21241
839.506	21766
839.643	21283
839.781	21108
839.918	21020
840.055	21150
840.193	20963
840.33	21077
840.467	21062
840.604	20979
840.742	21230
840.879	20899
841.016	21043
841.153	20994
841.29	21184
841.427	21154
841.564	21020
841.701	21024
841.838	20963
841.975	20929
842.112	20887
842.249	20960
842.385	20735
842.522	21020
842.659	20944
842.796	20925
842.933	20845
843.069	20811
843.206	20853
843.343	20902
843.479	20948
843.616	20963
843.752	20735
843.889	20811
844.025	21100
844.162	20705
844.298	20967
844.435	21089
844.571	21108
844.708	21386
844.844	21736
844.98	22128
845.117	22386
845.253	23170
845.389	24350
845.525	26716
845.661	30886
845.798	35680
845.934	39427
846.07	41113
846.206	40093
846.342	36901
846.478	32077
846.614	27682
846.75	24745
846.886	23124
847.022	22280
847.158	21477
847.294	21085
847.429	20868
847.565	20731
847.701	20792
847.837	20145
847.972	19955
848.108	20214
848.244	20077
848.379	19928
848.515	19906
848.65	19689
848.786	19719
848.921	19822
849.057	19795
849.192	19746
849.328	19700
849.463	19696
849.598	19556
849.734	19529
849.869	19586
850.004	19537
850.14	19392
850.275	19426
850.41	19259
850.545	19369
850.68	19388
850.815	19434
850.95	19346
851.085	19643
851.22	19453
851.355	19422
851.49	19312
851.625	19388
851.76	19339
851.895	19274
852.03	19164
852.165	19343
852.299	19426
852.434	19483
852.569	19449
852.703	19457
852.838	19346
852.973	19464
853.107	19594
853.242	19301
853.376	19316
853.511	19206
853.645	19316
853.78	19681
853.914	19434
854.048	19434
854.183	19453
854.317	19483
854.451	19639
854.585	19506
854.72	19422
854.854	19415
854.988	19449
855.122	19411
855.256	19320
855.39	19453
855.524	19350
855.658	19346
855.792	19274
855.926	19365
856.06	19122
856.194	19350
856.327	19183
856.461	19164
856.595	19217
856.729	19240
856.862	19232
856.996	19232
857.13	19263
857.263	19293
857.397	19160
857.53	19088
857.664	19236
857.797	19209
857.931	19270
858.064	19213
858.197	19221
858.331	19031
858.464	19095
858.597	19099
858.731	19137
858.864	19042
858.997	19160
859.13	18958
859.263	19168
859.396	19236
859.529	19103
859.662	19072
859.795	18985
859.928	19031
860.061	19129
860.194	19137
860.327	19027
860.46	19023
860.592	19179
860.725	19107
860.858	19316
860.99	19118
861.123	18954
861.256	18932
861.388	19053
861.521	19734
861.653	18928
861.786	18795
861.918	18928
862.05	18947
862.183	18985
862.315	19072
862.447	18993
862.58	18993
862.712	18882
862.844	18802
862.976	18935
863.108	18791
863.24	19133
863.372	18639
863.504	18806
863.636	18692
863.768	18840
863.9	18768
864.032	18722
864.164	18707
864.296	18722
864.428	18768
864.559	18806
864.691	18749
864.823	18741
864.954	18692
865.086	18791
865.217	18677
865.349	18623
865.48	18616
865.612	18696
865.743	18707
865.875	18635
866.006	18627
866.137	18707
866.269	18570
866.4	18612
866.531	18547
866.662	18555
866.793	18540
866.924	18631
867.055	18608
867.186	18616
867.317	18422
867.448	18555
867.579	18547
867.71	18498
867.841	18464
867.972	18585
868.103	18574
868.233	18612
868.364	18506
868.495	18688
868.625	18749
868.756	18852
868.886	18700
869.017	18848
869.147	18970
869.278	19027
869.408	18905
869.539	18840
869.669	18939
869.799	18840
869.929	18886
870.06	19012
870.19	19289
870.32	19148
870.45	19320
870.58	19213
870.71	19358
870.84	19411
870.97	19251
871.1	19278
871.23	19449
871.36	19537
871.489	19365
871.619	19483
871.749	19468
871.879	19521
872.008	19734
872.138	19605
872.267	19639
872.397	19518
872.526	19400
872.656	19320
872.785	19438
872.915	19693
873.044	19597
873.173	19559
873.303	19750
873.432	19803
873.561	19826
873.69	19807
873.819	19734
873.948	19845
874.077	19780
874.206	19689
874.335	19818
874.464	19902
874.593	20111
874.722	20130
874.851	20039
874.979	20180
875.108	20248
875.237	20240
875.365	20084
875.494	20225
875.623	20298
875.751	20218
875.88	20408
876.008	20533
876.136	20629
876.265	20899
876.393	21001
876.521	20975
876.65	20998
876.778	20952
876.906	21085
877.034	20979
877.162	21161
877.29	21096
877.418	21256
877.546	21367
877.674	21207
877.802	21370
877.93	21568
878.058	21671
878.185	21724
878.313	22055
878.441	22268
878.568	22360
878.696	22904
878.824	23512
878.951	24228
879.079	25506
879.206	26979
879.333	28318
879.461	29417
879.588	30475
879.715	30418
879.842	29802
879.97	28478
880.097	26864
880.224	25563
880.351	24814
880.478	24140
880.605	23805
880.732	23425
880.859	23566
880.986	23185
881.112	23143
881.239	23048
881.366	22767
881.493	22725
881.619	22786
881.746	22801
881.872	22694
881.999	22649
882.125	22710
882.252	22702
882.378	22805
882.505	22972
882.631	22797
882.757	22584
882.883	22740
883.01	22538
883.136	22615
883.262	22504
883.388	22402
883.514	22580
883.64	22634
883.766	22512
883.892	22459
884.018	22371
884.143	22577
884.269	22660
884.395	22462
884.52	22325
884.646	22367
884.772	22249
884.897	22162
885.023	22329
885.148	22333
885.274	22344
885.399	22462
885.524	22055
885.65	22162
885.775	21949
885.9	21956
886.025	21873
886.15	21709
886.275	21412
886.4	21241
886.525	21294
886.65	21169
886.775	21096
886.9	21157
887.025	21154
887.149	20979
887.274	20762
887.399	20689
887.523	20587
887.648	20469
887.773	20404
887.897	20503
888.021	20495
888.146	20256
888.27	20218
888.395	20393
888.519	20275
888.643	20164
888.767	20301
888.891	20069
889.015	19909
889.139	20027
889.263	19890
889.387	20008
889.511	19864
889.635	19871
889.759	19784
889.883	19620
890.006	19757
890.13	19715
890.254	19563
890.377	19578
890.501	19460
890.624	19312
890.748	19407
890.871	19206
890.995	19221
891.118	19050
891.241	18981
891.364	19107
891.488	19160
891.611	19069
891.734	19019
891.857	19019
891.98	19027
892.103	19023
892.226	18890
892.349	18932
892.471	18658
892.594	18802
892.717	18882
892.839	18886
892.962	18734
893.085	18973
893.207	18726
893.33	18593
893.452	18719
893.575	18696
893.697	18639
893.819	18707
893.941	18829
894.064	18696
894.186	18578
894.308	18585
894.43	18536
894.552	18688
894.674	18661
894.796	18448
894.918	18506
895.04	18498
895.161	18547
895.283	18460
895.405	18410
895.526	18418
895.648	18429
895.769	18460
895.891	18502
896.012	18502
896.134	18475
896.255	18403
896.376	18460
896.498	18410
896.619	18517
896.74	18448
896.861	18498
896.982	18707
897.103	18901
897.224	18791
897.345	18646
897.466	18566
897.587	18635
897.708	18665
897.828	18608
897.949	18513
898.07	18597
898.19	18589
898.311	18677
898.431	18467
898.552	18589
898.672	18726
898.792	18665
898.913	18738
899.033	18445
899.153	18445
899.273	18292
899.393	18308
899.513	18357
899.633	18433
899.753	18342
899.873	18270
899.993	18414
900.113	18323
900.232	18376
900.352	18273
900.472	18209
900.591	18102
900.711	18121
900.83	18171
900.95	18323
901.069	18270
901.189	18003
901.308	17851
901.427	17828
901.546	17764
901.665	17745
901.784	17794
901.904	17600
902.023	17558
902.141	17398
902.26	17296
902.379	17273
902.498	17204
902.617	17113
902.735	17174
902.854	17124
902.973	17098
903.091	16835
903.21	16942
903.328	16904
903.446	16805
903.565	16824
903.683	16725
903.801	16550
903.919	16675
904.038	16592
904.156	16535
904.274	16527
904.392	16402
904.51	16432
904.627	16485
904.745	16402
904.863	16565
904.981	16166
905.098	16051
905.216	16010
905.334	16097
905.451	16185
905.569	15991
905.686	16025
905.803	15926
905.921	15747
906.038	15930
906.155	15835
906.272	15671
906.389	15694
906.506	15622
906.623	15572
906.74	15591
906.857	15439
906.974	15488
907.091	15557
907.208	15713
907.324	15557
907.441	15439
907.557	15302
907.674	15272
907.79	15176
907.907	15272
908.023	15260
908.139	15264
908.256	15230
908.372	15138
908.488	15127
908.604	15024
908.72	14895
908.836	15097
908.952	14952
909.068	14975
909.184	15173
909.3	14975
909.415	15024
909.531	14952
909.647	14720
909.762	14716
909.878	14705
909.993	14739
910.108	14636
910.224	14689
910.339	14621
910.454	14461
910.57	14590
910.685	14530
910.8	14720
910.915	14644
911.03	14541
911.145	14328
911.259	14282
911.374	14336
911.489	14210
911.604	14142
911.718	14062
911.833	14115
911.947	14016
912.062	13841
912.176	14012
912.291	14088
912.405	14069
912.519	14195
912.633	14172
912.748	14138
912.862	14005
912.976	13944
913.09	13776
913.204	13772
913.318	13864
913.431	14008
913.545	13936
913.659	14001
913.772	13928
913.886	13700
914	13727
914.113	13811
914.226	13837
914.34	13811
914.453	13658
914.566	13803
914.68	13662
914.793	13708
914.906	13453
915.019	13301
915.132	13350
915.245	13434
915.358	13354
915.47	13411
915.583	13438
915.696	13411
915.809	13563
915.921	13487
916.034	13403
916.146	13304
916.259	13346
916.371	13434
916.483	13415
916.595	13354
916.708	13335
916.82	13392
916.932	13400
917.044	13301
917.156	13304
917.268	13171
917.38	13107
917.491	13088
917.603	13126
917.715	13168
917.826	13232
917.938	13133
918.049	12981
918.161	13084
918.272	13141
918.384	13255
918.495	13023
918.606	12954
918.717	12840
918.828	12966
918.939	12954
919.05	12787
919.161	12867
919.272	12783
919.383	12688
919.494	12916
919.604	13000
919.715	12913
919.826	12760
919.936	12760
920.047	12901
920.157	12852
920.267	13065
920.378	12821
920.488	12791
920.598	12981
920.708	13217
920.818	13000
920.928	13023
921.038	13152
921.148	13084
921.258	12776
921.368	12726
921.477	12684
921.587	12639
921.697	12589
921.806	12681
921.916	12479
922.025	12422
922.134	12281
922.244	12178
922.353	12258
922.462	12140
922.571	12114
922.68	11954
922.789	11897
922.898	12015
923.007	11878
923.116	11950
923.224	11870
923.333	11882
923.442	11779
923.55	11790
923.659	11726
923.767	11767
923.876	11729
923.984	11851
924.092	11688
924.201	11756
924.309	11649
924.417	11684
924.525	11585
924.633	11646
924.741	12403
924.849	11482
924.956	11703
925.064	11452
925.172	11387
925.279	11433
925.387	11444
925.494	11433
925.602	11604
925.709	11486
925.816	11376
925.924	11448
926.031	11471
926.138	11349
926.245	11467
926.352	11277
926.459	11463
926.566	11410
926.673	11337
926.779	11299
926.886	11223
926.993	11128
927.099	11086
927.206	10949
927.312	10934
927.419	11102
927.525	11045
927.631	11033
927.737	10923
927.843	10995
927.95	10763
928.056	10877
928.162	10854
928.267	10934
928.373	11395
928.479	11056
928.585	10793
928.69	10942
928.796	10866
928.901	10790
929.007	10622
929.112	10824
929.218	10733
929.323	10744
929.428	10694
929.533	10771
929.638	10546
929.743	10649
929.848	10660
929.953	10535
930.058	10542
930.163	10360
930.267	10432
930.372	10558
930.477	10299
930.581	10561
930.685	10386
930.79	10207
930.894	10341
930.998	10265
931.103	10295
931.207	10002
931.311	9998
931.415	9869
931.519	9679
931.623	9751
