Data from test_V78500241_210.txt Node
Date: Fri Mar 25 14:35:11 CST 2022
User: usil
Spectrometer: V785-0024
Trigger mode: 0
Integration Time (sec): 4.000000E-1
Scans to average: 1
Nonlinearity correction enabled: false
Boxcar width: 0
Storing dark spectrum: false
XAxis mode: Wavelengths
Number of Pixels in Spectrum: 1024
>>>>>Begin Spectral Data<<<<<
801.071	27812
801.214	27983
801.356	27591
801.499	27591
801.641	27523
801.783	27393
801.926	27283
802.068	27291
802.211	27287
802.353	27199
802.496	27066
802.638	26971
802.78	27013
802.923	27066
803.065	26823
803.208	26796
803.35	27074
803.492	26963
803.635	27066
803.777	26906
803.919	27028
804.061	27294
804.204	27039
804.346	27036
804.488	26773
804.63	26853
804.773	26781
804.915	26948
805.057	27112
805.199	26906
805.341	26960
805.483	26975
805.626	27077
805.768	26902
805.91	27100
806.052	26979
806.194	26868
806.336	27184
806.478	27009
806.62	27085
806.762	27062
806.904	27226
807.046	27443
807.188	27420
807.33	27291
807.472	27504
807.614	27397
807.756	27473
807.898	27218
808.04	27291
808.182	27355
808.324	27557
808.465	27458
808.607	27793
808.749	27854
808.891	28215
809.033	28219
809.174	27979
809.316	27781
809.458	27804
809.6	27720
809.741	27770
809.883	27591
810.025	27755
810.166	27728
810.308	27705
810.45	27622
810.591	27652
810.733	27477
810.875	27507
811.016	27374
811.158	27340
811.299	27359
811.441	27389
811.582	27329
811.724	27260
811.865	27359
812.007	27245
812.148	27424
812.29	27386
812.431	27538
812.573	27671
812.714	27778
812.855	27808
812.997	27914
813.138	27998
813.279	28044
813.421	27797
813.562	27762
813.703	27572
813.845	27599
813.986	27108
814.127	26979
814.268	26819
814.41	27055
814.551	26811
814.692	26895
814.833	26857
814.974	26804
815.115	26906
815.256	26651
815.397	26705
815.539	26644
815.68	26667
815.821	26640
815.962	26693
816.103	26594
816.244	26499
816.385	26362
816.526	26278
816.666	26111
816.807	26043
816.948	26077
817.089	25894
817.23	26050
817.371	25989
817.512	25966
817.653	26016
817.793	25936
817.934	26103
818.075	26065
818.216	25868
818.356	25906
818.497	25868
818.638	25571
818.778	25715
818.919	25712
819.06	25727
819.2	25753
819.341	25776
819.481	26008
819.622	26081
819.762	26244
819.903	26027
820.043	26073
820.184	25925
820.324	25909
820.465	25970
820.605	25879
820.746	25917
820.886	25974
821.026	25906
821.167	25898
821.307	25940
821.447	25875
821.588	25666
821.728	25670
821.868	25377
822.008	25297
822.149	25297
822.289	25316
822.429	25137
822.569	24768
822.709	24966
822.849	24833
822.99	24806
823.13	24688
823.27	24661
823.41	24616
823.55	24486
823.69	24589
823.83	24471
823.97	24479
824.11	24235
824.25	24266
824.389	24460
824.529	24357
824.669	24308
824.809	24342
824.949	24334
825.089	24296
825.228	24357
825.368	24216
825.508	24026
825.648	24136
825.787	24148
825.927	23992
826.067	24087
826.206	23939
826.346	24117
826.485	24076
826.625	23992
826.765	24350
826.904	24194
827.044	23897
827.183	23798
827.323	23767
827.462	23935
827.601	23737
827.741	23786
827.88	23802
828.02	23627
828.159	23684
828.298	23741
828.437	23798
828.577	23672
828.716	23840
828.855	23619
828.994	23356
829.134	23501
829.273	23558
829.412	23436
829.551	23322
829.69	23467
829.829	23402
829.968	23463
830.107	23619
830.246	23318
830.385	23433
830.524	23261
830.663	23269
830.802	23132
830.941	22984
831.08	22995
831.219	23060
831.357	23117
831.496	23277
831.635	22949
831.774	22904
831.913	22828
832.051	22862
832.19	22774
832.329	22889
832.467	22767
832.606	22577
832.744	22733
832.883	22561
833.022	22725
833.16	22577
833.299	22672
833.437	22596
833.576	22622
833.714	22687
833.852	22691
833.991	22710
834.129	22812
834.267	22790
834.406	22702
834.544	22710
834.682	22584
834.821	22721
834.959	22862
835.097	22592
835.235	22725
835.373	22618
835.511	22599
835.65	22417
835.788	22527
835.926	22538
836.064	22181
836.202	22192
836.34	22440
836.478	22535
836.615	22493
836.753	22519
836.891	22538
837.029	22493
837.167	22440
837.305	22436
837.443	22402
837.58	22303
837.718	22382
837.856	22333
837.993	22181
838.131	22375
838.269	22219
838.406	22200
838.544	22150
838.681	21956
838.819	21876
838.956	21743
839.094	21698
839.231	21774
839.369	21918
839.506	22162
839.643	21975
839.781	21739
839.918	21614
840.055	21701
840.193	21599
840.33	21458
840.467	21595
840.604	21724
840.742	21816
840.879	21561
841.016	21534
841.153	21572
841.29	21762
841.427	21545
841.564	21682
841.701	21625
841.838	21485
841.975	21561
842.112	21435
842.249	21450
842.385	21344
842.522	21610
842.659	21283
842.796	21329
842.933	21245
843.069	21268
843.206	21332
843.343	21420
843.479	21344
843.616	21370
843.752	21070
843.889	21077
844.025	21207
844.162	21150
844.298	21093
844.435	21039
844.571	21001
844.708	21150
844.844	21351
844.98	21195
845.117	21340
845.253	21062
845.389	21093
845.525	21188
845.661	21222
845.798	21382
845.934	21663
846.07	21568
846.206	21656
846.342	21641
846.478	21211
846.614	20823
846.75	20678
846.886	20575
847.022	20625
847.158	20590
847.294	20636
847.429	20507
847.565	20450
847.701	20739
847.837	20252
847.972	20229
848.108	20328
848.244	20294
848.379	20142
848.515	20046
848.65	20046
848.786	20126
848.921	20020
849.057	20218
849.192	20081
849.328	20130
849.463	20107
849.598	19936
849.734	19917
849.869	19970
850.004	19822
850.14	19807
850.275	19871
850.41	19772
850.545	19875
850.68	19757
850.815	19860
850.95	19807
851.085	19932
851.22	19875
851.355	19769
851.49	19719
851.625	19715
851.76	19845
851.895	19658
852.03	19529
852.165	19723
852.299	19818
852.434	19822
852.569	19727
852.703	19845
852.838	19879
852.973	19913
853.107	19936
853.242	19868
853.376	19674
853.511	19502
853.645	19681
853.78	19605
853.914	19495
854.048	19544
854.183	19616
854.317	19643
854.451	19814
854.585	19689
854.72	19575
854.854	19601
854.988	19548
855.122	19609
855.256	19548
855.39	19613
855.524	19795
855.658	19666
855.792	19662
855.926	19521
856.06	19613
856.194	19628
856.327	19578
856.461	19567
856.595	19438
856.729	19586
856.862	19635
856.996	19556
857.13	19639
857.263	19674
857.397	19666
857.53	19594
857.664	19693
857.797	19567
857.931	19765
858.064	19597
858.197	19651
858.331	19578
858.464	19537
858.597	19381
858.731	19613
858.864	19480
858.997	19445
859.13	19590
859.263	19495
859.396	19552
859.529	19434
859.662	19514
859.795	19430
859.928	19582
860.061	19704
860.194	19776
860.327	19658
860.46	19506
860.592	19563
860.725	19597
860.858	19719
860.99	19403
861.123	19403
861.256	19464
861.388	19464
861.521	20035
861.653	19316
861.786	19472
861.918	19453
862.05	19552
862.183	19422
862.315	19544
862.447	19586
862.58	19476
862.712	19289
862.844	19221
862.976	19354
863.108	19346
863.24	19628
863.372	19145
863.504	19183
863.636	19217
863.768	19278
863.9	19255
864.032	19126
864.164	19225
864.296	19209
864.428	19255
864.559	19259
864.691	19244
864.823	19255
864.954	19259
865.086	19133
865.217	19057
865.349	19080
865.48	19213
865.612	19122
865.743	19236
865.875	19137
866.006	19069
866.137	19069
866.269	19129
866.4	19122
866.531	19145
866.662	19076
866.793	19080
866.924	19046
867.055	19027
867.186	19141
867.317	19019
867.448	19019
867.579	19065
867.71	19012
867.841	18913
867.972	18993
868.103	19031
868.233	19129
868.364	19065
868.495	19164
868.625	19251
868.756	19327
868.886	19137
869.017	19278
869.147	19422
869.278	19373
869.408	19293
869.539	19244
869.669	19308
869.799	19308
869.929	19362
870.06	19282
870.19	19685
870.32	19548
870.45	19594
870.58	19647
870.71	19887
870.84	19753
870.97	19666
871.1	19658
871.23	19803
871.36	19894
871.489	19807
871.619	19921
871.749	19887
871.879	19845
872.008	20031
872.138	19963
872.267	20008
872.397	19658
872.526	19681
872.656	19712
872.785	19712
872.915	19837
873.044	19978
873.173	19932
873.303	19871
873.432	20008
873.561	19993
873.69	19917
873.819	19925
873.948	20016
874.077	19944
874.206	19871
874.335	19921
874.464	20100
874.593	20107
874.722	20065
874.851	20142
874.979	20206
875.108	20180
875.237	20191
875.365	20233
875.494	20225
875.623	20214
875.751	20267
875.88	20180
876.008	20328
876.136	20412
876.265	20629
876.393	20758
876.521	20697
876.65	20724
876.778	20587
876.906	20556
877.034	20594
877.162	20530
877.29	20579
877.418	20514
877.546	20590
877.674	20602
877.802	20552
877.93	20693
878.058	20659
878.185	20514
878.313	20678
878.441	20549
878.568	20473
878.696	20648
878.824	20701
878.951	20819
879.079	20906
879.206	21104
879.333	20982
879.461	20933
879.588	20925
879.715	21165
879.842	21161
879.97	20914
880.097	20720
880.224	20583
880.351	20541
880.478	20568
880.605	20503
880.732	20545
880.859	20689
880.986	20621
881.112	20564
881.239	20415
881.366	20366
881.493	20237
881.619	20043
881.746	20115
881.872	20024
881.999	20096
882.125	20115
882.252	20206
882.378	20119
882.505	20164
882.631	20031
882.757	19947
882.883	19963
883.01	19883
883.136	19841
883.262	19795
883.388	19784
883.514	19925
883.64	19906
883.766	19849
883.892	19670
884.018	19552
884.143	19852
884.269	19883
884.395	19632
884.52	19521
884.646	19537
884.772	19514
884.897	19403
885.023	19601
885.148	19601
885.274	19567
885.399	19620
885.524	19590
885.65	19540
885.775	19430
885.9	19559
886.025	19556
886.15	19597
886.275	19540
886.4	19396
886.525	19499
886.65	19327
886.775	19350
886.9	19620
887.025	19666
887.149	19430
887.274	19285
887.399	19263
887.523	19247
887.648	19118
887.773	19148
887.897	19327
888.021	19244
888.146	19126
888.27	19198
888.395	19270
888.519	19183
888.643	19270
888.767	19266
888.891	19057
889.015	18973
889.139	19148
889.263	19031
889.387	19126
889.511	19274
889.635	19080
889.759	19012
889.883	18875
890.006	18932
890.13	19050
890.254	18840
890.377	18897
890.501	18878
890.624	18779
890.748	18829
890.871	18741
890.995	18623
891.118	18608
891.241	18570
891.364	18532
891.488	18688
891.611	18612
891.734	18578
891.857	18620
891.98	18650
892.103	18760
892.226	18650
892.349	18566
892.471	18350
892.594	18536
892.717	18486
892.839	18395
892.962	18506
893.085	18483
893.207	18604
893.33	18456
893.452	18498
893.575	18669
893.697	18559
893.819	18646
893.941	18741
894.064	18566
894.186	18525
894.308	18448
894.43	18616
894.552	18719
894.674	18616
894.796	18422
894.918	18559
895.04	18452
895.161	18506
895.283	18536
895.405	18410
895.526	18574
895.648	18410
895.769	18452
895.891	18498
896.012	18677
896.134	18597
896.255	18597
896.376	18528
896.498	18627
896.619	18574
896.74	18696
896.861	18540
896.982	18916
897.103	19008
897.224	18806
897.345	18871
897.466	18753
897.587	18802
897.708	18981
897.828	18901
897.949	18749
898.07	18608
898.19	18681
898.311	18913
898.431	18795
898.552	18806
898.672	18905
898.792	18913
898.913	18810
899.033	18582
899.153	18658
899.273	18429
899.393	18627
899.513	18673
899.633	18536
899.753	18582
899.873	18460
899.993	18650
900.113	18536
900.232	18521
900.352	18437
900.472	18452
900.591	18338
900.711	18471
900.83	18262
900.95	18456
901.069	18498
901.189	18205
901.308	18129
901.427	17992
901.546	17920
901.665	18003
901.784	17935
901.904	17961
902.023	17703
902.141	17703
902.26	17570
902.379	17524
902.498	17512
902.617	17345
902.735	17547
902.854	17425
902.973	17356
903.091	17235
903.21	17208
903.328	17170
903.446	17048
903.565	17018
903.683	17045
903.801	17029
903.919	16934
904.038	16885
904.156	16744
904.274	16885
904.392	16694
904.51	16759
904.627	16809
904.745	16809
904.863	16793
904.981	16531
905.098	16409
905.216	16424
905.334	16390
905.451	16485
905.569	16459
905.686	16382
905.803	16421
905.921	16067
906.038	16303
906.155	16162
906.272	16128
906.389	16097
906.506	15941
906.623	16055
906.74	15869
906.857	15736
906.974	15907
907.091	16044
907.208	16051
907.324	15922
907.441	15785
907.557	15755
907.674	15644
907.79	15526
907.907	15526
908.023	15648
908.139	15660
908.256	15485
908.372	15587
908.488	15515
908.604	15340
908.72	15142
908.836	15355
908.952	15272
909.068	15374
909.184	15374
909.3	15306
909.415	15473
909.531	15332
909.647	15020
909.762	14963
909.878	15009
909.993	15055
910.108	14971
910.224	14952
910.339	14948
910.454	14914
910.57	14842
910.685	14785
910.8	15039
910.915	15055
911.03	14811
911.145	14640
911.259	14602
911.374	14670
911.489	14568
911.604	14514
911.718	14320
911.833	14469
911.947	14313
912.062	14214
912.176	14385
912.291	14343
912.405	14355
912.519	14514
912.633	14495
912.748	14492
912.862	14389
912.976	14180
913.09	14005
913.204	14164
913.318	14153
913.431	14286
913.545	14324
913.659	14282
913.772	14145
913.886	14069
914	14020
914.113	14088
914.226	14252
914.34	14107
914.453	13986
914.566	14088
914.68	13909
914.793	13883
914.906	13765
915.019	13715
915.132	13628
915.245	13704
915.358	13658
915.47	13632
915.583	13658
915.696	13807
915.809	13723
915.921	13887
916.034	13582
916.146	13597
916.259	13582
916.371	13651
916.483	13563
916.595	13552
916.708	13620
916.82	13559
916.932	13491
917.044	13445
917.156	13457
917.268	13400
917.38	13396
917.491	13278
917.603	13434
917.715	13495
917.826	13396
917.938	13316
918.049	13327
918.161	13285
918.272	13480
918.384	13438
918.495	13289
918.606	13149
918.717	13080
918.828	13168
918.939	13187
919.05	13095
919.161	13152
919.272	12935
919.383	13057
919.494	13080
919.604	13293
919.715	13076
919.826	13072
919.936	13122
920.047	13160
920.157	13091
920.267	13285
920.378	13202
920.488	12981
920.598	13266
920.708	13324
920.818	13274
920.928	13160
921.038	13441
921.148	13422
921.258	13122
921.368	12993
921.477	12932
921.587	12825
921.697	12772
921.806	12871
921.916	12768
922.025	12608
922.134	12559
922.244	12513
922.353	12517
922.462	12403
922.571	12330
922.68	12304
922.789	12216
922.898	12144
923.007	12136
923.116	12167
923.224	12144
923.333	12114
923.442	11984
923.55	12049
923.659	12045
923.767	12045
923.876	11984
923.984	12087
924.092	11954
924.201	11984
924.309	12041
924.417	11961
924.525	11904
924.633	11920
924.741	12916
924.849	11623
924.956	11775
925.064	11619
925.172	11623
925.279	11653
925.387	11748
925.494	11745
925.602	11798
925.709	11783
925.816	11577
925.924	11668
926.031	11665
926.138	11608
926.245	11668
926.352	11505
926.459	11611
926.566	11680
926.673	11532
926.779	11509
926.886	11406
926.993	11299
927.099	11337
927.206	11208
927.312	11288
927.419	11220
927.525	11181
927.631	11349
927.737	11155
927.843	11166
927.95	11079
928.056	11071
928.162	11079
928.267	11159
928.373	11752
928.479	11185
928.585	10984
928.69	11094
928.796	11136
928.901	10930
929.007	10900
929.112	11006
929.218	10976
929.323	10820
929.428	10862
929.533	11056
929.638	10809
929.743	10835
929.848	10835
929.953	10839
930.058	10774
930.163	10580
930.267	10611
930.372	10694
930.477	10565
930.581	10782
930.685	10641
930.79	10447
930.894	10546
930.998	10409
931.103	10561
931.207	10215
931.311	10169
931.415	10097
931.519	9964
931.623	9915
