Data from test_V78500241_1577.txt Node
Date: Fri Mar 25 14:44:41 CST 2022
User: usil
Spectrometer: V785-0024
Trigger mode: 0
Integration Time (sec): 4.000000E-1
Scans to average: 1
Nonlinearity correction enabled: false
Boxcar width: 0
Storing dark spectrum: false
XAxis mode: Wavelengths
Number of Pixels in Spectrum: 1024
>>>>>Begin Spectral Data<<<<<
801.071	22421
801.214	22371
801.356	22128
801.499	21797
801.641	21690
801.783	21762
801.926	21762
802.068	21755
802.211	21663
802.353	21625
802.496	21382
802.638	21279
802.78	21165
802.923	21104
803.065	20918
803.208	21032
803.35	20952
803.492	21230
803.635	21207
803.777	21013
803.919	21173
804.061	21492
804.204	21146
804.346	21047
804.488	20925
804.63	21039
804.773	20933
804.915	20956
805.057	21096
805.199	21036
805.341	21135
805.483	21131
805.626	21108
805.768	20937
805.91	21058
806.052	21096
806.194	20960
806.336	21051
806.478	21001
806.62	20906
806.762	21066
806.904	21226
807.046	21481
807.188	21439
807.33	21351
807.472	21367
807.614	21306
807.756	21408
807.898	21195
808.04	21104
808.182	21272
808.324	21157
808.465	21298
808.607	21481
808.749	21515
808.891	21576
809.033	21663
809.174	21701
809.316	21481
809.458	21530
809.6	21507
809.741	21553
809.883	21454
810.025	21641
810.166	21637
810.308	21572
810.45	21652
810.591	21511
810.733	21397
810.875	21412
811.016	21131
811.158	21032
811.299	21230
811.441	21321
811.582	21431
811.724	21294
811.865	21230
812.007	21127
812.148	21199
812.29	21233
812.431	21393
812.573	21576
812.714	21496
812.855	21614
812.997	21823
813.138	21842
813.279	21705
813.421	21747
813.562	21572
813.703	21363
813.845	21405
813.986	21127
814.127	20788
814.268	20842
814.41	20800
814.551	20712
814.692	20861
814.833	20613
814.974	20689
815.115	20712
815.256	20689
815.397	20674
815.539	20632
815.68	20389
815.821	20446
815.962	20457
816.103	20427
816.244	20202
816.385	20244
816.526	20134
816.666	20161
816.807	19944
816.948	20016
817.089	20024
817.23	19932
817.371	19940
817.512	19860
817.653	19997
817.793	19841
817.934	19894
818.075	19940
818.216	19898
818.356	19799
818.497	19685
818.638	19639
818.778	19582
818.919	19556
819.06	19537
819.2	19594
819.341	19780
819.481	19651
819.622	19970
819.762	20096
819.903	20134
820.043	19921
820.184	19833
820.324	19795
820.465	19978
820.605	19849
820.746	19685
820.886	19723
821.026	19746
821.167	19769
821.307	19928
821.447	19811
821.588	19727
821.728	19586
821.868	19445
822.008	19289
822.149	19331
822.289	19274
822.429	19046
822.569	18973
822.709	18932
822.849	18665
822.99	18703
823.13	18631
823.27	18715
823.41	18597
823.55	18399
823.69	18540
823.83	18620
823.97	18471
824.11	18422
824.25	18247
824.389	18273
824.529	18460
824.669	18266
824.809	18407
824.949	18464
825.089	18353
825.228	18353
825.368	18163
825.508	18129
825.648	18095
825.787	18091
825.927	18140
826.067	18053
826.206	18022
826.346	18076
826.485	18152
826.625	18045
826.765	18258
826.904	18098
827.044	17840
827.183	17836
827.323	17745
827.462	17710
827.601	17760
827.741	17802
827.88	17798
828.02	17611
828.159	17722
828.298	17764
828.437	17832
828.577	17756
828.716	17927
828.855	17737
828.994	17520
829.134	17623
829.273	17589
829.412	17573
829.551	17410
829.69	17512
829.829	17665
829.968	17551
830.107	17570
830.246	17509
830.385	17410
830.524	17478
830.663	17402
830.802	17269
830.941	17132
831.08	17159
831.219	17170
831.357	17242
831.496	17250
831.635	17258
831.774	17105
831.913	17010
832.051	16987
832.19	16896
832.329	16923
832.467	16904
832.606	16896
832.744	16850
832.883	16881
833.022	16885
833.16	16881
833.299	16930
833.437	16767
833.576	16843
833.714	16763
833.852	16953
833.991	16858
834.129	16927
834.267	17022
834.406	16862
834.544	16911
834.682	16873
834.821	16835
834.959	16987
835.097	16797
835.235	16896
835.373	16854
835.511	16809
835.65	16706
835.788	16660
835.926	16672
836.064	16626
836.202	16565
836.34	16786
836.478	16767
836.615	16694
836.753	16793
836.891	16824
837.029	16782
837.167	16649
837.305	16702
837.443	16577
837.58	16615
837.718	16755
837.856	16675
837.993	16519
838.131	16622
838.269	16603
838.406	16561
838.544	16546
838.681	16352
838.819	16303
838.956	16204
839.094	16112
839.231	16261
839.369	16265
839.506	16592
839.643	16398
839.781	16226
839.918	16173
840.055	16181
840.193	16181
840.33	16067
840.467	16249
840.604	16306
840.742	16337
840.879	16101
841.016	16021
841.153	16135
841.29	16234
841.427	16139
841.564	16181
841.701	16105
841.838	16188
841.975	16025
842.112	16192
842.249	15960
842.385	15903
842.522	16063
842.659	16006
842.796	15895
842.933	15937
843.069	15857
843.206	15850
843.343	16128
843.479	15949
843.616	16006
843.752	15667
843.889	15637
844.025	15846
844.162	15770
844.298	15808
844.435	15770
844.571	15713
844.708	15774
844.844	15736
844.98	15903
845.117	15835
845.253	15694
845.389	15743
845.525	15743
845.661	15629
845.798	15477
845.934	15739
846.07	15770
846.206	15732
846.342	15831
846.478	15603
846.614	15496
846.75	15214
846.886	15283
847.022	15329
847.158	15241
847.294	15317
847.429	15279
847.565	15218
847.701	15439
847.837	15108
847.972	14963
848.108	15211
848.244	15081
848.379	14941
848.515	14891
848.65	14967
848.786	14807
848.921	14845
849.057	14994
849.192	15013
849.328	15013
849.463	14902
849.598	14864
849.734	14773
849.869	14674
850.004	14693
850.14	14667
850.275	14667
850.41	14571
850.545	14697
850.68	14610
850.815	14651
850.95	14579
851.085	14830
851.22	14720
851.355	14682
851.49	14533
851.625	14659
851.76	14545
851.895	14495
852.03	14431
852.165	14568
852.299	14720
852.434	14735
852.569	14731
852.703	14629
852.838	14765
852.973	14807
853.107	14819
853.242	14602
853.376	14606
853.511	14343
853.645	14492
853.78	14533
853.914	14427
854.048	14492
854.183	14461
854.317	14568
854.451	14632
854.585	14610
854.72	14488
854.854	14629
854.988	14457
855.122	14469
855.256	14366
855.39	14495
855.524	14545
855.658	14606
855.792	14549
855.926	14594
856.06	14511
856.194	14583
856.327	14419
856.461	14552
856.595	14461
856.729	14568
856.862	14598
856.996	14495
857.13	14632
857.263	14587
857.397	14663
857.53	14518
857.664	14571
857.797	14530
857.931	14617
858.064	14689
858.197	14568
858.331	14587
858.464	14450
858.597	14415
858.731	14412
858.864	14446
858.997	14469
859.13	14450
859.263	14590
859.396	14663
859.529	14579
859.662	14518
859.795	14431
859.928	14533
860.061	14743
860.194	14629
860.327	14579
860.46	14492
860.592	14594
860.725	14640
860.858	14663
860.99	14552
861.123	14385
861.256	14442
861.388	14488
861.521	15226
861.653	14427
861.786	14358
861.918	14309
862.05	14408
862.183	14465
862.315	14560
862.447	14518
862.58	14530
862.712	14263
862.844	14256
862.976	14320
863.108	14305
863.24	14800
863.372	14180
863.504	14282
863.636	14301
863.768	14320
863.9	14248
864.032	14145
864.164	14320
864.296	14233
864.428	14362
864.559	14320
864.691	14393
864.823	14431
864.954	14347
865.086	14275
865.217	14332
865.349	14237
865.48	14183
865.612	14275
865.743	14377
865.875	14240
866.006	14191
866.137	14347
866.269	14278
866.4	14278
866.531	14267
866.662	14233
866.793	14244
866.924	14210
867.055	14263
867.186	14248
867.317	14263
867.448	14221
867.579	14259
867.71	14313
867.841	14180
867.972	14214
868.103	14214
868.233	14298
868.364	14317
868.495	14381
868.625	14415
868.756	14636
868.886	14495
869.017	14423
869.147	14617
869.278	14590
869.408	14568
869.539	14476
869.669	14598
869.799	14545
869.929	14613
870.06	14606
870.19	14842
870.32	14811
870.45	14834
870.58	14948
870.71	14929
870.84	15024
870.97	14895
871.1	14819
871.23	15081
871.36	15051
871.489	14963
871.619	15047
871.749	15142
871.879	15222
872.008	15222
872.138	15066
872.267	15119
872.397	14929
872.526	15081
872.656	14929
872.785	14956
872.915	15192
873.044	15150
873.173	14994
873.303	15203
873.432	15203
873.561	15195
873.69	15268
873.819	15237
873.948	15192
874.077	15161
874.206	15180
874.335	15131
874.464	15340
874.593	15473
874.722	15374
874.851	15473
874.979	15466
875.108	15511
875.237	15401
875.365	15382
875.494	15477
875.623	15397
875.751	15424
875.88	15439
876.008	15637
876.136	15675
876.265	15880
876.393	16017
876.521	16013
876.65	15941
876.778	15869
876.906	15857
877.034	15850
877.162	15804
877.29	15869
877.418	15888
877.546	15880
877.674	15835
877.802	15899
877.93	15888
878.058	15888
878.185	15785
878.313	15831
878.441	15842
878.568	15682
878.696	15869
878.824	15876
878.951	15888
879.079	16097
879.206	16249
879.333	16013
879.461	15979
879.588	16093
879.715	16261
879.842	16158
879.97	16055
880.097	15660
880.224	15789
880.351	15739
880.478	15797
880.605	15774
880.732	15717
880.859	16078
880.986	15804
881.112	15736
881.239	15591
881.366	15500
881.493	15488
881.619	15298
881.746	15378
881.872	15473
881.999	15389
882.125	15405
882.252	15420
882.378	15405
882.505	15530
882.631	15252
882.757	15283
882.883	15237
883.01	15116
883.136	15055
883.262	15070
883.388	15081
883.514	15131
883.64	15256
883.766	15211
883.892	14967
884.018	15123
884.143	15165
884.269	15237
884.395	14941
884.52	14895
884.646	14952
884.772	14804
884.897	14899
885.023	14944
885.148	15001
885.274	15036
885.399	15135
885.524	14960
885.65	14910
885.775	14895
885.9	14864
886.025	15055
886.15	14986
886.275	14914
886.4	14872
886.525	14906
886.65	14944
886.775	14872
886.9	15009
887.025	15089
887.149	14887
887.274	14758
887.399	14712
887.523	14678
887.648	14743
887.773	14670
887.897	14804
888.021	14625
888.146	14758
888.27	14861
888.395	14887
888.519	14781
888.643	14716
888.767	14754
888.891	14590
889.015	14518
889.139	14579
889.263	14522
889.387	14720
889.511	14796
889.635	14720
889.759	14564
889.883	14697
890.006	14686
890.13	14693
890.254	14461
890.377	14613
890.501	14381
890.624	14408
890.748	14431
890.871	14358
890.995	14240
891.118	14164
891.241	14282
891.364	14248
891.488	14473
891.611	14191
891.734	14244
891.857	14393
891.98	14195
892.103	14381
892.226	14252
892.349	14259
892.471	14187
892.594	14271
892.717	14282
892.839	14164
892.962	14172
893.085	14278
893.207	14305
893.33	14077
893.452	14244
893.575	14347
893.697	14145
893.819	14450
893.941	14503
894.064	14457
894.186	14142
894.308	14214
894.43	14396
894.552	14415
894.674	14412
894.796	14305
894.918	14404
895.04	14278
895.161	14446
895.283	14427
895.405	14415
895.526	14415
895.648	14381
895.769	14355
895.891	14415
896.012	14526
896.134	14480
896.255	14537
896.376	14526
896.498	14427
896.619	14503
896.74	14476
896.861	14514
896.982	14804
897.103	14895
897.224	14785
897.345	14651
897.466	14594
897.587	14739
897.708	14765
897.828	14853
897.949	14659
898.07	14610
898.19	14712
898.311	14845
898.431	14758
898.552	14815
898.672	14887
898.792	14986
898.913	14845
899.033	14731
899.153	14708
899.273	14556
899.393	14617
899.513	14720
899.633	14686
899.753	14670
899.873	14750
899.993	14708
900.113	14716
900.232	14590
900.352	14648
900.472	14625
900.591	14446
900.711	14575
900.83	14442
900.95	14617
901.069	14610
901.189	14556
901.308	14324
901.427	14187
901.546	14153
901.665	14252
901.784	14252
901.904	14145
902.023	14176
902.141	13841
902.26	13742
902.379	13780
902.498	13841
902.617	13715
902.735	13799
902.854	13776
902.973	13662
903.091	13518
903.21	13441
903.328	13514
903.446	13392
903.565	13339
903.683	13373
903.801	13327
903.919	13259
904.038	13228
904.156	13175
904.274	13266
904.392	13129
904.51	13175
904.627	13118
904.745	13175
904.863	13266
904.981	12894
905.098	12852
905.216	12806
905.334	12825
905.451	12852
905.569	12779
905.686	12852
905.803	12783
905.921	12677
906.038	12726
906.155	12654
906.272	12532
906.389	12608
906.506	12414
906.623	12429
906.74	12384
906.857	12292
906.974	12296
907.091	12486
907.208	12502
907.324	12414
907.441	12266
907.557	12144
907.674	12129
907.79	12140
907.907	12152
908.023	12167
908.139	12091
908.256	12049
908.372	12087
908.488	12053
908.604	11908
908.72	11821
908.836	11931
908.952	11859
909.068	12007
909.184	11965
909.3	11851
909.415	12011
909.531	11874
909.647	11760
909.762	11695
909.878	11657
909.993	11676
910.108	11741
910.224	11627
910.339	11619
910.454	11657
910.57	11501
910.685	11467
910.8	11695
910.915	11630
911.03	11493
911.145	11448
911.259	11337
911.374	11356
911.489	11349
911.604	11201
911.718	11151
911.833	11113
911.947	11018
912.062	11010
912.176	11086
912.291	11143
912.405	11204
912.519	11299
912.633	11349
912.748	11174
912.862	11223
912.976	11022
913.09	10801
913.204	10942
913.318	10976
913.431	11185
913.545	11018
913.659	11037
913.772	11048
913.886	10942
914	10824
914.113	10949
914.226	11006
914.34	10984
914.453	10850
914.566	11041
914.68	10877
914.793	10801
914.906	10660
915.019	10649
915.132	10561
915.245	10653
915.358	10691
915.47	10630
915.583	10630
915.696	10664
915.809	10763
915.921	10854
916.034	10618
916.146	10584
916.259	10626
916.371	10645
916.483	10675
916.595	10630
916.708	10649
916.82	10531
916.932	10561
917.044	10603
917.156	10481
917.268	10413
917.38	10451
917.491	10443
917.603	10535
917.715	10618
917.826	10618
917.938	10428
918.049	10432
918.161	10500
918.272	10649
918.384	10637
918.495	10561
918.606	10382
918.717	10303
918.828	10428
918.939	10405
919.05	10329
919.161	10379
919.272	10139
919.383	10207
919.494	10417
919.604	10607
919.715	10421
919.826	10276
919.936	10352
920.047	10493
920.157	10451
920.267	10603
920.378	10432
920.488	10371
920.598	10565
920.708	10771
920.818	10675
920.928	10611
921.038	10717
921.148	10656
921.258	10481
921.368	10356
921.477	10272
921.587	10284
921.697	10169
921.806	10268
921.916	10154
922.025	10006
922.134	9945
922.244	9918
922.353	9968
922.462	9778
922.571	9800
922.68	9637
922.789	9618
922.898	9629
923.007	9576
923.116	9724
923.224	9652
923.333	9637
923.442	9515
923.55	9534
923.659	9606
923.767	9549
923.876	9450
923.984	9591
924.092	9378
924.201	9458
924.309	9443
924.417	9534
924.525	9435
924.633	9473
924.741	10363
924.849	9275
924.956	9401
925.064	9233
925.172	9192
925.279	9272
925.387	9340
925.494	9298
925.602	9469
925.709	9317
925.816	9207
925.924	9298
926.031	9351
926.138	9264
926.245	9355
926.352	9123
926.459	9298
926.566	9393
926.673	9245
926.779	9100
926.886	9077
926.993	9032
927.099	8982
927.206	8963
927.312	8975
927.419	9028
927.525	9058
927.631	9058
927.737	8914
927.843	8872
927.95	8739
928.056	8876
928.162	8880
928.267	8963
928.373	9420
928.479	8979
928.585	8758
928.69	8849
928.796	8872
928.901	8724
929.007	8724
929.112	8754
929.218	8739
929.323	8724
929.428	8663
929.533	8800
929.638	8674
929.743	8667
929.848	8762
929.953	8701
930.058	8598
930.163	8473
930.267	8495
930.372	8636
930.477	8446
930.581	8720
930.685	8587
930.79	8415
930.894	8507
930.998	8366
931.103	8526
931.207	8195
931.311	8138
931.415	8039
931.519	7963
931.623	7944
