Data from test_V78500241_3659.txt Node
Date: Fri Mar 25 14:59:11 CST 2022
User: usil
Spectrometer: V785-0024
Trigger mode: 0
Integration Time (sec): 4.000000E-1
Scans to average: 1
Nonlinearity correction enabled: false
Boxcar width: 0
Storing dark spectrum: false
XAxis mode: Wavelengths
Number of Pixels in Spectrum: 1024
>>>>>Begin Spectral Data<<<<<
801.071	21831
801.214	21922
801.356	21450
801.499	21473
801.641	21344
801.783	21313
801.926	21207
802.068	21195
802.211	21169
802.353	21043
802.496	20826
802.638	20739
802.78	20682
802.923	20815
803.065	20434
803.208	20575
803.35	20590
803.492	20708
803.635	20689
803.777	20648
803.919	20659
804.061	20864
804.204	20693
804.346	20522
804.488	20636
804.63	20533
804.773	20533
804.915	20393
805.057	20689
805.199	20404
805.341	20507
805.483	20689
805.626	20674
805.768	20533
805.91	20625
806.052	20617
806.194	20499
806.336	20777
806.478	20511
806.62	20530
806.762	20564
806.904	20632
807.046	20994
807.188	20902
807.33	20838
807.472	20910
807.614	20758
807.756	20754
807.898	20655
808.04	20499
808.182	20476
808.324	20632
808.465	20594
808.607	20975
808.749	20902
808.891	20895
809.033	21001
809.174	20925
809.316	20701
809.458	20845
809.6	20815
809.741	20864
809.883	20925
810.025	21036
810.166	20929
810.308	20963
810.45	20975
810.591	20826
810.733	20720
810.875	20655
811.016	20571
811.158	20583
811.299	20716
811.441	20777
811.582	20796
811.724	20629
811.865	20598
812.007	20583
812.148	20667
812.29	20625
812.431	20762
812.573	20902
812.714	21085
812.855	21173
812.997	21211
813.138	21260
813.279	21218
813.421	21135
813.562	21020
813.703	20861
813.845	20792
813.986	20442
814.127	20412
814.268	20164
814.41	20275
814.551	20130
814.692	20172
814.833	20138
814.974	20138
815.115	20183
815.256	19993
815.397	19959
815.539	19986
815.68	19864
815.821	19803
815.962	19925
816.103	19890
816.244	19643
816.385	19616
816.526	19674
816.666	19434
816.807	19259
816.948	19453
817.089	19445
817.23	19384
817.371	19358
817.512	19247
817.653	19308
817.793	19175
817.934	19228
818.075	19274
818.216	19240
818.356	19114
818.497	19103
818.638	19023
818.778	18924
818.919	19019
819.06	19038
819.2	19061
819.341	19141
819.481	19225
819.622	19419
819.762	19441
819.903	19518
820.043	19365
820.184	19225
820.324	19255
820.465	19422
820.605	19236
820.746	19251
820.886	19122
821.026	19198
821.167	19171
821.307	19285
821.447	19183
821.588	19145
821.728	19050
821.868	18928
822.008	18669
822.149	18738
822.289	18661
822.429	18407
822.569	18448
822.709	18399
822.849	18277
822.99	18220
823.13	18205
823.27	18171
823.41	17965
823.55	18068
823.69	18102
823.83	17904
823.97	17916
824.11	17726
824.25	17733
824.389	17771
824.529	17950
824.669	17767
824.809	17741
824.949	17893
825.089	17710
825.228	17748
825.368	17608
825.508	17604
825.648	17566
825.787	17623
825.927	17554
826.067	17554
826.206	17570
826.346	17459
826.485	17680
826.625	17478
826.765	17680
826.904	17543
827.044	17299
827.183	17311
827.323	17216
827.462	17223
827.601	17204
827.741	17212
827.88	17216
828.02	17151
828.159	17223
828.298	17303
828.437	17402
828.577	17216
828.716	17299
828.855	17273
828.994	16991
829.134	16984
829.273	16987
829.412	17048
829.551	16919
829.69	16904
829.829	17048
829.968	17067
830.107	17048
830.246	17033
830.385	17025
830.524	16908
830.663	16809
830.802	16683
830.941	16558
831.08	16630
831.219	16660
831.357	16675
831.496	16835
831.635	16622
831.774	16516
831.913	16535
832.051	16462
832.19	16443
832.329	16466
832.467	16329
832.606	16303
832.744	16303
832.883	16325
833.022	16238
833.16	16211
833.299	16352
833.437	16310
833.576	16348
833.714	16314
833.852	16360
833.991	16432
834.129	16436
834.267	16375
834.406	16382
834.544	16325
834.682	16356
834.821	16337
834.959	16546
835.097	16356
835.235	16493
835.373	16394
835.511	16379
835.65	16226
835.788	16276
835.926	16257
836.064	16120
836.202	16067
836.34	16287
836.478	16375
836.615	16230
836.753	16181
836.891	16363
837.029	16246
837.167	16276
837.305	16249
837.443	16169
837.58	16185
837.718	16215
837.856	16124
837.993	16124
838.131	16147
838.269	16154
838.406	16135
838.544	16036
838.681	15869
838.819	15857
838.956	15724
839.094	15755
839.231	15743
839.369	15949
839.506	16097
839.643	15960
839.781	15739
839.918	15663
840.055	15690
840.193	15800
840.33	15652
840.467	15701
840.604	15781
840.742	15979
840.879	15660
841.016	15587
841.153	15671
841.29	15751
841.427	15781
841.564	15728
841.701	15656
841.838	15774
841.975	15679
842.112	15675
842.249	15515
842.385	15500
842.522	15599
842.659	15549
842.796	15431
842.933	15488
843.069	15439
843.206	15435
843.343	15587
843.479	15603
843.616	15545
843.752	15332
843.889	15317
844.025	15454
844.162	15279
844.298	15405
844.435	15321
844.571	15207
844.708	15405
844.844	15454
844.98	15439
845.117	15462
845.253	15237
845.389	15192
845.525	15359
845.661	15218
845.798	15017
845.934	15214
846.07	15047
846.206	15161
846.342	15344
846.478	15089
846.614	14872
846.75	14895
846.886	14895
847.022	15001
847.158	14906
847.294	14868
847.429	14952
847.565	14864
847.701	15142
847.837	14594
847.972	14552
848.108	14693
848.244	14682
848.379	14590
848.515	14408
848.65	14503
848.786	14476
848.921	14461
849.057	14488
849.192	14587
849.328	14663
849.463	14473
849.598	14484
849.734	14313
849.869	14358
850.004	14199
850.14	14351
850.275	14210
850.41	14103
850.545	14195
850.68	14301
850.815	14244
850.95	14176
851.085	14480
851.22	14366
851.355	14202
851.49	14199
851.625	14244
851.76	14161
851.895	14153
852.03	14164
852.165	14259
852.299	14256
852.434	14381
852.569	14218
852.703	14282
852.838	14252
852.973	14336
853.107	14431
853.242	14252
853.376	14123
853.511	13978
853.645	14039
853.78	14259
853.914	14111
854.048	14027
854.183	13982
854.317	14069
854.451	14267
854.585	14115
854.72	14069
854.854	14187
854.988	14016
855.122	14081
855.256	13913
855.39	14054
855.524	14157
855.658	14153
855.792	14081
855.926	14081
856.06	14153
856.194	14252
856.327	14107
856.461	14046
856.595	14035
856.729	14062
856.862	14191
856.996	14088
857.13	14153
857.263	14123
857.397	14248
857.53	14039
857.664	14157
857.797	14107
857.931	14176
858.064	14142
858.197	14259
858.331	14043
858.464	14126
858.597	14050
858.731	14123
858.864	14134
858.997	14077
859.13	14145
859.263	14119
859.396	14206
859.529	14050
859.662	14046
859.795	14043
859.928	14134
860.061	14275
860.194	14256
860.327	14103
860.46	14111
860.592	14210
860.725	14278
860.858	14187
860.99	14096
861.123	14157
861.256	14020
861.388	14088
861.521	14838
861.653	14096
861.786	13940
861.918	13925
862.05	13947
862.183	14020
862.315	14138
862.447	14100
862.58	14073
862.712	13841
862.844	13898
862.976	13951
863.108	13879
863.24	14305
863.372	13826
863.504	13860
863.636	13883
863.768	13879
863.9	13951
864.032	13871
864.164	13902
864.296	13932
864.428	14043
864.559	13936
864.691	14073
864.823	13947
864.954	13906
865.086	14027
865.217	13936
865.349	13704
865.48	13951
865.612	13883
865.743	14035
865.875	13822
866.006	13788
866.137	13860
866.269	13902
866.4	13890
866.531	13753
866.662	13791
866.793	13822
866.924	13715
867.055	13830
867.186	13814
867.317	13780
867.448	13776
867.579	13830
867.71	13742
867.841	13791
867.972	13963
868.103	13799
868.233	13879
868.364	13898
868.495	13947
868.625	14058
868.756	14233
868.886	13967
869.017	14183
869.147	14301
869.278	14275
869.408	14096
869.539	14039
869.669	14161
869.799	14130
869.929	14252
870.06	14248
870.19	14476
870.32	14343
870.45	14522
870.58	14499
870.71	14598
870.84	14598
870.97	14507
871.1	14480
871.23	14632
871.36	14617
871.489	14545
871.619	14708
871.749	14743
871.879	14750
872.008	14899
872.138	14720
872.267	14682
872.397	14655
872.526	14648
872.656	14556
872.785	14617
872.915	14769
873.044	14785
873.173	14739
873.303	14796
873.432	14849
873.561	14800
873.69	14746
873.819	14731
873.948	14887
874.077	14788
874.206	14845
874.335	14811
874.464	14941
874.593	15112
874.722	15047
874.851	15173
874.979	15180
875.108	15211
875.237	15055
875.365	14849
875.494	15074
875.623	15180
875.751	15169
875.88	15165
876.008	15332
876.136	15306
876.265	15534
876.393	15751
876.521	15538
876.65	15523
876.778	15591
876.906	15530
877.034	15481
877.162	15458
877.29	15466
877.418	15595
877.546	15507
877.674	15485
877.802	15473
877.93	15481
878.058	15454
878.185	15458
878.313	15519
878.441	15568
878.568	15367
878.696	15488
878.824	15618
878.951	15591
879.079	15694
879.206	15743
879.333	15663
879.461	15660
879.588	15736
879.715	15698
879.842	15785
879.97	15587
880.097	15412
880.224	15397
880.351	15359
880.478	15370
880.605	15275
880.732	15386
880.859	15542
880.986	15435
881.112	15313
881.239	15241
881.366	15192
881.493	15154
881.619	15039
881.746	14998
881.872	15028
881.999	15066
882.125	14918
882.252	15100
882.378	14998
882.505	15150
882.631	14906
882.757	14762
882.883	14807
883.01	14925
883.136	14727
883.262	14644
883.388	14758
883.514	14929
883.64	14857
883.766	14861
883.892	14762
884.018	14705
884.143	14796
884.269	14914
884.395	14648
884.52	14495
884.646	14625
884.772	14454
884.897	14457
885.023	14583
885.148	14549
885.274	14701
885.399	14659
885.524	14579
885.65	14473
885.775	14514
885.9	14556
886.025	14697
886.15	14598
886.275	14598
886.4	14545
886.525	14511
886.65	14450
886.775	14389
886.9	14644
887.025	14773
887.149	14480
887.274	14412
887.399	14476
887.523	14313
887.648	14282
887.773	14195
887.897	14408
888.021	14446
888.146	14381
888.27	14465
888.395	14560
888.519	14427
888.643	14419
888.767	14476
888.891	14290
889.015	14172
889.139	14339
889.263	14240
889.387	14351
889.511	14446
889.635	14374
889.759	14298
889.883	14313
890.006	14320
890.13	14454
890.254	14168
890.377	14191
890.501	14058
890.624	14035
890.748	14149
890.871	14046
890.995	13852
891.118	13944
891.241	14027
891.364	14088
891.488	13993
891.611	13898
891.734	14005
891.857	13959
891.98	14103
892.103	14012
892.226	13967
892.349	13890
892.471	13871
892.594	13890
892.717	13944
892.839	13982
892.962	13959
893.085	14024
893.207	13921
893.33	13814
893.452	13913
893.575	14126
893.697	13944
893.819	14065
893.941	14206
894.064	14168
894.186	13936
894.308	14008
894.43	14020
894.552	14202
894.674	14130
894.796	14016
894.918	14050
895.04	13963
895.161	14161
895.283	14069
895.405	14027
895.526	14035
895.648	14058
895.769	14084
895.891	14035
896.012	14130
896.134	14206
896.255	14100
896.376	14065
896.498	13967
896.619	14134
896.74	14145
896.861	14229
896.982	14507
897.103	14606
897.224	14434
897.345	14366
897.466	14324
897.587	14377
897.708	14476
897.828	14454
897.949	14298
898.07	14248
898.19	14366
898.311	14530
898.431	14423
898.552	14461
898.672	14522
898.792	14587
898.913	14526
899.033	14400
899.153	14423
899.273	14237
899.393	14305
899.513	14237
899.633	14404
899.753	14275
899.873	14259
899.993	14404
900.113	14305
900.232	14415
900.352	14431
900.472	14259
900.591	14142
900.711	14168
900.83	14077
900.95	14286
901.069	14339
901.189	14153
901.308	14008
901.427	13822
901.546	13890
901.665	13932
901.784	13940
901.904	13883
902.023	13575
902.141	13438
902.26	13487
902.379	13411
902.498	13388
902.617	13335
902.735	13495
902.854	13499
902.973	13480
903.091	13206
903.21	13217
903.328	13103
903.446	13088
903.565	13069
903.683	13084
903.801	12882
903.919	12970
904.038	12878
904.156	12817
904.274	12894
904.392	12806
904.51	12757
904.627	12806
904.745	12947
904.863	12939
904.981	12623
905.098	12536
905.216	12536
905.334	12559
905.451	12544
905.569	12467
905.686	12608
905.803	12521
905.921	12319
906.038	12414
906.155	12311
906.272	12334
906.389	12342
906.506	12129
906.623	12152
906.74	12034
906.857	11988
906.974	11999
907.091	12239
907.208	12251
907.324	12190
907.441	12117
907.557	11889
907.674	11885
907.79	11840
907.907	11813
908.023	11927
908.139	11912
908.256	11859
908.372	11817
908.488	11828
908.604	11623
908.72	11668
908.836	11653
908.952	11619
909.068	11657
909.184	11703
909.3	11646
909.415	11661
909.531	11668
909.647	11459
909.762	11364
909.878	11307
909.993	11474
910.108	11425
910.224	11391
910.339	11444
910.454	11284
910.57	11296
910.685	11235
910.8	11509
910.915	11398
911.03	11258
911.145	11056
911.259	11048
911.374	11124
911.489	11041
911.604	10965
911.718	10866
911.833	10923
911.947	10828
912.062	10683
912.176	10877
912.291	10820
912.405	10889
912.519	10987
912.633	11048
912.748	10866
912.862	10862
912.976	10805
913.09	10607
913.204	10736
913.318	10767
913.431	10885
913.545	10771
913.659	10908
913.772	10683
913.886	10561
914	10573
914.113	10835
914.226	10748
914.34	10714
914.453	10584
914.566	10679
914.68	10573
914.793	10588
914.906	10447
915.019	10348
915.132	10227
915.245	10413
915.358	10432
915.47	10417
915.583	10417
915.696	10386
915.809	10489
915.921	10569
916.034	10337
916.146	10333
916.259	10306
916.371	10379
916.483	10466
916.595	10238
916.708	10299
916.82	10318
916.932	10421
917.044	10363
917.156	10261
917.268	10158
917.38	10268
917.491	10196
917.603	10265
917.715	10276
917.826	10314
917.938	10158
918.049	10051
918.161	10204
918.272	10352
918.384	10318
918.495	10223
918.606	10128
918.717	10097
918.828	10177
918.939	10097
919.05	10006
919.161	10093
919.272	9873
919.383	10013
919.494	10192
919.604	10352
919.715	10143
919.826	10063
919.936	10135
920.047	10207
920.157	10101
920.267	10284
920.378	10181
920.488	10139
920.598	10265
920.708	10390
920.818	10398
920.928	10306
921.038	10470
921.148	10421
921.258	10192
921.368	10044
921.477	9991
921.587	9907
921.697	9831
921.806	9991
921.916	9869
922.025	9736
922.134	9656
922.244	9644
922.353	9694
922.462	9572
922.571	9526
922.68	9416
922.789	9336
922.898	9329
923.007	9367
923.116	9443
923.224	9439
923.333	9367
923.442	9256
923.55	9249
923.659	9253
923.767	9340
923.876	9214
923.984	9374
924.092	9207
924.201	9260
924.309	9329
924.417	9195
924.525	9157
924.633	9195
924.741	9975
924.849	9020
924.956	9131
925.064	8998
925.172	8921
925.279	9047
925.387	9070
925.494	9024
925.602	9138
925.709	9157
925.816	8986
925.924	8971
926.031	9157
926.138	9070
926.245	9085
926.352	8990
926.459	9127
926.566	9131
926.673	9001
926.779	8891
926.886	8830
926.993	8769
927.099	8754
927.206	8716
927.312	8674
927.419	8750
927.525	8727
927.631	8823
927.737	8663
927.843	8629
927.95	8594
928.056	8632
928.162	8720
928.267	8682
928.373	9230
928.479	8754
928.585	8549
928.69	8663
928.796	8648
928.901	8602
929.007	8442
929.112	8594
929.218	8564
929.323	8396
929.428	8564
929.533	8659
929.638	8431
929.743	8381
929.848	8480
929.953	8404
930.058	8336
930.163	8134
930.267	8202
930.372	8347
930.477	8267
930.581	8454
930.685	8313
930.79	8176
930.894	8206
930.998	8180
931.103	8339
931.207	8046
931.311	7967
931.415	7879
931.519	7693
931.623	7719
