Data from test_V78500241_1703.txt Node
Date: Fri Mar 25 14:45:34 CST 2022
User: usil
Spectrometer: V785-0024
Trigger mode: 0
Integration Time (sec): 4.000000E-1
Scans to average: 1
Nonlinearity correction enabled: false
Boxcar width: 0
Storing dark spectrum: false
XAxis mode: Wavelengths
Number of Pixels in Spectrum: 1024
>>>>>Begin Spectral Data<<<<<
801.071	22287
801.214	22257
801.356	21953
801.499	21766
801.641	21698
801.783	21652
801.926	21595
802.068	21481
802.211	21561
802.353	21401
802.496	21207
802.638	21135
802.78	21096
802.923	20925
803.065	20944
803.208	20960
803.35	21001
803.492	21085
803.635	21093
803.777	21001
803.919	21055
804.061	21367
804.204	21055
804.346	20956
804.488	20765
804.63	20899
804.773	20876
804.915	20910
805.057	20918
805.199	20868
805.341	20994
805.483	21017
805.626	20914
805.768	20826
805.91	20807
806.052	20902
806.194	20853
806.336	20990
806.478	20853
806.62	20785
806.762	20876
806.904	21123
807.046	21359
807.188	21336
807.33	21104
807.472	21283
807.614	21275
807.756	21211
807.898	21020
808.04	20929
808.182	20944
808.324	20994
808.465	21043
808.607	21256
808.749	21222
808.891	21291
809.033	21557
809.174	21275
809.316	21340
809.458	21321
809.6	21066
809.741	21272
809.883	21428
810.025	21526
810.166	21481
810.308	21462
810.45	21496
810.591	21294
810.733	21211
810.875	21039
811.016	21085
811.158	20967
811.299	21100
811.441	21123
811.582	21233
811.724	21112
811.865	21062
812.007	21028
812.148	21131
812.29	21077
812.431	21161
812.573	21374
812.714	21374
812.855	21542
812.997	21690
813.138	21728
813.279	21679
813.421	21477
813.562	21542
813.703	21435
813.845	21165
813.986	20906
814.127	20769
814.268	20712
814.41	20663
814.551	20693
814.692	20697
814.833	20552
814.974	20526
815.115	20594
815.256	20549
815.397	20393
815.539	20537
815.68	20404
815.821	20282
815.962	20339
816.103	20206
816.244	20252
816.385	20027
816.526	20138
816.666	19928
816.807	19780
816.948	19837
817.089	19780
817.23	19811
817.371	19856
817.512	19822
817.653	19750
817.793	19746
817.934	19712
818.075	19826
818.216	19791
818.356	19647
818.497	19609
818.638	19449
818.778	19495
818.919	19441
819.06	19544
819.2	19582
819.341	19704
819.481	19601
819.622	19788
819.762	20012
819.903	19940
820.043	19894
820.184	19708
820.324	19674
820.465	19734
820.605	19662
820.746	19616
820.886	19635
821.026	19651
821.167	19689
821.307	19712
821.447	19738
821.588	19514
821.728	19308
821.868	19282
822.008	19061
822.149	19080
822.289	19110
822.429	19004
822.569	18802
822.709	18814
822.849	18646
822.99	18620
823.13	18574
823.27	18479
823.41	18388
823.55	18475
823.69	18399
823.83	18338
823.97	18357
824.11	18232
824.25	18292
824.389	18224
824.529	18281
824.669	18167
824.809	18239
824.949	18304
825.089	18270
825.228	18254
825.368	17984
825.508	18136
825.648	18095
825.787	18228
825.927	18041
826.067	17958
826.206	17901
826.346	18019
826.485	18053
826.625	17939
826.765	18045
826.904	17870
827.044	17733
827.183	17745
827.323	17543
827.462	17695
827.601	17707
827.741	17672
827.88	17676
828.02	17619
828.159	17619
828.298	17672
828.437	17752
828.577	17642
828.716	17779
828.855	17699
828.994	17512
829.134	17383
829.273	17493
829.412	17440
829.551	17391
829.69	17493
829.829	17421
829.968	17562
830.107	17425
830.246	17490
830.385	17353
830.524	17227
830.663	17303
830.802	17048
830.941	17045
831.08	16999
831.219	17155
831.357	17155
831.496	17280
831.635	16938
831.774	16949
831.913	16858
832.051	16885
832.19	16801
832.329	16896
832.467	16702
832.606	16675
832.744	16664
832.883	16664
833.022	16717
833.16	16664
833.299	16721
833.437	16736
833.576	16763
833.714	16752
833.852	16858
833.991	16797
834.129	16778
834.267	16862
834.406	16820
834.544	16763
834.682	16801
834.821	16786
834.959	16961
835.097	16729
835.235	16908
835.373	16721
835.511	16824
835.65	16637
835.788	16641
835.926	16493
836.064	16531
836.202	16462
836.34	16710
836.478	16729
836.615	16683
836.753	16767
836.891	16698
837.029	16611
837.167	16596
837.305	16508
837.443	16542
837.58	16527
837.718	16653
837.856	16577
837.993	16447
838.131	16512
838.269	16447
838.406	16413
838.544	16443
838.681	16177
838.819	16166
838.956	16078
839.094	16112
839.231	16078
839.369	16306
839.506	16462
839.643	16390
839.781	16090
839.918	16029
840.055	16017
840.193	16086
840.33	16029
840.467	16139
840.604	16105
840.742	16348
840.879	15880
841.016	15960
841.153	15968
841.29	16131
841.427	16124
841.564	16124
841.701	16147
841.838	16120
841.975	15998
842.112	15968
842.249	15960
842.385	15800
842.522	16048
842.659	15884
842.796	15850
842.933	15857
843.069	15797
843.206	15899
843.343	15922
843.479	15876
843.616	15857
843.752	15663
843.889	15614
844.025	15789
844.162	15644
844.298	15652
844.435	15629
844.571	15618
844.708	15713
844.844	15797
844.98	15762
845.117	15705
845.253	15641
845.389	15591
845.525	15637
845.661	15618
845.798	15454
845.934	15500
846.07	15420
846.206	15523
846.342	15545
846.478	15401
846.614	15317
846.75	15165
846.886	15131
847.022	15283
847.158	15256
847.294	15241
847.429	15275
847.565	15272
847.701	15485
847.837	15028
847.972	14933
848.108	14994
848.244	14994
848.379	14830
848.515	14804
848.65	14815
848.786	14853
848.921	14834
849.057	14845
849.192	14887
849.328	14826
849.463	14785
849.598	14804
849.734	14804
849.869	14648
850.004	14613
850.14	14667
850.275	14575
850.41	14499
850.545	14480
850.68	14537
850.815	14579
850.95	14556
851.085	14689
851.22	14693
851.355	14590
851.49	14549
851.625	14594
851.76	14606
851.895	14511
852.03	14522
852.165	14636
852.299	14629
852.434	14727
852.569	14587
852.703	14526
852.838	14716
852.973	14845
853.107	14769
853.242	14454
853.376	14541
853.511	14339
853.645	14419
853.78	14575
853.914	14446
854.048	14488
854.183	14511
854.317	14400
854.451	14636
854.585	14473
854.72	14343
854.854	14476
854.988	14381
855.122	14446
855.256	14385
855.39	14358
855.524	14461
855.658	14473
855.792	14434
855.926	14419
856.06	14488
856.194	14488
856.327	14396
856.461	14423
856.595	14389
856.729	14362
856.862	14549
856.996	14393
857.13	14514
857.263	14575
857.397	14522
857.53	14385
857.664	14419
857.797	14530
857.931	14465
858.064	14488
858.197	14446
858.331	14469
858.464	14389
858.597	14336
858.731	14495
858.864	14469
858.997	14381
859.13	14511
859.263	14495
859.396	14412
859.529	14473
859.662	14389
859.795	14351
859.928	14423
860.061	14560
860.194	14549
860.327	14476
860.46	14431
860.592	14537
860.725	14564
860.858	14545
860.99	14503
861.123	14301
861.256	14488
861.388	14389
861.521	14952
861.653	14343
861.786	14229
861.918	14271
862.05	14419
862.183	14377
862.315	14450
862.447	14518
862.58	14419
862.712	14221
862.844	14103
862.976	14271
863.108	14206
863.24	14674
863.372	14126
863.504	14305
863.636	14301
863.768	14328
863.9	14187
864.032	14123
864.164	14225
864.296	14301
864.428	14282
864.559	14294
864.691	14324
864.823	14339
864.954	14214
865.086	14252
865.217	14206
865.349	14138
865.48	14199
865.612	14218
865.743	14313
865.875	14130
866.006	14244
866.137	14282
866.269	14153
866.4	14172
866.531	14256
866.662	14069
866.793	14134
866.924	14210
867.055	14164
867.186	14195
867.317	14210
867.448	14138
867.579	14142
867.71	14039
867.841	14130
867.972	14206
868.103	14153
868.233	14142
868.364	14233
868.495	14271
868.625	14377
868.756	14492
868.886	14347
869.017	14446
869.147	14579
869.278	14575
869.408	14522
869.539	14434
869.669	14552
869.799	14473
869.929	14499
870.06	14621
870.19	14712
870.32	14754
870.45	14648
870.58	14823
870.71	14937
870.84	15001
870.97	14845
871.1	14815
871.23	14933
871.36	15024
871.489	14941
871.619	15005
871.749	15032
871.879	15085
872.008	15222
872.138	14990
872.267	15131
872.397	14979
872.526	14929
872.656	14807
872.785	14910
872.915	15058
873.044	15085
873.173	15055
873.303	15097
873.432	15161
873.561	15123
873.69	15104
873.819	15218
873.948	15165
874.077	15207
874.206	15017
874.335	15138
874.464	15161
874.593	15355
874.722	15329
874.851	15439
874.979	15424
875.108	15530
875.237	15389
875.365	15325
875.494	15424
875.623	15412
875.751	15420
875.88	15397
876.008	15549
876.136	15595
876.265	15816
876.393	15987
876.521	15899
876.65	15850
876.778	15873
876.906	15797
877.034	15831
877.162	15842
877.29	15831
877.418	15755
877.546	15800
877.674	15873
877.802	15895
877.93	15804
878.058	15781
878.185	15743
878.313	15774
878.441	15812
878.568	15675
878.696	15793
878.824	15797
878.951	15892
879.079	15979
879.206	16044
879.333	16002
879.461	15994
879.588	15956
879.715	16013
879.842	16051
879.97	15861
880.097	15698
880.224	15694
880.351	15766
880.478	15652
880.605	15686
880.732	15747
880.859	15850
880.986	15724
881.112	15705
881.239	15603
881.366	15469
881.493	15435
881.619	15203
881.746	15329
881.872	15481
881.999	15382
882.125	15230
882.252	15370
882.378	15302
882.505	15576
882.631	15233
882.757	15268
882.883	15188
883.01	15169
883.136	15104
883.262	15013
883.388	15070
883.514	15184
883.64	15233
883.766	15066
883.892	14952
884.018	15062
884.143	15150
884.269	15188
884.395	14960
884.52	14883
884.646	14788
884.772	14796
884.897	14716
885.023	14796
885.148	14925
885.274	15013
885.399	14830
885.524	14876
885.65	14845
885.775	14861
885.9	14804
886.025	15020
886.15	14845
886.275	14796
886.4	14689
886.525	14807
886.65	14853
886.775	14724
886.9	15081
887.025	15055
887.149	14872
887.274	14640
887.399	14686
887.523	14579
887.648	14655
887.773	14610
887.897	14746
888.021	14678
888.146	14621
888.27	14762
888.395	14743
888.519	14682
888.643	14693
888.767	14735
888.891	14629
889.015	14454
889.139	14617
889.263	14492
889.387	14571
889.511	14750
889.635	14632
889.759	14484
889.883	14450
890.006	14419
890.13	14530
890.254	14488
890.377	14480
890.501	14415
890.624	14313
890.748	14476
890.871	14271
890.995	14157
891.118	14123
891.241	14142
891.364	14202
891.488	14301
891.611	14252
891.734	14263
891.857	14358
891.98	14244
892.103	14320
892.226	14218
892.349	14237
892.471	14103
892.594	14172
892.717	14233
892.839	14206
892.962	14202
893.085	14301
893.207	14263
893.33	14046
893.452	14111
893.575	14153
893.697	14187
893.819	14355
893.941	14438
894.064	14419
894.186	14218
894.308	14210
894.43	14370
894.552	14389
894.674	14381
894.796	14100
894.918	14263
895.04	14320
895.161	14309
895.283	14381
895.405	14317
895.526	14313
895.648	14320
895.769	14358
895.891	14400
896.012	14473
896.134	14427
896.255	14377
896.376	14286
896.498	14381
896.619	14469
896.74	14290
896.861	14537
896.982	14769
897.103	14834
897.224	14659
897.345	14678
897.466	14579
897.587	14617
897.708	14727
897.828	14811
897.949	14625
898.07	14507
898.19	14518
898.311	14823
898.431	14739
898.552	14708
898.672	14838
898.792	14762
898.913	14727
899.033	14705
899.153	14625
899.273	14465
899.393	14651
899.513	14625
899.633	14594
899.753	14659
899.873	14537
899.993	14636
900.113	14514
900.232	14670
900.352	14571
900.472	14583
900.591	14476
900.711	14450
900.83	14427
900.95	14484
901.069	14590
901.189	14427
901.308	14252
901.427	14069
901.546	14130
901.665	14237
901.784	14126
901.904	13959
902.023	13959
902.141	13655
902.26	13765
902.379	13799
902.498	13647
902.617	13731
902.735	13765
902.854	13677
902.973	13590
903.091	13396
903.21	13434
903.328	13411
903.446	13430
903.565	13293
903.683	13381
903.801	13202
903.919	13320
904.038	13304
904.156	13088
904.274	13145
904.392	13118
904.51	13137
904.627	13088
904.745	13129
904.863	13213
904.981	12939
905.098	12768
905.216	12768
905.334	12810
905.451	12772
905.569	12658
905.686	12928
905.803	12821
905.921	12627
906.038	12776
906.155	12620
906.272	12429
906.389	12555
906.506	12391
906.623	12304
906.74	12304
906.857	12300
906.974	12308
907.091	12471
907.208	12528
907.324	12376
907.441	12273
907.557	12258
907.674	12159
907.79	11992
907.907	12106
908.023	12159
908.139	12129
908.256	12098
908.372	12034
908.488	12079
908.604	11847
908.72	11783
908.836	11855
908.952	11802
909.068	11824
909.184	11980
909.3	11813
909.415	11923
909.531	11866
909.647	11684
909.762	11608
909.878	11672
909.993	11608
910.108	11657
910.224	11573
910.339	11630
910.454	11520
910.57	11410
910.685	11486
910.8	11707
910.915	11691
911.03	11512
911.145	11360
911.259	11349
911.374	11372
911.489	11258
911.604	11231
911.718	11060
911.833	11102
911.947	10961
912.062	10866
912.176	11121
912.291	11140
912.405	11189
912.519	11261
912.633	11258
912.748	11121
912.862	11022
912.976	11022
913.09	10892
913.204	10968
913.318	10930
913.431	11098
913.545	11090
913.659	11083
913.772	11071
913.886	10885
914	10820
914.113	10972
914.226	10995
914.34	10839
914.453	10786
914.566	10965
914.68	10831
914.793	10809
914.906	10554
915.019	10550
915.132	10569
915.245	10554
915.358	10603
915.47	10588
915.583	10573
915.696	10653
915.809	10767
915.921	10805
916.034	10527
916.146	10565
916.259	10436
916.371	10706
916.483	10630
916.595	10558
916.708	10550
916.82	10565
916.932	10512
917.044	10508
917.156	10500
917.268	10363
917.38	10447
917.491	10409
917.603	10447
917.715	10554
917.826	10561
917.938	10341
918.049	10310
918.161	10413
918.272	10565
918.384	10516
918.495	10394
918.606	10329
918.717	10211
918.828	10257
918.939	10306
919.05	10249
919.161	10246
919.272	10017
919.383	10112
919.494	10329
919.604	10474
919.715	10310
919.826	10169
919.936	10265
920.047	10405
920.157	10379
920.267	10500
920.378	10360
920.488	10303
920.598	10542
920.708	10641
920.818	10554
920.928	10440
921.038	10675
921.148	10645
921.258	10367
921.368	10325
921.477	10139
921.587	10185
921.697	10036
921.806	10223
921.916	10036
922.025	9918
922.134	9846
922.244	9876
922.353	9880
922.462	9808
922.571	9808
922.68	9542
922.789	9526
922.898	9500
923.007	9553
923.116	9584
923.224	9523
923.333	9519
923.442	9428
923.55	9416
923.659	9420
923.767	9538
923.876	9363
923.984	9458
924.092	9412
924.201	9386
924.309	9466
924.417	9382
924.525	9348
924.633	9340
924.741	10303
924.849	9226
924.956	9355
925.064	9245
925.172	9100
925.279	9176
925.387	9272
925.494	9199
925.602	9393
925.709	9291
925.816	9119
925.924	9279
926.031	9222
926.138	9176
926.245	9195
926.352	9112
926.459	9233
926.566	9275
926.673	9138
926.779	9024
926.886	9104
926.993	8929
927.099	8948
927.206	8937
927.312	8944
927.419	8899
927.525	8914
927.631	8979
927.737	8880
927.843	8823
927.95	8686
928.056	8785
928.162	8804
928.267	8880
928.373	9492
928.479	8944
928.585	8712
928.69	8830
928.796	8796
928.901	8731
929.007	8610
929.112	8731
929.218	8720
929.323	8632
929.428	8610
929.533	8754
929.638	8552
929.743	8602
929.848	8701
929.953	8579
930.058	8651
930.163	8423
930.267	8370
930.372	8522
930.477	8374
930.581	8640
930.685	8457
930.79	8408
930.894	8377
930.998	8301
931.103	8484
931.207	8073
931.311	8046
931.415	8031
931.519	7860
931.623	7845
