Data from test_V78500241_3558.txt Node
Date: Fri Mar 25 14:58:29 CST 2022
User: usil
Spectrometer: V785-0024
Trigger mode: 0
Integration Time (sec): 4.000000E-1
Scans to average: 1
Nonlinearity correction enabled: false
Boxcar width: 0
Storing dark spectrum: false
XAxis mode: Wavelengths
Number of Pixels in Spectrum: 1024
>>>>>Begin Spectral Data<<<<<
801.071	22029
801.214	21892
801.356	21580
801.499	21545
801.641	21355
801.783	21332
801.926	21317
802.068	21211
802.211	21218
802.353	21085
802.496	20838
802.638	20708
802.78	20777
802.923	20765
803.065	20480
803.208	20552
803.35	20556
803.492	20743
803.635	20731
803.777	20594
803.919	20712
804.061	20944
804.204	20670
804.346	20564
804.488	20457
804.63	20594
804.773	20503
804.915	20514
805.057	20560
805.199	20412
805.341	20530
805.483	20663
805.626	20636
805.768	20492
805.91	20533
806.052	20648
806.194	20374
806.336	20606
806.478	20629
806.62	20393
806.762	20507
806.904	20674
807.046	20925
807.188	20899
807.33	20781
807.472	20876
807.614	20765
807.756	20861
807.898	20629
808.04	20629
808.182	20583
808.324	20522
808.465	20727
808.607	20838
808.749	20914
808.891	20952
809.033	21066
809.174	20948
809.316	20754
809.458	20777
809.6	20830
809.741	21070
809.883	20899
810.025	21055
810.166	21043
810.308	20967
810.45	21055
810.591	20819
810.733	20708
810.875	20587
811.016	20549
811.158	20587
811.299	20678
811.441	20682
811.582	20804
811.724	20564
811.865	20617
812.007	20693
812.148	20507
812.29	20705
812.431	20765
812.573	20918
812.714	21062
812.855	21135
812.997	21264
813.138	21408
813.279	21329
813.421	21180
813.562	21074
813.703	20842
813.845	20781
813.986	20503
814.127	20393
814.268	20206
814.41	20199
814.551	20252
814.692	20214
814.833	20149
814.974	20153
815.115	20149
815.256	20001
815.397	20100
815.539	19986
815.68	19928
815.821	19913
815.962	19894
816.103	19887
816.244	19677
816.385	19757
816.526	19559
816.666	19373
816.807	19400
816.948	19434
817.089	19518
817.23	19392
817.371	19373
817.512	19217
817.653	19400
817.793	19247
817.934	19168
818.075	19316
818.216	19217
818.356	19274
818.497	19164
818.638	19031
818.778	19031
818.919	18966
819.06	19008
819.2	19141
819.341	19187
819.481	19232
819.622	19304
819.762	19502
819.903	19411
820.043	19320
820.184	19301
820.324	19145
820.465	19346
820.605	19411
820.746	19335
820.886	19304
821.026	19266
821.167	19175
821.307	19388
821.447	19107
821.588	19099
821.728	18993
821.868	18829
822.008	18696
822.149	18608
822.289	18627
822.429	18429
822.569	18338
822.709	18441
822.849	18300
822.99	18171
823.13	18171
823.27	18216
823.41	18045
823.55	17984
823.69	18106
823.83	18057
823.97	17893
824.11	17851
824.25	17771
824.389	17581
824.529	17737
824.669	17783
824.809	17859
824.949	17817
825.089	17851
825.228	17687
825.368	17558
825.508	17615
825.648	17501
825.787	17570
825.927	17642
826.067	17551
826.206	17421
826.346	17634
826.485	17547
826.625	17471
826.765	17608
826.904	17589
827.044	17269
827.183	17307
827.323	17185
827.462	17322
827.601	17227
827.741	17128
827.88	17356
828.02	17155
828.159	17155
828.298	17258
828.437	17341
828.577	17159
828.716	17322
828.855	17288
828.994	16919
829.134	17052
829.273	17010
829.412	17018
829.551	16980
829.69	17003
829.829	17079
829.968	17094
830.107	17075
830.246	16953
830.385	16961
830.524	16942
830.663	16930
830.802	16683
830.941	16672
831.08	16744
831.219	16691
831.357	16679
831.496	16820
831.635	16626
831.774	16497
831.913	16569
832.051	16402
832.19	16356
832.329	16394
832.467	16348
832.606	16223
832.744	16333
832.883	16265
833.022	16291
833.16	16428
833.299	16386
833.437	16432
833.576	16409
833.714	16325
833.852	16447
833.991	16356
834.129	16573
834.267	16470
834.406	16356
834.544	16367
834.682	16504
834.821	16402
834.959	16561
835.097	16360
835.235	16523
835.373	16363
835.511	16497
835.65	16257
835.788	16325
835.926	16192
836.064	16124
836.202	16143
836.34	16337
836.478	16443
836.615	16352
836.753	16371
836.891	16478
837.029	16295
837.167	16325
837.305	16234
837.443	16139
837.58	16139
837.718	16325
837.856	16322
837.993	16131
838.131	16169
838.269	16226
838.406	16147
838.544	16074
838.681	15945
838.819	15857
838.956	15785
839.094	15736
839.231	15804
839.369	15751
839.506	16204
839.643	15979
839.781	15797
839.918	15827
840.055	15728
840.193	15671
840.33	15690
840.467	15671
840.604	15838
840.742	15934
840.879	15542
841.016	15690
841.153	15625
841.29	15789
841.427	15743
841.564	15808
841.701	15720
841.838	15656
841.975	15519
842.112	15694
842.249	15557
842.385	15603
842.522	15686
842.659	15504
842.796	15481
842.933	15603
843.069	15545
843.206	15389
843.343	15625
843.479	15603
843.616	15587
843.752	15321
843.889	15389
844.025	15469
844.162	15332
844.298	15431
844.435	15249
844.571	15272
844.708	15370
844.844	15382
844.98	15374
845.117	15336
845.253	15245
845.389	15230
845.525	15165
845.661	15245
845.798	15043
845.934	15039
846.07	15112
846.206	15150
846.342	15211
846.478	15192
846.614	14971
846.75	14880
846.886	14792
847.022	14960
847.158	14796
847.294	14883
847.429	14899
847.565	14823
847.701	15077
847.837	14568
847.972	14674
848.108	14731
848.244	14727
848.379	14507
848.515	14473
848.65	14362
848.786	14461
848.921	14492
849.057	14632
849.192	14564
849.328	14503
849.463	14507
849.598	14408
849.734	14431
849.869	14415
850.004	14298
850.14	14313
850.275	14320
850.41	14164
850.545	14191
850.68	14199
850.815	14328
850.95	14164
851.085	14499
851.22	14370
851.355	14317
851.49	14229
851.625	14267
851.76	14278
851.895	14161
852.03	14100
852.165	14317
852.299	14347
852.434	14286
852.569	14339
852.703	14282
852.838	14400
852.973	14393
853.107	14339
853.242	14164
853.376	14103
853.511	13970
853.645	14035
853.78	14248
853.914	14039
854.048	14134
854.183	14065
854.317	14065
854.451	14229
854.585	14134
854.72	14062
854.854	14183
854.988	14065
855.122	14073
855.256	13967
855.39	14024
855.524	14240
855.658	14100
855.792	14168
855.926	14107
856.06	14138
856.194	14195
856.327	14096
856.461	14069
856.595	14088
856.729	14058
856.862	14240
856.996	14111
857.13	14111
857.263	14248
857.397	14199
857.53	14096
857.664	14172
857.797	14134
857.931	14149
858.064	14252
858.197	14164
858.331	14126
858.464	14088
858.597	13947
858.731	14187
858.864	14157
858.997	14081
859.13	14191
859.263	14191
859.396	14183
859.529	14092
859.662	14138
859.795	14157
859.928	14157
860.061	14374
860.194	14275
860.327	14096
860.46	13947
860.592	14233
860.725	14343
860.858	14332
860.99	14084
861.123	14062
861.256	14062
861.388	14153
861.521	14990
861.653	14005
861.786	13959
861.918	13986
862.05	14062
862.183	14046
862.315	14058
862.447	14119
862.58	14035
862.712	13868
862.844	13868
862.976	14008
863.108	14027
863.24	14282
863.372	13788
863.504	13902
863.636	13898
863.768	13982
863.9	13852
864.032	13826
864.164	13875
864.296	13887
864.428	13997
864.559	13982
864.691	13856
864.823	13959
864.954	13940
865.086	13909
865.217	13856
865.349	13849
865.48	13887
865.612	13814
865.743	13932
865.875	13841
866.006	13887
866.137	13890
866.269	13864
866.4	13814
866.531	13913
866.662	13830
866.793	13955
866.924	13868
867.055	13860
867.186	13913
867.317	13753
867.448	13795
867.579	13860
867.71	13799
867.841	13799
867.972	13890
868.103	13974
868.233	13898
868.364	13841
868.495	13986
868.625	14119
868.756	14142
868.886	14039
869.017	14145
869.147	14282
869.278	14183
869.408	14172
869.539	14130
869.669	14259
869.799	14183
869.929	14210
870.06	14237
870.19	14469
870.32	14473
870.45	14533
870.58	14533
870.71	14663
870.84	14701
870.97	14499
871.1	14545
871.23	14689
871.36	14708
871.489	14613
871.619	14735
871.749	14682
871.879	14826
872.008	14830
872.138	14823
872.267	14678
872.397	14613
872.526	14625
872.656	14598
872.785	14575
872.915	14845
873.044	14849
873.173	14743
873.303	14762
873.432	14765
873.561	14899
873.69	14739
873.819	14735
873.948	14853
874.077	14853
874.206	14769
874.335	14838
874.464	14891
874.593	15142
874.722	15104
874.851	15146
874.979	15222
875.108	15211
875.237	15062
875.365	14979
875.494	15188
875.623	15195
875.751	15047
875.88	15218
876.008	15351
876.136	15279
876.265	15523
876.393	15667
876.521	15603
876.65	15644
876.778	15610
876.906	15397
877.034	15408
877.162	15542
877.29	15348
877.418	15553
877.546	15599
877.674	15523
877.802	15557
877.93	15523
878.058	15576
878.185	15485
878.313	15519
878.441	15477
878.568	15359
878.696	15500
878.824	15622
878.951	15637
879.079	15747
879.206	15816
879.333	15686
879.461	15667
879.588	15652
879.715	15831
879.842	15671
879.97	15538
880.097	15462
880.224	15317
880.351	15439
880.478	15378
880.605	15389
880.732	15325
880.859	15564
880.986	15443
881.112	15367
881.239	15214
881.366	15199
881.493	14982
881.619	14975
881.746	15161
881.872	15077
881.999	15066
882.125	15028
882.252	15112
882.378	15097
882.505	15222
882.631	15009
882.757	14861
882.883	14979
883.01	14895
883.136	14743
883.262	14659
883.388	14727
883.514	14804
883.64	14864
883.766	14815
883.892	14632
884.018	14754
884.143	14845
884.269	14975
884.395	14701
884.52	14450
884.646	14602
884.772	14454
884.897	14537
885.023	14636
885.148	14735
885.274	14701
885.399	14606
885.524	14606
885.65	14503
885.775	14587
885.9	14560
886.025	14712
886.15	14526
886.275	14423
886.4	14518
886.525	14579
886.65	14503
886.775	14507
886.9	14720
887.025	14781
887.149	14568
887.274	14412
887.399	14412
887.523	14294
887.648	14339
887.773	14317
887.897	14530
888.021	14358
888.146	14320
888.27	14431
888.395	14526
888.519	14511
888.643	14461
888.767	14518
888.891	14343
889.015	14218
889.139	14347
889.263	14214
889.387	14377
889.511	14530
889.635	14450
889.759	14328
889.883	14237
890.006	14298
890.13	14385
890.254	14240
890.377	14263
890.501	14062
890.624	14050
890.748	14202
890.871	14016
890.995	13849
891.118	13898
891.241	13993
891.364	14001
891.488	14096
891.611	13944
891.734	14096
891.857	14058
891.98	14046
892.103	14073
892.226	13993
892.349	13951
892.471	13788
892.594	13974
892.717	13928
892.839	13909
892.962	14001
893.085	13989
893.207	14005
893.33	13909
893.452	13898
893.575	14088
893.697	13959
893.819	14096
893.941	14187
894.064	14168
894.186	13917
894.308	13936
894.43	14058
894.552	14168
894.674	14183
894.796	14024
894.918	13947
895.04	14008
895.161	14218
895.283	14073
895.405	14115
895.526	13928
895.648	14054
895.769	14046
895.891	14168
896.012	14221
896.134	14134
896.255	14187
896.376	14214
896.498	14115
896.619	14126
896.74	14145
896.861	14199
896.982	14461
897.103	14522
897.224	14488
897.345	14355
897.466	14320
897.587	14438
897.708	14568
897.828	14514
897.949	14347
898.07	14259
898.19	14385
898.311	14530
898.431	14396
898.552	14533
898.672	14610
898.792	14594
898.913	14476
899.033	14393
899.153	14278
899.273	14282
899.393	14362
899.513	14385
899.633	14244
899.753	14362
899.873	14301
899.993	14389
900.113	14286
900.232	14351
900.352	14229
900.472	14336
900.591	14084
900.711	14252
900.83	14138
900.95	14282
901.069	14332
901.189	14134
901.308	13993
901.427	13807
901.546	13833
901.665	13894
901.784	13849
901.904	13746
902.023	13658
902.141	13487
902.26	13400
902.379	13533
902.498	13415
902.617	13422
902.735	13540
902.854	13472
902.973	13430
903.091	13126
903.21	13175
903.328	13114
903.446	13019
903.565	13057
903.683	13008
903.801	12943
903.919	12977
904.038	13076
904.156	12768
904.274	12863
904.392	12882
904.51	12890
904.627	12951
904.745	12867
904.863	12878
904.981	12658
905.098	12536
905.216	12509
905.334	12555
905.451	12494
905.569	12563
905.686	12623
905.803	12544
905.921	12350
906.038	12445
906.155	12399
906.272	12247
906.389	12232
906.506	12171
906.623	12114
906.74	12254
906.857	12034
906.974	12057
907.091	12197
907.208	12311
907.324	12190
907.441	11988
907.557	11977
907.674	11897
907.79	11870
907.907	11828
908.023	11882
908.139	11843
908.256	11832
908.372	11885
908.488	11863
908.604	11741
908.72	11653
908.836	11615
908.952	11608
909.068	11752
909.184	11767
909.3	11672
909.415	11741
909.531	11657
909.647	11452
909.762	11467
909.878	11440
909.993	11455
910.108	11421
910.224	11318
910.339	11436
910.454	11410
910.57	11284
910.685	11174
910.8	11486
910.915	11471
911.03	11280
911.145	11204
911.259	11105
911.374	11220
911.489	11075
911.604	10995
911.718	10942
911.833	11014
911.947	10812
912.062	10649
912.176	10790
912.291	10915
912.405	10854
912.519	11162
912.633	11136
912.748	10942
912.862	10885
912.976	10790
913.09	10592
913.204	10744
913.318	10820
913.431	10805
913.545	10828
913.659	10786
913.772	10790
913.886	10592
914	10588
914.113	10771
914.226	10805
914.34	10729
914.453	10622
914.566	10694
914.68	10592
914.793	10561
914.906	10424
915.019	10417
915.132	10276
915.245	10360
915.358	10478
915.47	10405
915.583	10436
915.696	10402
915.809	10599
915.921	10527
916.034	10352
916.146	10360
916.259	10318
916.371	10386
916.483	10470
916.595	10303
916.708	10341
916.82	10322
916.932	10310
917.044	10280
917.156	10276
917.268	10276
917.38	10230
917.491	10158
917.603	10219
917.715	10329
917.826	10371
917.938	10242
918.049	10150
918.161	10227
918.272	10329
918.384	10348
918.495	10249
918.606	10131
918.717	10063
918.828	10166
918.939	10169
919.05	10059
919.161	10128
919.272	9911
919.383	9972
919.494	10147
919.604	10379
919.715	10204
919.826	10025
919.936	10074
920.047	10257
920.157	10200
920.267	10265
920.378	10173
920.488	10143
920.598	10314
920.708	10538
920.818	10299
920.928	10382
921.038	10413
921.148	10451
921.258	10154
921.368	10021
921.477	10002
921.587	9915
921.697	9854
921.806	9964
921.916	9854
922.025	9660
922.134	9694
922.244	9766
922.353	9755
922.462	9549
922.571	9599
922.68	9416
922.789	9298
922.898	9443
923.007	9329
923.116	9382
923.224	9412
923.333	9393
923.442	9336
923.55	9169
923.659	9336
923.767	9329
923.876	9211
923.984	9325
924.092	9119
924.201	9279
924.309	9264
924.417	9253
924.525	9173
924.633	9245
924.741	10040
924.849	8944
924.956	9195
925.064	9032
925.172	9024
925.279	9001
925.387	9039
925.494	9039
925.602	9173
925.709	9108
925.816	8998
925.924	9039
926.031	9085
926.138	9017
926.245	9100
926.352	9005
926.459	9093
926.566	9138
926.673	8998
926.779	8967
926.886	8918
926.993	8743
927.099	8781
927.206	8708
927.312	8731
927.419	8800
927.525	8815
927.631	8792
927.737	8693
927.843	8598
927.95	8583
928.056	8697
928.162	8648
928.267	8731
928.373	9336
928.479	8781
928.585	8575
928.69	8613
928.796	8727
928.901	8587
929.007	8442
929.112	8598
929.218	8568
929.323	8465
929.428	8492
929.533	8651
929.638	8492
929.743	8427
929.848	8530
929.953	8434
930.058	8358
930.163	8191
930.267	8244
930.372	8328
930.477	8233
930.581	8480
930.685	8275
930.79	8126
930.894	8233
930.998	8176
931.103	8324
931.207	7902
931.311	7909
931.415	7883
931.519	7753
931.623	7708
