Data from test_V78500241_1995.txt Node
Date: Fri Mar 25 14:47:36 CST 2022
User: usil
Spectrometer: V785-0024
Trigger mode: 0
Integration Time (sec): 4.000000E-1
Scans to average: 1
Nonlinearity correction enabled: false
Boxcar width: 0
Storing dark spectrum: false
XAxis mode: Wavelengths
Number of Pixels in Spectrum: 1024
>>>>>Begin Spectral Data<<<<<
801.071	22040
801.214	21873
801.356	21713
801.499	21610
801.641	21488
801.783	21485
801.926	21500
802.068	21386
802.211	21355
802.353	21237
802.496	21070
802.638	21017
802.78	21020
802.923	20960
803.065	20712
803.208	20629
803.35	20872
803.492	20720
803.635	20857
803.777	20815
803.919	20804
804.061	21096
804.204	20830
804.346	20712
804.488	20739
804.63	20807
804.773	20651
804.915	20762
805.057	20807
805.199	20735
805.341	20746
805.483	20857
805.626	20788
805.768	20693
805.91	20788
806.052	20845
806.194	20598
806.336	20986
806.478	20773
806.62	20545
806.762	20777
806.904	20906
807.046	21089
807.188	21039
807.33	20963
807.472	21020
807.614	20944
807.756	20857
807.898	20811
808.04	20708
808.182	20705
808.324	20785
808.465	20887
808.607	20986
808.749	21077
808.891	21165
809.033	21325
809.174	21169
809.316	21146
809.458	21051
809.6	21119
809.741	21142
809.883	21077
810.025	21344
810.166	21272
810.308	21321
810.45	21154
810.591	20929
810.733	20960
810.875	20918
811.016	20792
811.158	20716
811.299	20986
811.441	20994
811.582	21047
811.724	20765
811.865	20788
812.007	20811
812.148	20864
812.29	20853
812.431	20910
812.573	21123
812.714	21173
812.855	21313
812.997	21363
813.138	21633
813.279	21625
813.421	21378
813.562	21287
813.703	21093
813.845	21081
813.986	20746
814.127	20465
814.268	20484
814.41	20454
814.551	20313
814.692	20583
814.833	20294
814.974	20355
815.115	20320
815.256	20237
815.397	20240
815.539	20221
815.68	20043
815.821	20126
815.962	20096
816.103	20096
816.244	19970
816.385	19772
816.526	19856
816.666	19723
816.807	19575
816.948	19609
817.089	19525
817.23	19628
817.371	19548
817.512	19529
817.653	19483
817.793	19506
817.934	19529
818.075	19521
818.216	19529
818.356	19525
818.497	19270
818.638	19168
818.778	19202
818.919	19198
819.06	19289
819.2	19320
819.341	19346
819.481	19464
819.622	19552
819.762	19791
819.903	19658
820.043	19594
820.184	19544
820.324	19495
820.465	19563
820.605	19578
820.746	19548
820.886	19487
821.026	19533
821.167	19411
821.307	19537
821.447	19430
821.588	19308
821.728	19232
821.868	19137
822.008	18905
822.149	18935
822.289	18954
822.429	18700
822.569	18650
822.709	18639
822.849	18509
822.99	18456
823.13	18357
823.27	18437
823.41	18186
823.55	18114
823.69	18296
823.83	18277
823.97	18163
824.11	18125
824.25	18011
824.389	17961
824.529	18053
824.669	17965
824.809	18171
824.949	18030
825.089	18064
825.228	17992
825.368	17805
825.508	17786
825.648	17809
825.787	17874
825.927	17832
826.067	17714
826.206	17737
826.346	17684
826.485	17798
826.625	17767
826.765	17813
826.904	17882
827.044	17490
827.183	17509
827.323	17440
827.462	17558
827.601	17528
827.741	17459
827.88	17497
828.02	17368
828.159	17471
828.298	17501
828.437	17474
828.577	17509
828.716	17596
828.855	17528
828.994	17231
829.134	17132
829.273	17216
829.412	17113
829.551	17174
829.69	17246
829.829	17181
829.968	17360
830.107	17307
830.246	17288
830.385	17204
830.524	17227
830.663	17086
830.802	16999
830.941	16759
831.08	16889
831.219	16892
831.357	16869
831.496	17006
831.635	16866
831.774	16744
831.913	16561
832.051	16702
832.19	16565
832.329	16733
832.467	16584
832.606	16409
832.744	16565
832.883	16542
833.022	16474
833.16	16607
833.299	16611
833.437	16607
833.576	16622
833.714	16618
833.852	16660
833.991	16645
834.129	16691
834.267	16660
834.406	16702
834.544	16656
834.682	16535
834.821	16542
834.959	16744
835.097	16561
835.235	16740
835.373	16630
835.511	16519
835.65	16470
835.788	16356
835.926	16348
836.064	16402
836.202	16405
836.34	16558
836.478	16611
836.615	16508
836.753	16512
836.891	16615
837.029	16538
837.167	16512
837.305	16348
837.443	16405
837.58	16246
837.718	16531
837.856	16344
837.993	16329
838.131	16382
838.269	16246
838.406	16405
838.544	16230
838.681	16074
838.819	16048
838.956	15911
839.094	15903
839.231	15930
839.369	16067
839.506	16329
839.643	16025
839.781	16002
839.918	15876
840.055	15915
840.193	15934
840.33	15816
840.467	15960
840.604	15918
840.742	16139
840.879	15774
841.016	15873
841.153	15846
841.29	15964
841.427	15903
841.564	15873
841.701	15987
841.838	15907
841.975	15949
842.112	15884
842.249	15690
842.385	15743
842.522	15880
842.659	15846
842.796	15690
842.933	15759
843.069	15557
843.206	15656
843.343	15781
843.479	15728
843.616	15656
843.752	15504
843.889	15614
844.025	15720
844.162	15576
844.298	15641
844.435	15542
844.571	15500
844.708	15603
844.844	15679
844.98	15705
845.117	15549
845.253	15458
845.389	15450
845.525	15401
845.661	15389
845.798	15264
845.934	15336
846.07	15211
846.206	15344
846.342	15424
846.478	15310
846.614	15089
846.75	14967
846.886	15032
847.022	15093
847.158	15093
847.294	15036
847.429	15081
847.565	15081
847.701	15260
847.837	14804
847.972	14826
848.108	14895
848.244	14880
848.379	14716
848.515	14640
848.65	14644
848.786	14705
848.921	14682
849.057	14731
849.192	14773
849.328	14651
849.463	14716
849.598	14731
849.734	14610
849.869	14507
850.004	14511
850.14	14488
850.275	14526
850.41	14404
850.545	14454
850.68	14423
850.815	14393
850.95	14385
851.085	14606
851.22	14556
851.355	14404
851.49	14511
851.625	14465
851.76	14400
851.895	14404
852.03	14309
852.165	14438
852.299	14568
852.434	14549
852.569	14469
852.703	14545
852.838	14587
852.973	14560
853.107	14613
853.242	14412
853.376	14358
853.511	14225
853.645	14358
853.78	14434
853.914	14434
854.048	14393
854.183	14294
854.317	14301
854.451	14526
854.585	14298
854.72	14191
854.854	14393
854.988	14187
855.122	14290
855.256	14161
855.39	14218
855.524	14385
855.658	14385
855.792	14199
855.926	14377
856.06	14381
856.194	14389
856.327	14248
856.461	14183
856.595	14183
856.729	14233
856.862	14419
856.996	14362
857.13	14393
857.263	14389
857.397	14419
857.53	14362
857.664	14484
857.797	14377
857.931	14473
858.064	14324
858.197	14301
858.331	14271
858.464	14328
858.597	14157
858.731	14301
858.864	14248
858.997	14328
859.13	14294
859.263	14370
859.396	14396
859.529	14225
859.662	14259
859.795	14290
859.928	14396
860.061	14492
860.194	14377
860.327	14412
860.46	14324
860.592	14374
860.725	14423
860.858	14423
860.99	14229
861.123	14229
861.256	14221
861.388	14259
861.521	14975
861.653	14294
861.786	14199
861.918	14221
862.05	14202
862.183	14271
862.315	14271
862.447	14301
862.58	14225
862.712	14046
862.844	14008
862.976	14233
863.108	14077
863.24	14400
863.372	14062
863.504	14012
863.636	13993
863.768	14214
863.9	14142
864.032	13963
864.164	14046
864.296	14138
864.428	14218
864.559	14134
864.691	14301
864.823	14126
864.954	14092
865.086	14138
865.217	14058
865.349	13932
865.48	14069
865.612	14031
865.743	14164
865.875	14062
866.006	14077
866.137	14123
866.269	14024
866.4	14157
866.531	14081
866.662	14069
866.793	14039
866.924	13989
867.055	14244
867.186	14016
867.317	13993
867.448	14054
867.579	14035
867.71	14043
867.841	14043
867.972	14065
868.103	14084
868.233	14123
868.364	14153
868.495	14100
868.625	14332
868.756	14317
868.886	14263
869.017	14317
869.147	14495
869.278	14423
869.408	14366
869.539	14358
869.669	14465
869.799	14480
869.929	14518
870.06	14370
870.19	14693
870.32	14716
870.45	14773
870.58	14811
870.71	14933
870.84	14826
870.97	14781
871.1	14727
871.23	14967
871.36	14937
871.489	14868
871.619	14910
871.749	14952
871.879	14864
872.008	14994
872.138	15055
872.267	15051
872.397	14861
872.526	14849
872.656	14785
872.785	14842
872.915	15062
873.044	15165
873.173	15081
873.303	15032
873.432	15055
873.561	15135
873.69	15116
873.819	15093
873.948	15055
874.077	15089
874.206	15070
874.335	15051
874.464	15180
874.593	15321
874.722	15222
874.851	15359
874.979	15336
875.108	15473
875.237	15188
875.365	15245
875.494	15317
875.623	15386
875.751	15378
875.88	15313
876.008	15351
876.136	15507
876.265	15667
876.393	15953
876.521	15793
876.65	15899
876.778	15808
876.906	15629
877.034	15686
877.162	15766
877.29	15660
877.418	15778
877.546	15743
877.674	15812
877.802	15751
877.93	15808
878.058	15789
878.185	15690
878.313	15846
878.441	15808
878.568	15576
878.696	15660
878.824	15747
878.951	15743
879.079	15911
879.206	15979
879.333	15880
879.461	15865
879.588	15880
879.715	15915
879.842	15994
879.97	15781
880.097	15576
880.224	15568
880.351	15637
880.478	15614
880.605	15580
880.732	15675
880.859	15762
880.986	15595
881.112	15644
881.239	15454
881.366	15386
881.493	15233
881.619	15218
881.746	15291
881.872	15264
881.999	15237
882.125	15233
882.252	15218
882.378	15165
882.505	15222
882.631	15237
882.757	15104
882.883	15100
883.01	15119
883.136	14975
883.262	14925
883.388	14899
883.514	15100
883.64	15150
883.766	15009
883.892	14925
884.018	14895
884.143	15074
884.269	15199
884.395	14773
884.52	14758
884.646	14880
884.772	14674
884.897	14735
885.023	14830
885.148	14872
885.274	14941
885.399	14861
885.524	14781
885.65	14800
885.775	14792
885.9	14731
886.025	14910
886.15	14804
886.275	14765
886.4	14564
886.525	14777
886.65	14796
886.775	14701
886.9	14891
887.025	15051
887.149	14765
887.274	14667
887.399	14507
887.523	14579
887.648	14533
887.773	14552
887.897	14651
888.021	14731
888.146	14526
888.27	14739
888.395	14834
888.519	14667
888.643	14579
888.767	14621
888.891	14533
889.015	14495
889.139	14419
889.263	14461
889.387	14575
889.511	14640
889.635	14617
889.759	14336
889.883	14434
890.006	14610
890.13	14484
890.254	14454
890.377	14393
890.501	14225
890.624	14237
890.748	14393
890.871	14168
890.995	14145
891.118	14046
891.241	14233
891.364	14221
891.488	14229
891.611	14145
891.734	14202
891.857	14248
891.98	14244
892.103	14278
892.226	14221
892.349	14164
892.471	13955
892.594	14069
892.717	14092
892.839	14164
892.962	14202
893.085	14157
893.207	14065
893.33	14012
893.452	14069
893.575	14233
893.697	14126
893.819	14282
893.941	14374
894.064	14305
894.186	14024
894.308	14077
894.43	14290
894.552	14305
894.674	14259
894.796	14157
894.918	14172
895.04	14278
895.161	14332
895.283	14267
895.405	14218
895.526	14328
895.648	14244
895.769	14275
895.891	14267
896.012	14461
896.134	14400
896.255	14362
896.376	14206
896.498	14377
896.619	14237
896.74	14332
896.861	14415
896.982	14697
897.103	14777
897.224	14648
897.345	14571
897.466	14537
897.587	14465
897.708	14621
897.828	14644
897.949	14492
898.07	14469
898.19	14545
898.311	14693
898.431	14590
898.552	14708
898.672	14792
898.792	14720
898.913	14758
899.033	14579
899.153	14583
899.273	14419
899.393	14454
899.513	14568
899.633	14488
899.753	14594
899.873	14594
899.993	14552
900.113	14492
900.232	14503
900.352	14461
900.472	14484
900.591	14408
900.711	14450
900.83	14358
900.95	14431
901.069	14526
901.189	14324
901.308	14187
901.427	14024
901.546	14035
901.665	14081
901.784	14107
901.904	13974
902.023	13776
902.141	13723
902.26	13685
902.379	13696
902.498	13518
902.617	13540
902.735	13594
902.854	13567
902.973	13582
903.091	13308
903.21	13324
903.328	13316
903.446	13240
903.565	13270
903.683	13217
903.801	13065
903.919	13202
904.038	13217
904.156	13015
904.274	13046
904.392	12962
904.51	12973
904.627	13012
904.745	13118
904.863	12958
904.981	12878
905.098	12726
905.216	12817
905.334	12768
905.451	12616
905.569	12506
905.686	12798
905.803	12726
905.921	12555
906.038	12589
906.155	12532
906.272	12486
906.389	12498
906.506	12346
906.623	12342
906.74	12273
906.857	12129
906.974	12308
907.091	12433
907.208	12460
907.324	12372
907.441	12289
907.557	12102
907.674	12041
907.79	11973
907.907	11992
908.023	11988
908.139	11973
908.256	12083
908.372	11977
908.488	11859
908.604	11805
908.72	11752
908.836	11790
908.952	11817
909.068	11885
909.184	11824
909.3	11775
909.415	11828
909.531	11802
909.647	11543
909.762	11558
909.878	11516
909.993	11710
910.108	11505
910.224	11520
910.339	11535
910.454	11509
910.57	11410
910.685	11379
910.8	11646
910.915	11520
911.03	11429
911.145	11235
911.259	11303
911.374	11288
911.489	11162
911.604	11227
911.718	10987
911.833	11094
911.947	10961
912.062	10881
912.176	11010
912.291	11060
912.405	10987
912.519	11250
912.633	11258
912.748	11113
912.862	11056
912.976	10896
913.09	10793
913.204	10793
913.318	10942
913.431	10968
913.545	10972
913.659	11018
913.772	10831
913.886	10786
914	10858
914.113	10850
914.226	10866
914.34	10889
914.453	10824
914.566	10877
914.68	10782
914.793	10721
914.906	10558
915.019	10596
915.132	10451
915.245	10508
915.358	10565
915.47	10626
915.583	10577
915.696	10611
915.809	10694
915.921	10714
916.034	10500
916.146	10527
916.259	10512
916.371	10599
916.483	10550
916.595	10455
916.708	10493
916.82	10519
916.932	10459
917.044	10455
917.156	10470
917.268	10394
917.38	10459
917.491	10356
917.603	10436
917.715	10493
917.826	10363
917.938	10329
918.049	10268
918.161	10409
918.272	10455
918.384	10375
918.495	10405
918.606	10200
918.717	10158
918.828	10223
918.939	10303
919.05	10188
919.161	10234
919.272	10082
919.383	10059
919.494	10318
919.604	10462
919.715	10230
919.826	10116
919.936	10249
920.047	10291
920.157	10356
920.267	10466
920.378	10341
920.488	10158
920.598	10466
920.708	10580
920.818	10371
920.928	10455
921.038	10637
921.148	10554
921.258	10322
921.368	10154
921.477	10044
921.587	10131
921.697	10055
921.806	10105
921.916	10002
922.025	9854
922.134	9823
922.244	9740
922.353	9842
922.462	9740
922.571	9625
922.68	9542
922.789	9523
922.898	9553
923.007	9496
923.116	9576
923.224	9458
923.333	9526
923.442	9386
923.55	9412
923.659	9344
923.767	9466
923.876	9401
923.984	9420
924.092	9279
924.201	9412
924.309	9272
924.417	9378
924.525	9359
924.633	9336
924.741	10238
924.849	9135
924.956	9272
925.064	9161
925.172	9017
925.279	9123
925.387	9195
925.494	9157
925.602	9283
925.709	9260
925.816	9077
925.924	9203
926.031	9192
926.138	9097
926.245	9165
926.352	9043
926.459	9214
926.566	9256
926.673	9108
926.779	9024
926.886	8986
926.993	8933
927.099	8804
927.206	8842
927.312	8880
927.419	8887
927.525	8937
927.631	8933
927.737	8788
927.843	8773
927.95	8636
928.056	8750
928.162	8769
928.267	8826
928.373	9428
928.479	8842
928.585	8636
928.69	8811
928.796	8781
928.901	8712
929.007	8549
929.112	8708
929.218	8670
929.323	8594
929.428	8667
929.533	8773
929.638	8587
929.743	8571
929.848	8571
929.953	8598
930.058	8473
930.163	8404
930.267	8370
930.372	8526
930.477	8317
930.581	8552
930.685	8450
930.79	8271
930.894	8381
930.998	8225
931.103	8370
931.207	8123
931.311	8001
931.415	8024
931.519	7750
931.623	7811
