Data from test_V78500241_1208.txt Node
Date: Fri Mar 25 14:42:07 CST 2022
User: usil
Spectrometer: V785-0024
Trigger mode: 0
Integration Time (sec): 4.000000E-1
Scans to average: 1
Nonlinearity correction enabled: false
Boxcar width: 0
Storing dark spectrum: false
XAxis mode: Wavelengths
Number of Pixels in Spectrum: 1024
>>>>>Begin Spectral Data<<<<<
801.071	22481
801.214	22386
801.356	22158
801.499	22040
801.641	21823
801.783	21804
801.926	21903
802.068	21648
802.211	21667
802.353	21523
802.496	21306
802.638	21348
802.78	21272
802.923	21154
803.065	21176
803.208	21062
803.35	21233
803.492	21245
803.635	21256
803.777	21161
803.919	21275
804.061	21625
804.204	21241
804.346	21165
804.488	20979
804.63	21085
804.773	21047
804.915	21119
805.057	21275
805.199	21062
805.341	21108
805.483	21233
805.626	21146
805.768	20952
805.91	21081
806.052	21096
806.194	20986
806.336	21195
806.478	21089
806.62	21146
806.762	21195
806.904	21325
807.046	21534
807.188	21340
807.33	21336
807.472	21412
807.614	21252
807.756	21420
807.898	21374
808.04	21032
808.182	21112
808.324	21165
808.465	21203
808.607	21428
808.749	21481
808.891	21660
809.033	21785
809.174	21629
809.316	21481
809.458	21538
809.6	21504
809.741	21507
809.883	21629
810.025	21542
810.166	21614
810.308	21523
810.45	21511
810.591	21545
810.733	21321
810.875	21165
811.016	21108
811.158	21188
811.299	21329
811.441	21329
811.582	21302
811.724	21272
811.865	21195
812.007	21142
812.148	21188
812.29	21226
812.431	21428
812.573	21576
812.714	21663
812.855	21766
812.997	21838
813.138	21953
813.279	21857
813.421	21660
813.562	21633
813.703	21622
813.845	21450
813.986	21165
814.127	20944
814.268	20914
814.41	20834
814.551	20804
814.692	20994
814.833	20739
814.974	20754
815.115	20720
815.256	20587
815.397	20579
815.539	20697
815.68	20480
815.821	20431
815.962	20552
816.103	20499
816.244	20328
816.385	20282
816.526	20415
816.666	20206
816.807	19967
816.948	20096
817.089	20069
817.23	19928
817.371	19894
817.512	19982
817.653	19921
817.793	19955
817.934	19936
818.075	19936
818.216	19959
818.356	19921
818.497	19704
818.638	19689
818.778	19537
818.919	19563
819.06	19689
819.2	19632
819.341	19769
819.481	19830
819.622	19906
819.762	20012
819.903	20016
820.043	19947
820.184	19811
820.324	19913
820.465	20001
820.605	20001
820.746	19970
820.886	19795
821.026	19928
821.167	19906
821.307	20024
821.447	19784
821.588	19715
821.728	19620
821.868	19445
822.008	19285
822.149	19327
822.289	19293
822.429	19076
822.569	19027
822.709	19065
822.849	18783
822.99	18734
823.13	18932
823.27	18814
823.41	18669
823.55	18601
823.69	18601
823.83	18551
823.97	18502
824.11	18437
824.25	18391
824.389	18365
824.529	18490
824.669	18407
824.809	18631
824.949	18456
825.089	18395
825.228	18479
825.368	18235
825.508	18216
825.648	18239
825.787	18292
825.927	18213
826.067	18121
826.206	18262
826.346	18140
826.485	18235
826.625	18117
826.765	18232
826.904	18407
827.044	17927
827.183	17802
827.323	17965
827.462	18030
827.601	17855
827.741	17821
827.88	17828
828.02	17729
828.159	17935
828.298	18057
828.437	17901
828.577	17786
828.716	18064
828.855	17855
828.994	17764
829.134	17646
829.273	17653
829.412	17539
829.551	17600
829.69	17562
829.829	17653
829.968	17745
830.107	17748
830.246	17634
830.385	17558
830.524	17611
830.663	17471
830.802	17334
830.941	17265
831.08	17208
831.219	17345
831.357	17170
831.496	17452
831.635	17265
831.774	17170
831.913	17098
832.051	17014
832.19	17052
832.329	17147
832.467	16927
832.606	16885
832.744	17071
832.883	16995
833.022	17067
833.16	16957
833.299	17025
833.437	17056
833.576	17033
833.714	16995
833.852	17041
833.991	16995
834.129	17185
834.267	17098
834.406	16930
834.544	17045
834.682	17048
834.821	16976
834.959	17220
835.097	16999
835.235	17094
835.373	16934
835.511	16999
835.65	16987
835.788	16904
835.926	16752
836.064	16854
836.202	16809
836.34	17045
836.478	17006
836.615	16942
836.753	16923
836.891	16961
837.029	16961
837.167	16957
837.305	16854
837.443	16843
837.58	16771
837.718	16793
837.856	16850
837.993	16729
838.131	16824
838.269	16797
838.406	16694
838.544	16771
838.681	16478
838.819	16504
838.956	16356
839.094	16447
839.231	16352
839.369	16489
839.506	16767
839.643	16622
839.781	16341
839.918	16303
840.055	16318
840.193	16291
840.33	16276
840.467	16405
840.604	16360
840.742	16717
840.879	16276
841.016	16284
841.153	16215
841.29	16470
841.427	16398
841.564	16413
841.701	16337
841.838	16230
841.975	16192
842.112	16253
842.249	16112
842.385	16055
842.522	16341
842.659	16211
842.796	16086
842.933	16139
843.069	16025
843.206	16055
843.343	16242
843.479	16154
843.616	16059
843.752	15873
843.889	15903
844.025	16029
844.162	15907
844.298	15953
844.435	16006
844.571	15899
844.708	15991
844.844	16101
844.98	16071
845.117	16017
845.253	15857
845.389	15850
845.525	15911
845.661	15972
845.798	15812
845.934	15850
846.07	15774
846.206	15812
846.342	15899
846.478	15751
846.614	15542
846.75	15462
846.886	15393
847.022	15561
847.158	15557
847.294	15466
847.429	15523
847.565	15481
847.701	15713
847.837	15241
847.972	15173
848.108	15359
848.244	15291
848.379	15142
848.515	15138
848.65	15081
848.786	14956
848.921	15123
849.057	15154
849.192	15089
849.328	15070
849.463	15142
849.598	14998
849.734	15024
849.869	14883
850.004	14857
850.14	14941
850.275	14891
850.41	14883
850.545	14750
850.68	14921
850.815	14845
850.95	14845
851.085	14990
851.22	14963
851.355	14807
851.49	14838
851.625	14830
851.76	14735
851.895	14819
852.03	14785
852.165	14796
852.299	14914
852.434	14906
852.569	14830
852.703	14830
852.838	14876
852.973	14990
853.107	15043
853.242	14819
853.376	14754
853.511	14617
853.645	14651
853.78	14811
853.914	14712
854.048	14659
854.183	14678
854.317	14750
854.451	14815
854.585	14598
854.72	14670
854.854	14735
854.988	14530
855.122	14678
855.256	14530
855.39	14762
855.524	14765
855.658	14750
855.792	14701
855.926	14823
856.06	14701
856.194	14826
856.327	14800
856.461	14629
856.595	14697
856.729	14724
856.862	14773
856.996	14716
857.13	14811
857.263	14807
857.397	14868
857.53	14720
857.664	14800
857.797	14735
857.931	14838
858.064	14724
858.197	14754
858.331	14629
858.464	14712
858.597	14541
858.731	14705
858.864	14697
858.997	14750
859.13	14746
859.263	14720
859.396	14811
859.529	14724
859.662	14594
859.795	14583
859.928	14750
860.061	14914
860.194	14891
860.327	14743
860.46	14743
860.592	14899
860.725	14765
860.858	14796
860.99	14739
861.123	14537
861.256	14651
861.388	14689
861.521	15424
861.653	14533
861.786	14587
861.918	14590
862.05	14533
862.183	14575
862.315	14701
862.447	14800
862.58	14644
862.712	14393
862.844	14488
862.976	14606
863.108	14560
863.24	14952
863.372	14381
863.504	14427
863.636	14560
863.768	14613
863.9	14431
864.032	14461
864.164	14469
864.296	14537
864.428	14511
864.559	14590
864.691	14632
864.823	14514
864.954	14511
865.086	14492
865.217	14476
865.349	14454
865.48	14465
865.612	14530
865.743	14606
865.875	14484
866.006	14393
866.137	14419
866.269	14476
866.4	14495
866.531	14370
866.662	14355
866.793	14294
866.924	14469
867.055	14507
867.186	14419
867.317	14476
867.448	14328
867.579	14305
867.71	14305
867.841	14396
867.972	14423
868.103	14423
868.233	14514
868.364	14457
868.495	14461
868.625	14743
868.756	14769
868.886	14598
869.017	14697
869.147	14720
869.278	14887
869.408	14727
869.539	14727
869.669	14697
869.799	14739
869.929	14720
870.06	14731
870.19	15036
870.32	14941
870.45	14941
870.58	15093
870.71	15157
870.84	15313
870.97	15138
871.1	15097
871.23	15237
871.36	15294
871.489	15142
871.619	15264
871.749	15302
871.879	15306
872.008	15428
872.138	15329
872.267	15294
872.397	15218
872.526	15097
872.656	15089
872.785	15146
872.915	15275
873.044	15507
873.173	15374
873.303	15408
873.432	15420
873.561	15439
873.69	15363
873.819	15283
873.948	15496
874.077	15515
874.206	15389
874.335	15348
874.464	15473
874.593	15618
874.722	15496
874.851	15709
874.979	15724
875.108	15698
875.237	15553
875.365	15488
875.494	15720
875.623	15705
875.751	15625
875.88	15713
876.008	15743
876.136	15945
876.265	16055
876.393	16188
876.521	16112
876.65	16109
876.778	15998
876.906	16059
877.034	16032
877.162	16021
877.29	16013
877.418	16017
877.546	16063
877.674	16105
877.802	16097
877.93	16112
878.058	16021
878.185	16051
878.313	16078
878.441	16124
878.568	15907
878.696	15975
878.824	16059
878.951	16150
879.079	16246
879.206	16436
879.333	16261
879.461	16154
879.588	16204
879.715	16261
879.842	16390
879.97	16204
880.097	15861
880.224	15949
880.351	15907
880.478	15983
880.605	15949
880.732	15937
880.859	16166
880.986	15850
881.112	15930
881.239	15835
881.366	15663
881.493	15694
881.619	15595
881.746	15660
881.872	15633
881.999	15553
882.125	15584
882.252	15553
882.378	15584
882.505	15789
882.631	15538
882.757	15348
882.883	15526
883.01	15363
883.136	15321
883.262	15233
883.388	15272
883.514	15363
883.64	15420
883.766	15329
883.892	15203
884.018	15222
884.143	15378
884.269	15488
884.395	15146
884.52	15123
884.646	15108
884.772	15085
884.897	14979
885.023	15108
885.148	15146
885.274	15249
885.399	15146
885.524	15017
885.65	15123
885.775	15009
885.9	15051
886.025	15161
886.15	15192
886.275	14948
886.4	14960
886.525	14975
886.65	15017
886.775	15032
886.9	15241
887.025	15329
887.149	15074
887.274	14986
887.399	14891
887.523	14902
887.648	14785
887.773	14731
887.897	14967
888.021	14960
888.146	14876
888.27	15097
888.395	14990
888.519	15024
888.643	14921
888.767	14861
888.891	14872
889.015	14746
889.139	14804
889.263	14762
889.387	14804
889.511	15055
889.635	14823
889.759	14727
889.883	14792
890.006	14743
890.13	14800
890.254	14765
890.377	14697
890.501	14651
890.624	14552
890.748	14629
890.871	14484
890.995	14427
891.118	14374
891.241	14465
891.364	14541
891.488	14499
891.611	14461
891.734	14446
891.857	14522
891.98	14522
892.103	14549
892.226	14522
892.349	14396
892.471	14202
892.594	14427
892.717	14469
892.839	14370
892.962	14457
893.085	14606
893.207	14454
893.33	14282
893.452	14442
893.575	14499
893.697	14450
893.819	14739
893.941	14750
894.064	14648
894.186	14530
894.308	14412
894.43	14556
894.552	14625
894.674	14651
894.796	14465
894.918	14511
895.04	14526
895.161	14587
895.283	14640
895.405	14442
895.526	14617
895.648	14533
895.769	14636
895.891	14602
896.012	14686
896.134	14530
896.255	14560
896.376	14648
896.498	14587
896.619	14651
896.74	14549
896.861	14746
896.982	14956
897.103	15036
897.224	14933
897.345	14883
897.466	14830
897.587	14887
897.708	14944
897.828	14933
897.949	14842
898.07	14686
898.19	14910
898.311	15032
898.431	14914
898.552	14967
898.672	15077
898.792	15032
898.913	14990
899.033	14925
899.153	14792
899.273	14640
899.393	14792
899.513	14792
899.633	14788
899.753	14773
899.873	14838
899.993	14914
900.113	14857
900.232	14872
900.352	14716
900.472	14670
900.591	14587
900.711	14746
900.83	14594
900.95	14754
901.069	14743
901.189	14708
901.308	14431
901.427	14267
901.546	14366
901.665	14351
901.784	14366
901.904	14263
902.023	14138
902.141	13955
902.26	13898
902.379	13879
902.498	13906
902.617	13871
902.735	13913
902.854	13841
902.973	13849
903.091	13586
903.21	13563
903.328	13632
903.446	13533
903.565	13578
903.683	13472
903.801	13335
903.919	13434
904.038	13441
904.156	13247
904.274	13422
904.392	13255
904.51	13217
904.627	13244
904.745	13324
904.863	13324
904.981	13088
905.098	12928
905.216	12916
905.334	13015
905.451	13008
905.569	12837
905.686	13038
905.803	12954
905.921	12810
906.038	12943
906.155	12825
906.272	12688
906.389	12783
906.506	12639
906.623	12528
906.74	12525
906.857	12433
906.974	12559
907.091	12597
907.208	12711
907.324	12547
907.441	12460
907.557	12319
907.674	12224
907.79	12186
907.907	12292
908.023	12239
908.139	12361
908.256	12213
908.372	12277
908.488	12228
908.604	12133
908.72	12019
908.836	12117
908.952	12041
909.068	12144
909.184	12213
909.3	12026
909.415	12133
909.531	12064
909.647	11802
909.762	11802
909.878	11786
909.993	11851
910.108	11882
910.224	11935
910.339	11828
910.454	11703
910.57	11642
910.685	11707
910.8	11802
910.915	11824
911.03	11779
911.145	11543
911.259	11554
911.374	11524
911.489	11486
911.604	11303
911.718	11322
911.833	11269
911.947	11174
912.062	11136
912.176	11239
912.291	11280
912.405	11242
912.519	11562
912.633	11501
912.748	11284
912.862	11265
912.976	11178
913.09	10995
913.204	11113
913.318	11159
913.431	11280
913.545	11280
913.659	11280
913.772	11181
913.886	10961
914	11006
914.113	11052
914.226	11216
914.34	11029
914.453	10999
914.566	11083
914.68	10942
914.793	10923
914.906	10793
915.019	10664
915.132	10698
915.245	10691
915.358	10710
915.47	10828
915.583	10805
915.696	10869
915.809	10934
915.921	10850
916.034	10691
916.146	10710
916.259	10649
916.371	10774
916.483	10797
916.595	10615
916.708	10668
916.82	10706
916.932	10634
917.044	10656
917.156	10603
917.268	10584
917.38	10580
917.491	10569
917.603	10615
917.715	10634
917.826	10672
917.938	10565
918.049	10428
918.161	10599
918.272	10683
918.384	10649
918.495	10649
918.606	10360
918.717	10356
918.828	10462
918.939	10519
919.05	10379
919.161	10382
919.272	10272
919.383	10386
919.494	10512
919.604	10683
919.715	10519
919.826	10440
919.936	10462
920.047	10519
920.157	10394
920.267	10660
920.378	10561
920.488	10508
920.598	10675
920.708	10740
920.818	10645
920.928	10656
921.038	10797
921.148	10733
921.258	10535
921.368	10459
921.477	10249
921.587	10329
921.697	10242
921.806	10371
921.916	10280
922.025	9953
922.134	10071
922.244	9899
922.353	10010
922.462	9827
922.571	9850
922.68	9717
922.789	9652
922.898	9717
923.007	9709
923.116	9755
923.224	9648
923.333	9637
923.442	9500
923.55	9545
923.659	9622
923.767	9625
923.876	9485
923.984	9660
924.092	9481
924.201	9561
924.309	9572
924.417	9568
924.525	9507
924.633	9530
924.741	10284
924.849	9389
924.956	9519
925.064	9332
925.172	9294
925.279	9329
925.387	9329
925.494	9310
925.602	9496
925.709	9431
925.816	9359
925.924	9268
926.031	9408
926.138	9378
926.245	9408
926.352	9260
926.459	9420
926.566	9386
926.673	9306
926.779	9157
926.886	9203
926.993	9077
927.099	9100
927.206	9051
927.312	8979
927.419	9169
927.525	9036
927.631	9058
927.737	8937
927.843	8944
927.95	8872
928.056	8853
928.162	8960
928.267	8971
928.373	9663
928.479	9036
928.585	8792
928.69	8891
928.796	8963
928.901	8830
929.007	8773
929.112	8845
929.218	8796
929.323	8743
929.428	8830
929.533	8918
929.638	8708
929.743	8659
929.848	8804
929.953	8788
930.058	8625
930.163	8465
930.267	8610
930.372	8621
930.477	8518
930.581	8746
930.685	8617
930.79	8431
930.894	8499
930.998	8419
931.103	8549
931.207	8237
931.311	8157
931.415	8107
931.519	7970
931.623	7963
