Data from test_V78500241_2146.txt Node
Date: Fri Mar 25 14:48:39 CST 2022
User: usil
Spectrometer: V785-0024
Trigger mode: 0
Integration Time (sec): 4.000000E-1
Scans to average: 1
Nonlinearity correction enabled: false
Boxcar width: 0
Storing dark spectrum: false
XAxis mode: Wavelengths
Number of Pixels in Spectrum: 1024
>>>>>Begin Spectral Data<<<<<
801.071	22341
801.214	22059
801.356	21960
801.499	21861
801.641	21606
801.783	21606
801.926	21568
802.068	21496
802.211	21401
802.353	21393
802.496	21096
802.638	21024
802.78	21009
802.923	20925
803.065	20830
803.208	20933
803.35	20929
803.492	21001
803.635	21020
803.777	20826
803.919	21039
804.061	21230
804.204	21119
804.346	20925
804.488	20777
804.63	20952
804.773	20895
804.915	20804
805.057	20849
805.199	20754
805.341	20735
805.483	20986
805.626	20876
805.768	20731
805.91	20853
806.052	20773
806.194	20735
806.336	20986
806.478	20811
806.62	20705
806.762	20906
806.904	21123
807.046	21256
807.188	21146
807.33	21264
807.472	21165
807.614	21112
807.756	21047
807.898	20914
808.04	20796
808.182	20979
808.324	21013
808.465	21074
808.607	21051
808.749	21195
808.891	21237
809.033	21447
809.174	21302
809.316	21165
809.458	21329
809.6	21112
809.741	21237
809.883	21355
810.025	21374
810.166	21401
810.308	21393
810.45	21302
810.591	21180
810.733	21116
810.875	21051
811.016	20891
811.158	20929
811.299	20990
811.441	21146
811.582	21001
811.724	21032
811.865	20883
812.007	20971
812.148	20918
812.29	20998
812.431	21226
812.573	21447
812.714	21370
812.855	21511
812.997	21591
813.138	21606
813.279	21591
813.421	21485
813.562	21473
813.703	21332
813.845	21123
813.986	20853
814.127	20670
814.268	20613
814.41	20579
814.551	20476
814.692	20560
814.833	20336
814.974	20518
815.115	20480
815.256	20434
815.397	20377
815.539	20366
815.68	20172
815.821	20176
815.962	20210
816.103	20454
816.244	20024
816.385	19993
816.526	19955
816.666	19845
816.807	19632
816.948	19791
817.089	19875
817.23	19738
817.371	19677
817.512	19575
817.653	19677
817.793	19552
817.934	19620
818.075	19670
818.216	19670
818.356	19655
818.497	19578
818.638	19358
818.778	19308
818.919	19320
819.06	19354
819.2	19502
819.341	19605
819.481	19693
819.622	19670
819.762	19864
819.903	19780
820.043	19746
820.184	19605
820.324	19605
820.465	19670
820.605	19666
820.746	19616
820.886	19457
821.026	19639
821.167	19639
821.307	19616
821.447	19559
821.588	19468
821.728	19415
821.868	19282
822.008	18973
822.149	18981
822.289	18977
822.429	18821
822.569	18779
822.709	18646
822.849	18490
822.99	18513
823.13	18475
823.27	18464
823.41	18353
823.55	18330
823.69	18361
823.83	18346
823.97	18330
824.11	18171
824.25	18053
824.389	18133
824.529	18289
824.669	18155
824.809	18129
824.949	18194
825.089	18232
825.228	18148
825.368	17973
825.508	17927
825.648	18019
825.787	17863
825.927	17988
826.067	17684
826.206	17775
826.346	17931
826.485	17901
826.625	17813
826.765	18038
826.904	17965
827.044	17733
827.183	17630
827.323	17623
827.462	17646
827.601	17672
827.741	17539
827.88	17634
828.02	17509
828.159	17630
828.298	17604
828.437	17581
828.577	17680
828.716	17604
828.855	17532
828.994	17414
829.134	17360
829.273	17376
829.412	17299
829.551	17334
829.69	17254
829.829	17376
829.968	17463
830.107	17425
830.246	17368
830.385	17223
830.524	17261
830.663	17162
830.802	17060
830.941	16942
831.08	16991
831.219	17006
831.357	17018
831.496	17307
831.635	16968
831.774	16881
831.913	16869
832.051	16763
832.19	16618
832.329	16831
832.467	16637
832.606	16565
832.744	16649
832.883	16618
833.022	16603
833.16	16603
833.299	16691
833.437	16630
833.576	16660
833.714	16649
833.852	16698
833.991	16698
834.129	16744
834.267	16782
834.406	16736
834.544	16645
834.682	16645
834.821	16637
834.959	16847
835.097	16668
835.235	16713
835.373	16668
835.511	16786
835.65	16668
835.788	16637
835.926	16447
836.064	16432
836.202	16390
836.34	16656
836.478	16729
836.615	16546
836.753	16478
836.891	16736
837.029	16649
837.167	16596
837.305	16527
837.443	16523
837.58	16489
837.718	16504
837.856	16497
837.993	16474
838.131	16500
838.269	16409
838.406	16428
838.544	16280
838.681	16215
838.819	16101
838.956	16101
839.094	15960
839.231	16063
839.369	16131
839.506	16413
839.643	16318
839.781	15994
839.918	15949
840.055	16131
840.193	15956
840.33	16048
840.467	15949
840.604	15987
840.742	16249
840.879	15918
841.016	15945
841.153	15930
841.29	16150
841.427	16109
841.564	16090
841.701	16055
841.838	15998
841.975	15956
842.112	15903
842.249	15835
842.385	15766
842.522	16002
842.659	15865
842.796	15823
842.933	15816
843.069	15793
843.206	15728
843.343	15915
843.479	15774
843.616	15827
843.752	15610
843.889	15542
844.025	15785
844.162	15534
844.298	15652
844.435	15553
844.571	15568
844.708	15671
844.844	15690
844.98	15720
845.117	15656
845.253	15576
845.389	15344
845.525	15469
845.661	15481
845.798	15405
845.934	15298
846.07	15222
846.206	15428
846.342	15424
846.478	15348
846.614	15165
846.75	15051
846.886	15005
847.022	15264
847.158	15150
847.294	15142
847.429	15131
847.565	15180
847.701	15382
847.837	14929
847.972	14762
848.108	14956
848.244	14979
848.379	14765
848.515	14739
848.65	14636
848.786	14765
848.921	14705
849.057	14769
849.192	14842
849.328	14815
849.463	14762
849.598	14663
849.734	14678
849.869	14568
850.004	14537
850.14	14507
850.275	14617
850.41	14434
850.545	14473
850.68	14492
850.815	14556
850.95	14545
851.085	14629
851.22	14495
851.355	14465
851.49	14476
851.625	14533
851.76	14533
851.895	14446
852.03	14415
852.165	14518
852.299	14545
852.434	14499
852.569	14583
852.703	14473
852.838	14587
852.973	14712
853.107	14579
853.242	14541
853.376	14457
853.511	14259
853.645	14355
853.78	14419
853.914	14450
854.048	14298
854.183	14374
854.317	14374
854.451	14499
854.585	14332
854.72	14412
854.854	14381
854.988	14275
855.122	14393
855.256	14309
855.39	14366
855.524	14438
855.658	14309
855.792	14450
855.926	14320
856.06	14541
856.194	14469
856.327	14336
856.461	14282
856.595	14381
856.729	14332
856.862	14461
856.996	14377
857.13	14469
857.263	14450
857.397	14442
857.53	14492
857.664	14438
857.797	14446
857.931	14526
858.064	14473
858.197	14480
858.331	14400
858.464	14381
858.597	14267
858.731	14282
858.864	14389
858.997	14298
859.13	14438
859.263	14507
859.396	14465
859.529	14339
859.662	14339
859.795	14347
859.928	14442
860.061	14541
860.194	14579
860.327	14511
860.46	14298
860.592	14564
860.725	14495
860.858	14484
860.99	14514
861.123	14446
861.256	14191
861.388	14313
861.521	15032
861.653	14275
861.786	14237
861.918	14168
862.05	14267
862.183	14358
862.315	14431
862.447	14492
862.58	14366
862.712	14142
862.844	14100
862.976	14347
863.108	14176
863.24	14575
863.372	14115
863.504	14142
863.636	14164
863.768	14252
863.9	14195
864.032	14058
864.164	14153
864.296	14256
864.428	14309
864.559	14248
864.691	14381
864.823	14123
864.954	14161
865.086	14214
865.217	14248
865.349	14115
865.48	14199
865.612	14195
865.743	14313
865.875	14088
866.006	14088
866.137	14168
866.269	14176
866.4	14103
866.531	14069
866.662	14077
866.793	14107
866.924	14062
867.055	14142
867.186	14119
867.317	14096
867.448	14054
867.579	14115
867.71	14062
867.841	13993
867.972	14058
868.103	14123
868.233	14180
868.364	14149
868.495	14256
868.625	14336
868.756	14514
868.886	14347
869.017	14408
869.147	14667
869.278	14476
869.408	14454
869.539	14442
869.669	14495
869.799	14427
869.929	14556
870.06	14503
870.19	14632
870.32	14606
870.45	14792
870.58	14724
870.71	14891
870.84	14868
870.97	14887
871.1	14659
871.23	14967
871.36	15017
871.489	14868
871.619	14952
871.749	14918
871.879	14937
872.008	15176
872.138	15009
872.267	14937
872.397	14899
872.526	14792
872.656	14815
872.785	14796
872.915	15017
873.044	15070
873.173	15017
873.303	15089
873.432	14960
873.561	15123
873.69	15135
873.819	15112
873.948	15070
874.077	15039
874.206	15028
874.335	15074
874.464	15207
874.593	15321
874.722	15283
874.851	15351
874.979	15317
875.108	15370
875.237	15363
875.365	15291
875.494	15302
875.623	15393
875.751	15355
875.88	15443
876.008	15370
876.136	15587
876.265	15770
876.393	15892
876.521	15922
876.65	15850
876.778	15819
876.906	15747
877.034	15671
877.162	15728
877.29	15732
877.418	15793
877.546	15660
877.674	15751
877.802	15854
877.93	15728
878.058	15709
878.185	15656
878.313	15732
878.441	15743
878.568	15675
878.696	15720
878.824	15797
878.951	15816
879.079	15956
879.206	16082
879.333	15922
879.461	15812
879.588	15857
879.715	15972
879.842	16082
879.97	15861
880.097	15606
880.224	15576
880.351	15675
880.478	15656
880.605	15622
880.732	15663
880.859	15854
880.986	15686
881.112	15686
881.239	15469
881.366	15420
881.493	15241
881.619	15317
881.746	15378
881.872	15287
881.999	15283
882.125	15222
882.252	15317
882.378	15226
882.505	15435
882.631	15226
882.757	15081
882.883	15123
883.01	15097
883.136	15013
883.262	15070
883.388	14880
883.514	15070
883.64	15161
883.766	15051
883.892	14960
884.018	14979
884.143	14986
884.269	15165
884.395	14876
884.52	14667
884.646	14807
884.772	14743
884.897	14689
885.023	14781
885.148	14929
885.274	14967
885.399	14914
885.524	14864
885.65	14708
885.775	14796
885.9	14697
886.025	14967
886.15	14864
886.275	14834
886.4	14746
886.525	14674
886.65	14750
886.775	14792
886.9	15009
887.025	15032
887.149	14826
887.274	14670
887.399	14606
887.523	14636
887.648	14530
887.773	14552
887.897	14746
888.021	14727
888.146	14598
888.27	14670
888.395	14659
888.519	14667
888.643	14674
888.767	14571
888.891	14575
889.015	14404
889.139	14636
889.263	14457
889.387	14564
889.511	14724
889.635	14568
889.759	14492
889.883	14495
890.006	14518
890.13	14564
890.254	14526
890.377	14476
890.501	14351
890.624	14290
890.748	14438
890.871	14267
890.995	14187
891.118	14142
891.241	14081
891.364	14237
891.488	14294
891.611	14142
891.734	14225
891.857	14339
891.98	14275
892.103	14377
892.226	14275
892.349	14191
892.471	14046
892.594	14103
892.717	14259
892.839	14202
892.962	14221
893.085	14290
893.207	14218
893.33	14088
893.452	14100
893.575	14339
893.697	14221
893.819	14366
893.941	14484
894.064	14336
894.186	14305
894.308	14180
894.43	14328
894.552	14438
894.674	14385
894.796	14229
894.918	14225
895.04	14259
895.161	14393
895.283	14377
895.405	14259
895.526	14332
895.648	14377
895.769	14442
895.891	14431
896.012	14423
896.134	14423
896.255	14408
896.376	14358
896.498	14396
896.619	14476
896.74	14412
896.861	14499
896.982	14743
897.103	14887
897.224	14632
897.345	14579
897.466	14659
897.587	14697
897.708	14830
897.828	14765
897.949	14640
898.07	14537
898.19	14507
898.311	14773
898.431	14632
898.552	14762
898.672	14853
898.792	14876
898.913	14792
899.033	14636
899.153	14541
899.273	14370
899.393	14556
899.513	14590
899.633	14575
899.753	14674
899.873	14545
899.993	14632
900.113	14552
900.232	14560
900.352	14495
900.472	14431
900.591	14442
900.711	14495
900.83	14503
900.95	14533
901.069	14629
901.189	14438
901.308	14225
901.427	14157
901.546	14161
901.665	14168
901.784	14267
901.904	13955
902.023	13833
902.141	13757
902.26	13681
902.379	13814
902.498	13731
902.617	13609
902.735	13658
902.854	13715
902.973	13609
903.091	13453
903.21	13457
903.328	13384
903.446	13312
903.565	13289
903.683	13297
903.801	13187
903.919	13202
904.038	13247
904.156	13072
904.274	13088
904.392	13057
904.51	13080
904.627	13065
904.745	13187
904.863	12989
904.981	12890
905.098	12768
905.216	12814
905.334	12776
905.451	12768
905.569	12654
905.686	12757
905.803	12722
905.921	12547
906.038	12642
906.155	12616
906.272	12525
906.389	12513
906.506	12292
906.623	12330
906.74	12342
906.857	12239
906.974	12327
907.091	12448
907.208	12521
907.324	12334
907.441	12369
907.557	12114
907.674	12171
907.79	12076
907.907	12068
908.023	12224
908.139	12155
908.256	12114
908.372	11988
908.488	12011
908.604	11855
908.72	11870
908.836	11942
908.952	11885
909.068	11923
909.184	11942
909.3	11920
909.415	11954
909.531	11828
909.647	11596
909.762	11623
909.878	11516
909.993	11623
910.108	11676
910.224	11566
910.339	11619
910.454	11467
910.57	11414
910.685	11376
910.8	11745
910.915	11634
911.03	11490
911.145	11322
911.259	11334
911.374	11364
911.489	11242
911.604	11155
911.718	11140
911.833	11143
911.947	11079
912.062	10934
912.176	11102
912.291	11075
912.405	11018
912.519	11345
912.633	11303
912.748	11261
912.862	11132
912.976	10908
913.09	10869
913.204	10908
913.318	10961
913.431	11045
913.545	11083
913.659	11098
913.772	11003
913.886	10824
914	10892
914.113	10987
914.226	10984
914.34	10980
914.453	10717
914.566	10873
914.68	10744
914.793	10744
914.906	10664
915.019	10637
915.132	10508
915.245	10603
915.358	10554
915.47	10615
915.583	10615
915.696	10577
915.809	10694
915.921	10767
916.034	10485
916.146	10535
916.259	10485
916.371	10607
916.483	10672
916.595	10466
916.708	10577
916.82	10516
916.932	10523
917.044	10550
917.156	10527
917.268	10459
917.38	10405
917.491	10436
917.603	10474
917.715	10489
917.826	10508
917.938	10443
918.049	10265
918.161	10443
918.272	10485
918.384	10516
918.495	10428
918.606	10261
918.717	10253
918.828	10246
918.939	10379
919.05	10196
919.161	10303
919.272	10101
919.383	10158
919.494	10405
919.604	10565
919.715	10352
919.826	10211
919.936	10219
920.047	10306
920.157	10417
920.267	10500
920.378	10348
920.488	10299
920.598	10478
920.708	10687
920.818	10447
920.928	10424
921.038	10664
921.148	10603
921.258	10375
921.368	10306
921.477	10147
921.587	10131
921.697	10025
921.806	10185
921.916	10086
922.025	9835
922.134	9915
922.244	9781
922.353	9884
922.462	9793
922.571	9694
922.68	9542
922.789	9545
922.898	9504
923.007	9496
923.116	9557
923.224	9622
923.333	9561
923.442	9397
923.55	9378
923.659	9458
923.767	9443
923.876	9420
923.984	9511
924.092	9416
924.201	9401
924.309	9386
924.417	9424
924.525	9325
924.633	9348
924.741	10230
924.849	9169
924.956	9306
925.064	9195
925.172	9116
925.279	9165
925.387	9157
925.494	9275
925.602	9287
925.709	9317
925.816	9226
925.924	9157
926.031	9306
926.138	9207
926.245	9207
926.352	9127
926.459	9329
926.566	9317
926.673	9207
926.779	9028
926.886	9062
926.993	8921
927.099	8834
927.206	8906
927.312	8838
927.419	8979
927.525	8902
927.631	8952
927.737	8792
927.843	8921
927.95	8705
928.056	8792
928.162	8826
928.267	8868
928.373	9370
928.479	8891
928.585	8598
928.69	8853
928.796	8762
928.901	8777
929.007	8602
929.112	8769
929.218	8693
929.323	8632
929.428	8644
929.533	8754
929.638	8583
929.743	8613
929.848	8632
929.953	8625
930.058	8537
930.163	8434
930.267	8469
930.372	8575
930.477	8328
930.581	8575
930.685	8530
930.79	8332
930.894	8366
930.998	8328
931.103	8419
931.207	8157
931.311	8073
931.415	8069
931.519	7864
931.623	7902
