Data from test_V78500241_3526.txt Node
Date: Fri Mar 25 14:58:16 CST 2022
User: usil
Spectrometer: V785-0024
Trigger mode: 0
Integration Time (sec): 4.000000E-1
Scans to average: 1
Nonlinearity correction enabled: false
Boxcar width: 0
Storing dark spectrum: false
XAxis mode: Wavelengths
Number of Pixels in Spectrum: 1024
>>>>>Begin Spectral Data<<<<<
801.071	21926
801.214	21774
801.356	21568
801.499	21469
801.641	21302
801.783	21199
801.926	21351
802.068	21272
802.211	21146
802.353	21036
802.496	20899
802.638	20769
802.78	20731
802.923	20667
803.065	20583
803.208	20552
803.35	20461
803.492	20716
803.635	20556
803.777	20606
803.919	20568
804.061	20921
804.204	20461
804.346	20484
804.488	20480
804.63	20629
804.773	20473
804.915	20549
805.057	20587
805.199	20476
805.341	20537
805.483	20594
805.626	20644
805.768	20389
805.91	20636
806.052	20511
806.194	20530
806.336	20564
806.478	20412
806.62	20446
806.762	20549
806.904	20667
807.046	20845
807.188	20845
807.33	20689
807.472	20960
807.614	20701
807.756	20743
807.898	20655
808.04	20495
808.182	20541
808.324	20518
808.465	20564
808.607	20705
808.749	20887
808.891	20902
809.033	20956
809.174	20880
809.316	20804
809.458	20872
809.6	20815
809.741	20899
809.883	20910
810.025	20986
810.166	20967
810.308	20853
810.45	20918
810.591	20796
810.733	20781
810.875	20644
811.016	20526
811.158	20465
811.299	20552
811.441	20648
811.582	20773
811.724	20583
811.865	20617
812.007	20545
812.148	20682
812.29	20590
812.431	20754
812.573	20868
812.714	20910
812.855	21096
812.997	21157
813.138	21416
813.279	21211
813.421	21127
813.562	21039
813.703	20895
813.845	20701
813.986	20412
814.127	20389
814.268	20016
814.41	20191
814.551	20100
814.692	20309
814.833	19963
814.974	20142
815.115	20111
815.256	20111
815.397	20035
815.539	19978
815.68	19967
815.821	19849
815.962	19982
816.103	19841
816.244	19658
816.385	19613
816.526	19518
816.666	19457
816.807	19297
816.948	19316
817.089	19415
817.23	19293
817.371	19209
817.512	19365
817.653	19343
817.793	19320
817.934	19369
818.075	19247
818.216	19217
818.356	19175
818.497	19164
818.638	18913
818.778	18932
818.919	18958
819.06	18962
819.2	19103
819.341	19209
819.481	19278
819.622	19324
819.762	19559
819.903	19354
820.043	19320
820.184	19225
820.324	19221
820.465	19335
820.605	19331
820.746	19228
820.886	19148
821.026	19255
821.167	19107
821.307	19179
821.447	19171
821.588	19133
821.728	18989
821.868	18806
822.008	18810
822.149	18681
822.289	18582
822.429	18452
822.569	18254
822.709	18395
822.849	18285
822.99	18049
823.13	18110
823.27	18083
823.41	17920
823.55	17817
823.69	17977
823.83	17942
823.97	17969
824.11	17699
824.25	17680
824.389	17771
824.529	17786
824.669	17710
824.809	17809
824.949	17764
825.089	17897
825.228	17691
825.368	17642
825.508	17543
825.648	17532
825.787	17528
825.927	17573
826.067	17501
826.206	17501
826.346	17627
826.485	17509
826.625	17524
826.765	17642
826.904	17573
827.044	17296
827.183	17353
827.323	17223
827.462	17220
827.601	17334
827.741	17143
827.88	17299
828.02	17086
828.159	17208
828.298	17197
828.437	17326
828.577	17223
828.716	17223
828.855	17197
828.994	17048
829.134	16961
829.273	17025
829.412	16942
829.551	16858
829.69	16965
829.829	16965
829.968	17003
830.107	17029
830.246	17067
830.385	16942
830.524	16835
830.663	16752
830.802	16611
830.941	16668
831.08	16599
831.219	16675
831.357	16653
831.496	16790
831.635	16721
831.774	16500
831.913	16504
832.051	16375
832.19	16363
832.329	16348
832.467	16352
832.606	16295
832.744	16337
832.883	16363
833.022	16215
833.16	16379
833.299	16306
833.437	16314
833.576	16265
833.714	16424
833.852	16276
833.991	16394
834.129	16352
834.267	16451
834.406	16382
834.544	16352
834.682	16223
834.821	16219
834.959	16558
835.097	16371
835.235	16421
835.373	16428
835.511	16348
835.65	16356
835.788	16310
835.926	16150
836.064	16086
836.202	16124
836.34	16390
836.478	16333
836.615	16257
836.753	16280
836.891	16314
837.029	16303
837.167	16143
837.305	16200
837.443	16124
837.58	16131
837.718	16276
837.856	16242
837.993	16131
838.131	16230
838.269	16051
838.406	16071
838.544	16086
838.681	15876
838.819	15869
838.956	15759
839.094	15728
839.231	15679
839.369	15831
839.506	16093
839.643	16006
839.781	15759
839.918	15614
840.055	15857
840.193	15606
840.33	15701
840.467	15694
840.604	15755
840.742	15930
840.879	15610
841.016	15523
841.153	15622
841.29	15778
841.427	15709
841.564	15720
841.701	15709
841.838	15603
841.975	15637
842.112	15637
842.249	15530
842.385	15538
842.522	15717
842.659	15625
842.796	15458
842.933	15507
843.069	15492
843.206	15439
843.343	15572
843.479	15603
843.616	15542
843.752	15283
843.889	15249
844.025	15519
844.162	15268
844.298	15348
844.435	15325
844.571	15199
844.708	15348
844.844	15492
844.98	15477
845.117	15454
845.253	15165
845.389	15131
845.525	15252
845.661	15218
845.798	15077
845.934	15112
846.07	15173
846.206	15085
846.342	15214
846.478	15047
846.614	14982
846.75	14868
846.886	14948
847.022	15009
847.158	14952
847.294	14929
847.429	14906
847.565	14842
847.701	15138
847.837	14644
847.972	14594
848.108	14617
848.244	14712
848.379	14431
848.515	14575
848.65	14476
848.786	14533
848.921	14457
849.057	14640
849.192	14606
849.328	14503
849.463	14526
849.598	14499
849.734	14434
849.869	14263
850.004	14210
850.14	14202
850.275	14278
850.41	14107
850.545	14233
850.68	14286
850.815	14225
850.95	14214
851.085	14419
851.22	14415
851.355	14206
851.49	14214
851.625	14168
851.76	14248
851.895	14138
852.03	14157
852.165	14237
852.299	14282
852.434	14278
852.569	14290
852.703	14240
852.838	14313
852.973	14381
853.107	14278
853.242	14210
853.376	14149
853.511	14001
853.645	14134
853.78	14153
853.914	14161
854.048	14001
854.183	14084
854.317	14145
854.451	14191
854.585	14084
854.72	14001
854.854	14142
854.988	14081
855.122	14180
855.256	13978
855.39	14062
855.524	14134
855.658	14145
855.792	14145
855.926	14157
856.06	14145
856.194	14221
856.327	14058
856.461	14126
856.595	14077
856.729	14046
856.862	14123
856.996	14088
857.13	14183
857.263	14157
857.397	14339
857.53	14016
857.664	14164
857.797	14202
857.931	14237
858.064	14172
858.197	14229
858.331	14115
858.464	14088
858.597	14012
858.731	14142
858.864	14081
858.997	14062
859.13	14202
859.263	14161
859.396	14240
859.529	14157
859.662	14111
859.795	14065
859.928	14069
860.061	14229
860.194	14336
860.327	14088
860.46	14069
860.592	14138
860.725	14206
860.858	14221
860.99	14138
861.123	14001
861.256	14016
861.388	14084
861.521	14982
861.653	13963
861.786	13982
861.918	13963
862.05	14031
862.183	14062
862.315	14126
862.447	14225
862.58	14031
862.712	13909
862.844	13871
862.976	13925
863.108	14016
863.24	14290
863.372	13791
863.504	13864
863.636	13826
863.768	13940
863.9	13898
864.032	13761
864.164	13750
864.296	13932
864.428	13940
864.559	13951
864.691	13997
864.823	13830
864.954	13947
865.086	13936
865.217	13925
865.349	13841
865.48	13967
865.612	13898
865.743	14046
865.875	14005
866.006	13822
866.137	13833
866.269	13883
866.4	13879
866.531	13822
866.662	13887
866.793	13864
866.924	13795
867.055	13849
867.186	13970
867.317	13845
867.448	13742
867.579	13833
867.71	13887
867.841	13799
867.972	13894
868.103	13776
868.233	13795
868.364	13928
868.495	13906
868.625	14119
868.756	14153
868.886	14054
869.017	14161
869.147	14214
869.278	14240
869.408	14084
869.539	14199
869.669	14256
869.799	14259
869.929	14347
870.06	14259
870.19	14450
870.32	14419
870.45	14423
870.58	14575
870.71	14590
870.84	14549
870.97	14530
871.1	14514
871.23	14644
871.36	14804
871.489	14674
871.619	14629
871.749	14712
871.879	14758
872.008	14834
872.138	14705
872.267	14796
872.397	14533
872.526	14568
872.656	14541
872.785	14602
872.915	14697
873.044	14921
873.173	14648
873.303	14899
873.432	14883
873.561	14868
873.69	14834
873.819	14754
873.948	14800
874.077	14765
874.206	14796
874.335	14735
874.464	15009
874.593	15100
874.722	15032
874.851	15043
874.979	15127
875.108	15085
875.237	15062
875.365	15032
875.494	15081
875.623	15207
875.751	15013
875.88	15146
876.008	15207
876.136	15363
876.265	15622
876.393	15641
876.521	15595
876.65	15641
876.778	15545
876.906	15576
877.034	15462
877.162	15507
877.29	15397
877.418	15553
877.546	15458
877.674	15435
877.802	15561
877.93	15477
878.058	15401
878.185	15397
878.313	15534
878.441	15595
878.568	15435
878.696	15447
878.824	15530
878.951	15515
879.079	15732
879.206	15953
879.333	15572
879.461	15625
879.588	15618
879.715	15774
879.842	15778
879.97	15606
880.097	15325
880.224	15454
880.351	15344
880.478	15424
880.605	15408
880.732	15416
880.859	15496
880.986	15424
881.112	15313
881.239	15291
881.366	15154
881.493	15173
881.619	15085
881.746	15074
881.872	15001
881.999	14967
882.125	15043
882.252	15077
882.378	15051
882.505	15135
882.631	14834
882.757	14910
882.883	14918
883.01	14880
883.136	14921
883.262	14754
883.388	14746
883.514	14838
883.64	14834
883.766	14853
883.892	14651
884.018	14674
884.143	14861
884.269	14933
884.395	14575
884.52	14541
884.646	14552
884.772	14583
884.897	14358
885.023	14549
885.148	14689
885.274	14834
885.399	14689
885.524	14526
885.65	14549
885.775	14613
885.9	14434
886.025	14708
886.15	14705
886.275	14583
886.4	14457
886.525	14533
886.65	14465
886.775	14545
886.9	14659
887.025	14769
887.149	14587
887.274	14427
887.399	14351
887.523	14385
887.648	14347
887.773	14324
887.897	14431
888.021	14442
888.146	14328
888.27	14404
888.395	14488
888.519	14442
888.643	14370
888.767	14560
888.891	14317
889.015	14332
889.139	14294
889.263	14119
889.387	14355
889.511	14434
889.635	14278
889.759	14202
889.883	14199
890.006	14278
890.13	14385
890.254	14187
890.377	14233
890.501	14062
890.624	14035
890.748	14187
890.871	14035
890.995	13852
891.118	13830
891.241	13970
891.364	13959
891.488	14020
891.611	13970
891.734	13997
891.857	13978
891.98	13951
892.103	13947
892.226	13940
892.349	13989
892.471	13658
892.594	13890
892.717	13917
892.839	14024
892.962	13967
893.085	14001
893.207	14016
893.33	13860
893.452	13894
893.575	14027
893.697	13989
893.819	14100
893.941	14119
894.064	14126
894.186	13898
894.308	13913
894.43	14024
894.552	14176
894.674	14077
894.796	13982
894.918	13959
895.04	14012
895.161	14126
895.283	14012
895.405	14016
895.526	14142
895.648	14073
895.769	14115
895.891	14145
896.012	14218
896.134	14244
896.255	14157
896.376	14149
896.498	14187
896.619	14153
896.74	14149
896.861	14305
896.982	14450
897.103	14674
897.224	14351
897.345	14389
897.466	14351
897.587	14358
897.708	14583
897.828	14408
897.949	14313
898.07	14290
898.19	14305
898.311	14602
898.431	14400
898.552	14389
898.672	14632
898.792	14568
898.913	14545
899.033	14362
899.153	14309
899.273	14233
899.393	14271
899.513	14271
899.633	14370
899.753	14343
899.873	14313
899.993	14377
900.113	14294
900.232	14343
900.352	14244
900.472	14214
900.591	14199
900.711	14229
900.83	14134
900.95	14355
901.069	14275
901.189	14065
901.308	13913
901.427	13818
901.546	13894
901.665	13890
901.784	13826
901.904	13811
902.023	13590
902.141	13514
902.26	13464
902.379	13582
902.498	13419
902.617	13377
902.735	13491
902.854	13373
902.973	13415
903.091	13145
903.21	13137
903.328	13164
903.446	13065
903.565	13053
903.683	13004
903.801	12909
903.919	12973
904.038	13027
904.156	12897
904.274	12985
904.392	12844
904.51	12859
904.627	12814
904.745	12901
904.863	12859
904.981	12684
905.098	12506
905.216	12547
905.334	12570
905.451	12475
905.569	12410
905.686	12498
905.803	12506
905.921	12376
906.038	12452
906.155	12422
906.272	12277
906.389	12258
906.506	12148
906.623	12129
906.74	12095
906.857	11969
906.974	12148
907.091	12155
907.208	12220
907.324	12144
907.441	12011
907.557	11923
907.674	11973
907.79	11840
907.907	11866
908.023	11794
908.139	11893
908.256	11756
908.372	11828
908.488	11764
908.604	11672
908.72	11570
908.836	11638
908.952	11695
909.068	11592
909.184	11756
909.3	11718
909.415	11623
909.531	11714
909.647	11433
909.762	11448
909.878	11383
909.993	11296
910.108	11376
910.224	11463
910.339	11356
910.454	11307
910.57	11277
910.685	11178
910.8	11516
910.915	11478
911.03	11258
911.145	11109
911.259	11147
911.374	11067
911.489	11086
911.604	10972
911.718	10904
911.833	10889
911.947	10839
912.062	10759
912.176	10820
912.291	10820
912.405	10877
912.519	11121
912.633	11071
912.748	11056
912.862	10934
912.976	10744
913.09	10702
913.204	10679
913.318	10793
913.431	10965
913.545	10801
913.659	10816
913.772	10771
913.886	10645
914	10588
914.113	10725
914.226	10755
914.34	10729
914.453	10478
914.566	10729
914.68	10592
914.793	10573
914.906	10360
915.019	10367
915.132	10341
915.245	10459
915.358	10329
915.47	10481
915.583	10447
915.696	10352
915.809	10481
915.921	10565
916.034	10348
916.146	10481
916.259	10303
916.371	10424
916.483	10421
916.595	10314
916.708	10329
916.82	10303
916.932	10375
917.044	10276
917.156	10246
917.268	10223
917.38	10227
917.491	10192
917.603	10284
917.715	10295
917.826	10379
917.938	10230
918.049	10109
918.161	10249
918.272	10398
918.384	10428
918.495	10246
918.606	10143
918.717	10029
918.828	10086
918.939	10025
919.05	9998
919.161	10029
919.272	9827
919.383	9918
919.494	10154
919.604	10379
919.715	10135
919.826	10036
919.936	10090
920.047	10215
920.157	10200
920.267	10329
920.378	10097
920.488	10154
920.598	10325
920.708	10500
920.818	10261
920.928	10253
921.038	10527
921.148	10493
921.258	10124
921.368	10090
921.477	10036
921.587	9960
921.697	9819
921.806	10006
921.916	9892
922.025	9755
922.134	9743
922.244	9679
922.353	9778
922.462	9530
922.571	9526
922.68	9405
922.789	9348
922.898	9363
923.007	9367
923.116	9393
923.224	9321
923.333	9355
923.442	9218
923.55	9249
923.659	9264
923.767	9294
923.876	9237
923.984	9340
924.092	9165
924.201	9199
924.309	9317
924.417	9214
924.525	9218
924.633	9203
924.741	9975
924.849	8967
924.956	9169
925.064	9009
925.172	8944
925.279	9032
925.387	8994
925.494	8998
925.602	9146
925.709	9093
925.816	8914
925.924	9013
926.031	9195
926.138	9036
926.245	9039
926.352	9051
926.459	9062
926.566	9157
926.673	9024
926.779	8929
926.886	8982
926.993	8804
927.099	8769
927.206	8689
927.312	8659
927.419	8804
927.525	8788
927.631	8815
927.737	8716
927.843	8655
927.95	8590
928.056	8575
928.162	8705
928.267	8720
928.373	9310
928.479	8777
928.585	8514
928.69	8659
928.796	8686
928.901	8617
929.007	8480
929.112	8621
929.218	8610
929.323	8454
929.428	8457
929.533	8663
929.638	8442
929.743	8438
929.848	8545
929.953	8488
930.058	8434
930.163	8206
930.267	8317
930.372	8347
930.477	8263
930.581	8514
930.685	8362
930.79	8229
930.894	8225
930.998	8206
931.103	8370
931.207	8016
931.311	7940
931.415	7917
931.519	7776
931.623	7723
