Data from test_V78500241_2650.txt Node
Date: Fri Mar 25 14:52:09 CST 2022
User: usil
Spectrometer: V785-0024
Trigger mode: 0
Integration Time (sec): 4.000000E-1
Scans to average: 1
Nonlinearity correction enabled: false
Boxcar width: 0
Storing dark spectrum: false
XAxis mode: Wavelengths
Number of Pixels in Spectrum: 1024
>>>>>Begin Spectral Data<<<<<
801.071	22090
801.214	21945
801.356	21671
801.499	21504
801.641	21192
801.783	21336
801.926	21237
802.068	21245
802.211	21329
802.353	21226
802.496	20994
802.638	20887
802.78	20933
802.923	20716
803.065	20602
803.208	20773
803.35	20746
803.492	20861
803.635	20899
803.777	20655
803.919	20849
804.061	21051
804.204	20762
804.346	20590
804.488	20621
804.63	20667
804.773	20632
804.915	20606
805.057	20583
805.199	20606
805.341	20739
805.483	20746
805.626	20781
805.768	20598
805.91	20701
806.052	20568
806.194	20503
806.336	20716
806.478	20511
806.62	20530
806.762	20678
806.904	20777
807.046	20956
807.188	20952
807.33	20902
807.472	20986
807.614	20830
807.756	20861
807.898	20697
808.04	20731
808.182	20724
808.324	20667
808.465	20670
808.607	20906
808.749	21058
808.891	20960
809.033	21317
809.174	21096
809.316	21001
809.458	21020
809.6	20887
809.741	20937
809.883	21043
810.025	21028
810.166	21051
810.308	21135
810.45	21013
810.591	20956
810.733	20830
810.875	20712
811.016	20663
811.158	20674
811.299	20796
811.441	20762
811.582	20826
811.724	20891
811.865	20769
812.007	20796
812.148	20667
812.29	20864
812.431	20880
812.573	21146
812.714	21043
812.855	21241
812.997	21386
813.138	21530
813.279	21386
813.421	21291
813.562	21165
813.703	20925
813.845	20925
813.986	20526
814.127	20343
814.268	20370
814.41	20385
814.551	20370
814.692	20298
814.833	20301
814.974	20183
815.115	20252
815.256	20259
815.397	20187
815.539	20149
815.68	19940
815.821	19860
815.962	19936
816.103	19967
816.244	19803
816.385	19765
816.526	19757
816.666	19605
816.807	19472
816.948	19518
817.089	19563
817.23	19422
817.371	19316
817.512	19400
817.653	19362
817.793	19350
817.934	19419
818.075	19308
818.216	19400
818.356	19449
818.497	19312
818.638	19103
818.778	19061
818.919	19046
819.06	19183
819.2	19297
819.341	19247
819.481	19346
819.622	19411
819.762	19685
819.903	19620
820.043	19415
820.184	19453
820.324	19445
820.465	19445
820.605	19362
820.746	19430
820.886	19251
821.026	19381
821.167	19327
821.307	19354
821.447	19289
821.588	19255
821.728	19141
821.868	18947
822.008	18833
822.149	18867
822.289	18681
822.429	18517
822.569	18467
822.709	18551
822.849	18372
822.99	18273
823.13	18205
823.27	18296
823.41	18060
823.55	18106
823.69	18064
823.83	18114
823.97	18095
824.11	17851
824.25	17786
824.389	17866
824.529	17878
824.669	17885
824.809	17946
824.949	17908
825.089	17889
825.228	17889
825.368	17657
825.508	17741
825.648	17668
825.787	17752
825.927	17745
826.067	17653
826.206	17649
826.346	17665
826.485	17642
826.625	17627
826.765	17779
826.904	17676
827.044	17482
827.183	17516
827.323	17353
827.462	17429
827.601	17311
827.741	17364
827.88	17288
828.02	17227
828.159	17258
828.298	17482
828.437	17337
828.577	17307
828.716	17444
828.855	17345
828.994	17147
829.134	17151
829.273	17166
829.412	17147
829.551	17109
829.69	17105
829.829	17064
829.968	17185
830.107	17185
830.246	17181
830.385	17060
830.524	16984
830.663	16965
830.802	16896
830.941	16797
831.08	16691
831.219	16759
831.357	16729
831.496	16946
831.635	16755
831.774	16706
831.913	16656
832.051	16402
832.19	16485
832.329	16550
832.467	16531
832.606	16367
832.744	16371
832.883	16409
833.022	16512
833.16	16436
833.299	16508
833.437	16462
833.576	16542
833.714	16512
833.852	16474
833.991	16489
834.129	16546
834.267	16481
834.406	16645
834.544	16504
834.682	16527
834.821	16443
834.959	16679
835.097	16455
835.235	16558
835.373	16550
835.511	16538
835.65	16409
835.788	16344
835.926	16352
836.064	16242
836.202	16280
836.34	16470
836.478	16527
836.615	16382
836.753	16462
836.891	16428
837.029	16417
837.167	16367
837.305	16291
837.443	16333
837.58	16303
837.718	16352
837.856	16322
837.993	16143
838.131	16398
838.269	16162
838.406	16223
838.544	16097
838.681	16059
838.819	15960
838.956	15865
839.094	15884
839.231	15895
839.369	16090
839.506	16234
839.643	16063
839.781	15953
839.918	15793
840.055	15857
840.193	15819
840.33	15907
840.467	15846
840.604	15888
840.742	16109
840.879	15671
841.016	15770
841.153	15736
841.29	15953
841.427	15876
841.564	15934
841.701	15903
841.838	15739
841.975	15701
842.112	15781
842.249	15610
842.385	15622
842.522	15717
842.659	15675
842.796	15625
842.933	15553
843.069	15511
843.206	15504
843.343	15755
843.479	15641
843.616	15633
843.752	15344
843.889	15405
844.025	15507
844.162	15344
844.298	15496
844.435	15412
844.571	15370
844.708	15473
844.844	15545
844.98	15587
845.117	15496
845.253	15374
845.389	15325
845.525	15321
845.661	15306
845.798	15195
845.934	15233
846.07	15218
846.206	15233
846.342	15230
846.478	15203
846.614	15009
846.75	14967
846.886	14937
847.022	15184
847.158	14963
847.294	14971
847.429	14998
847.565	14899
847.701	15165
847.837	14712
847.972	14651
848.108	14842
848.244	14735
848.379	14663
848.515	14617
848.65	14602
848.786	14465
848.921	14625
849.057	14716
849.192	14655
849.328	14682
849.463	14636
849.598	14530
849.734	14522
849.869	14476
850.004	14461
850.14	14389
850.275	14347
850.41	14164
850.545	14377
850.68	14389
850.815	14396
850.95	14324
851.085	14484
851.22	14488
851.355	14332
851.49	14305
851.625	14404
851.76	14358
851.895	14164
852.03	14153
852.165	14339
852.299	14404
852.434	14514
852.569	14404
852.703	14336
852.838	14438
852.973	14568
853.107	14450
853.242	14240
853.376	14233
853.511	14069
853.645	14161
853.78	14336
853.914	14278
854.048	14134
854.183	14161
854.317	14221
854.451	14374
854.585	14164
854.72	14180
854.854	14267
854.988	14183
855.122	14210
855.256	14199
855.39	14168
855.524	14408
855.658	14233
855.792	14275
855.926	14240
856.06	14298
856.194	14332
856.327	14221
856.461	14202
856.595	14195
856.729	14138
856.862	14343
856.996	14237
857.13	14278
857.263	14263
857.397	14301
857.53	14271
857.664	14286
857.797	14358
857.931	14362
858.064	14343
858.197	14393
858.331	14233
858.464	14069
858.597	14134
858.731	14183
858.864	14195
858.997	14168
859.13	14248
859.263	14256
859.396	14396
859.529	14271
859.662	14202
859.795	14271
859.928	14256
860.061	14400
860.194	14427
860.327	14324
860.46	14172
860.592	14256
860.725	14400
860.858	14324
860.99	14225
861.123	14100
861.256	14168
861.388	14221
861.521	14845
861.653	14130
861.786	14161
861.918	14115
862.05	14161
862.183	14134
862.315	14282
862.447	14191
862.58	14187
862.712	13951
862.844	13875
862.976	14046
863.108	14088
863.24	14461
863.372	13967
863.504	13974
863.636	13989
863.768	14073
863.9	13986
864.032	13909
864.164	13944
864.296	13989
864.428	14069
864.559	14100
864.691	14077
864.823	14062
864.954	14050
865.086	14012
865.217	13925
865.349	13982
865.48	13978
865.612	14062
865.743	14180
865.875	13963
866.006	13974
866.137	13993
866.269	14027
866.4	13967
866.531	13974
866.662	13906
866.793	13887
866.924	13932
867.055	13947
867.186	14001
867.317	14024
867.448	13928
867.579	13917
867.71	13902
867.841	13955
867.972	14008
868.103	13917
868.233	13989
868.364	14050
868.495	14065
868.625	14199
868.756	14355
868.886	14157
869.017	14206
869.147	14381
869.278	14389
869.408	14286
869.539	14229
869.669	14320
869.799	14290
869.929	14465
870.06	14271
870.19	14606
870.32	14434
870.45	14632
870.58	14602
870.71	14655
870.84	14792
870.97	14636
871.1	14636
871.23	14762
871.36	14800
871.489	14720
871.619	14750
871.749	14781
871.879	14834
872.008	14937
872.138	14834
872.267	14796
872.397	14686
872.526	14651
872.656	14777
872.785	14720
872.915	14868
873.044	14982
873.173	14861
873.303	14845
873.432	14918
873.561	14979
873.69	14929
873.819	14845
873.948	15005
874.077	14906
874.206	14807
874.335	14918
874.464	15100
874.593	15313
874.722	15157
874.851	15233
874.979	15195
875.108	15291
875.237	15089
875.365	15154
875.494	15192
875.623	15169
875.751	15264
875.88	15211
876.008	15367
876.136	15435
876.265	15538
876.393	15728
876.521	15648
876.65	15728
876.778	15698
876.906	15557
877.034	15561
877.162	15584
877.29	15553
877.418	15629
877.546	15694
877.674	15614
877.802	15694
877.93	15606
878.058	15584
878.185	15511
878.313	15488
878.441	15633
878.568	15428
878.696	15580
878.824	15622
878.951	15732
879.079	15835
879.206	15911
879.333	15857
879.461	15591
879.588	15675
879.715	15759
879.842	15926
879.97	15762
880.097	15428
880.224	15458
880.351	15561
880.478	15477
880.605	15462
880.732	15447
880.859	15690
880.986	15530
881.112	15530
881.239	15454
881.366	15279
881.493	15169
881.619	15123
881.746	15150
881.872	15192
881.999	15028
882.125	14941
882.252	15214
882.378	15081
882.505	15336
882.631	15104
882.757	14880
882.883	14872
883.01	15024
883.136	14880
883.262	14826
883.388	14811
883.514	14944
883.64	14963
883.766	14979
883.892	14674
884.018	14693
884.143	14823
884.269	14990
884.395	14750
884.52	14629
884.646	14682
884.772	14644
884.897	14686
885.023	14758
885.148	14781
885.274	14735
885.399	14727
885.524	14625
885.65	14701
885.775	14724
885.9	14613
886.025	14781
886.15	14758
886.275	14632
886.4	14651
886.525	14587
886.65	14621
886.775	14575
886.9	14773
887.025	14944
887.149	14708
887.274	14438
887.399	14503
887.523	14434
887.648	14412
887.773	14298
887.897	14552
888.021	14579
888.146	14423
888.27	14545
888.395	14575
888.519	14526
888.643	14518
888.767	14533
888.891	14381
889.015	14358
889.139	14259
889.263	14328
889.387	14503
889.511	14552
889.635	14530
889.759	14317
889.883	14309
890.006	14408
890.13	14526
890.254	14309
890.377	14301
890.501	14187
890.624	14191
890.748	14168
890.871	14111
890.995	13997
891.118	13970
891.241	14107
891.364	14073
891.488	14153
891.611	14126
891.734	14008
891.857	14119
891.98	14043
892.103	14145
892.226	14115
892.349	14119
892.471	13936
892.594	14149
892.717	14123
892.839	13940
892.962	13978
893.085	14092
893.207	14123
893.33	13925
893.452	13936
893.575	14054
893.697	14069
893.819	14229
893.941	14240
894.064	14218
894.186	13989
894.308	14115
894.43	14157
894.552	14290
894.674	14240
894.796	13959
894.918	14161
895.04	14001
895.161	14164
895.283	14134
895.405	14100
895.526	14138
895.648	14145
895.769	14168
895.891	14256
896.012	14259
896.134	14225
896.255	14286
896.376	14202
896.498	14294
896.619	14267
896.74	14240
896.861	14271
896.982	14530
897.103	14777
897.224	14461
897.345	14454
897.466	14419
897.587	14549
897.708	14636
897.828	14511
897.949	14533
898.07	14271
898.19	14522
898.311	14629
898.431	14438
898.552	14579
898.672	14590
898.792	14632
898.913	14511
899.033	14480
899.153	14389
899.273	14324
899.393	14389
899.513	14526
899.633	14374
899.753	14469
899.873	14419
899.993	14511
900.113	14408
900.232	14412
900.352	14427
900.472	14339
900.591	14317
900.711	14267
900.83	14244
900.95	14347
901.069	14320
901.189	14195
901.308	14031
901.427	13879
901.546	14016
901.665	13978
901.784	14027
901.904	13936
902.023	13719
902.141	13537
902.26	13578
902.379	13658
902.498	13571
902.617	13426
902.735	13514
902.854	13525
902.973	13506
903.091	13240
903.21	13270
903.328	13350
903.446	13209
903.565	13137
903.683	13126
903.801	12985
903.919	13107
904.038	13042
904.156	12897
904.274	12993
904.392	12935
904.51	12920
904.627	12947
904.745	13050
904.863	13038
904.981	12783
905.098	12597
905.216	12536
905.334	12665
905.451	12692
905.569	12597
905.686	12642
905.803	12662
905.921	12426
906.038	12525
906.155	12486
906.272	12338
906.389	12418
906.506	12270
906.623	12201
906.74	12076
906.857	12083
906.974	12110
907.091	12232
907.208	12323
907.324	12194
907.441	12155
907.557	11999
907.674	11893
907.79	11965
907.907	11859
908.023	12083
908.139	12045
908.256	11897
908.372	11973
908.488	11775
908.604	11653
908.72	11661
908.836	11710
908.952	11665
909.068	11684
909.184	11783
909.3	11737
909.415	11691
909.531	11756
909.647	11433
909.762	11577
909.878	11459
909.993	11482
910.108	11425
910.224	11444
910.339	11535
910.454	11417
910.57	11353
910.685	11334
910.8	11512
910.915	11497
911.03	11360
911.145	11189
911.259	11265
911.374	11197
911.489	11033
911.604	11075
911.718	10911
911.833	10923
911.947	10839
912.062	10797
912.176	10976
912.291	10946
912.405	10934
912.519	11124
912.633	11147
912.748	10934
912.862	10976
912.976	10873
913.09	10812
913.204	10797
913.318	10858
913.431	10885
913.545	10854
913.659	10923
913.772	10816
913.886	10748
914	10660
914.113	10748
914.226	10820
914.34	10736
914.453	10622
914.566	10873
914.68	10599
914.793	10649
914.906	10500
915.019	10478
915.132	10436
915.245	10413
915.358	10531
915.47	10470
915.583	10504
915.696	10455
915.809	10637
915.921	10527
916.034	10386
916.146	10443
916.259	10348
916.371	10500
916.483	10466
916.595	10287
916.708	10447
916.82	10325
916.932	10367
917.044	10356
917.156	10390
917.268	10268
917.38	10306
917.491	10276
917.603	10348
917.715	10421
917.826	10386
917.938	10268
918.049	10207
918.161	10352
918.272	10459
918.384	10447
918.495	10322
918.606	10230
918.717	10032
918.828	10196
918.939	10192
919.05	10040
919.161	10131
919.272	10010
919.383	10071
919.494	10238
919.604	10344
919.715	10234
919.826	10166
919.936	10192
920.047	10261
920.157	10272
920.267	10356
920.378	10265
920.488	10192
920.598	10303
920.708	10538
920.818	10360
920.928	10371
921.038	10470
921.148	10500
921.258	10204
921.368	10128
921.477	10059
921.587	10055
921.697	9831
921.806	10021
921.916	9895
922.025	9804
922.134	9747
922.244	9762
922.353	9755
922.462	9622
922.571	9603
922.68	9462
922.789	9443
922.898	9469
923.007	9412
923.116	9530
923.224	9397
923.333	9488
923.442	9393
923.55	9272
923.659	9344
923.767	9329
923.876	9306
923.984	9329
924.092	9298
924.201	9363
924.309	9329
924.417	9332
924.525	9222
924.633	9253
924.741	10044
924.849	9142
924.956	9245
925.064	9138
925.172	9028
925.279	9020
925.387	9146
925.494	9112
925.602	9260
925.709	9157
925.816	9055
925.924	9085
926.031	9123
926.138	9116
926.245	9085
926.352	9013
926.459	9173
926.566	9199
926.673	9017
926.779	9020
926.886	8887
926.993	8899
927.099	8811
927.206	8777
927.312	8796
927.419	8891
927.525	8769
927.631	8800
927.737	8716
927.843	8625
927.95	8575
928.056	8667
928.162	8693
928.267	8815
928.373	9367
928.479	8864
928.585	8514
928.69	8663
928.796	8777
928.901	8636
929.007	8404
929.112	8575
929.218	8575
929.323	8571
929.428	8552
929.533	8644
929.638	8484
929.743	8480
929.848	8503
929.953	8522
930.058	8377
930.163	8309
930.267	8355
930.372	8526
930.477	8294
930.581	8495
930.685	8324
930.79	8317
930.894	8214
930.998	8237
931.103	8396
931.207	8035
931.311	7970
931.415	7902
931.519	7765
931.623	7814
