Data from test_V78500241_1991.txt Node
Date: Fri Mar 25 14:47:34 CST 2022
User: usil
Spectrometer: V785-0024
Trigger mode: 0
Integration Time (sec): 4.000000E-1
Scans to average: 1
Nonlinearity correction enabled: false
Boxcar width: 0
Storing dark spectrum: false
XAxis mode: Wavelengths
Number of Pixels in Spectrum: 1024
>>>>>Begin Spectral Data<<<<<
801.071	22154
801.214	21884
801.356	21622
801.499	21553
801.641	21485
801.783	21530
801.926	21504
802.068	21378
802.211	21332
802.353	21306
802.496	21180
802.638	21066
802.78	21081
802.923	20819
803.065	20762
803.208	20727
803.35	20781
803.492	20921
803.635	20948
803.777	20739
803.919	21020
804.061	21135
804.204	20921
804.346	20804
804.488	20701
804.63	20750
804.773	20674
804.915	20750
805.057	20883
805.199	20686
805.341	20697
805.483	20971
805.626	20857
805.768	20746
805.91	20849
806.052	20701
806.194	20655
806.336	20861
806.478	20678
806.62	20708
806.762	20769
806.904	20826
807.046	21028
807.188	21009
807.33	20963
807.472	21062
807.614	20925
807.756	21036
807.898	20796
808.04	20777
808.182	20746
808.324	20830
808.465	20910
808.607	20998
808.749	21222
808.891	21268
809.033	21252
809.174	21081
809.316	21085
809.458	21100
809.6	21108
809.741	21131
809.883	21233
810.025	21268
810.166	21150
810.308	21268
810.45	21207
810.591	21131
810.733	20883
810.875	20933
811.016	20785
811.158	20678
811.299	20891
811.441	20925
811.582	21055
811.724	20921
811.865	20781
812.007	20834
812.148	20880
812.29	20960
812.431	20994
812.573	21142
812.714	21241
812.855	21313
812.997	21496
813.138	21515
813.279	21485
813.421	21344
813.562	21214
813.703	21085
813.845	21066
813.986	20712
814.127	20537
814.268	20473
814.41	20488
814.551	20480
814.692	20355
814.833	20488
814.974	20339
815.115	20317
815.256	20229
815.397	20214
815.539	20263
815.68	20062
815.821	20046
815.962	20145
816.103	20122
816.244	20024
816.385	19890
816.526	19833
816.666	19765
816.807	19620
816.948	19613
817.089	19605
817.23	19670
817.371	19571
817.512	19552
817.653	19556
817.793	19476
817.934	19506
818.075	19537
818.216	19518
818.356	19537
818.497	19358
818.638	19099
818.778	19183
818.919	19065
819.06	19255
819.2	19419
819.341	19407
819.481	19346
819.622	19586
819.762	19704
819.903	19655
820.043	19552
820.184	19578
820.324	19415
820.465	19616
820.605	19533
820.746	19510
820.886	19426
821.026	19472
821.167	19453
821.307	19559
821.447	19533
821.588	19354
821.728	19202
821.868	18954
822.008	18962
822.149	19034
822.289	18951
822.429	18730
822.569	18627
822.709	18646
822.849	18490
822.99	18467
823.13	18429
823.27	18327
823.41	18273
823.55	18117
823.69	18270
823.83	18251
823.97	18194
824.11	17977
824.25	18041
824.389	18095
824.529	18060
824.669	17969
824.809	18026
824.949	18072
825.089	18121
825.228	17939
825.368	17821
825.508	17733
825.648	17870
825.787	17836
825.927	17874
826.067	17855
826.206	17733
826.346	17790
826.485	17809
826.625	17710
826.765	17988
826.904	17802
827.044	17558
827.183	17649
827.323	17402
827.462	17528
827.601	17478
827.741	17417
827.88	17452
828.02	17406
828.159	17509
828.298	17478
828.437	17471
828.577	17467
828.716	17661
828.855	17429
828.994	17235
829.134	17223
829.273	17322
829.412	17220
829.551	17090
829.69	17086
829.829	17231
829.968	17307
830.107	17235
830.246	17303
830.385	17242
830.524	17170
830.663	17109
830.802	16968
830.941	16801
831.08	16839
831.219	16934
831.357	17003
831.496	17037
831.635	16881
831.774	16801
831.913	16752
832.051	16698
832.19	16618
832.329	16577
832.467	16596
832.606	16546
832.744	16497
832.883	16538
833.022	16523
833.16	16478
833.299	16626
833.437	16603
833.576	16637
833.714	16546
833.852	16584
833.991	16611
834.129	16786
834.267	16622
834.406	16603
834.544	16546
834.682	16622
834.821	16523
834.959	16782
835.097	16577
835.235	16748
835.373	16660
835.511	16554
835.65	16485
835.788	16421
835.926	16333
836.064	16287
836.202	16299
836.34	16569
836.478	16580
836.615	16478
836.753	16580
836.891	16626
837.029	16519
837.167	16447
837.305	16424
837.443	16466
837.58	16466
837.718	16538
837.856	16333
837.993	16363
838.131	16443
838.269	16322
838.406	16291
838.544	16219
838.681	16063
838.819	16154
838.956	15937
839.094	15949
839.231	15899
839.369	16139
839.506	16299
839.643	16116
839.781	15956
839.918	15903
840.055	16032
840.193	15964
840.33	15945
840.467	15930
840.604	15949
840.742	16131
840.879	15816
841.016	15869
841.153	15838
841.29	16074
841.427	15968
841.564	16036
841.701	15991
841.838	15949
841.975	15934
842.112	15816
842.249	15724
842.385	15717
842.522	15953
842.659	15759
842.796	15701
842.933	15739
843.069	15739
843.206	15667
843.343	15831
843.479	15656
843.616	15732
843.752	15591
843.889	15523
844.025	15622
844.162	15549
844.298	15625
844.435	15412
844.571	15534
844.708	15671
844.844	15591
844.98	15644
845.117	15675
845.253	15454
845.389	15401
845.525	15355
845.661	15370
845.798	15321
845.934	15447
846.07	15176
846.206	15310
846.342	15450
846.478	15313
846.614	15180
846.75	14982
846.886	14956
847.022	15192
847.158	15116
847.294	15066
847.429	15150
847.565	15112
847.701	15386
847.837	14819
847.972	14861
848.108	14937
848.244	14910
848.379	14807
848.515	14655
848.65	14678
848.786	14655
848.921	14739
849.057	14792
849.192	14826
849.328	14724
849.463	14758
849.598	14522
849.734	14644
849.869	14530
850.004	14465
850.14	14507
850.275	14541
850.41	14404
850.545	14389
850.68	14495
850.815	14488
850.95	14480
851.085	14514
851.22	14564
851.355	14480
851.49	14446
851.625	14374
851.76	14495
851.895	14343
852.03	14374
852.165	14355
852.299	14522
852.434	14518
852.569	14480
852.703	14431
852.838	14530
852.973	14636
853.107	14579
853.242	14415
853.376	14412
853.511	14202
853.645	14256
853.78	14488
853.914	14446
854.048	14282
854.183	14347
854.317	14320
854.451	14415
854.585	14374
854.72	14282
854.854	14374
854.988	14187
855.122	14305
855.256	14229
855.39	14278
855.524	14290
855.658	14309
855.792	14332
855.926	14377
856.06	14336
856.194	14423
856.327	14400
856.461	14313
856.595	14309
856.729	14233
856.862	14419
856.996	14351
857.13	14343
857.263	14412
857.397	14427
857.53	14278
857.664	14328
857.797	14355
857.931	14442
858.064	14374
858.197	14469
858.331	14328
858.464	14328
858.597	14252
858.731	14294
858.864	14256
858.997	14286
859.13	14355
859.263	14377
859.396	14457
859.529	14240
859.662	14252
859.795	14210
859.928	14324
860.061	14514
860.194	14408
860.327	14381
860.46	14294
860.592	14473
860.725	14488
860.858	14488
860.99	14282
861.123	14214
861.256	14256
861.388	14366
861.521	15020
861.653	14233
861.786	14100
861.918	14195
862.05	14256
862.183	14305
862.315	14275
862.447	14366
862.58	14286
862.712	14168
862.844	14103
862.976	14225
863.108	14187
863.24	14431
863.372	14012
863.504	14069
863.636	14027
863.768	14161
863.9	14111
864.032	13963
864.164	14096
864.296	14134
864.428	14187
864.559	14153
864.691	14168
864.823	14134
864.954	14161
865.086	14126
865.217	14103
865.349	14065
865.48	14161
865.612	14096
865.743	14157
865.875	14096
866.006	14062
866.137	14103
866.269	14084
866.4	14054
866.531	13989
866.662	13997
866.793	14046
866.924	13997
867.055	14153
867.186	14043
867.317	14027
867.448	13921
867.579	13955
867.71	14058
867.841	14008
867.972	14058
868.103	14138
868.233	14081
868.364	14153
868.495	14111
868.625	14343
868.756	14396
868.886	14259
869.017	14362
869.147	14450
869.278	14457
869.408	14347
869.539	14313
869.669	14412
869.799	14465
869.929	14358
870.06	14419
870.19	14651
870.32	14655
870.45	14807
870.58	14697
870.71	14811
870.84	14705
870.97	14693
871.1	14686
871.23	14986
871.36	14956
871.489	14838
871.619	14853
871.749	14990
871.879	14842
872.008	15020
872.138	14880
872.267	14902
872.397	14781
872.526	14762
872.656	14792
872.785	14792
872.915	15070
873.044	15085
873.173	14971
873.303	14948
873.432	14998
873.561	15001
873.69	14883
873.819	14986
873.948	15055
874.077	14891
874.206	14941
874.335	15001
874.464	15135
874.593	15283
874.722	15256
874.851	15420
874.979	15329
875.108	15466
875.237	15218
875.365	15188
875.494	15302
875.623	15329
875.751	15272
875.88	15435
876.008	15466
876.136	15523
876.265	15751
876.393	15846
876.521	15808
876.65	15827
876.778	15720
876.906	15644
877.034	15644
877.162	15732
877.29	15751
877.418	15698
877.546	15759
877.674	15739
877.802	15743
877.93	15774
878.058	15618
878.185	15500
878.313	15819
878.441	15675
878.568	15591
878.696	15652
878.824	15762
878.951	15831
879.079	15838
879.206	16063
879.333	15953
879.461	15800
879.588	15819
879.715	15911
879.842	15934
879.97	15755
880.097	15561
880.224	15492
880.351	15663
880.478	15580
880.605	15485
880.732	15534
880.859	15808
880.986	15576
881.112	15728
881.239	15500
881.366	15367
881.493	15329
881.619	15287
881.746	15245
881.872	15237
881.999	15199
882.125	15165
882.252	15245
882.378	15226
882.505	15416
882.631	15237
882.757	15017
882.883	15188
883.01	15104
883.136	15013
883.262	14967
883.388	14861
883.514	15066
883.64	15055
883.766	15017
883.892	14815
884.018	14910
884.143	14952
884.269	15077
884.395	14796
884.52	14625
884.646	14678
884.772	14590
884.897	14667
885.023	14682
885.148	14815
885.274	14979
885.399	14811
885.524	14754
885.65	14701
885.775	14758
885.9	14693
886.025	14792
886.15	14838
886.275	14682
886.4	14648
886.525	14746
886.65	14613
886.775	14689
886.9	14731
887.025	14967
887.149	14735
887.274	14583
887.399	14549
887.523	14564
887.648	14511
887.773	14450
887.897	14670
888.021	14651
888.146	14503
888.27	14708
888.395	14701
888.519	14621
888.643	14518
888.767	14606
888.891	14465
889.015	14431
889.139	14450
889.263	14415
889.387	14583
889.511	14632
889.635	14522
889.759	14396
889.883	14400
890.006	14419
890.13	14492
890.254	14362
890.377	14370
890.501	14263
890.624	14199
890.748	14400
890.871	14142
890.995	14100
891.118	14020
891.241	14164
891.364	14187
891.488	14229
891.611	14183
891.734	14240
891.857	14187
891.98	14123
892.103	14168
892.226	14058
892.349	14161
892.471	14035
892.594	14134
892.717	14123
892.839	14092
892.962	14187
893.085	14214
893.207	14111
893.33	13951
893.452	14058
893.575	14081
893.697	14130
893.819	14271
893.941	14343
894.064	14351
894.186	14145
894.308	14142
894.43	14328
894.552	14355
894.674	14267
894.796	14062
894.918	14164
895.04	14187
895.161	14290
895.283	14252
895.405	14168
895.526	14256
895.648	14221
895.769	14248
895.891	14256
896.012	14324
896.134	14317
896.255	14423
896.376	14275
896.498	14301
896.619	14313
896.74	14210
896.861	14358
896.982	14678
897.103	14815
897.224	14545
897.345	14545
897.466	14511
897.587	14621
897.708	14659
897.828	14651
897.949	14560
898.07	14492
898.19	14583
898.311	14781
898.431	14488
898.552	14678
898.672	14651
898.792	14842
898.913	14716
899.033	14530
899.153	14503
899.273	14434
899.393	14541
899.513	14408
899.633	14488
899.753	14522
899.873	14503
899.993	14522
900.113	14473
900.232	14552
900.352	14377
900.472	14347
900.591	14267
900.711	14404
900.83	14309
900.95	14476
901.069	14412
901.189	14278
901.308	14145
901.427	13982
901.546	14001
901.665	14046
901.784	14084
901.904	13887
902.023	13822
902.141	13700
902.26	13582
902.379	13677
902.498	13628
902.617	13586
902.735	13655
902.854	13518
902.973	13582
903.091	13388
903.21	13400
903.328	13358
903.446	13228
903.565	13118
903.683	13190
903.801	13065
903.919	13152
904.038	13080
904.156	13057
904.274	13095
904.392	13027
904.51	13031
904.627	13023
904.745	13050
904.863	13069
904.981	12798
905.098	12787
905.216	12662
905.334	12688
905.451	12726
905.569	12711
905.686	12787
905.803	12669
905.921	12585
906.038	12498
906.155	12509
906.272	12353
906.389	12410
906.506	12243
906.623	12273
906.74	12254
906.857	12087
906.974	12167
907.091	12350
907.208	12410
907.324	12228
907.441	12224
907.557	12019
907.674	12106
907.79	11836
907.907	11946
908.023	12117
908.139	12041
908.256	11912
908.372	11939
908.488	11866
908.604	11824
908.72	11672
908.836	11695
908.952	11783
909.068	11802
909.184	11885
909.3	11718
909.415	11832
909.531	11790
909.647	11501
909.762	11539
909.878	11490
909.993	11604
910.108	11528
910.224	11562
910.339	11558
910.454	11512
910.57	11433
910.685	11364
910.8	11528
910.915	11532
911.03	11387
911.145	11273
911.259	11223
911.374	11227
911.489	11162
911.604	11143
911.718	11045
911.833	11006
911.947	10980
912.062	10843
912.176	10984
912.291	11033
912.405	10972
912.519	11216
912.633	11170
912.748	11075
912.862	10980
912.976	10961
913.09	10862
913.204	10862
913.318	10843
913.431	11052
913.545	10991
913.659	10987
913.772	10873
913.886	10782
914	10710
914.113	10881
914.226	10835
914.34	10900
914.453	10710
914.566	10889
914.68	10786
914.793	10702
914.906	10554
915.019	10523
915.132	10382
915.245	10447
915.358	10607
915.47	10455
915.583	10599
915.696	10637
915.809	10672
915.921	10664
916.034	10538
916.146	10470
916.259	10474
916.371	10531
916.483	10485
916.595	10443
916.708	10451
916.82	10447
916.932	10382
917.044	10432
917.156	10428
917.268	10333
917.38	10371
917.491	10329
917.603	10398
917.715	10436
917.826	10455
917.938	10303
918.049	10242
918.161	10371
918.272	10447
918.384	10459
918.495	10371
918.606	10257
918.717	10204
918.828	10257
918.939	10223
919.05	10105
919.161	10234
919.272	9998
919.383	10139
919.494	10303
919.604	10459
919.715	10227
919.826	10162
919.936	10238
920.047	10322
920.157	10272
920.267	10478
920.378	10287
920.488	10265
920.598	10455
920.708	10550
920.818	10421
920.928	10436
921.038	10626
921.148	10523
921.258	10188
921.368	10253
921.477	10120
921.587	10097
921.697	9972
921.806	10147
921.916	10032
922.025	9857
922.134	9827
922.244	9778
922.353	9869
922.462	9671
922.571	9610
922.68	9500
922.789	9488
922.898	9462
923.007	9443
923.116	9511
923.224	9469
923.333	9526
923.442	9397
923.55	9344
923.659	9389
923.767	9443
923.876	9336
923.984	9420
924.092	9256
924.201	9336
924.309	9363
924.417	9294
924.525	9256
924.633	9340
924.741	10230
924.849	9097
924.956	9294
925.064	9085
925.172	9066
925.279	9100
925.387	9127
925.494	9116
925.602	9302
925.709	9173
925.816	9077
925.924	9188
926.031	9245
926.138	9176
926.245	9154
926.352	9055
926.459	9211
926.566	9256
926.673	9089
926.779	9055
926.886	8944
926.993	8849
927.099	8857
927.206	8910
927.312	8834
927.419	8902
927.525	8849
927.631	8887
927.737	8758
927.843	8686
927.95	8522
928.056	8750
928.162	8792
928.267	8838
928.373	9393
928.479	8891
928.585	8625
928.69	8792
928.796	8811
928.901	8636
929.007	8571
929.112	8625
929.218	8716
929.323	8571
929.428	8511
929.533	8720
929.638	8537
929.743	8522
929.848	8552
929.953	8579
930.058	8492
930.163	8301
930.267	8313
930.372	8457
930.477	8298
930.581	8625
930.685	8427
930.79	8282
930.894	8328
930.998	8298
931.103	8461
931.207	8088
931.311	8008
931.415	7982
931.519	7833
931.623	7799
