Data from test_V78500241_3211.txt Node
Date: Fri Mar 25 14:56:04 CST 2022
User: usil
Spectrometer: V785-0024
Trigger mode: 0
Integration Time (sec): 4.000000E-1
Scans to average: 1
Nonlinearity correction enabled: false
Boxcar width: 0
Storing dark spectrum: false
XAxis mode: Wavelengths
Number of Pixels in Spectrum: 1024
>>>>>Begin Spectral Data<<<<<
801.071	22010
801.214	21778
801.356	21618
801.499	21500
801.641	21211
801.783	21332
801.926	21408
802.068	21473
802.211	21260
802.353	21036
802.496	21024
802.638	20918
802.78	20845
802.923	20743
803.065	20655
803.208	20701
803.35	20617
803.492	20864
803.635	20861
803.777	20716
803.919	20765
804.061	21036
804.204	20773
804.346	20712
804.488	20560
804.63	20762
804.773	20514
804.915	20640
805.057	20606
805.199	20762
805.341	20568
805.483	20705
805.626	20750
805.768	20568
805.91	20583
806.052	20469
806.194	20480
806.336	20754
806.478	20575
806.62	20663
806.762	20648
806.904	20880
807.046	20979
807.188	20975
807.33	20800
807.472	21036
807.614	20910
807.756	20796
807.898	20796
808.04	20648
808.182	20667
808.324	20693
808.465	20731
808.607	20975
808.749	20956
808.891	21020
809.033	21214
809.174	20986
809.316	20998
809.458	20921
809.6	20887
809.741	20910
809.883	21036
810.025	21096
810.166	21119
810.308	21138
810.45	21051
810.591	21020
810.733	20796
810.875	20701
811.016	20663
811.158	20625
811.299	20830
811.441	20891
811.582	20883
811.724	20727
811.865	20678
812.007	20670
812.148	20773
812.29	20792
812.431	20956
812.573	21024
812.714	21138
812.855	21230
812.997	21420
813.138	21447
813.279	21363
813.421	21203
813.562	21249
813.703	20994
813.845	20788
813.986	20552
814.127	20473
814.268	20275
814.41	20484
814.551	20271
814.692	20374
814.833	20214
814.974	20298
815.115	20339
815.256	20153
815.397	20161
815.539	20149
815.68	19970
815.821	19887
815.962	20054
816.103	19936
816.244	19833
816.385	19799
816.526	19803
816.666	19658
816.807	19346
816.948	19537
817.089	19601
817.23	19521
817.371	19441
817.512	19441
817.653	19499
817.793	19320
817.934	19396
818.075	19548
818.216	19365
818.356	19392
818.497	19225
818.638	19126
818.778	19084
818.919	19091
819.06	19198
819.2	19221
819.341	19320
819.481	19285
819.622	19464
819.762	19712
819.903	19521
820.043	19396
820.184	19354
820.324	19350
820.465	19392
820.605	19445
820.746	19468
820.886	19247
821.026	19354
821.167	19301
821.307	19270
821.447	19411
821.588	19240
821.728	19160
821.868	18981
822.008	18837
822.149	18806
822.289	18658
822.429	18486
822.569	18441
822.709	18532
822.849	18262
822.99	18338
823.13	18296
823.27	18194
823.41	18049
823.55	18076
823.69	18125
823.83	18015
823.97	18068
824.11	17885
824.25	17931
824.389	17851
824.529	17824
824.669	17805
824.809	18030
824.949	18011
825.089	17958
825.228	17866
825.368	17665
825.508	17695
825.648	17745
825.787	17710
825.927	17783
826.067	17589
826.206	17718
826.346	17775
826.485	17581
826.625	17589
826.765	17707
826.904	17623
827.044	17433
827.183	17356
827.323	17296
827.462	17455
827.601	17337
827.741	17250
827.88	17356
828.02	17216
828.159	17353
828.298	17406
828.437	17379
828.577	17379
828.716	17512
828.855	17326
828.994	17204
829.134	17079
829.273	17151
829.412	17022
829.551	17052
829.69	17064
829.829	17178
829.968	17265
830.107	17083
830.246	17162
830.385	17060
830.524	17003
830.663	16892
830.802	16843
830.941	16694
831.08	16645
831.219	16660
831.357	16672
831.496	16961
831.635	16675
831.774	16626
831.913	16550
832.051	16436
832.19	16451
832.329	16516
832.467	16390
832.606	16314
832.744	16348
832.883	16356
833.022	16303
833.16	16440
833.299	16481
833.437	16424
833.576	16478
833.714	16402
833.852	16424
833.991	16432
834.129	16527
834.267	16538
834.406	16386
834.544	16546
834.682	16497
834.821	16447
834.959	16599
835.097	16424
835.235	16577
835.373	16447
835.511	16516
835.65	16390
835.788	16409
835.926	16196
836.064	16204
836.202	16211
836.34	16375
836.478	16443
836.615	16291
836.753	16352
836.891	16436
837.029	16310
837.167	16299
837.305	16226
837.443	16322
837.58	16284
837.718	16341
837.856	16363
837.993	16131
838.131	16333
838.269	16135
838.406	16150
838.544	16124
838.681	16032
838.819	15895
838.956	15823
839.094	15789
839.231	15899
839.369	15857
839.506	16211
839.643	15960
839.781	15747
839.918	15739
840.055	15846
840.193	15846
840.33	15800
840.467	15713
840.604	15679
840.742	16128
840.879	15648
841.016	15766
841.153	15770
841.29	15926
841.427	15880
841.564	15827
841.701	15876
841.838	15785
841.975	15736
842.112	15755
842.249	15542
842.385	15538
842.522	15793
842.659	15717
842.796	15549
842.933	15496
843.069	15534
843.206	15538
843.343	15557
843.479	15599
843.616	15523
843.752	15351
843.889	15439
844.025	15538
844.162	15340
844.298	15553
844.435	15283
844.571	15180
844.708	15416
844.844	15519
844.98	15511
845.117	15454
845.253	15332
845.389	15233
845.525	15291
845.661	15176
845.798	15135
845.934	15211
846.07	15070
846.206	15241
846.342	15329
846.478	15207
846.614	14887
846.75	14895
846.886	14895
847.022	15020
847.158	14921
847.294	14910
847.429	14883
847.565	14952
847.701	15093
847.837	14708
847.972	14632
848.108	14727
848.244	14758
848.379	14480
848.515	14465
848.65	14393
848.786	14533
848.921	14564
849.057	14568
849.192	14667
849.328	14518
849.463	14560
849.598	14537
849.734	14495
849.869	14282
850.004	14355
850.14	14362
850.275	14298
850.41	14153
850.545	14191
850.68	14282
850.815	14324
850.95	14347
851.085	14469
851.22	14328
851.355	14233
851.49	14305
851.625	14237
851.76	14233
851.895	14191
852.03	14138
852.165	14282
852.299	14389
852.434	14339
852.569	14328
852.703	14237
852.838	14339
852.973	14408
853.107	14484
853.242	14278
853.376	14069
853.511	14005
853.645	14130
853.78	14263
853.914	14275
854.048	14119
854.183	14176
854.317	14252
854.451	14313
854.585	14153
854.72	14092
854.854	14286
854.988	14073
855.122	14096
855.256	13951
855.39	14199
855.524	14191
855.658	14237
855.792	14119
855.926	14271
856.06	14237
856.194	14218
856.327	14168
856.461	14088
856.595	14069
856.729	14157
856.862	14278
856.996	14221
857.13	14240
857.263	14301
857.397	14271
857.53	14149
857.664	14161
857.797	14214
857.931	14309
858.064	14183
858.197	14328
858.331	14062
858.464	14157
858.597	14039
858.731	14077
858.864	14214
858.997	14126
859.13	14225
859.263	14134
859.396	14263
859.529	14180
859.662	14039
859.795	14123
859.928	14103
860.061	14278
860.194	14366
860.327	14294
860.46	14111
860.592	14225
860.725	14263
860.858	14332
860.99	14123
861.123	14088
861.256	14100
861.388	14187
861.521	14929
861.653	14096
861.786	13978
861.918	14001
862.05	14005
862.183	14039
862.315	14134
862.447	14183
862.58	14081
862.712	13898
862.844	13879
862.976	13993
863.108	13993
863.24	14465
863.372	13871
863.504	13955
863.636	13887
863.768	14020
863.9	14008
864.032	13951
864.164	13925
864.296	14092
864.428	14050
864.559	14016
864.691	14084
864.823	14065
864.954	14043
865.086	13913
865.217	13887
865.349	13917
865.48	13925
865.612	13883
865.743	13997
865.875	13902
866.006	13963
866.137	13993
866.269	14031
866.4	13871
866.531	13890
866.662	13917
866.793	13894
866.924	13951
867.055	13970
867.186	14046
867.317	13879
867.448	13734
867.579	13890
867.71	13887
867.841	13807
867.972	13989
868.103	13970
868.233	13890
868.364	14012
868.495	13986
868.625	14176
868.756	14233
868.886	14031
869.017	14092
869.147	14244
869.278	14317
869.408	14176
869.539	14187
869.669	14240
869.799	14278
869.929	14328
870.06	14229
870.19	14579
870.32	14408
870.45	14545
870.58	14636
870.71	14689
870.84	14670
870.97	14621
871.1	14587
871.23	14727
871.36	14781
871.489	14712
871.619	14724
871.749	14883
871.879	14781
872.008	14902
872.138	14743
872.267	14796
872.397	14602
872.526	14583
872.656	14659
872.785	14613
872.915	14765
873.044	14914
873.173	14792
873.303	14804
873.432	14895
873.561	14914
873.69	14781
873.819	14910
873.948	14918
874.077	14902
874.206	14773
874.335	14792
874.464	15070
874.593	15146
874.722	15070
874.851	15275
874.979	15135
875.108	15161
875.237	15077
875.365	15047
875.494	15245
875.623	15249
875.751	15085
875.88	15249
876.008	15283
876.136	15447
876.265	15561
876.393	15720
876.521	15587
876.65	15698
876.778	15625
876.906	15462
877.034	15587
877.162	15526
877.29	15496
877.418	15530
877.546	15538
877.674	15481
877.802	15572
877.93	15591
878.058	15477
878.185	15420
878.313	15572
878.441	15652
878.568	15397
878.696	15454
878.824	15473
878.951	15667
879.079	15766
879.206	15793
879.333	15667
879.461	15679
879.588	15595
879.715	15679
879.842	15903
879.97	15709
880.097	15481
880.224	15378
880.351	15431
880.478	15477
880.605	15378
880.732	15325
880.859	15660
880.986	15435
881.112	15473
881.239	15340
881.366	15192
881.493	15195
881.619	15169
881.746	15131
881.872	15043
881.999	15001
882.125	15066
882.252	15226
882.378	15066
882.505	15195
882.631	15047
882.757	14876
882.883	14986
883.01	14952
883.136	14842
883.262	14682
883.388	14750
883.514	14925
883.64	14929
883.766	14804
883.892	14670
884.018	14670
884.143	14967
884.269	14990
884.395	14594
884.52	14530
884.646	14587
884.772	14537
884.897	14575
885.023	14587
885.148	14701
885.274	14864
885.399	14705
885.524	14598
885.65	14621
885.775	14594
885.9	14659
886.025	14720
886.15	14651
886.275	14541
886.4	14431
886.525	14533
886.65	14560
886.775	14549
886.9	14765
887.025	14861
887.149	14621
887.274	14347
887.399	14412
887.523	14400
887.648	14301
887.773	14240
887.897	14549
888.021	14454
888.146	14400
888.27	14571
888.395	14625
888.519	14389
888.643	14541
888.767	14507
888.891	14358
889.015	14218
889.139	14263
889.263	14313
889.387	14450
889.511	14412
889.635	14419
889.759	14275
889.883	14191
890.006	14305
890.13	14446
890.254	14214
890.377	14240
890.501	14043
890.624	14100
890.748	14218
890.871	14142
890.995	13826
891.118	13894
891.241	13993
891.364	14016
891.488	14096
891.611	14005
891.734	14050
891.857	14054
891.98	14058
892.103	14016
892.226	13970
892.349	14096
892.471	13826
892.594	13978
892.717	13974
892.839	13993
892.962	13959
893.085	14039
893.207	13967
893.33	13879
893.452	13970
893.575	13989
893.697	14001
893.819	14161
893.941	14176
894.064	14240
894.186	13993
894.308	13845
894.43	14115
894.552	14275
894.674	14176
894.796	14001
894.918	14088
895.04	14077
895.161	14240
895.283	14130
895.405	14046
895.526	14069
895.648	14180
895.769	14126
895.891	14134
896.012	14187
896.134	14237
896.255	14191
896.376	14183
896.498	14043
896.619	14362
896.74	14115
896.861	14294
896.982	14560
897.103	14632
897.224	14488
897.345	14427
897.466	14275
897.587	14499
897.708	14590
897.828	14495
897.949	14404
898.07	14336
898.19	14393
898.311	14686
898.431	14564
898.552	14476
898.672	14613
898.792	14545
898.913	14632
899.033	14438
899.153	14301
899.273	14275
899.393	14343
899.513	14488
899.633	14396
899.753	14457
899.873	14358
899.993	14473
900.113	14324
900.232	14511
900.352	14332
900.472	14290
900.591	14305
900.711	14278
900.83	14248
900.95	14298
901.069	14332
901.189	14191
901.308	13989
901.427	13906
901.546	13982
901.665	13932
901.784	14005
901.904	13780
902.023	13658
902.141	13590
902.26	13453
902.379	13540
902.498	13514
902.617	13521
902.735	13499
902.854	13460
902.973	13419
903.091	13175
903.21	13206
903.328	13183
903.446	13091
903.565	13000
903.683	13057
903.801	12977
903.919	12954
904.038	13095
904.156	12894
904.274	12875
904.392	12966
904.51	12806
904.627	12939
904.745	12939
904.863	13004
904.981	12654
905.098	12574
905.216	12642
905.334	12559
905.451	12589
905.569	12498
905.686	12620
905.803	12532
905.921	12323
906.038	12593
906.155	12448
906.272	12296
906.389	12342
906.506	12079
906.623	12133
906.74	12136
906.857	12019
906.974	12098
907.091	12254
907.208	12266
907.324	12197
907.441	12102
907.557	11942
907.674	11927
907.79	11790
907.907	11859
908.023	11996
908.139	11965
908.256	11863
908.372	11863
908.488	11847
908.604	11672
908.72	11699
908.836	11638
908.952	11653
909.068	11771
909.184	11714
909.3	11676
909.415	11764
909.531	11737
909.647	11562
909.762	11452
909.878	11417
909.993	11543
910.108	11474
910.224	11417
910.339	11463
910.454	11326
910.57	11254
910.685	11212
910.8	11452
910.915	11501
911.03	11345
911.145	11208
911.259	11136
911.374	11124
911.489	11094
911.604	11022
911.718	10858
911.833	10976
911.947	10790
912.062	10710
912.176	10904
912.291	10930
912.405	10892
912.519	11098
912.633	11147
912.748	10957
912.862	10968
912.976	10828
913.09	10714
913.204	10702
913.318	10793
913.431	10869
913.545	10900
913.659	10908
913.772	10854
913.886	10702
914	10615
914.113	10744
914.226	10755
914.34	10797
914.453	10569
914.566	10801
914.68	10630
914.793	10584
914.906	10497
915.019	10386
915.132	10363
915.245	10360
915.358	10478
915.47	10459
915.583	10462
915.696	10561
915.809	10588
915.921	10550
916.034	10379
916.146	10318
916.259	10432
916.371	10409
916.483	10413
916.595	10299
916.708	10318
916.82	10360
916.932	10306
917.044	10268
917.156	10325
917.268	10295
917.38	10280
917.491	10192
917.603	10253
917.715	10322
917.826	10295
917.938	10261
918.049	10071
918.161	10257
918.272	10398
918.384	10413
918.495	10280
918.606	10211
918.717	10116
918.828	10143
918.939	10200
919.05	10013
919.161	10147
919.272	9903
919.383	10063
919.494	10188
919.604	10318
919.715	10200
919.826	10025
919.936	10131
920.047	10242
920.157	10257
920.267	10394
920.378	10158
920.488	10169
920.598	10318
920.708	10474
920.818	10360
920.928	10314
921.038	10516
921.148	10424
921.258	10173
921.368	10063
921.477	9991
921.587	9956
921.697	9888
921.806	10025
921.916	9953
922.025	9690
922.134	9660
922.244	9660
922.353	9675
922.462	9603
922.571	9561
922.68	9416
922.789	9363
922.898	9420
923.007	9348
923.116	9443
923.224	9397
923.333	9420
923.442	9245
923.55	9237
923.659	9359
923.767	9351
923.876	9211
923.984	9332
924.092	9249
924.201	9253
924.309	9268
924.417	9325
924.525	9184
924.633	9222
924.741	10234
924.849	9039
924.956	9268
925.064	9123
925.172	8971
925.279	9005
925.387	9093
925.494	9089
925.602	9230
925.709	9157
925.816	8986
925.924	9085
926.031	9230
926.138	9100
926.245	9077
926.352	9058
926.459	9093
926.566	9192
926.673	8982
926.779	8979
926.886	8880
926.993	8826
927.099	8769
927.206	8750
927.312	8701
927.419	8811
927.525	8800
927.631	8823
927.737	8720
927.843	8632
927.95	8568
928.056	8670
928.162	8659
928.267	8758
928.373	9253
928.479	8804
928.585	8541
928.69	8674
928.796	8758
928.901	8583
929.007	8377
929.112	8625
929.218	8549
929.323	8514
929.428	8446
929.533	8636
929.638	8495
929.743	8507
929.848	8629
929.953	8465
930.058	8385
930.163	8210
930.267	8317
930.372	8492
930.477	8218
930.581	8492
930.685	8313
930.79	8138
930.894	8195
930.998	8153
931.103	8309
931.207	8046
931.311	7993
931.415	7890
931.519	7696
931.623	7750
