Data from test_V78500241_2355.txt Node
Date: Fri Mar 25 14:50:07 CST 2022
User: usil
Spectrometer: V785-0024
Trigger mode: 0
Integration Time (sec): 4.000000E-1
Scans to average: 1
Nonlinearity correction enabled: false
Boxcar width: 0
Storing dark spectrum: false
XAxis mode: Wavelengths
Number of Pixels in Spectrum: 1024
>>>>>Begin Spectral Data<<<<<
801.071	22120
801.214	21956
801.356	21781
801.499	21743
801.641	21534
801.783	21477
801.926	21553
802.068	21428
802.211	21355
802.353	21325
802.496	21036
802.638	20971
802.78	21051
802.923	20857
803.065	20769
803.208	20876
803.35	20769
803.492	20990
803.635	20979
803.777	20845
803.919	21062
804.061	21222
804.204	21009
804.346	20785
804.488	20682
804.63	20891
804.773	20781
804.915	20781
805.057	20804
805.199	20785
805.341	20823
805.483	20868
805.626	20689
805.768	20796
805.91	20720
806.052	20731
806.194	20568
806.336	20864
806.478	20739
806.62	20712
806.762	20845
806.904	20963
807.046	21214
807.188	21131
807.33	21066
807.472	21157
807.614	21020
807.756	21081
807.898	20899
808.04	20743
808.182	20849
808.324	20800
808.465	20971
808.607	20960
808.749	21100
808.891	21408
809.033	21306
809.174	21264
809.316	21112
809.458	21279
809.6	21005
809.741	21161
809.883	21119
810.025	21283
810.166	21302
810.308	21397
810.45	21306
810.591	21252
810.733	21032
810.875	20929
811.016	20857
811.158	20815
811.299	20937
811.441	21116
811.582	20979
811.724	20929
811.865	20982
812.007	20861
812.148	20910
812.29	20963
812.431	21112
812.573	21218
812.714	21287
812.855	21386
812.997	21481
813.138	21580
813.279	21542
813.421	21416
813.562	21405
813.703	21252
813.845	21150
813.986	20819
814.127	20613
814.268	20533
814.41	20492
814.551	20469
814.692	20469
814.833	20275
814.974	20492
815.115	20423
815.256	20385
815.397	20282
815.539	20294
815.68	20229
815.821	20039
815.962	20145
816.103	20142
816.244	20031
816.385	20031
816.526	19906
816.666	19757
816.807	19567
816.948	19807
817.089	19757
817.23	19616
817.371	19582
817.512	19559
817.653	19544
817.793	19483
817.934	19521
818.075	19548
818.216	19628
818.356	19548
818.497	19419
818.638	19183
818.778	19228
818.919	19301
819.06	19324
819.2	19422
819.341	19411
819.481	19506
819.622	19620
819.762	19814
819.903	19807
820.043	19689
820.184	19548
820.324	19567
820.465	19620
820.605	19559
820.746	19525
820.886	19529
821.026	19582
821.167	19495
821.307	19628
821.447	19483
821.588	19217
821.728	19259
821.868	19084
822.008	19031
822.149	19034
822.289	18844
822.429	18768
822.569	18745
822.709	18574
822.849	18582
822.99	18490
823.13	18517
823.27	18513
823.41	18194
823.55	18186
823.69	18445
823.83	18266
823.97	18190
824.11	18049
824.25	18034
824.389	17996
824.529	18152
824.669	17935
824.809	18133
824.949	18083
825.089	18091
825.228	17984
825.368	17889
825.508	17729
825.648	17851
825.787	17809
825.927	17942
826.067	17824
826.206	17798
826.346	17798
826.485	17870
826.625	17840
826.765	17859
826.904	17878
827.044	17600
827.183	17554
827.323	17532
827.462	17516
827.601	17490
827.741	17490
827.88	17676
828.02	17356
828.159	17566
828.298	17535
828.437	17562
828.577	17395
828.716	17623
828.855	17516
828.994	17265
829.134	17334
829.273	17303
829.412	17086
829.551	17181
829.69	17250
829.829	17318
829.968	17334
830.107	17246
830.246	17269
830.385	17143
830.524	17162
830.663	17052
830.802	16953
830.941	16767
831.08	16850
831.219	16930
831.357	17041
831.496	17113
831.635	16877
831.774	16778
831.913	16782
832.051	16668
832.19	16702
832.329	16679
832.467	16550
832.606	16485
832.744	16466
832.883	16497
833.022	16523
833.16	16519
833.299	16516
833.437	16615
833.576	16531
833.714	16561
833.852	16656
833.991	16554
834.129	16706
834.267	16698
834.406	16622
834.544	16618
834.682	16607
834.821	16516
834.959	16755
835.097	16546
835.235	16725
835.373	16729
835.511	16550
835.65	16493
835.788	16519
835.926	16348
836.064	16360
836.202	16432
836.34	16523
836.478	16565
836.615	16489
836.753	16523
836.891	16634
837.029	16455
837.167	16440
837.305	16409
837.443	16367
837.58	16325
837.718	16402
837.856	16379
837.993	16356
838.131	16348
838.269	16287
838.406	16333
838.544	16238
838.681	16128
838.819	16074
838.956	15949
839.094	15922
839.231	15972
839.369	16051
839.506	16291
839.643	16154
839.781	15835
839.918	15865
840.055	15960
840.193	15884
840.33	15903
840.467	16002
840.604	15941
840.742	16204
840.879	15903
841.016	15918
841.153	15831
841.29	15994
841.427	15804
841.564	15960
841.701	15945
841.838	15956
841.975	15823
842.112	15751
842.249	15732
842.385	15682
842.522	15857
842.659	15713
842.796	15622
842.933	15610
843.069	15606
843.206	15625
843.343	15713
843.479	15732
843.616	15739
843.752	15431
843.889	15561
844.025	15580
844.162	15393
844.298	15679
844.435	15397
844.571	15435
844.708	15507
844.844	15557
844.98	15587
845.117	15663
845.253	15408
845.389	15439
845.525	15424
845.661	15313
845.798	15287
845.934	15363
846.07	15203
846.206	15332
846.342	15340
846.478	15268
846.614	15146
846.75	15032
846.886	15081
847.022	15123
847.158	14960
847.294	15066
847.429	15047
847.565	15104
847.701	15218
847.837	14868
847.972	14815
848.108	14765
848.244	14887
848.379	14655
848.515	14651
848.65	14629
848.786	14594
848.921	14594
849.057	14895
849.192	14712
849.328	14693
849.463	14568
849.598	14571
849.734	14545
849.869	14434
850.004	14324
850.14	14415
850.275	14389
850.41	14358
850.545	14351
850.68	14358
850.815	14396
850.95	14450
851.085	14461
851.22	14537
851.355	14469
851.49	14320
851.625	14343
851.76	14278
851.895	14278
852.03	14290
852.165	14233
852.299	14484
852.434	14358
852.569	14377
852.703	14381
852.838	14457
852.973	14484
853.107	14461
853.242	14374
853.376	14286
853.511	14145
853.645	14320
853.78	14370
853.914	14267
854.048	14214
854.183	14214
854.317	14240
854.451	14343
854.585	14362
854.72	14229
854.854	14351
854.988	14161
855.122	14301
855.256	14111
855.39	14278
855.524	14301
855.658	14233
855.792	14339
855.926	14259
856.06	14317
856.194	14320
856.327	14248
856.461	14187
856.595	14248
856.729	14263
856.862	14370
856.996	14282
857.13	14377
857.263	14358
857.397	14495
857.53	14309
857.664	14351
857.797	14282
857.931	14404
858.064	14320
858.197	14389
858.331	14282
858.464	14328
858.597	14142
858.731	14225
858.864	14237
858.997	14191
859.13	14332
859.263	14320
859.396	14324
859.529	14244
859.662	14237
859.795	14278
859.928	14374
860.061	14343
860.194	14381
860.327	14309
860.46	14313
860.592	14351
860.725	14469
860.858	14442
860.99	14229
861.123	14229
861.256	14202
861.388	14324
861.521	14731
861.653	14130
861.786	14039
861.918	14103
862.05	14202
862.183	14237
862.315	14248
862.447	14267
862.58	14343
862.712	14039
862.844	13951
862.976	14103
863.108	14161
863.24	14370
863.372	13883
863.504	14062
863.636	14084
863.768	14100
863.9	14100
864.032	14062
864.164	13883
864.296	14126
864.428	14088
864.559	14142
864.691	14157
864.823	14206
864.954	14058
865.086	14115
865.217	14012
865.349	14043
865.48	14020
865.612	14046
865.743	14149
865.875	14069
866.006	14024
866.137	13978
866.269	14001
866.4	14054
866.531	13959
866.662	14073
866.793	13902
866.924	13963
867.055	14020
867.186	13970
867.317	13951
867.448	13936
867.579	13909
867.71	13875
867.841	13871
867.972	14073
868.103	14050
868.233	14077
868.364	14012
868.495	14153
868.625	14252
868.756	14339
868.886	14187
869.017	14210
869.147	14324
869.278	14343
869.408	14320
869.539	14218
869.669	14362
869.799	14233
869.929	14377
870.06	14377
870.19	14701
870.32	14473
870.45	14651
870.58	14727
870.71	14686
870.84	14781
870.97	14640
871.1	14583
871.23	14758
871.36	14902
871.489	14849
871.619	14857
871.749	14902
871.879	14849
872.008	14998
872.138	14956
872.267	14830
872.397	14697
872.526	14727
872.656	14674
872.785	14727
872.915	14861
873.044	14986
873.173	14891
873.303	14910
873.432	15005
873.561	15017
873.69	14921
873.819	14864
873.948	15055
874.077	15055
874.206	14933
874.335	15051
874.464	14998
874.593	15119
874.722	15264
874.851	15268
874.979	15302
875.108	15241
875.237	15195
875.365	15085
875.494	15222
875.623	15340
875.751	15173
875.88	15241
876.008	15412
876.136	15454
876.265	15637
876.393	15717
876.521	15732
876.65	15736
876.778	15641
876.906	15698
877.034	15599
877.162	15701
877.29	15641
877.418	15561
877.546	15663
877.674	15595
877.802	15667
877.93	15622
878.058	15770
878.185	15526
878.313	15595
878.441	15736
878.568	15526
878.696	15641
878.824	15701
878.951	15762
879.079	15873
879.206	15998
879.333	15762
879.461	15732
879.588	15778
879.715	15835
879.842	15979
879.97	15762
880.097	15519
880.224	15408
880.351	15652
880.478	15519
880.605	15504
880.732	15469
880.859	15793
880.986	15534
881.112	15393
881.239	15348
881.366	15241
881.493	15192
881.619	15135
881.746	15165
881.872	15058
881.999	15074
882.125	15116
882.252	15157
882.378	15252
882.505	15306
882.631	15123
882.757	15047
882.883	15017
883.01	15058
883.136	14925
883.262	14876
883.388	14834
883.514	14944
883.64	14971
883.766	14899
883.892	14720
884.018	14868
884.143	14967
884.269	15058
884.395	14788
884.52	14727
884.646	14682
884.772	14575
884.897	14648
885.023	14613
885.148	14826
885.274	14773
885.399	14708
885.524	14674
885.65	14594
885.775	14693
885.9	14750
886.025	14895
886.15	14724
886.275	14625
886.4	14541
886.525	14552
886.65	14602
886.775	14560
886.9	14682
887.025	14868
887.149	14640
887.274	14541
887.399	14400
887.523	14434
887.648	14389
887.773	14396
887.897	14579
888.021	14571
888.146	14396
888.27	14613
888.395	14564
888.519	14522
888.643	14514
888.767	14503
888.891	14427
889.015	14396
889.139	14412
889.263	14454
889.387	14549
889.511	14568
889.635	14568
889.759	14343
889.883	14423
890.006	14473
890.13	14473
890.254	14309
890.377	14377
890.501	14309
890.624	14168
890.748	14332
890.871	14111
890.995	14062
891.118	14012
891.241	14149
891.364	14100
891.488	14126
891.611	14081
891.734	14065
891.857	14088
891.98	14050
892.103	14221
892.226	14187
892.349	14073
892.471	14001
892.594	14035
892.717	14073
892.839	14134
892.962	14096
893.085	14168
893.207	14176
893.33	13974
893.452	13986
893.575	14134
893.697	14001
893.819	14332
893.941	14309
894.064	14252
894.186	14107
894.308	14020
894.43	14298
894.552	14301
894.674	14282
894.796	14103
894.918	14065
895.04	14164
895.161	14332
895.283	14298
895.405	14168
895.526	14195
895.648	14263
895.769	14347
895.891	14221
896.012	14278
896.134	14389
896.255	14328
896.376	14229
896.498	14252
896.619	14415
896.74	14275
896.861	14431
896.982	14689
897.103	14674
897.224	14651
897.345	14533
897.466	14473
897.587	14530
897.708	14720
897.828	14598
897.949	14575
898.07	14415
898.19	14503
898.311	14746
898.431	14579
898.552	14594
898.672	14663
898.792	14598
898.913	14739
899.033	14541
899.153	14560
899.273	14400
899.393	14495
899.513	14465
899.633	14530
899.753	14590
899.873	14484
899.993	14461
900.113	14400
900.232	14488
900.352	14469
900.472	14381
900.591	14339
900.711	14385
900.83	14347
900.95	14594
901.069	14552
901.189	14317
901.308	14187
901.427	14024
901.546	14084
901.665	14031
901.784	14157
901.904	13970
902.023	13852
902.141	13677
902.26	13700
902.379	13719
902.498	13651
902.617	13499
902.735	13613
902.854	13632
902.973	13575
903.091	13392
903.21	13251
903.328	13266
903.446	13327
903.565	13228
903.683	13209
903.801	13118
903.919	13183
904.038	13198
904.156	13046
904.274	13065
904.392	13015
904.51	12970
904.627	12973
904.745	13114
904.863	13065
904.981	12886
905.098	12681
905.216	12646
905.334	12734
905.451	12703
905.569	12658
905.686	12658
905.803	12711
905.921	12479
906.038	12563
906.155	12475
906.272	12407
906.389	12391
906.506	12190
906.623	12220
906.74	12178
906.857	12152
906.974	12144
907.091	12327
907.208	12475
907.324	12216
907.441	12243
907.557	12038
907.674	12072
907.79	11908
907.907	11999
908.023	12079
908.139	11996
908.256	11916
908.372	11847
908.488	11882
908.604	11851
908.72	11764
908.836	11745
908.952	11813
909.068	11790
909.184	11931
909.3	11699
909.415	11809
909.531	11912
909.647	11547
909.762	11604
909.878	11589
909.993	11501
910.108	11478
910.224	11505
910.339	11589
910.454	11528
910.57	11395
910.685	11395
910.8	11695
910.915	11509
911.03	11414
911.145	11239
911.259	11250
911.374	11269
911.489	11185
911.604	11151
911.718	10919
911.833	11025
911.947	10892
912.062	10805
912.176	10972
912.291	11014
912.405	11006
912.519	11136
912.633	11204
912.748	11128
912.862	11086
912.976	10824
913.09	10812
913.204	10843
913.318	10847
913.431	10965
913.545	10957
913.659	10999
913.772	10889
913.886	10721
914	10702
914.113	10824
914.226	10984
914.34	10869
914.453	10672
914.566	10873
914.68	10710
914.793	10683
914.906	10546
915.019	10447
915.132	10428
915.245	10531
915.358	10428
915.47	10535
915.583	10523
915.696	10535
915.809	10634
915.921	10588
916.034	10493
916.146	10508
916.259	10459
916.371	10538
916.483	10443
916.595	10451
916.708	10504
916.82	10451
916.932	10440
917.044	10421
917.156	10436
917.268	10272
917.38	10318
917.491	10478
917.603	10356
917.715	10417
917.826	10512
917.938	10341
918.049	10230
918.161	10329
918.272	10447
918.384	10474
918.495	10337
918.606	10162
918.717	10177
918.828	10253
918.939	10215
919.05	10044
919.161	10177
919.272	10101
919.383	10082
919.494	10287
919.604	10382
919.715	10246
919.826	10227
919.936	10215
920.047	10306
920.157	10200
920.267	10474
920.378	10223
920.488	10154
920.598	10421
920.708	10523
920.818	10413
920.928	10405
921.038	10622
921.148	10622
921.258	10207
921.368	10086
921.477	10116
921.587	10044
921.697	9987
921.806	10116
921.916	9983
922.025	9880
922.134	9778
922.244	9816
922.353	9800
922.462	9740
922.571	9595
922.68	9538
922.789	9530
922.898	9454
923.007	9424
923.116	9473
923.224	9542
923.333	9439
923.442	9298
923.55	9340
923.659	9363
923.767	9466
923.876	9310
923.984	9397
924.092	9291
924.201	9298
924.309	9355
924.417	9340
924.525	9272
924.633	9298
924.741	10128
924.849	9074
924.956	9222
925.064	9055
925.172	9017
925.279	9119
925.387	9161
925.494	9112
925.602	9294
925.709	9203
925.816	9176
925.924	9104
926.031	9214
926.138	9062
926.245	9154
926.352	9009
926.459	9237
926.566	9135
926.673	9108
926.779	8975
926.886	9081
926.993	8902
927.099	8804
927.206	8834
927.312	8769
927.419	8975
927.525	8880
927.631	8883
927.737	8792
927.843	8750
927.95	8686
928.056	8727
928.162	8766
928.267	8899
928.373	9374
928.479	8819
928.585	8587
928.69	8769
928.796	8823
928.901	8693
929.007	8511
929.112	8651
929.218	8594
929.323	8617
929.428	8640
929.533	8705
929.638	8526
929.743	8579
929.848	8606
929.953	8568
930.058	8431
930.163	8298
930.267	8332
930.372	8492
930.477	8256
930.581	8549
930.685	8461
930.79	8256
930.894	8358
930.998	8252
931.103	8377
931.207	8039
931.311	8058
931.415	7974
931.519	7769
931.623	7799
