Data from test_V78500241_1459.txt Node
Date: Fri Mar 25 14:43:52 CST 2022
User: usil
Spectrometer: V785-0024
Trigger mode: 0
Integration Time (sec): 4.000000E-1
Scans to average: 1
Nonlinearity correction enabled: false
Boxcar width: 0
Storing dark spectrum: false
XAxis mode: Wavelengths
Number of Pixels in Spectrum: 1024
>>>>>Begin Spectral Data<<<<<
801.071	22261
801.214	22226
801.356	22044
801.499	21983
801.641	21705
801.783	21759
801.926	21759
802.068	21717
802.211	21686
802.353	21488
802.496	21363
802.638	21294
802.78	21268
802.923	21112
803.065	20975
803.208	20990
803.35	21077
803.492	21279
803.635	21302
803.777	21131
803.919	21180
804.061	21485
804.204	21256
804.346	20975
804.488	20937
804.63	21039
804.773	21055
804.915	21039
805.057	21150
805.199	21051
805.341	21112
805.483	21188
805.626	21169
805.768	20971
805.91	21108
806.052	21047
806.194	21089
806.336	21226
806.478	21036
806.62	20986
806.762	21146
806.904	21214
807.046	21447
807.188	21462
807.33	21401
807.472	21397
807.614	21241
807.756	21420
807.898	21260
808.04	21100
808.182	21317
808.324	21374
808.465	21256
808.607	21511
808.749	21709
808.891	21819
809.033	21781
809.174	21656
809.316	21606
809.458	21591
809.6	21557
809.741	21610
809.883	21515
810.025	21663
810.166	21629
810.308	21690
810.45	21679
810.591	21530
810.733	21424
810.875	21340
811.016	21157
811.158	21184
811.299	21336
811.441	21294
811.582	21397
811.724	21249
811.865	21207
812.007	21199
812.148	21192
812.29	21332
812.431	21344
812.573	21511
812.714	21644
812.855	21705
812.997	21922
813.138	22002
813.279	21797
813.421	21660
813.562	21713
813.703	21469
813.845	21462
813.986	21070
814.127	20979
814.268	20830
814.41	20857
814.551	20720
814.692	20895
814.833	20777
814.974	20743
815.115	20705
815.256	20583
815.397	20632
815.539	20602
815.68	20583
815.821	20389
815.962	20473
816.103	20484
816.244	20256
816.385	20248
816.526	20210
816.666	20100
816.807	19974
816.948	19970
817.089	20119
817.23	19875
817.371	19868
817.512	19864
817.653	19822
817.793	19921
817.934	19955
818.075	19879
818.216	19837
818.356	19856
818.497	19700
818.638	19567
818.778	19529
818.919	19685
819.06	19620
819.2	19814
819.341	19868
819.481	19887
819.622	19856
819.762	20199
819.903	20077
820.043	20035
820.184	19963
820.324	19909
820.465	19982
820.605	19887
820.746	19845
820.886	19784
821.026	19871
821.167	19830
821.307	19898
821.447	19852
821.588	19776
821.728	19529
821.868	19434
822.008	19168
822.149	19198
822.289	19228
822.429	19031
822.569	18943
822.709	18935
822.849	18856
822.99	18719
823.13	18776
823.27	18753
823.41	18658
823.55	18483
823.69	18616
823.83	18593
823.97	18479
824.11	18353
824.25	18391
824.389	18361
824.529	18407
824.669	18262
824.809	18441
824.949	18464
825.089	18490
825.228	18353
825.368	18251
825.508	18125
825.648	18239
825.787	18182
825.927	18182
826.067	18041
826.206	18174
826.346	18277
826.485	18144
826.625	18121
826.765	18232
826.904	18133
827.044	17931
827.183	17882
827.323	17756
827.462	17904
827.601	17809
827.741	17752
827.88	17805
828.02	17642
828.159	17707
828.298	17950
828.437	17889
828.577	17851
828.716	18003
828.855	17824
828.994	17600
829.134	17661
829.273	17543
829.412	17581
829.551	17520
829.69	17482
829.829	17611
829.968	17642
830.107	17676
830.246	17630
830.385	17505
830.524	17486
830.663	17474
830.802	17299
830.941	17231
831.08	17189
831.219	17159
831.357	17227
831.496	17490
831.635	17189
831.774	17136
831.913	17124
832.051	17090
832.19	17041
832.329	17003
832.467	16885
832.606	16828
832.744	16820
832.883	16812
833.022	16869
833.16	16923
833.299	16919
833.437	16927
833.576	16930
833.714	16828
833.852	16965
833.991	17006
834.129	17025
834.267	17014
834.406	16854
834.544	17010
834.682	16953
834.821	16828
834.959	17018
835.097	16862
835.235	16980
835.373	17006
835.511	16991
835.65	16873
835.788	16824
835.926	16698
836.064	16694
836.202	16694
836.34	16866
836.478	16892
836.615	16767
836.753	16866
836.891	16896
837.029	16828
837.167	16824
837.305	16721
837.443	16793
837.58	16584
837.718	16733
837.856	16672
837.993	16531
838.131	16736
838.269	16577
838.406	16588
838.544	16569
838.681	16379
838.819	16421
838.956	16181
839.094	16230
839.231	16371
839.369	16436
839.506	16607
839.643	16546
839.781	16226
839.918	16078
840.055	16196
840.193	16265
840.33	16169
840.467	16211
840.604	16268
840.742	16546
840.879	16078
841.016	16109
841.153	16177
841.29	16367
841.427	16204
841.564	16215
841.701	16188
841.838	16196
841.975	16135
842.112	16120
842.249	16086
842.385	15945
842.522	16223
842.659	16078
842.796	15987
842.933	15983
843.069	16006
843.206	15922
843.343	16143
843.479	16021
843.616	15911
843.752	15713
843.889	15728
844.025	15960
844.162	15747
844.298	15838
844.435	15785
844.571	15751
844.708	15876
844.844	15994
844.98	15968
845.117	15880
845.253	15652
845.389	15739
845.525	15812
845.661	15888
845.798	15720
845.934	15899
846.07	15831
846.206	15937
846.342	15945
846.478	15705
846.614	15492
846.75	15450
846.886	15367
847.022	15382
847.158	15382
847.294	15382
847.429	15462
847.565	15405
847.701	15599
847.837	15131
847.972	15150
848.108	15169
848.244	15211
848.379	14998
848.515	14948
848.65	14883
848.786	14937
848.921	15039
849.057	15097
849.192	15089
849.328	14967
849.463	14956
849.598	14979
849.734	14804
849.869	14838
850.004	14807
850.14	14826
850.275	14754
850.41	14644
850.545	14590
850.68	14758
850.815	14765
850.95	14800
851.085	14910
851.22	14895
851.355	14796
851.49	14735
851.625	14716
851.76	14739
851.895	14663
852.03	14667
852.165	14655
852.299	14792
852.434	14796
852.569	14716
852.703	14724
852.838	14796
852.973	14960
853.107	14834
853.242	14746
853.376	14602
853.511	14541
853.645	14632
853.78	14758
853.914	14625
854.048	14640
854.183	14636
854.317	14648
854.451	14845
854.585	14629
854.72	14530
854.854	14674
854.988	14617
855.122	14640
855.256	14575
855.39	14587
855.524	14674
855.658	14659
855.792	14583
855.926	14697
856.06	14708
856.194	14758
856.327	14629
856.461	14560
856.595	14587
856.729	14568
856.862	14670
856.996	14625
857.13	14724
857.263	14693
857.397	14674
857.53	14716
857.664	14629
857.797	14773
857.931	14769
858.064	14765
858.197	14746
858.331	14629
858.464	14564
858.597	14621
858.731	14541
858.864	14651
858.997	14579
859.13	14606
859.263	14617
859.396	14693
859.529	14583
859.662	14552
859.795	14511
859.928	14678
860.061	14640
860.194	14724
860.327	14697
860.46	14571
860.592	14625
860.725	14689
860.858	14686
860.99	14552
861.123	14686
861.256	14446
861.388	14640
861.521	15351
861.653	14552
861.786	14427
861.918	14415
862.05	14556
862.183	14686
862.315	14480
862.447	14686
862.58	14632
862.712	14381
862.844	14298
862.976	14503
863.108	14503
863.24	14785
863.372	14278
863.504	14434
863.636	14412
863.768	14450
863.9	14400
864.032	14377
864.164	14282
864.296	14511
864.428	14476
864.559	14488
864.691	14370
864.823	14305
864.954	14362
865.086	14526
865.217	14332
865.349	14374
865.48	14438
865.612	14404
865.743	14499
865.875	14393
866.006	14370
866.137	14385
866.269	14377
866.4	14412
866.531	14294
866.662	14202
866.793	14317
866.924	14286
867.055	14442
867.186	14351
867.317	14278
867.448	14172
867.579	14252
867.71	14240
867.841	14305
867.972	14328
868.103	14336
868.233	14320
868.364	14351
868.495	14423
868.625	14552
868.756	14758
868.886	14465
869.017	14480
869.147	14659
869.278	14720
869.408	14697
869.539	14640
869.669	14739
869.799	14712
869.929	14739
870.06	14731
870.19	14914
870.32	14929
870.45	14963
870.58	15024
870.71	15142
870.84	15066
870.97	15077
871.1	14994
871.23	15230
871.36	15165
871.489	15218
871.619	15188
871.749	15252
871.879	15287
872.008	15294
872.138	15218
872.267	15317
872.397	15032
872.526	15112
872.656	15001
872.785	15051
872.915	15283
873.044	15298
873.173	15218
873.303	15313
873.432	15389
873.561	15283
873.69	15325
873.819	15203
873.948	15256
874.077	15348
874.206	15332
874.335	15294
874.464	15348
874.593	15549
874.722	15492
874.851	15549
874.979	15557
875.108	15538
875.237	15591
875.365	15488
875.494	15580
875.623	15644
875.751	15576
875.88	15690
876.008	15732
876.136	15762
876.265	15956
876.393	16128
876.521	15972
876.65	16082
876.778	16044
876.906	16055
877.034	15956
877.162	16032
877.29	15857
877.418	15945
877.546	15998
877.674	15972
877.802	16025
877.93	16078
878.058	15926
878.185	15884
878.313	16006
878.441	16021
878.568	15850
878.696	15979
878.824	16006
878.951	16109
879.079	16310
879.206	16360
879.333	16249
879.461	16131
879.588	16204
879.715	16211
879.842	16402
879.97	16166
880.097	16002
880.224	15884
880.351	15907
880.478	15907
880.605	15804
880.732	15827
880.859	16181
880.986	15873
881.112	15804
881.239	15747
881.366	15549
881.493	15507
881.619	15572
881.746	15466
881.872	15576
881.999	15519
882.125	15500
882.252	15542
882.378	15648
882.505	15633
882.631	15538
882.757	15431
882.883	15447
883.01	15313
883.136	15279
883.262	15207
883.388	15264
883.514	15389
883.64	15397
883.766	15245
883.892	15211
884.018	15233
884.143	15302
884.269	15428
884.395	15138
884.52	15032
884.646	15112
884.772	15043
884.897	14956
885.023	15005
885.148	15036
885.274	15203
885.399	15047
885.524	15119
885.65	15077
885.775	15116
885.9	14986
886.025	15116
886.15	15104
886.275	15058
886.4	14853
886.525	15009
886.65	14933
886.775	14982
886.9	15222
887.025	15355
887.149	14971
887.274	14944
887.399	14746
887.523	14834
887.648	14864
887.773	14777
887.897	14971
888.021	14883
888.146	14876
888.27	14948
888.395	14960
888.519	14906
888.643	14887
888.767	14914
888.891	14765
889.015	14606
889.139	14731
889.263	14629
889.387	14781
889.511	14944
889.635	14697
889.759	14705
889.883	14735
890.006	14667
890.13	14754
890.254	14610
890.377	14663
890.501	14469
890.624	14438
890.748	14552
890.871	14454
890.995	14332
891.118	14370
891.241	14442
891.364	14438
891.488	14427
891.611	14351
891.734	14488
891.857	14507
891.98	14484
892.103	14484
892.226	14438
892.349	14358
892.471	14206
892.594	14400
892.717	14442
892.839	14267
892.962	14396
893.085	14480
893.207	14492
893.33	14199
893.452	14301
893.575	14427
893.697	14347
893.819	14602
893.941	14640
894.064	14590
894.186	14275
894.308	14317
894.43	14492
894.552	14499
894.674	14579
894.796	14370
894.918	14393
895.04	14381
895.161	14522
895.283	14503
895.405	14431
895.526	14454
895.648	14412
895.769	14568
895.891	14511
896.012	14526
896.134	14594
896.255	14545
896.376	14484
896.498	14511
896.619	14579
896.74	14625
896.861	14610
896.982	14868
897.103	15024
897.224	14804
897.345	14777
897.466	14712
897.587	14849
897.708	14929
897.828	14762
897.949	14800
898.07	14693
898.19	14785
898.311	14967
898.431	14906
898.552	14906
898.672	14933
898.792	14948
898.913	14937
899.033	14853
899.153	14727
899.273	14655
899.393	14712
899.513	14750
899.633	14777
899.753	14758
899.873	14659
899.993	14823
900.113	14811
900.232	14823
900.352	14724
900.472	14651
900.591	14583
900.711	14708
900.83	14530
900.95	14804
901.069	14632
901.189	14549
901.308	14320
901.427	14229
901.546	14286
901.665	14400
901.784	14290
901.904	14115
902.023	14054
902.141	13818
902.26	13807
902.379	13955
902.498	13818
902.617	13803
902.735	13772
902.854	13883
902.973	13746
903.091	13578
903.21	13502
903.328	13609
903.446	13453
903.565	13460
903.683	13430
903.801	13441
903.919	13403
904.038	13430
904.156	13198
904.274	13346
904.392	13240
904.51	13175
904.627	13088
904.745	13274
904.863	13282
904.981	12985
905.098	12897
905.216	12924
905.334	12989
905.451	12924
905.569	12905
905.686	12939
905.803	13004
905.921	12764
906.038	12810
906.155	12791
906.272	12631
906.389	12578
906.506	12502
906.623	12490
906.74	12467
906.857	12365
906.974	12403
907.091	12551
907.208	12623
907.324	12597
907.441	12407
907.557	12311
907.674	12270
907.79	12167
907.907	12186
908.023	12205
908.139	12262
908.256	12228
908.372	12190
908.488	12152
908.604	12007
908.72	11961
908.836	11992
908.952	11965
909.068	11992
909.184	12110
909.3	11999
909.415	12022
909.531	12026
909.647	11718
909.762	11695
909.878	11737
909.993	11729
910.108	11718
910.224	11726
910.339	11775
910.454	11668
910.57	11630
910.685	11562
910.8	11885
910.915	11668
911.03	11638
911.145	11486
911.259	11448
911.374	11471
911.489	11353
911.604	11368
911.718	11246
911.833	11220
911.947	11140
912.062	11113
912.176	11185
912.291	11223
912.405	11181
912.519	11364
912.633	11360
912.748	11311
912.862	11269
912.976	10961
913.09	10980
913.204	10999
913.318	11056
913.431	11189
913.545	11113
913.659	11174
913.772	11075
913.886	10999
914	10976
914.113	11109
914.226	11056
914.34	11022
914.453	10892
914.566	10980
914.68	10877
914.793	10953
914.906	10801
915.019	10660
915.132	10607
915.245	10736
915.358	10725
915.47	10767
915.583	10645
915.696	10687
915.809	10816
915.921	10839
916.034	10683
916.146	10573
916.259	10626
916.371	10763
916.483	10744
916.595	10596
916.708	10626
916.82	10664
916.932	10630
917.044	10622
917.156	10672
917.268	10500
917.38	10550
917.491	10432
917.603	10519
917.715	10573
917.826	10679
917.938	10360
918.049	10402
918.161	10569
918.272	10664
918.384	10687
918.495	10558
918.606	10390
918.717	10405
918.828	10417
918.939	10493
919.05	10367
919.161	10421
919.272	10287
919.383	10329
919.494	10565
919.604	10645
919.715	10462
919.826	10356
919.936	10363
920.047	10470
920.157	10512
920.267	10596
920.378	10519
920.488	10382
920.598	10577
920.708	10828
920.818	10630
920.928	10637
921.038	10790
921.148	10752
921.258	10485
921.368	10421
921.477	10295
921.587	10272
921.697	10234
921.806	10341
921.916	10188
922.025	9987
922.134	10017
922.244	9895
922.353	9960
922.462	9812
922.571	9819
922.68	9728
922.789	9648
922.898	9713
923.007	9660
923.116	9755
923.224	9671
923.333	9701
923.442	9534
923.55	9507
923.659	9606
923.767	9679
923.876	9587
923.984	9606
924.092	9477
924.201	9526
924.309	9561
924.417	9568
924.525	9420
924.633	9519
924.741	10428
924.849	9336
924.956	9500
925.064	9348
925.172	9256
925.279	9321
925.387	9401
925.494	9336
925.602	9431
925.709	9447
925.816	9207
925.924	9431
926.031	9428
926.138	9344
926.245	9431
926.352	9233
926.459	9439
926.566	9431
926.673	9329
926.779	9188
926.886	9169
926.993	9112
927.099	9005
927.206	8929
927.312	8975
927.419	9028
927.525	9100
927.631	9093
927.737	8971
927.843	8979
927.95	8777
928.056	8861
928.162	8929
928.267	8975
928.373	9519
928.479	9081
928.585	8788
928.69	8906
928.796	8944
928.901	8853
929.007	8739
929.112	8876
929.218	8842
929.323	8800
929.428	8823
929.533	8880
929.638	8663
929.743	8754
929.848	8746
929.953	8708
930.058	8617
930.163	8476
930.267	8476
930.372	8655
930.477	8495
930.581	8667
930.685	8594
930.79	8423
930.894	8526
930.998	8438
931.103	8590
931.207	8225
931.311	8229
931.415	8119
931.519	7978
931.623	7909
