Data from test_V78500241_2524.txt Node
Date: Fri Mar 25 14:51:17 CST 2022
User: usil
Spectrometer: V785-0024
Trigger mode: 0
Integration Time (sec): 4.000000E-1
Scans to average: 1
Nonlinearity correction enabled: false
Boxcar width: 0
Storing dark spectrum: false
XAxis mode: Wavelengths
Number of Pixels in Spectrum: 1024
>>>>>Begin Spectral Data<<<<<
801.071	22048
801.214	22010
801.356	21690
801.499	21694
801.641	21458
801.783	21370
801.926	21435
802.068	21378
802.211	21283
802.353	21264
802.496	20979
802.638	20937
802.78	21047
802.923	20800
803.065	20651
803.208	20682
803.35	20857
803.492	20807
803.635	20918
803.777	20708
803.919	20819
804.061	21173
804.204	20876
804.346	20651
804.488	20785
804.63	20708
804.773	20511
804.915	20727
805.057	20655
805.199	20636
805.341	20750
805.483	20807
805.626	20800
805.768	20648
805.91	20644
806.052	20686
806.194	20552
806.336	20788
806.478	20659
806.62	20606
806.762	20693
806.904	20853
807.046	21207
807.188	21062
807.33	20895
807.472	21074
807.614	20921
807.756	20872
807.898	20648
808.04	20724
808.182	20902
808.324	20925
808.465	20819
808.607	20941
808.749	21123
808.891	21112
809.033	21142
809.174	21112
809.316	21051
809.458	21081
809.6	20979
809.741	21085
809.883	21032
810.025	21161
810.166	21245
810.308	21203
810.45	21146
810.591	20982
810.733	20944
810.875	20815
811.016	20674
811.158	20632
811.299	20811
811.441	20937
811.582	20857
811.724	20807
811.865	20708
812.007	20712
812.148	20811
812.29	20910
812.431	20857
812.573	21165
812.714	21188
812.855	21306
812.997	21401
813.138	21526
813.279	21367
813.421	21428
813.562	21150
813.703	21089
813.845	20899
813.986	20682
814.127	20328
814.268	20343
814.41	20438
814.551	20393
814.692	20324
814.833	20244
814.974	20271
815.115	20301
815.256	20248
815.397	20237
815.539	20263
815.68	20103
815.821	19936
815.962	20035
816.103	20054
816.244	20046
816.385	19738
816.526	19883
816.666	19537
816.807	19480
816.948	19529
817.089	19693
817.23	19476
817.371	19506
817.512	19403
817.653	19472
817.793	19407
817.934	19324
818.075	19533
818.216	19514
818.356	19384
818.497	19316
818.638	19198
818.778	19194
818.919	19164
819.06	19293
819.2	19308
819.341	19354
819.481	19358
819.622	19681
819.762	19628
819.903	19540
820.043	19537
820.184	19483
820.324	19464
820.465	19422
820.605	19381
820.746	19502
820.886	19445
821.026	19407
821.167	19426
821.307	19476
821.447	19362
821.588	19274
821.728	19240
821.868	19027
822.008	18935
822.149	18829
822.289	19019
822.429	18601
822.569	18544
822.709	18604
822.849	18292
822.99	18338
823.13	18323
823.27	18258
823.41	18117
823.55	18038
823.69	18178
823.83	18110
823.97	18019
824.11	17950
824.25	17889
824.389	17942
824.529	18095
824.669	17927
824.809	18045
824.949	18072
825.089	17973
825.228	17961
825.368	17737
825.508	17767
825.648	17733
825.787	17665
825.927	17802
826.067	17733
826.206	17638
826.346	17691
826.485	17748
826.625	17748
826.765	17760
826.904	17741
827.044	17497
827.183	17425
827.323	17353
827.462	17471
827.601	17516
827.741	17383
827.88	17360
828.02	17284
828.159	17421
828.298	17341
828.437	17573
828.577	17311
828.716	17566
828.855	17360
828.994	17216
829.134	17185
829.273	17140
829.412	17071
829.551	17140
829.69	17098
829.829	17178
829.968	17121
830.107	17235
830.246	17235
830.385	17212
830.524	17067
830.663	16889
830.802	16858
830.941	16797
831.08	16744
831.219	16904
831.357	16930
831.496	17060
831.635	16801
831.774	16725
831.913	16721
832.051	16588
832.19	16630
832.329	16660
832.467	16489
832.606	16478
832.744	16493
832.883	16421
833.022	16497
833.16	16367
833.299	16531
833.437	16440
833.576	16447
833.714	16538
833.852	16516
833.991	16580
834.129	16603
834.267	16451
834.406	16577
834.544	16656
834.682	16546
834.821	16348
834.959	16687
835.097	16455
835.235	16588
835.373	16611
835.511	16527
835.65	16363
835.788	16333
835.926	16310
836.064	16341
836.202	16310
836.34	16546
836.478	16451
836.615	16485
836.753	16485
836.891	16451
837.029	16451
837.167	16398
837.305	16333
837.443	16280
837.58	16325
837.718	16398
837.856	16337
837.993	16261
838.131	16272
838.269	16253
838.406	16223
838.544	16169
838.681	16002
838.819	15911
838.956	15835
839.094	15888
839.231	15930
839.369	16006
839.506	16211
839.643	16143
839.781	15846
839.918	15873
840.055	15838
840.193	15861
840.33	15854
840.467	15892
840.604	15876
840.742	16093
840.879	15686
841.016	15781
841.153	15751
841.29	16025
841.427	15842
841.564	15903
841.701	15869
841.838	15842
841.975	15713
842.112	15797
842.249	15686
842.385	15580
842.522	15865
842.659	15603
842.796	15717
842.933	15656
843.069	15644
843.206	15591
843.343	15720
843.479	15682
843.616	15698
843.752	15428
843.889	15458
844.025	15488
844.162	15424
844.298	15515
844.435	15454
844.571	15367
844.708	15389
844.844	15572
844.98	15557
845.117	15504
845.253	15485
845.389	15291
845.525	15291
845.661	15332
845.798	15100
845.934	15192
846.07	15104
846.206	15264
846.342	15416
846.478	15195
846.614	15055
846.75	14982
846.886	14971
847.022	15028
847.158	14994
847.294	15028
847.429	15020
847.565	15024
847.701	15237
847.837	14815
847.972	14670
848.108	14834
848.244	14796
848.379	14701
848.515	14560
848.65	14514
848.786	14571
848.921	14579
849.057	14712
849.192	14655
849.328	14507
849.463	14610
849.598	14575
849.734	14583
849.869	14457
850.004	14404
850.14	14358
850.275	14366
850.41	14244
850.545	14332
850.68	14263
850.815	14343
850.95	14408
851.085	14556
851.22	14381
851.355	14442
851.49	14282
851.625	14385
851.76	14275
851.895	14256
852.03	14298
852.165	14385
852.299	14484
852.434	14503
852.569	14324
852.703	14381
852.838	14473
852.973	14499
853.107	14480
853.242	14271
853.376	14278
853.511	14164
853.645	14240
853.78	14396
853.914	14240
854.048	14267
854.183	14206
854.317	14218
854.451	14400
854.585	14225
854.72	14172
854.854	14259
854.988	14183
855.122	14145
855.256	14077
855.39	14103
855.524	14259
855.658	14248
855.792	14195
855.926	14210
856.06	14305
856.194	14385
856.327	14206
856.461	14153
856.595	14248
856.729	14145
856.862	14256
856.996	14256
857.13	14339
857.263	14343
857.397	14320
857.53	14210
857.664	14358
857.797	14271
857.931	14423
858.064	14328
858.197	14351
858.331	14199
858.464	14206
858.597	14191
858.731	14229
858.864	14259
858.997	14225
859.13	14339
859.263	14252
859.396	14362
859.529	14233
859.662	14252
859.795	14320
859.928	14229
860.061	14427
860.194	14332
860.327	14290
860.46	14355
860.592	14317
860.725	14419
860.858	14221
860.99	14267
861.123	14195
861.256	14240
861.388	14355
861.521	14864
861.653	14111
861.786	14134
861.918	14123
862.05	14149
862.183	14187
862.315	14218
862.447	14313
862.58	14187
862.712	14043
862.844	13963
862.976	13993
863.108	13986
863.24	14389
863.372	13921
863.504	13974
863.636	14005
863.768	14153
863.9	13970
864.032	13955
864.164	13936
864.296	14096
864.428	13951
864.559	14172
864.691	14119
864.823	14065
864.954	14065
865.086	14046
865.217	14054
865.349	13902
865.48	14027
865.612	13955
865.743	14275
865.875	14016
866.006	13883
866.137	14027
866.269	13978
866.4	14008
866.531	13955
866.662	13883
866.793	13959
866.924	13947
867.055	14043
867.186	14020
867.317	13925
867.448	13875
867.579	13947
867.71	14027
867.841	13883
867.972	13940
868.103	13967
868.233	14069
868.364	14005
868.495	14046
868.625	14221
868.756	14313
868.886	14183
869.017	14233
869.147	14347
869.278	14370
869.408	14244
869.539	14229
869.669	14301
869.799	14404
869.929	14339
870.06	14396
870.19	14522
870.32	14526
870.45	14606
870.58	14651
870.71	14807
870.84	14773
870.97	14636
871.1	14651
871.23	14750
871.36	14952
871.489	14739
871.619	14807
871.749	14845
871.879	14944
872.008	14982
872.138	14861
872.267	14781
872.397	14708
872.526	14777
872.656	14590
872.785	14800
872.915	14857
873.044	14967
873.173	14842
873.303	14956
873.432	14872
873.561	14994
873.69	14998
873.819	14944
873.948	15039
874.077	14998
874.206	14910
874.335	14979
874.464	14990
874.593	15154
874.722	15192
874.851	15203
874.979	15268
875.108	15203
875.237	15184
875.365	15089
875.494	15184
875.623	15313
875.751	15218
875.88	15161
876.008	15279
876.136	15595
876.265	15679
876.393	15781
876.521	15698
876.65	15701
876.778	15644
876.906	15553
877.034	15584
877.162	15644
877.29	15572
877.418	15759
877.546	15652
877.674	15705
877.802	15679
877.93	15739
878.058	15542
878.185	15416
878.313	15580
878.441	15667
878.568	15420
878.696	15557
878.824	15698
878.951	15675
879.079	15660
879.206	15907
879.333	15804
879.461	15667
879.588	15667
879.715	15743
879.842	15930
879.97	15709
880.097	15450
880.224	15530
880.351	15485
880.478	15553
880.605	15462
880.732	15454
880.859	15622
880.986	15473
881.112	15542
881.239	15306
881.366	15195
881.493	15226
881.619	15081
881.746	15146
881.872	15131
881.999	15176
882.125	15157
882.252	15165
882.378	15180
882.505	15272
882.631	15123
882.757	15017
882.883	14960
883.01	14956
883.136	14975
883.262	14746
883.388	14781
883.514	15009
883.64	15024
883.766	14921
883.892	14781
884.018	14902
884.143	14902
884.269	15104
884.395	14800
884.52	14564
884.646	14644
884.772	14659
884.897	14606
885.023	14670
885.148	14819
885.274	14849
885.399	14750
885.524	14697
885.65	14701
885.775	14667
885.9	14670
886.025	14895
886.15	14678
886.275	14667
886.4	14670
886.525	14617
886.65	14556
886.775	14560
886.9	14731
887.025	14941
887.149	14678
887.274	14533
887.399	14465
887.523	14495
887.648	14415
887.773	14415
887.897	14469
888.021	14514
888.146	14450
888.27	14488
888.395	14636
888.519	14606
888.643	14564
888.767	14511
888.891	14370
889.015	14332
889.139	14415
889.263	14290
889.387	14408
889.511	14530
889.635	14495
889.759	14370
889.883	14263
890.006	14454
890.13	14549
890.254	14176
890.377	14256
890.501	14077
890.624	14157
890.748	14206
890.871	14225
890.995	14005
891.118	14115
891.241	14130
891.364	14058
891.488	14176
891.611	14103
891.734	13993
891.857	14081
891.98	14039
892.103	14100
892.226	14183
892.349	14043
892.471	13860
892.594	13955
892.717	14092
892.839	14027
892.962	14046
893.085	14153
893.207	14001
893.33	13955
893.452	14103
893.575	14187
893.697	14058
893.819	14313
893.941	14298
894.064	14206
894.186	14020
894.308	14008
894.43	14202
894.552	14225
894.674	14153
894.796	14027
894.918	14126
895.04	14050
895.161	14271
895.283	14240
895.405	14062
895.526	14248
895.648	14180
895.769	14176
895.891	14240
896.012	14320
896.134	14199
896.255	14305
896.376	14210
896.498	14240
896.619	14259
896.74	14256
896.861	14183
896.982	14560
897.103	14819
897.224	14579
897.345	14431
897.466	14457
897.587	14495
897.708	14659
897.828	14579
897.949	14617
898.07	14347
898.19	14480
898.311	14648
898.431	14438
898.552	14670
898.672	14629
898.792	14708
898.913	14518
899.033	14549
899.153	14454
899.273	14317
899.393	14450
899.513	14480
899.633	14454
899.753	14552
899.873	14393
899.993	14461
900.113	14389
900.232	14484
900.352	14476
900.472	14450
900.591	14237
900.711	14385
900.83	14355
900.95	14377
901.069	14415
901.189	14237
901.308	13986
901.427	13978
901.546	13883
901.665	14081
901.784	14005
901.904	13799
902.023	13776
902.141	13590
902.26	13613
902.379	13552
902.498	13472
902.617	13472
902.735	13521
902.854	13601
902.973	13514
903.091	13263
903.21	13301
903.328	13259
903.446	13251
903.565	13168
903.683	13133
903.801	13042
903.919	13072
904.038	13190
904.156	12913
904.274	12932
904.392	13004
904.51	12962
904.627	12947
904.745	13114
904.863	13027
904.981	12791
905.098	12646
905.216	12665
905.334	12711
905.451	12703
905.569	12464
905.686	12631
905.803	12620
905.921	12456
906.038	12528
906.155	12486
906.272	12300
906.389	12422
906.506	12281
906.623	12292
906.74	12247
906.857	12068
906.974	12167
907.091	12300
907.208	12338
907.324	12285
907.441	12133
907.557	12007
907.674	11916
907.79	11889
907.907	11939
908.023	12022
908.139	11965
908.256	11923
908.372	11908
908.488	11843
908.604	11726
908.72	11676
908.836	11718
908.952	11684
909.068	11779
909.184	11870
909.3	11684
909.415	11695
909.531	11813
909.647	11543
909.762	11433
909.878	11463
909.993	11520
910.108	11501
910.224	11455
910.339	11528
910.454	11383
910.57	11311
910.685	11322
910.8	11623
910.915	11551
911.03	11387
911.145	11269
911.259	11075
911.374	11220
911.489	11113
911.604	11075
911.718	11003
911.833	11006
911.947	10858
912.062	10786
912.176	10968
912.291	10984
912.405	10946
912.519	11136
912.633	11159
912.748	10953
912.862	10965
912.976	10797
913.09	10706
913.204	10809
913.318	10790
913.431	10961
913.545	10854
913.659	10927
913.772	10831
913.886	10740
914	10603
914.113	10812
914.226	10866
914.34	10877
914.453	10675
914.566	10850
914.68	10805
914.793	10588
914.906	10424
915.019	10451
915.132	10352
915.245	10421
915.358	10424
915.47	10443
915.583	10432
915.696	10443
915.809	10596
915.921	10622
916.034	10394
916.146	10421
916.259	10394
916.371	10424
916.483	10432
916.595	10337
916.708	10394
916.82	10421
916.932	10402
917.044	10428
917.156	10329
917.268	10253
917.38	10268
917.491	10253
917.603	10322
917.715	10341
917.826	10352
917.938	10265
918.049	10249
918.161	10291
918.272	10466
918.384	10394
918.495	10287
918.606	10200
918.717	10139
918.828	10246
918.939	10227
919.05	10090
919.161	10128
919.272	9975
919.383	10086
919.494	10272
919.604	10417
919.715	10215
919.826	10078
919.936	10090
920.047	10261
920.157	10166
920.267	10314
920.378	10234
920.488	10173
920.598	10356
920.708	10584
920.818	10375
920.928	10363
921.038	10550
921.148	10596
921.258	10200
921.368	10177
921.477	10101
921.587	10135
921.697	9960
921.806	10120
921.916	9975
922.025	9728
922.134	9751
922.244	9770
922.353	9770
922.462	9591
922.571	9580
922.68	9428
922.789	9488
922.898	9416
923.007	9355
923.116	9473
923.224	9397
923.333	9401
923.442	9321
923.55	9325
923.659	9374
923.767	9454
923.876	9264
923.984	9374
924.092	9195
924.201	9272
924.309	9283
924.417	9294
924.525	9218
924.633	9310
924.741	10143
924.849	9017
924.956	9199
925.064	9036
925.172	9062
925.279	9039
925.387	9116
925.494	9116
925.602	9241
925.709	9214
925.816	9043
925.924	9119
926.031	9199
926.138	9123
926.245	9146
926.352	9062
926.459	9157
926.566	9214
926.673	8982
926.779	8971
926.886	9058
926.993	8785
927.099	8785
927.206	8766
927.312	8731
927.419	8819
927.525	8868
927.631	8807
927.737	8830
927.843	8701
927.95	8560
928.056	8629
928.162	8754
928.267	8739
928.373	9370
928.479	8807
928.585	8522
928.69	8731
928.796	8785
928.901	8708
929.007	8434
929.112	8594
929.218	8545
929.323	8579
929.428	8514
929.533	8689
929.638	8438
929.743	8564
929.848	8583
929.953	8495
930.058	8415
930.163	8240
930.267	8366
930.372	8381
930.477	8256
930.581	8457
930.685	8412
930.79	8244
930.894	8286
930.998	8282
931.103	8404
931.207	8065
931.311	7982
931.415	7921
931.519	7780
931.623	7746
