Data from test_V78500241_2447.txt Node
Date: Fri Mar 25 14:50:45 CST 2022
User: usil
Spectrometer: V785-0024
Trigger mode: 0
Integration Time (sec): 4.000000E-1
Scans to average: 1
Nonlinearity correction enabled: false
Boxcar width: 0
Storing dark spectrum: false
XAxis mode: Wavelengths
Number of Pixels in Spectrum: 1024
>>>>>Begin Spectral Data<<<<<
801.071	22143
801.214	21922
801.356	21625
801.499	21656
801.641	21538
801.783	21447
801.926	21458
802.068	21348
802.211	21389
802.353	21169
802.496	21062
802.638	20906
802.78	20914
802.923	20845
803.065	20701
803.208	20651
803.35	20712
803.492	20834
803.635	20925
803.777	20743
803.919	20845
804.061	21089
804.204	20883
804.346	20712
804.488	20758
804.63	20777
804.773	20606
804.915	20678
805.057	20689
805.199	20640
805.341	20765
805.483	20853
805.626	20830
805.768	20636
805.91	20788
806.052	20720
806.194	20533
806.336	20933
806.478	20659
806.62	20594
806.762	20667
806.904	20876
807.046	21100
807.188	21032
807.33	21093
807.472	21020
807.614	20933
807.756	20933
807.898	20796
808.04	20754
808.182	20716
808.324	20830
808.465	20910
808.607	20967
808.749	21127
808.891	21218
809.033	21272
809.174	21176
809.316	21142
809.458	21150
809.6	20979
809.741	21112
809.883	21104
810.025	21252
810.166	21176
810.308	21245
810.45	21184
810.591	21047
810.733	20895
810.875	20758
811.016	20796
811.158	20621
811.299	20929
811.441	20979
811.582	20864
811.724	20906
811.865	20838
812.007	20823
812.148	20887
812.29	20792
812.431	21028
812.573	21233
812.714	21336
812.855	21264
812.997	21519
813.138	21580
813.279	21420
813.421	21272
813.562	21340
813.703	21142
813.845	20975
813.986	20838
814.127	20632
814.268	20530
814.41	20465
814.551	20366
814.692	20408
814.833	20328
814.974	20423
815.115	20218
815.256	20248
815.397	20183
815.539	20126
815.68	20199
815.821	20065
815.962	20027
816.103	20027
816.244	19940
816.385	19917
816.526	19746
816.666	19734
816.807	19487
816.948	19529
817.089	19696
817.23	19590
817.371	19590
817.512	19571
817.653	19575
817.793	19521
817.934	19597
818.075	19514
818.216	19476
818.356	19426
818.497	19415
818.638	19259
818.778	19308
818.919	19285
819.06	19240
819.2	19373
819.341	19460
819.481	19445
819.622	19628
819.762	19715
819.903	19677
820.043	19578
820.184	19487
820.324	19563
820.465	19556
820.605	19480
820.746	19487
820.886	19480
821.026	19449
821.167	19426
821.307	19457
821.447	19430
821.588	19320
821.728	19228
821.868	19034
822.008	18916
822.149	18928
822.289	18916
822.429	18646
822.569	18604
822.709	18601
822.849	18414
822.99	18376
823.13	18403
823.27	18292
823.41	18243
823.55	18133
823.69	18277
823.83	18163
823.97	18239
824.11	17950
824.25	17863
824.389	18003
824.529	18114
824.669	17942
824.809	17999
824.949	18060
825.089	17912
825.228	18003
825.368	17809
825.508	17771
825.648	17779
825.787	17767
825.927	17843
826.067	17748
826.206	17752
826.346	17699
826.485	17786
826.625	17824
826.765	17843
826.904	17722
827.044	17589
827.183	17562
827.323	17429
827.462	17486
827.601	17410
827.741	17406
827.88	17463
828.02	17326
828.159	17349
828.298	17455
828.437	17516
828.577	17299
828.716	17497
828.855	17337
828.994	17254
829.134	17185
829.273	17311
829.412	17242
829.551	17132
829.69	17075
829.829	17193
829.968	17292
830.107	17265
830.246	17132
830.385	17166
830.524	17113
830.663	16976
830.802	16911
830.941	16778
831.08	16752
831.219	16820
831.357	16881
831.496	17052
831.635	16854
831.774	16691
831.913	16588
832.051	16645
832.19	16535
832.329	16565
832.467	16493
832.606	16443
832.744	16489
832.883	16489
833.022	16386
833.16	16455
833.299	16622
833.437	16500
833.576	16626
833.714	16481
833.852	16542
833.991	16546
834.129	16615
834.267	16535
834.406	16546
834.544	16626
834.682	16512
834.821	16455
834.959	16767
835.097	16611
835.235	16626
835.373	16675
835.511	16588
835.65	16455
835.788	16451
835.926	16371
836.064	16261
836.202	16185
836.34	16356
836.478	16584
836.615	16390
836.753	16512
836.891	16538
837.029	16455
837.167	16371
837.305	16424
837.443	16363
837.58	16246
837.718	16500
837.856	16360
837.993	16287
838.131	16382
838.269	16204
838.406	16367
838.544	16253
838.681	16059
838.819	16032
838.956	15892
839.094	15823
839.231	15907
839.369	16143
839.506	16272
839.643	16128
839.781	15964
839.918	15899
840.055	15922
840.193	15922
840.33	15827
840.467	15804
840.604	15949
840.742	16120
840.879	15778
841.016	15743
841.153	15766
841.29	15968
841.427	15854
841.564	15857
841.701	15816
841.838	15797
841.975	15785
842.112	15732
842.249	15709
842.385	15682
842.522	15808
842.659	15656
842.796	15690
842.933	15694
843.069	15637
843.206	15701
843.343	15778
843.479	15618
843.616	15739
843.752	15428
843.889	15454
844.025	15568
844.162	15435
844.298	15587
844.435	15469
844.571	15329
844.708	15443
844.844	15557
844.98	15618
845.117	15568
845.253	15469
845.389	15401
845.525	15367
845.661	15348
845.798	15180
845.934	15222
846.07	15275
846.206	15237
846.342	15454
846.478	15173
846.614	15020
846.75	15024
846.886	15020
847.022	15222
847.158	15085
847.294	14979
847.429	15024
847.565	14990
847.701	15233
847.837	14807
847.972	14708
848.108	14845
848.244	14857
848.379	14575
848.515	14556
848.65	14503
848.786	14701
848.921	14632
849.057	14705
849.192	14689
849.328	14632
849.463	14632
849.598	14579
849.734	14526
849.869	14533
850.004	14427
850.14	14450
850.275	14446
850.41	14343
850.545	14248
850.68	14404
850.815	14320
850.95	14286
851.085	14484
851.22	14476
851.355	14415
851.49	14313
851.625	14328
851.76	14396
851.895	14278
852.03	14259
852.165	14343
852.299	14404
852.434	14495
852.569	14454
852.703	14389
852.838	14499
852.973	14492
853.107	14484
853.242	14324
853.376	14233
853.511	14157
853.645	14244
853.78	14454
853.914	14221
854.048	14199
854.183	14286
854.317	14267
854.451	14393
854.585	14237
854.72	14157
854.854	14366
854.988	14183
855.122	14267
855.256	14119
855.39	14343
855.524	14305
855.658	14263
855.792	14263
855.926	14309
856.06	14358
856.194	14336
856.327	14252
856.461	14221
856.595	14138
856.729	14206
856.862	14233
856.996	14286
857.13	14305
857.263	14336
857.397	14332
857.53	14267
857.664	14332
857.797	14393
857.931	14370
858.064	14362
858.197	14290
858.331	14271
858.464	14092
858.597	14161
858.731	14202
858.864	14221
858.997	14134
859.13	14294
859.263	14252
859.396	14374
859.529	14195
859.662	14336
859.795	14153
859.928	14320
860.061	14419
860.194	14400
860.327	14263
860.46	14195
860.592	14313
860.725	14400
860.858	14343
860.99	14183
861.123	14149
861.256	14134
861.388	14214
861.521	14880
861.653	14092
861.786	14054
861.918	14039
862.05	14180
862.183	14240
862.315	14305
862.447	14210
862.58	14195
862.712	14065
862.844	13986
862.976	14077
863.108	14069
863.24	14366
863.372	13982
863.504	13986
863.636	14046
863.768	14077
863.9	14005
864.032	13993
864.164	13997
864.296	14119
864.428	14221
864.559	14103
864.691	14138
864.823	14138
864.954	14027
865.086	14100
865.217	14084
865.349	13898
865.48	13963
865.612	14092
865.743	14149
865.875	13917
866.006	13940
866.137	14031
866.269	13982
866.4	14008
866.531	13909
866.662	14020
866.793	13871
866.924	13974
867.055	14012
867.186	13955
867.317	13970
867.448	13932
867.579	13982
867.71	13997
867.841	13951
867.972	14005
868.103	14001
868.233	14012
868.364	13982
868.495	14035
868.625	14199
868.756	14324
868.886	14248
869.017	14282
869.147	14332
869.278	14339
869.408	14263
869.539	14343
869.669	14358
869.799	14317
869.929	14412
870.06	14328
870.19	14606
870.32	14598
870.45	14610
870.58	14663
870.71	14773
870.84	14800
870.97	14625
871.1	14594
871.23	14845
871.36	14823
871.489	14621
871.619	14800
871.749	14883
871.879	14994
872.008	14887
872.138	14754
872.267	14895
872.397	14781
872.526	14655
872.656	14602
872.785	14636
872.915	14834
873.044	14975
873.173	14868
873.303	14906
873.432	14921
873.561	14910
873.69	15001
873.819	14918
873.948	14963
874.077	14925
874.206	14899
874.335	14895
874.464	15055
874.593	15169
874.722	15154
874.851	15207
874.979	15237
875.108	15142
875.237	15154
875.365	15157
875.494	15275
875.623	15275
875.751	15150
875.88	15294
876.008	15420
876.136	15507
876.265	15641
876.393	15793
876.521	15800
876.65	15747
876.778	15705
876.906	15633
877.034	15564
877.162	15641
877.29	15564
877.418	15523
877.546	15679
877.674	15747
877.802	15770
877.93	15595
878.058	15633
878.185	15469
878.313	15614
878.441	15675
878.568	15473
878.696	15576
878.824	15709
878.951	15720
879.079	15732
879.206	15994
879.333	15876
879.461	15690
879.588	15618
879.715	15816
879.842	15991
879.97	15781
880.097	15431
880.224	15435
880.351	15462
880.478	15523
880.605	15469
880.732	15428
880.859	15682
880.986	15458
881.112	15405
881.239	15363
881.366	15249
881.493	15218
881.619	15070
881.746	15135
881.872	15188
881.999	15123
882.125	15097
882.252	15203
882.378	15085
882.505	15344
882.631	15097
882.757	15009
882.883	15013
883.01	15009
883.136	14914
883.262	14887
883.388	14785
883.514	14960
883.64	15085
883.766	14853
883.892	14864
884.018	14868
884.143	15028
884.269	15028
884.395	14689
884.52	14682
884.646	14686
884.772	14613
884.897	14610
885.023	14575
885.148	14842
885.274	14811
885.399	14830
885.524	14686
885.65	14724
885.775	14590
885.9	14739
886.025	14762
886.15	14686
886.275	14560
886.4	14655
886.525	14625
886.65	14541
886.775	14632
886.9	14918
887.025	14842
887.149	14689
887.274	14560
887.399	14404
887.523	14408
887.648	14484
887.773	14431
887.897	14590
888.021	14571
888.146	14492
888.27	14648
888.395	14636
888.519	14526
888.643	14590
888.767	14594
888.891	14442
889.015	14355
889.139	14389
889.263	14347
889.387	14492
889.511	14644
889.635	14556
889.759	14370
889.883	14275
890.006	14328
890.13	14499
890.254	14225
890.377	14317
890.501	14202
890.624	14092
890.748	14233
890.871	14065
890.995	13997
891.118	13989
891.241	14096
891.364	14100
891.488	14183
891.611	13978
891.734	14115
891.857	14119
891.98	14084
892.103	14126
892.226	14172
892.349	14046
892.471	14001
892.594	14024
892.717	14065
892.839	14065
892.962	14107
893.085	14058
893.207	14088
893.33	13921
893.452	13978
893.575	14149
893.697	14084
893.819	14271
893.941	14240
894.064	14183
894.186	14050
894.308	14020
894.43	14138
894.552	14286
894.674	14168
894.796	13986
894.918	14164
895.04	14062
895.161	14191
895.283	14191
895.405	14069
895.526	14202
895.648	14096
895.769	14183
895.891	14240
896.012	14172
896.134	14210
896.255	14225
896.376	14218
896.498	14233
896.619	14358
896.74	14214
896.861	14336
896.982	14651
897.103	14727
897.224	14514
897.345	14465
897.466	14499
897.587	14492
897.708	14594
897.828	14549
897.949	14473
898.07	14400
898.19	14446
898.311	14670
898.431	14511
898.552	14492
898.672	14621
898.792	14708
898.913	14617
899.033	14526
899.153	14461
899.273	14339
899.393	14488
899.513	14412
899.633	14374
899.753	14480
899.873	14457
899.993	14488
900.113	14511
900.232	14495
900.352	14457
900.472	14377
900.591	14191
900.711	14221
900.83	14282
900.95	14339
901.069	14434
901.189	14233
901.308	14062
901.427	13936
901.546	13986
901.665	13944
901.784	13982
901.904	13925
902.023	13811
902.141	13613
902.26	13480
902.379	13719
902.498	13521
902.617	13476
902.735	13438
902.854	13476
902.973	13453
903.091	13274
903.21	13232
903.328	13308
903.446	13202
903.565	13160
903.683	13065
903.801	13050
903.919	13175
904.038	12973
904.156	12913
904.274	13008
904.392	12973
904.51	12973
904.627	12924
904.745	12905
904.863	12962
904.981	12772
905.098	12597
905.216	12589
905.334	12650
905.451	12585
905.569	12498
905.686	12715
905.803	12662
905.921	12426
906.038	12589
906.155	12460
906.272	12277
906.389	12399
906.506	12266
906.623	12232
906.74	12216
906.857	12121
906.974	12079
907.091	12315
907.208	12281
907.324	12235
907.441	12148
907.557	12007
907.674	11973
907.79	11870
907.907	11897
908.023	12003
908.139	11988
908.256	11908
908.372	11866
908.488	11897
908.604	11786
908.72	11646
908.836	11760
908.952	11657
909.068	11668
909.184	11870
909.3	11653
909.415	11828
909.531	11737
909.647	11596
909.762	11478
909.878	11421
909.993	11535
910.108	11532
910.224	11467
910.339	11558
910.454	11452
910.57	11322
910.685	11250
910.8	11638
910.915	11562
911.03	11452
911.145	11212
911.259	11223
911.374	11193
911.489	11090
911.604	11041
911.718	10923
911.833	10942
911.947	10866
912.062	10729
912.176	10957
912.291	10972
912.405	10965
912.519	11124
912.633	11197
912.748	11033
912.862	10968
912.976	10873
913.09	10687
913.204	10805
913.318	10809
913.431	10900
913.545	10953
913.659	10980
913.772	10812
913.886	10687
914	10706
914.113	10816
914.226	10850
914.34	10782
914.453	10675
914.566	10828
914.68	10672
914.793	10656
914.906	10519
915.019	10443
915.132	10379
915.245	10485
915.358	10455
915.47	10504
915.583	10493
915.696	10485
915.809	10573
915.921	10653
916.034	10375
916.146	10424
916.259	10405
916.371	10489
916.483	10538
916.595	10485
916.708	10375
916.82	10421
916.932	10341
917.044	10421
917.156	10276
917.268	10249
917.38	10318
917.491	10329
917.603	10322
917.715	10375
917.826	10481
917.938	10318
918.049	10215
918.161	10196
918.272	10413
918.384	10474
918.495	10276
918.606	10196
918.717	10093
918.828	10211
918.939	10162
919.05	10071
919.161	10166
919.272	9991
919.383	9975
919.494	10249
919.604	10337
919.715	10196
919.826	10139
919.936	10158
920.047	10242
920.157	10246
920.267	10405
920.378	10204
920.488	10162
920.598	10459
920.708	10485
920.818	10474
920.928	10341
921.038	10523
921.148	10558
921.258	10246
921.368	10143
921.477	10063
921.587	10044
921.697	9873
921.806	10147
921.916	9956
922.025	9781
922.134	9774
922.244	9770
922.353	9770
922.462	9671
922.571	9526
922.68	9450
922.789	9393
922.898	9507
923.007	9412
923.116	9462
923.224	9443
923.333	9447
923.442	9386
923.55	9332
923.659	9378
923.767	9359
923.876	9253
923.984	9332
924.092	9313
924.201	9306
924.309	9302
924.417	9313
924.525	9264
924.633	9275
924.741	10082
924.849	9131
924.956	9195
925.064	9146
925.172	9028
925.279	9047
925.387	9165
925.494	9135
925.602	9199
925.709	9089
925.816	9081
925.924	9104
926.031	9218
926.138	9028
926.245	9169
926.352	9017
926.459	9211
926.566	9222
926.673	9112
926.779	8937
926.886	9032
926.993	8838
927.099	8769
927.206	8739
927.312	8773
927.419	8868
927.525	8838
927.631	8800
927.737	8731
927.843	8716
927.95	8587
928.056	8743
928.162	8727
928.267	8781
928.373	9363
928.479	8883
928.585	8526
928.69	8724
928.796	8788
928.901	8651
929.007	8522
929.112	8617
929.218	8602
929.323	8590
929.428	8579
929.533	8579
929.638	8457
929.743	8469
929.848	8533
929.953	8499
930.058	8469
930.163	8256
930.267	8336
930.372	8434
930.477	8301
930.581	8488
930.685	8355
930.79	8237
930.894	8290
930.998	8214
931.103	8393
931.207	8024
931.311	7993
931.415	7944
931.519	7761
931.623	7670
