Data from test_V78500241_2550.txt Node
Date: Fri Mar 25 14:51:28 CST 2022
User: usil
Spectrometer: V785-0024
Trigger mode: 0
Integration Time (sec): 4.000000E-1
Scans to average: 1
Nonlinearity correction enabled: false
Boxcar width: 0
Storing dark spectrum: false
XAxis mode: Wavelengths
Number of Pixels in Spectrum: 1024
>>>>>Begin Spectral Data<<<<<
801.071	22059
801.214	21968
801.356	21667
801.499	21656
801.641	21572
801.783	21481
801.926	21462
802.068	21344
802.211	21374
802.353	21310
802.496	20918
802.638	20906
802.78	20845
802.923	20845
803.065	20678
803.208	20743
803.35	20701
803.492	20921
803.635	20887
803.777	20807
803.919	20838
804.061	21024
804.204	20887
804.346	20663
804.488	20511
804.63	20785
804.773	20693
804.915	20731
805.057	20746
805.199	20621
805.341	20804
805.483	20849
805.626	20845
805.768	20648
805.91	20590
806.052	20708
806.194	20556
806.336	20762
806.478	20629
806.62	20583
806.762	20689
806.904	20895
807.046	21055
807.188	21081
807.33	20998
807.472	21009
807.614	20979
807.756	20979
807.898	20815
808.04	20598
808.182	20705
808.324	20781
808.465	20754
808.607	20956
808.749	21013
808.891	21032
809.033	21157
809.174	21066
809.316	20902
809.458	21051
809.6	21036
809.741	20948
809.883	21028
810.025	21188
810.166	21211
810.308	21142
810.45	21062
810.591	21138
810.733	21043
810.875	20804
811.016	20640
811.158	20667
811.299	20887
811.441	20906
811.582	20963
811.724	20754
811.865	20701
812.007	20815
812.148	20731
812.29	20796
812.431	20956
812.573	21081
812.714	21222
812.855	21344
812.997	21511
813.138	21553
813.279	21431
813.421	21401
813.562	21211
813.703	21009
813.845	20845
813.986	20670
814.127	20545
814.268	20438
814.41	20423
814.551	20294
814.692	20438
814.833	20263
814.974	20366
815.115	20400
815.256	20046
815.397	20081
815.539	20126
815.68	20035
815.821	20001
815.962	20084
816.103	20001
816.244	19936
816.385	19913
816.526	19738
816.666	19544
816.807	19460
816.948	19476
817.089	19582
817.23	19449
817.371	19422
817.512	19464
817.653	19540
817.793	19415
817.934	19499
818.075	19605
818.216	19571
818.356	19521
818.497	19232
818.638	19069
818.778	19209
818.919	19091
819.06	19156
819.2	19236
819.341	19419
819.481	19422
819.622	19460
819.762	19632
819.903	19578
820.043	19552
820.184	19487
820.324	19434
820.465	19559
820.605	19556
820.746	19540
820.886	19293
821.026	19510
821.167	19373
821.307	19396
821.447	19373
821.588	19289
821.728	19160
821.868	19103
822.008	18890
822.149	18890
822.289	18806
822.429	18620
822.569	18486
822.709	18536
822.849	18296
822.99	18254
823.13	18357
823.27	18350
823.41	18136
823.55	18224
823.69	18300
823.83	18117
823.97	18098
824.11	17836
824.25	17878
824.389	17965
824.529	18038
824.669	17851
824.809	18034
824.949	17999
825.089	17855
825.228	17973
825.368	17745
825.508	17760
825.648	17783
825.787	17741
825.927	17771
826.067	17604
826.206	17771
826.346	17627
826.485	17783
826.625	17752
826.765	17824
826.904	17733
827.044	17425
827.183	17364
827.323	17414
827.462	17414
827.601	17421
827.741	17398
827.88	17356
828.02	17258
828.159	17330
828.298	17421
828.437	17497
828.577	17376
828.716	17486
828.855	17425
828.994	17052
829.134	17075
829.273	17200
829.412	17124
829.551	17109
829.69	17128
829.829	17254
829.968	17200
830.107	17216
830.246	17170
830.385	17052
830.524	17083
830.663	16934
830.802	16797
830.941	16847
831.08	16797
831.219	16828
831.357	16828
831.496	17018
831.635	16740
831.774	16759
831.913	16645
832.051	16538
832.19	16561
832.329	16660
832.467	16523
832.606	16485
832.744	16497
832.883	16580
833.022	16348
833.16	16436
833.299	16500
833.437	16474
833.576	16561
833.714	16546
833.852	16379
833.991	16459
834.129	16672
834.267	16565
834.406	16603
834.544	16478
834.682	16538
834.821	16489
834.959	16721
835.097	16573
835.235	16618
835.373	16550
835.511	16535
835.65	16413
835.788	16318
835.926	16230
836.064	16310
836.202	16265
836.34	16497
836.478	16569
836.615	16344
836.753	16352
836.891	16462
837.029	16561
837.167	16356
837.305	16246
837.443	16394
837.58	16314
837.718	16417
837.856	16314
837.993	16314
838.131	16325
838.269	16207
838.406	16185
838.544	16219
838.681	15994
838.819	15945
838.956	15876
839.094	15903
839.231	15899
839.369	16010
839.506	16299
839.643	16158
839.781	15842
839.918	15842
840.055	15895
840.193	15812
840.33	15789
840.467	15819
840.604	15918
840.742	16143
840.879	15766
841.016	15774
841.153	15816
841.29	16048
841.427	15926
841.564	15789
841.701	15945
841.838	15759
841.975	15793
842.112	15698
842.249	15709
842.385	15675
842.522	15800
842.659	15644
842.796	15584
842.933	15614
843.069	15625
843.206	15595
843.343	15580
843.479	15743
843.616	15682
843.752	15382
843.889	15473
844.025	15614
844.162	15389
844.298	15557
844.435	15458
844.571	15348
844.708	15553
844.844	15584
844.98	15591
845.117	15587
845.253	15458
845.389	15378
845.525	15340
845.661	15401
845.798	15226
845.934	15283
846.07	15108
846.206	15306
846.342	15412
846.478	15256
846.614	15089
846.75	14979
846.886	14929
847.022	15180
847.158	14963
847.294	15055
847.429	15043
847.565	14998
847.701	15226
847.837	14682
847.972	14689
848.108	14845
848.244	14815
848.379	14708
848.515	14590
848.65	14556
848.786	14590
848.921	14575
849.057	14716
849.192	14689
849.328	14670
849.463	14598
849.598	14564
849.734	14674
849.869	14507
850.004	14396
850.14	14461
850.275	14324
850.41	14332
850.545	14298
850.68	14336
850.815	14393
850.95	14351
851.085	14526
851.22	14450
851.355	14389
851.49	14431
851.625	14396
851.76	14339
851.895	14237
852.03	14294
852.165	14408
852.299	14355
852.434	14434
852.569	14389
852.703	14362
852.838	14499
852.973	14606
853.107	14465
853.242	14305
853.376	14271
853.511	14161
853.645	14126
853.78	14366
853.914	14309
854.048	14172
854.183	14142
854.317	14317
854.451	14347
854.585	14221
854.72	14214
854.854	14313
854.988	14123
855.122	14214
855.256	14065
855.39	14187
855.524	14301
855.658	14328
855.792	14309
855.926	14309
856.06	14256
856.194	14313
856.327	14237
856.461	14111
856.595	14111
856.729	14237
856.862	14282
856.996	14248
857.13	14351
857.263	14309
857.397	14240
857.53	14290
857.664	14381
857.797	14381
857.931	14404
858.064	14305
858.197	14328
858.331	14256
858.464	14229
858.597	14134
858.731	14187
858.864	14202
858.997	14271
859.13	14210
859.263	14320
859.396	14317
859.529	14355
859.662	14191
859.795	14180
859.928	14229
860.061	14461
860.194	14374
860.327	14263
860.46	14214
860.592	14347
860.725	14351
860.858	14423
860.99	14161
861.123	14221
861.256	14157
861.388	14252
861.521	14826
861.653	14092
861.786	13989
861.918	14157
862.05	14176
862.183	14187
862.315	14115
862.447	14244
862.58	14168
862.712	13974
862.844	13921
862.976	14050
863.108	14100
863.24	14537
863.372	13959
863.504	14027
863.636	14077
863.768	14046
863.9	14077
864.032	13978
864.164	14027
864.296	14039
864.428	14172
864.559	14058
864.691	14073
864.823	14123
864.954	13989
865.086	14001
865.217	14012
865.349	13925
865.48	13955
865.612	14050
865.743	14111
865.875	14062
866.006	14001
866.137	14092
866.269	13947
866.4	14065
866.531	13936
866.662	13936
866.793	13947
866.924	13993
867.055	13932
867.186	13997
867.317	13936
867.448	13883
867.579	13879
867.71	13898
867.841	14027
867.972	13936
868.103	13982
868.233	14058
868.364	13967
868.495	14005
868.625	14240
868.756	14336
868.886	14221
869.017	14210
869.147	14438
869.278	14351
869.408	14286
869.539	14256
869.669	14256
869.799	14161
869.929	14427
870.06	14355
870.19	14621
870.32	14575
870.45	14503
870.58	14659
870.71	14663
870.84	14811
870.97	14667
871.1	14602
871.23	14853
871.36	14826
871.489	14727
871.619	14823
871.749	14876
871.879	14933
872.008	15036
872.138	14876
872.267	14861
872.397	14693
872.526	14632
872.656	14667
872.785	14724
872.915	14910
873.044	15085
873.173	14975
873.303	14834
873.432	14925
873.561	14967
873.69	14967
873.819	14941
873.948	15032
874.077	14960
874.206	14914
874.335	14880
874.464	15051
874.593	15150
874.722	15233
874.851	15184
874.979	15226
875.108	15325
875.237	15154
875.365	15100
875.494	15256
875.623	15233
875.751	15104
875.88	15283
876.008	15363
876.136	15416
876.265	15576
876.393	15648
876.521	15747
876.65	15743
876.778	15713
876.906	15439
877.034	15641
877.162	15561
877.29	15500
877.418	15542
877.546	15644
877.674	15618
877.802	15705
877.93	15599
878.058	15614
878.185	15473
878.313	15542
878.441	15656
878.568	15485
878.696	15534
878.824	15720
878.951	15633
879.079	15869
879.206	16025
879.333	15774
879.461	15709
879.588	15743
879.715	15816
879.842	15937
879.97	15698
880.097	15447
880.224	15447
880.351	15595
880.478	15416
880.605	15443
880.732	15492
880.859	15709
880.986	15500
881.112	15603
881.239	15401
881.366	15256
881.493	15252
881.619	15081
881.746	15222
881.872	15150
881.999	15001
882.125	15146
882.252	15176
882.378	15085
882.505	15408
882.631	15009
882.757	14941
882.883	14956
883.01	15039
883.136	14849
883.262	14849
883.388	14769
883.514	14925
883.64	15058
883.766	14925
883.892	14754
884.018	14769
884.143	15055
884.269	14948
884.395	14739
884.52	14720
884.646	14541
884.772	14564
884.897	14488
885.023	14663
885.148	14754
885.274	14883
885.399	14830
885.524	14697
885.65	14686
885.775	14750
885.9	14735
886.025	14739
886.15	14750
886.275	14655
886.4	14560
886.525	14708
886.65	14552
886.775	14579
886.9	14838
887.025	14872
887.149	14644
887.274	14533
887.399	14461
887.523	14355
887.648	14412
887.773	14358
887.897	14503
888.021	14533
888.146	14473
888.27	14556
888.395	14769
888.519	14602
888.643	14522
888.767	14556
888.891	14415
889.015	14294
889.139	14427
889.263	14275
889.387	14408
889.511	14606
889.635	14377
889.759	14393
889.883	14404
890.006	14450
890.13	14469
890.254	14377
890.377	14351
890.501	14187
890.624	14199
890.748	14328
890.871	14134
890.995	14016
891.118	13944
891.241	14069
891.364	14058
891.488	14142
891.611	14035
891.734	14092
891.857	14084
891.98	14119
892.103	14123
892.226	14084
892.349	14084
892.471	13925
892.594	14096
892.717	14058
892.839	14024
892.962	13982
893.085	14088
893.207	13970
893.33	13982
893.452	14062
893.575	14088
893.697	14035
893.819	14142
893.941	14240
894.064	14138
894.186	13982
894.308	13993
894.43	14126
894.552	14225
894.674	14187
894.796	14039
894.918	14081
895.04	14065
895.161	14294
895.283	14134
895.405	14073
895.526	14168
895.648	14199
895.769	14244
895.891	14191
896.012	14370
896.134	14229
896.255	14252
896.376	14107
896.498	14290
896.619	14290
896.74	14187
896.861	14256
896.982	14511
897.103	14727
897.224	14514
897.345	14533
897.466	14404
897.587	14492
897.708	14613
897.828	14537
897.949	14400
898.07	14385
898.19	14488
898.311	14606
898.431	14613
898.552	14587
898.672	14629
898.792	14667
898.913	14632
899.033	14450
899.153	14438
899.273	14423
899.393	14431
899.513	14530
899.633	14408
899.753	14438
899.873	14438
899.993	14484
900.113	14423
900.232	14587
900.352	14294
900.472	14370
900.591	14157
900.711	14248
900.83	14278
900.95	14400
901.069	14381
901.189	14282
901.308	14043
901.427	13993
901.546	14012
901.665	14035
901.784	14069
901.904	13772
902.023	13830
902.141	13632
902.26	13597
902.379	13700
902.498	13639
902.617	13556
902.735	13533
902.854	13582
902.973	13476
903.091	13251
903.21	13304
903.328	13247
903.446	13266
903.565	13190
903.683	13031
903.801	13065
903.919	13042
904.038	13065
904.156	12962
904.274	13061
904.392	12909
904.51	12996
904.627	12882
904.745	12958
904.863	13042
904.981	12673
905.098	12639
905.216	12635
905.334	12616
905.451	12612
905.569	12559
905.686	12639
905.803	12616
905.921	12479
906.038	12620
906.155	12441
906.272	12384
906.389	12410
906.506	12178
906.623	12228
906.74	12224
906.857	12091
906.974	12095
907.091	12300
907.208	12376
907.324	12235
907.441	12140
907.557	11999
907.674	11980
907.79	11882
907.907	11954
908.023	12060
908.139	12019
908.256	11912
908.372	11901
908.488	11916
908.604	11756
908.72	11707
908.836	11748
908.952	11604
909.068	11737
909.184	11760
909.3	11733
909.415	11794
909.531	11737
909.647	11604
909.762	11493
909.878	11474
909.993	11490
910.108	11474
910.224	11436
910.339	11562
910.454	11406
910.57	11345
910.685	11288
910.8	11547
910.915	11532
911.03	11391
911.145	11197
911.259	11261
911.374	11220
911.489	11151
911.604	11098
911.718	10968
911.833	10980
911.947	10873
912.062	10805
912.176	10942
912.291	10976
912.405	10934
912.519	11143
912.633	11185
912.748	11025
912.862	10965
912.976	10835
913.09	10675
913.204	10812
913.318	10930
913.431	10999
913.545	10946
913.659	10980
913.772	10854
913.886	10736
914	10626
914.113	10847
914.226	10877
914.34	10782
914.453	10691
914.566	10778
914.68	10645
914.793	10588
914.906	10554
915.019	10436
915.132	10405
915.245	10489
915.358	10440
915.47	10474
915.583	10504
915.696	10493
915.809	10592
915.921	10637
916.034	10474
916.146	10443
916.259	10421
916.371	10459
916.483	10436
916.595	10337
916.708	10398
916.82	10402
916.932	10398
917.044	10459
917.156	10371
917.268	10303
917.38	10276
917.491	10238
917.603	10325
917.715	10394
917.826	10398
917.938	10227
918.049	10162
918.161	10299
918.272	10542
918.384	10424
918.495	10318
918.606	10139
918.717	10093
918.828	10173
918.939	10207
919.05	10067
919.161	10200
919.272	9956
919.383	10048
919.494	10185
919.604	10440
919.715	10188
919.826	10078
919.936	10169
920.047	10261
920.157	10230
920.267	10451
920.378	10249
920.488	10188
920.598	10417
920.708	10424
920.818	10409
920.928	10394
921.038	10561
921.148	10519
921.258	10211
921.368	10177
921.477	10059
921.587	10086
921.697	9930
921.806	10131
921.916	9899
922.025	9778
922.134	9789
922.244	9701
922.353	9736
922.462	9652
922.571	9576
922.68	9458
922.789	9420
922.898	9469
923.007	9443
923.116	9458
923.224	9363
923.333	9412
923.442	9382
923.55	9332
923.659	9374
923.767	9439
923.876	9313
923.984	9367
924.092	9161
924.201	9340
924.309	9340
924.417	9363
924.525	9313
924.633	9272
924.741	10223
924.849	9058
924.956	9272
925.064	9131
925.172	8990
925.279	9119
925.387	9142
925.494	9051
925.602	9272
925.709	9157
925.816	9043
925.924	9097
926.031	9195
926.138	9089
926.245	9150
926.352	8994
926.459	9184
926.566	9211
926.673	9077
926.779	8937
926.886	8967
926.993	8842
927.099	8830
927.206	8830
927.312	8781
927.419	8857
927.525	8739
927.631	8891
927.737	8758
927.843	8693
927.95	8545
928.056	8663
928.162	8708
928.267	8785
928.373	9416
928.479	8838
928.585	8594
928.69	8769
928.796	8708
928.901	8594
929.007	8526
929.112	8659
929.218	8606
929.323	8575
929.428	8556
929.533	8560
929.638	8545
929.743	8556
929.848	8507
929.953	8518
930.058	8465
930.163	8248
930.267	8263
930.372	8396
930.477	8290
930.581	8469
930.685	8396
930.79	8279
930.894	8309
930.998	8244
931.103	8374
931.207	7947
931.311	8012
931.415	7963
931.519	7784
931.623	7788
