Data from test_V78500241_1199.txt Node
Date: Fri Mar 25 14:42:03 CST 2022
User: usil
Spectrometer: V785-0024
Trigger mode: 0
Integration Time (sec): 4.000000E-1
Scans to average: 1
Nonlinearity correction enabled: false
Boxcar width: 0
Storing dark spectrum: false
XAxis mode: Wavelengths
Number of Pixels in Spectrum: 1024
>>>>>Begin Spectral Data<<<<<
801.071	22295
801.214	22402
801.356	22017
801.499	21972
801.641	21759
801.783	21800
801.926	21884
802.068	21682
802.211	21504
802.353	21587
802.496	21302
802.638	21370
802.78	21313
802.923	21157
803.065	21142
803.208	21127
803.35	21146
803.492	21249
803.635	21291
803.777	21142
803.919	21070
804.061	21485
804.204	21203
804.346	21081
804.488	21032
804.63	21142
804.773	20933
804.915	21112
805.057	21150
805.199	20975
805.341	21138
805.483	21199
805.626	21108
805.768	21074
805.91	21028
806.052	21051
806.194	20975
806.336	21089
806.478	21096
806.62	20948
806.762	21051
806.904	21226
807.046	21462
807.188	21412
807.33	21416
807.472	21401
807.614	21321
807.756	21382
807.898	21233
808.04	21294
808.182	21245
808.324	21150
808.465	21119
808.607	21435
808.749	21496
808.891	21641
809.033	21701
809.174	21580
809.316	21587
809.458	21603
809.6	21481
809.741	21549
809.883	21561
810.025	21625
810.166	21732
810.308	21701
810.45	21576
810.591	21469
810.733	21325
810.875	21329
811.016	21180
811.158	21135
811.299	21233
811.441	21401
811.582	21302
811.724	21294
811.865	21135
812.007	21256
812.148	21184
812.29	21275
812.431	21367
812.573	21561
812.714	21610
812.855	21682
812.997	21739
813.138	21945
813.279	21732
813.421	21660
813.562	21644
813.703	21424
813.845	21321
813.986	21207
814.127	21093
814.268	20910
814.41	20777
814.551	20899
814.692	20823
814.833	20708
814.974	20777
815.115	20804
815.256	20590
815.397	20571
815.539	20636
815.68	20518
815.821	20560
815.962	20537
816.103	20454
816.244	20434
816.385	20343
816.526	20313
816.666	20153
816.807	20043
816.948	20210
817.089	20142
817.23	19970
817.371	19917
817.512	19932
817.653	19967
817.793	19864
817.934	19887
818.075	20073
818.216	19932
818.356	19860
818.497	19799
818.638	19594
818.778	19578
818.919	19582
819.06	19582
819.2	19708
819.341	19670
819.481	19734
819.622	19982
819.762	20180
819.903	20024
820.043	19993
820.184	19974
820.324	19822
820.465	19986
820.605	19875
820.746	19909
820.886	19811
821.026	19963
821.167	19833
821.307	20043
821.447	19925
821.588	19746
821.728	19613
821.868	19483
822.008	19244
822.149	19285
822.289	19354
822.429	19217
822.569	19118
822.709	18981
822.849	18814
822.99	18741
823.13	18776
823.27	18894
823.41	18502
823.55	18525
823.69	18703
823.83	18635
823.97	18483
824.11	18429
824.25	18334
824.389	18350
824.529	18372
824.669	18448
824.809	18479
824.949	18483
825.089	18452
825.228	18490
825.368	18216
825.508	18232
825.648	18220
825.787	18133
825.927	18285
826.067	18167
826.206	18114
826.346	18205
826.485	18251
826.625	18239
826.765	18239
826.904	18247
827.044	18106
827.183	17912
827.323	17882
827.462	17988
827.601	17851
827.741	17961
827.88	17916
828.02	17745
828.159	17958
828.298	17889
828.437	17946
828.577	17843
828.716	17851
828.855	17748
828.994	17638
829.134	17596
829.273	17627
829.412	17566
829.551	17684
829.69	17714
829.829	17691
829.968	17695
830.107	17775
830.246	17577
830.385	17512
830.524	17585
830.663	17406
830.802	17364
830.941	17299
831.08	17250
831.219	17349
831.357	17376
831.496	17486
831.635	17307
831.774	17094
831.913	17204
832.051	17060
832.19	17056
832.329	17162
832.467	16904
832.606	16828
832.744	16881
832.883	16946
833.022	16991
833.16	16919
833.299	16991
833.437	16911
833.576	16987
833.714	17041
833.852	17052
833.991	17105
834.129	17056
834.267	17162
834.406	17045
834.544	17124
834.682	17056
834.821	17067
834.959	17155
835.097	16862
835.235	17067
835.373	17056
835.511	16946
835.65	16885
835.788	16889
835.926	16782
836.064	16771
836.202	16911
836.34	17022
836.478	16980
836.615	16911
836.753	16953
836.891	17025
837.029	16984
837.167	16980
837.305	16809
837.443	16828
837.58	16729
837.718	16771
837.856	16828
837.993	16698
838.131	16801
838.269	16824
838.406	16687
838.544	16729
838.681	16504
838.819	16516
838.956	16398
839.094	16314
839.231	16413
839.369	16462
839.506	16767
839.643	16603
839.781	16436
839.918	16299
840.055	16390
840.193	16451
840.33	16284
840.467	16284
840.604	16428
840.742	16615
840.879	16329
841.016	16261
841.153	16314
841.29	16417
841.427	16261
841.564	16344
841.701	16375
841.838	16394
841.975	16261
842.112	16246
842.249	16173
842.385	16166
842.522	16306
842.659	16257
842.796	16059
842.933	16226
843.069	16154
843.206	16067
843.343	16181
843.479	16029
843.616	16063
843.752	15956
843.889	16029
844.025	16006
844.162	15876
844.298	15934
844.435	15899
844.571	15907
844.708	16013
844.844	16032
844.98	16162
845.117	16025
845.253	15930
845.389	15854
845.525	15823
845.661	15949
845.798	15785
845.934	15857
846.07	15774
846.206	15709
846.342	15922
846.478	15762
846.614	15526
846.75	15408
846.886	15477
847.022	15606
847.158	15507
847.294	15515
847.429	15526
847.565	15435
847.701	15728
847.837	15264
847.972	15089
848.108	15310
848.244	15302
848.379	15188
848.515	15100
848.65	15203
848.786	15089
848.921	15085
849.057	15043
849.192	15146
849.328	15085
849.463	15085
849.598	15093
849.734	14967
849.869	15036
850.004	14906
850.14	14933
850.275	14963
850.41	14731
850.545	14777
850.68	14853
850.815	14895
850.95	14853
851.085	14998
851.22	15013
851.355	14979
851.49	14746
851.625	14849
851.76	14891
851.895	14674
852.03	14731
852.165	14739
852.299	14842
852.434	14963
852.569	14895
852.703	14845
852.838	14910
852.973	14941
853.107	15074
853.242	14724
853.376	14701
853.511	14568
853.645	14583
853.78	14807
853.914	14682
854.048	14598
854.183	14693
854.317	14621
854.451	14906
854.585	14705
854.72	14705
854.854	14746
854.988	14613
855.122	14636
855.256	14602
855.39	14659
855.524	14788
855.658	14765
855.792	14807
855.926	14781
856.06	14834
856.194	14906
856.327	14720
856.461	14610
856.595	14716
856.729	14788
856.862	14845
856.996	14739
857.13	14830
857.263	14777
857.397	14807
857.53	14610
857.664	14743
857.797	14834
857.931	14899
858.064	14773
858.197	14769
858.331	14613
858.464	14651
858.597	14469
858.731	14819
858.864	14708
858.997	14697
859.13	14746
859.263	14750
859.396	14853
859.529	14606
859.662	14739
859.795	14670
859.928	14727
860.061	14868
860.194	15001
860.327	14785
860.46	14708
860.592	14910
860.725	14895
860.858	14868
860.99	14773
861.123	14590
861.256	14606
861.388	14674
861.521	15447
861.653	14648
861.786	14484
861.918	14571
862.05	14651
862.183	14606
862.315	14754
862.447	14678
862.58	14617
862.712	14503
862.844	14404
862.976	14579
863.108	14541
863.24	14982
863.372	14377
863.504	14400
863.636	14533
863.768	14495
863.9	14537
864.032	14389
864.164	14431
864.296	14450
864.428	14575
864.559	14556
864.691	14587
864.823	14571
864.954	14385
865.086	14492
865.217	14423
865.349	14404
865.48	14427
865.612	14549
865.743	14629
865.875	14488
866.006	14503
866.137	14446
866.269	14492
866.4	14404
866.531	14313
866.662	14347
866.793	14423
866.924	14427
867.055	14434
867.186	14457
867.317	14400
867.448	14282
867.579	14381
867.71	14328
867.841	14385
867.972	14396
868.103	14423
868.233	14415
868.364	14522
868.495	14514
868.625	14724
868.756	14815
868.886	14625
869.017	14625
869.147	14743
869.278	14849
869.408	14739
869.539	14651
869.669	14796
869.799	14823
869.929	14845
870.06	14861
870.19	14971
870.32	14937
870.45	14952
870.58	15138
870.71	15199
870.84	15169
870.97	15074
871.1	15135
871.23	15245
871.36	15291
871.489	15165
871.619	15268
871.749	15321
871.879	15348
872.008	15431
872.138	15218
872.267	15214
872.397	15119
872.526	15131
872.656	15161
872.785	15173
872.915	15450
873.044	15351
873.173	15412
873.303	15416
873.432	15389
873.561	15458
873.69	15329
873.819	15329
873.948	15469
874.077	15447
874.206	15378
874.335	15382
874.464	15504
874.593	15557
874.722	15599
874.851	15667
874.979	15610
875.108	15747
875.237	15637
875.365	15625
875.494	15694
875.623	15705
875.751	15648
875.88	15663
876.008	15800
876.136	15816
876.265	16086
876.393	16109
876.521	16185
876.65	16101
876.778	16021
876.906	15941
877.034	15998
877.162	16059
877.29	15888
877.418	16082
877.546	16082
877.674	15945
877.802	15983
877.93	15998
878.058	16002
878.185	16029
878.313	15991
878.441	16086
878.568	15838
878.696	15983
878.824	16120
878.951	16177
879.079	16230
879.206	16375
879.333	16268
879.461	16219
879.588	16234
879.715	16322
879.842	16455
879.97	16090
880.097	15983
880.224	15816
880.351	15998
880.478	15979
880.605	15888
880.732	15937
880.859	16185
880.986	15968
881.112	15979
881.239	15915
881.366	15770
881.493	15568
881.619	15625
881.746	15606
881.872	15618
881.999	15485
882.125	15606
882.252	15705
882.378	15656
882.505	15618
882.631	15553
882.757	15507
882.883	15519
883.01	15458
883.136	15344
883.262	15252
883.388	15207
883.514	15447
883.64	15405
883.766	15325
883.892	15173
884.018	15252
884.143	15405
884.269	15469
884.395	15203
884.52	15085
884.646	15188
884.772	14963
884.897	14960
885.023	15135
885.148	15245
885.274	15165
885.399	15150
885.524	15055
885.65	15055
885.775	15173
885.9	15077
886.025	15180
886.15	15169
886.275	15001
886.4	14990
886.525	15020
886.65	15032
886.775	14971
886.9	15089
887.025	15298
887.149	15074
887.274	14937
887.399	14986
887.523	14906
887.648	14853
887.773	14777
887.897	14986
888.021	14979
888.146	14853
888.27	15024
888.395	15024
888.519	14937
888.643	15051
888.767	14937
888.891	14872
889.015	14708
889.139	14796
889.263	14750
889.387	14937
889.511	14967
889.635	14895
889.759	14746
889.883	14689
890.006	14826
890.13	14864
890.254	14727
890.377	14697
890.501	14712
890.624	14503
890.748	14575
890.871	14492
890.995	14396
891.118	14358
891.241	14450
891.364	14522
891.488	14552
891.611	14415
891.734	14381
891.857	14503
891.98	14545
892.103	14587
892.226	14438
892.349	14484
892.471	14301
892.594	14442
892.717	14434
892.839	14400
892.962	14450
893.085	14518
893.207	14370
893.33	14385
893.452	14381
893.575	14545
893.697	14480
893.819	14693
893.941	14613
894.064	14636
894.186	14313
894.308	14438
894.43	14621
894.552	14648
894.674	14564
894.796	14465
894.918	14488
895.04	14488
895.161	14590
895.283	14552
895.405	14412
895.526	14587
895.648	14568
895.769	14575
895.891	14579
896.012	14640
896.134	14670
896.255	14587
896.376	14537
896.498	14629
896.619	14720
896.74	14610
896.861	14731
896.982	14952
897.103	15180
897.224	14880
897.345	14796
897.466	14811
897.587	14986
897.708	14937
897.828	14910
897.949	14941
898.07	14792
898.19	14883
898.311	15036
898.431	14845
898.552	14967
898.672	15005
898.792	14975
898.913	14960
899.033	14849
899.153	14785
899.273	14762
899.393	14731
899.513	14735
899.633	14686
899.753	14815
899.873	14720
899.993	14883
900.113	14830
900.232	14693
900.352	14739
900.472	14750
900.591	14613
900.711	14613
900.83	14549
900.95	14788
901.069	14769
901.189	14655
901.308	14415
901.427	14339
901.546	14336
901.665	14385
901.784	14294
901.904	14199
902.023	14153
902.141	13947
902.26	13887
902.379	14001
902.498	13871
902.617	13826
902.735	13955
902.854	13841
902.973	13811
903.091	13662
903.21	13529
903.328	13643
903.446	13689
903.565	13453
903.683	13518
903.801	13346
903.919	13377
904.038	13324
904.156	13270
904.274	13362
904.392	13270
904.51	13259
904.627	13274
904.745	13388
904.863	13312
904.981	13023
905.098	12947
905.216	12962
905.334	13053
905.451	12951
905.569	12962
905.686	13046
905.803	13019
905.921	12894
906.038	12909
906.155	12776
906.272	12753
906.389	12722
906.506	12593
906.623	12566
906.74	12559
906.857	12369
906.974	12376
907.091	12703
907.208	12711
907.324	12517
907.441	12437
907.557	12350
907.674	12273
907.79	12224
907.907	12224
908.023	12281
908.139	12357
908.256	12213
908.372	12304
908.488	12216
908.604	12190
908.72	12064
908.836	12045
908.952	12045
909.068	12057
909.184	12110
909.3	12079
909.415	12072
909.531	12064
909.647	11885
909.762	11832
909.878	11786
909.993	11843
910.108	11874
910.224	11870
910.339	11786
910.454	11745
910.57	11600
910.685	11615
910.8	11946
910.915	11813
911.03	11767
911.145	11497
911.259	11509
911.374	11501
911.489	11387
911.604	11315
911.718	11250
911.833	11201
911.947	11189
912.062	11124
912.176	11185
912.291	11265
912.405	11242
912.519	11497
912.633	11440
912.748	11360
912.862	11216
912.976	11132
913.09	10999
913.204	11064
913.318	11208
913.431	11254
913.545	11220
913.659	11216
913.772	11170
913.886	10942
914	11083
914.113	11086
914.226	11151
914.34	11094
914.453	10961
914.566	11128
914.68	11006
914.793	10968
914.906	10805
915.019	10748
915.132	10683
915.245	10759
915.358	10755
915.47	10793
915.583	10797
915.696	10839
915.809	10896
915.921	10908
916.034	10763
916.146	10634
916.259	10645
916.371	10828
916.483	10736
916.595	10698
916.708	10691
916.82	10641
916.932	10740
917.044	10721
917.156	10660
917.268	10519
917.38	10603
917.491	10527
917.603	10645
917.715	10668
917.826	10611
917.938	10527
918.049	10466
918.161	10584
918.272	10786
918.384	10683
918.495	10622
918.606	10504
918.717	10356
918.828	10474
918.939	10459
919.05	10352
919.161	10432
919.272	10230
919.383	10314
919.494	10493
919.604	10698
919.715	10519
919.826	10443
919.936	10421
920.047	10538
920.157	10443
920.267	10626
920.378	10443
920.488	10466
920.598	10611
920.708	10873
920.818	10634
920.928	10672
921.038	10843
921.148	10812
921.258	10493
921.368	10394
921.477	10310
921.587	10287
921.697	10196
921.806	10352
921.916	10207
922.025	10021
922.134	10029
922.244	9926
922.353	10055
922.462	9937
922.571	9842
922.68	9705
922.789	9622
922.898	9816
923.007	9652
923.116	9846
923.224	9667
923.333	9663
923.442	9599
923.55	9538
923.659	9584
923.767	9622
923.876	9538
923.984	9652
924.092	9519
924.201	9534
924.309	9561
924.417	9587
924.525	9485
924.633	9519
924.741	10371
924.849	9348
924.956	9496
925.064	9321
925.172	9237
925.279	9302
925.387	9367
925.494	9348
925.602	9481
925.709	9462
925.816	9241
925.924	9405
926.031	9428
926.138	9367
926.245	9302
926.352	9233
926.459	9393
926.566	9435
926.673	9264
926.779	9154
926.886	9195
926.993	9074
927.099	9055
927.206	8979
927.312	9020
927.419	9089
927.525	9142
927.631	9100
927.737	9005
927.843	8967
927.95	8830
928.056	8918
928.162	8967
928.267	8982
928.373	9606
928.479	9093
928.585	8758
928.69	8952
928.796	9024
928.901	8845
929.007	8693
929.112	8838
929.218	8746
929.323	8796
929.428	8727
929.533	8845
929.638	8655
929.743	8766
929.848	8792
929.953	8712
930.058	8632
930.163	8556
930.267	8541
930.372	8686
930.477	8507
930.581	8807
930.685	8678
930.79	8469
930.894	8511
930.998	8457
931.103	8602
931.207	8298
931.311	8153
931.415	8149
931.519	7928
931.623	7970
