Data from test_V78500241_3599.txt Node
Date: Fri Mar 25 14:58:46 CST 2022
User: usil
Spectrometer: V785-0024
Trigger mode: 0
Integration Time (sec): 4.000000E-1
Scans to average: 1
Nonlinearity correction enabled: false
Boxcar width: 0
Storing dark spectrum: false
XAxis mode: Wavelengths
Number of Pixels in Spectrum: 1024
>>>>>Begin Spectral Data<<<<<
801.071	21869
801.214	21850
801.356	21572
801.499	21523
801.641	21378
801.783	21378
801.926	21351
802.068	21214
802.211	21146
802.353	21039
802.496	20781
802.638	20876
802.78	20758
802.923	20568
803.065	20640
803.208	20659
803.35	20606
803.492	20800
803.635	20857
803.777	20579
803.919	20800
804.061	21039
804.204	20720
804.346	20552
804.488	20488
804.63	20579
804.773	20396
804.915	20667
805.057	20632
805.199	20469
805.341	20579
805.483	20697
805.626	20686
805.768	20503
805.91	20549
806.052	20514
806.194	20419
806.336	20640
806.478	20446
806.62	20530
806.762	20549
806.904	20720
807.046	20994
807.188	20864
807.33	20838
807.472	20849
807.614	20743
807.756	20788
807.898	20640
808.04	20526
808.182	20518
808.324	20651
808.465	20530
808.607	20746
808.749	20815
808.891	20994
809.033	21001
809.174	20986
809.316	20823
809.458	20773
809.6	20754
809.741	21001
809.883	20971
810.025	21055
810.166	20891
810.308	21074
810.45	21001
810.591	20792
810.733	20686
810.875	20632
811.016	20473
811.158	20606
811.299	20655
811.441	20731
811.582	20727
811.724	20644
811.865	20545
812.007	20571
812.148	20693
812.29	20583
812.431	20739
812.573	20895
812.714	21089
812.855	21009
812.997	21192
813.138	21412
813.279	21245
813.421	21020
813.562	21070
813.703	20918
813.845	20899
813.986	20442
814.127	20309
814.268	20286
814.41	20157
814.551	20107
814.692	20286
814.833	20050
814.974	20088
815.115	20218
815.256	20122
815.397	19993
815.539	20043
815.68	19986
815.821	19864
815.962	19871
816.103	19849
816.244	19708
816.385	19544
816.526	19571
816.666	19449
816.807	19259
816.948	19480
817.089	19358
817.23	19324
817.371	19247
817.512	19194
817.653	19251
817.793	19194
817.934	19266
818.075	19221
818.216	19301
818.356	19324
818.497	19095
818.638	18932
818.778	18958
818.919	19015
819.06	19042
819.2	19122
819.341	19126
819.481	19187
819.622	19369
819.762	19438
819.903	19381
820.043	19487
820.184	19304
820.324	19164
820.465	19255
820.605	19316
820.746	19331
820.886	19137
821.026	19247
821.167	19194
821.307	19312
821.447	19202
821.588	19080
821.728	19004
821.868	18802
822.008	18673
822.149	18688
822.289	18635
822.429	18525
822.569	18437
822.709	18441
822.849	18372
822.99	18216
823.13	18117
823.27	18174
823.41	18011
823.55	17908
823.69	17958
823.83	17904
823.97	17836
824.11	17737
824.25	17767
824.389	17882
824.529	17874
824.669	17752
824.809	17813
824.949	17855
825.089	17752
825.228	17741
825.368	17600
825.508	17493
825.648	17585
825.787	17722
825.927	17562
826.067	17493
826.206	17452
826.346	17646
826.485	17444
826.625	17539
826.765	17627
826.904	17615
827.044	17261
827.183	17311
827.323	17132
827.462	17364
827.601	17147
827.741	17204
827.88	17212
828.02	17140
828.159	17216
828.298	17265
828.437	17303
828.577	17159
828.716	17337
828.855	17216
828.994	17045
829.134	17033
829.273	17045
829.412	17029
829.551	17014
829.69	16862
829.829	17037
829.968	17151
830.107	17052
830.246	17018
830.385	16896
830.524	16889
830.663	16835
830.802	16801
830.941	16622
831.08	16538
831.219	16698
831.357	16733
831.496	16877
831.635	16713
831.774	16485
831.913	16470
832.051	16443
832.19	16440
832.329	16398
832.467	16246
832.606	16261
832.744	16261
832.883	16246
833.022	16352
833.16	16314
833.299	16337
833.437	16333
833.576	16402
833.714	16470
833.852	16333
833.991	16405
834.129	16618
834.267	16485
834.406	16386
834.544	16375
834.682	16421
834.821	16413
834.959	16573
835.097	16314
835.235	16577
835.373	16417
835.511	16432
835.65	16322
835.788	16367
835.926	16128
836.064	16013
836.202	16150
836.34	16329
836.478	16344
836.615	16268
836.753	16318
836.891	16333
837.029	16402
837.167	16143
837.305	16200
837.443	16166
837.58	16128
837.718	16268
837.856	16169
837.993	16086
838.131	16211
838.269	16021
838.406	16071
838.544	16044
838.681	15861
838.819	15907
838.956	15743
839.094	15762
839.231	15713
839.369	15911
839.506	16131
839.643	15956
839.781	15766
839.918	15671
840.055	15759
840.193	15667
840.33	15705
840.467	15778
840.604	15671
840.742	16105
840.879	15663
841.016	15656
841.153	15603
841.29	15819
841.427	15675
841.564	15766
841.701	15656
841.838	15682
841.975	15572
842.112	15724
842.249	15549
842.385	15488
842.522	15793
842.659	15610
842.796	15469
842.933	15450
843.069	15507
843.206	15420
843.343	15606
843.479	15492
843.616	15549
843.752	15291
843.889	15382
844.025	15511
844.162	15317
844.298	15424
844.435	15283
844.571	15249
844.708	15359
844.844	15500
844.98	15420
845.117	15405
845.253	15264
845.389	15161
845.525	15268
845.661	15252
845.798	15074
845.934	15085
846.07	15070
846.206	15180
846.342	15230
846.478	15070
846.614	14933
846.75	14853
846.886	14864
847.022	14899
847.158	14823
847.294	14876
847.429	14918
847.565	14788
847.701	15032
847.837	14590
847.972	14598
848.108	14739
848.244	14746
848.379	14495
848.515	14530
848.65	14476
848.786	14442
848.921	14484
849.057	14613
849.192	14568
849.328	14434
849.463	14511
849.598	14396
849.734	14377
849.869	14324
850.004	14332
850.14	14271
850.275	14123
850.41	14100
850.545	14153
850.68	14161
850.815	14218
850.95	14210
851.085	14473
851.22	14286
851.355	14180
851.49	14267
851.625	14248
851.76	14240
851.895	14115
852.03	14100
852.165	14187
852.299	14267
852.434	14286
852.569	14229
852.703	14130
852.838	14294
852.973	14290
853.107	14343
853.242	14115
853.376	14138
853.511	14039
853.645	14077
853.78	14176
853.914	14142
854.048	14103
854.183	14084
854.317	14077
854.451	14244
854.585	14119
854.72	14065
854.854	14164
854.988	14016
855.122	14145
855.256	13917
855.39	14035
855.524	14233
855.658	14206
855.792	14157
855.926	14084
856.06	14191
856.194	14195
856.327	14145
856.461	13997
856.595	14073
856.729	14119
856.862	14176
856.996	14111
857.13	14111
857.263	14244
857.397	14282
857.53	14119
857.664	14092
857.797	14206
857.931	14103
858.064	14153
858.197	14161
858.331	14123
858.464	14081
858.597	13925
858.731	14138
858.864	14077
858.997	14077
859.13	14161
859.263	14237
859.396	14267
859.529	14077
859.662	14103
859.795	14111
859.928	14145
860.061	14362
860.194	14377
860.327	14149
860.46	14130
860.592	14195
860.725	14183
860.858	14237
860.99	14130
861.123	13974
861.256	14035
861.388	14107
861.521	14910
861.653	13947
861.786	13963
861.918	13936
862.05	14062
862.183	14084
862.315	14001
862.447	14240
862.58	14035
862.712	13909
862.844	13883
862.976	13959
863.108	13928
863.24	14256
863.372	13845
863.504	13860
863.636	13894
863.768	13909
863.9	13951
864.032	13807
864.164	13860
864.296	13978
864.428	14077
864.559	14073
864.691	14039
864.823	13967
864.954	13944
865.086	13925
865.217	13860
865.349	13795
865.48	13883
865.612	13841
865.743	14001
865.875	13845
866.006	13890
866.137	13818
866.269	13887
866.4	13883
866.531	13849
866.662	13791
866.793	13811
866.924	13879
867.055	13879
867.186	13807
867.317	13750
867.448	13776
867.579	13833
867.71	13814
867.841	13799
867.972	13830
868.103	13875
868.233	13921
868.364	13860
868.495	13887
868.625	14180
868.756	14229
868.886	14024
869.017	14153
869.147	14164
869.278	14191
869.408	14054
869.539	14092
869.669	14252
869.799	14191
869.929	14275
870.06	14210
870.19	14473
870.32	14362
870.45	14499
870.58	14583
870.71	14598
870.84	14648
870.97	14518
871.1	14412
871.23	14625
871.36	14697
871.489	14682
871.619	14663
871.749	14849
871.879	14792
872.008	14804
872.138	14785
872.267	14712
872.397	14594
872.526	14625
872.656	14442
872.785	14594
872.915	14708
873.044	14811
873.173	14750
873.303	14891
873.432	14887
873.561	14819
873.69	14807
873.819	14785
873.948	14800
874.077	14845
874.206	14705
874.335	14758
874.464	14941
874.593	15104
874.722	14963
874.851	15135
874.979	15051
875.108	15176
875.237	15051
875.365	14929
875.494	15062
875.623	15180
875.751	15104
875.88	15154
876.008	15237
876.136	15370
876.265	15488
876.393	15641
876.521	15610
876.65	15663
876.778	15515
876.906	15447
877.034	15458
877.162	15492
877.29	15469
877.418	15549
877.546	15405
877.674	15572
877.802	15492
877.93	15561
878.058	15450
878.185	15408
878.313	15496
878.441	15561
878.568	15359
878.696	15496
878.824	15469
878.951	15519
879.079	15603
879.206	15762
879.333	15705
879.461	15469
879.588	15587
879.715	15724
879.842	15800
879.97	15625
880.097	15374
880.224	15272
880.351	15374
880.478	15378
880.605	15294
880.732	15291
880.859	15587
880.986	15420
881.112	15397
881.239	15291
881.366	15142
881.493	14994
881.619	15104
881.746	15039
881.872	15017
881.999	14941
882.125	14967
882.252	15032
882.378	15051
882.505	15097
882.631	15017
882.757	14792
882.883	14895
883.01	14834
883.136	14864
883.262	14655
883.388	14746
883.514	14895
883.64	14963
883.766	14727
883.892	14682
884.018	14667
884.143	14811
884.269	14979
884.395	14617
884.52	14465
884.646	14514
884.772	14549
884.897	14393
885.023	14617
885.148	14587
885.274	14651
885.399	14708
885.524	14549
885.65	14480
885.775	14602
885.9	14473
886.025	14632
886.15	14533
886.275	14438
886.4	14575
886.525	14438
886.65	14511
886.775	14454
886.9	14590
887.025	14743
887.149	14492
887.274	14328
887.399	14339
887.523	14377
887.648	14286
887.773	14278
887.897	14446
888.021	14423
888.146	14412
888.27	14533
888.395	14507
888.519	14469
888.643	14488
888.767	14454
888.891	14267
889.015	14195
889.139	14199
889.263	14225
889.387	14298
889.511	14457
889.635	14385
889.759	14233
889.883	14309
890.006	14298
890.13	14332
890.254	14199
890.377	14252
890.501	13974
890.624	14126
890.748	14149
890.871	13906
890.995	13807
891.118	13830
891.241	13898
891.364	13959
891.488	14020
891.611	13940
891.734	13989
891.857	13989
891.98	13955
892.103	14031
892.226	14027
892.349	13986
892.471	13677
892.594	13841
892.717	13967
892.839	13978
892.962	14016
893.085	13959
893.207	13906
893.33	13799
893.452	13757
893.575	13978
893.697	13852
893.819	14001
893.941	14164
894.064	14111
894.186	13955
894.308	13978
894.43	14107
894.552	14168
894.674	14157
894.796	13906
894.918	14027
895.04	13944
895.161	14077
895.283	13989
895.405	13955
895.526	14016
895.648	14073
895.769	14157
895.891	14092
896.012	14206
896.134	14123
896.255	14043
896.376	14107
896.498	13970
896.619	14187
896.74	14218
896.861	14126
896.982	14431
897.103	14552
897.224	14484
897.345	14294
897.466	14343
897.587	14347
897.708	14488
897.828	14469
897.949	14351
898.07	14210
898.19	14366
898.311	14552
898.431	14385
898.552	14522
898.672	14419
898.792	14533
898.913	14469
899.033	14473
899.153	14355
899.273	14214
899.393	14317
899.513	14389
899.633	14244
899.753	14362
899.873	14218
899.993	14408
900.113	14332
900.232	14389
900.352	14282
900.472	14240
900.591	14206
900.711	14229
900.83	14191
900.95	14389
901.069	14355
901.189	14138
901.308	13944
901.427	13875
901.546	13868
901.665	13967
901.784	13925
901.904	13704
902.023	13651
902.141	13499
902.26	13464
902.379	13578
902.498	13369
902.617	13426
902.735	13377
902.854	13419
902.973	13403
903.091	13156
903.21	13152
903.328	13137
903.446	13084
903.565	12996
903.683	13046
903.801	12894
903.919	13072
904.038	12958
904.156	12901
904.274	12954
904.392	12802
904.51	12734
904.627	12795
904.745	12821
904.863	12882
904.981	12589
905.098	12494
905.216	12551
905.334	12604
905.451	12585
905.569	12506
905.686	12574
905.803	12532
905.921	12270
906.038	12426
906.155	12334
906.272	12232
906.389	12292
906.506	12129
906.623	12205
906.74	12110
906.857	12041
906.974	12064
907.091	12175
907.208	12258
907.324	12098
907.441	12102
907.557	11855
907.674	11946
907.79	11878
907.907	11863
908.023	11912
908.139	11828
908.256	11824
908.372	11729
908.488	11764
908.604	11623
908.72	11554
908.836	11741
908.952	11573
909.068	11684
909.184	11684
909.3	11653
909.415	11695
909.531	11672
909.647	11417
909.762	11429
909.878	11242
909.993	11406
910.108	11364
910.224	11288
910.339	11410
910.454	11326
910.57	11189
910.685	11181
910.8	11467
910.915	11349
911.03	11322
911.145	11067
911.259	11079
911.374	11098
911.489	10972
911.604	11022
911.718	10889
911.833	10976
911.947	10733
912.062	10725
912.176	10858
912.291	10919
912.405	10877
912.519	11090
912.633	11033
912.748	10915
912.862	10946
912.976	10778
913.09	10656
913.204	10698
913.318	10755
913.431	10843
913.545	10881
913.659	10904
913.772	10744
913.886	10611
914	10611
914.113	10717
914.226	10782
914.34	10641
914.453	10531
914.566	10721
914.68	10558
914.793	10565
914.906	10356
915.019	10344
915.132	10249
915.245	10405
915.358	10363
915.47	10413
915.583	10455
915.696	10409
915.809	10470
915.921	10599
916.034	10363
916.146	10337
916.259	10295
916.371	10394
916.483	10409
916.595	10314
916.708	10318
916.82	10341
916.932	10409
917.044	10291
917.156	10280
917.268	10215
917.38	10230
917.491	10253
917.603	10276
917.715	10299
917.826	10299
917.938	10188
918.049	10063
918.161	10200
918.272	10287
918.384	10341
918.495	10166
918.606	10036
918.717	9994
918.828	10135
918.939	10128
919.05	9987
919.161	10078
919.272	9850
919.383	9930
919.494	10181
919.604	10341
919.715	10131
919.826	9998
919.936	10082
920.047	10101
920.157	10093
920.267	10280
920.378	10154
920.488	10109
920.598	10348
920.708	10504
920.818	10344
920.928	10242
921.038	10531
921.148	10455
921.258	10207
921.368	10074
921.477	10048
921.587	9960
921.697	9857
921.806	9968
921.916	9838
922.025	9667
922.134	9679
922.244	9629
922.353	9762
922.462	9496
922.571	9496
922.68	9382
922.789	9374
922.898	9393
923.007	9351
923.116	9355
923.224	9355
923.333	9428
923.442	9260
923.55	9226
923.659	9294
923.767	9256
923.876	9218
923.984	9344
924.092	9188
924.201	9211
924.309	9226
924.417	9207
924.525	9161
924.633	9188
924.741	9903
924.849	9081
924.956	9180
925.064	9070
925.172	8899
925.279	8880
925.387	9058
925.494	8986
925.602	9218
925.709	9161
925.816	8982
925.924	9024
926.031	9108
926.138	9100
926.245	9055
926.352	8982
926.459	9081
926.566	9226
926.673	8967
926.779	8948
926.886	8861
926.993	8773
927.099	8716
927.206	8689
927.312	8697
927.419	8785
927.525	8697
927.631	8796
927.737	8651
927.843	8644
927.95	8549
928.056	8655
928.162	8575
928.267	8693
928.373	9211
928.479	8804
928.585	8507
928.69	8579
928.796	8648
928.901	8579
929.007	8415
929.112	8602
929.218	8473
929.323	8526
929.428	8457
929.533	8583
929.638	8374
929.743	8511
929.848	8457
929.953	8434
930.058	8339
930.163	8202
930.267	8233
930.372	8370
930.477	8172
930.581	8438
930.685	8305
930.79	8225
930.894	8214
930.998	8153
931.103	8309
931.207	7997
931.311	7894
931.415	7898
931.519	7647
931.623	7731
