Data from test_V78500241_462.txt Node
Date: Fri Mar 25 14:36:56 CST 2022
User: usil
Spectrometer: V785-0024
Trigger mode: 0
Integration Time (sec): 4.000000E-1
Scans to average: 1
Nonlinearity correction enabled: false
Boxcar width: 0
Storing dark spectrum: false
XAxis mode: Wavelengths
Number of Pixels in Spectrum: 1024
>>>>>Begin Spectral Data<<<<<
801.071	26636
801.214	26385
801.356	26229
801.499	26096
801.641	25989
801.783	25944
801.926	25849
802.068	26031
802.211	25765
802.353	25731
802.496	25552
802.638	25620
802.78	25514
802.923	25426
803.065	25274
803.208	25316
803.35	25514
803.492	25613
803.635	25708
803.777	25457
803.919	25540
804.061	25723
804.204	25620
804.346	25415
804.488	25369
804.63	25377
804.773	25373
804.915	25487
805.057	25643
805.199	25514
805.341	25476
805.483	25628
805.626	25457
805.768	25419
805.91	25449
806.052	25620
806.194	25468
806.336	25696
806.478	25563
806.62	25403
806.762	25609
806.904	25712
807.046	25890
807.188	25864
807.33	25837
807.472	25784
807.614	25795
807.756	25776
807.898	25578
808.04	25620
808.182	25613
808.324	25757
808.465	25700
808.607	25879
808.749	25947
808.891	26088
809.033	26206
809.174	26073
809.316	25830
809.458	26027
809.6	25894
809.741	26008
809.883	25932
810.025	26229
810.166	26073
810.308	26214
810.45	26119
810.591	26103
810.733	25963
810.875	25753
811.016	25826
811.158	25753
811.299	25936
811.441	25936
811.582	25940
811.724	25746
811.865	25788
812.007	25830
812.148	25772
812.29	25833
812.431	25902
812.573	26008
812.714	26062
812.855	26362
812.997	26499
813.138	26617
813.279	26313
813.421	26309
813.562	26142
813.703	25997
813.845	26050
813.986	25616
814.127	25495
814.268	25354
814.41	25422
814.551	25499
814.692	25422
814.833	25350
814.974	25259
815.115	25301
815.256	25312
815.397	25095
815.539	25225
815.68	25194
815.821	25122
815.962	24985
816.103	25084
816.244	24928
816.385	24738
816.526	24757
816.666	24604
816.807	24521
816.948	24616
817.089	24654
817.23	24471
817.371	24532
817.512	24517
817.653	24410
817.793	24330
817.934	24471
818.075	24452
818.216	24452
818.356	24403
818.497	24273
818.638	24152
818.778	24106
818.919	24079
819.06	24133
819.2	24334
819.341	24365
819.481	24334
819.622	24593
819.762	24700
819.903	24650
820.043	24616
820.184	24471
820.324	24502
820.465	24582
820.605	24456
820.746	24513
820.886	24330
821.026	24376
821.167	24330
821.307	24563
821.447	24330
821.588	24289
821.728	24049
821.868	24064
822.008	23916
822.149	23817
822.289	23878
822.429	23589
822.569	23581
822.709	23577
822.849	23299
822.99	23391
823.13	23269
823.27	23117
823.41	23220
823.55	22904
823.69	23204
823.83	23037
823.97	22908
824.11	23010
824.25	22805
824.389	22809
824.529	22980
824.669	22687
824.809	22972
824.949	22961
825.089	22980
825.228	22786
825.368	22607
825.508	22721
825.648	22698
825.787	22744
825.927	22679
826.067	22634
826.206	22611
826.346	22596
826.485	22592
826.625	22554
826.765	22824
826.904	22603
827.044	22512
827.183	22325
827.323	22211
827.462	22310
827.601	22242
827.741	22382
827.88	22363
828.02	22310
828.159	22341
828.298	22299
828.437	22280
828.577	22325
828.716	22371
828.855	22246
828.994	22044
829.134	21945
829.273	21987
829.412	21918
829.551	21983
829.69	21956
829.829	22002
829.968	22051
830.107	22067
830.246	21979
830.385	22006
830.524	21785
830.663	21713
830.802	21759
830.941	21587
831.08	21519
831.219	21648
831.357	21606
831.496	21781
831.635	21443
831.774	21504
831.913	21359
832.051	21348
832.19	21321
832.329	21298
832.467	21252
832.606	21302
832.744	21203
832.883	21165
833.022	21203
833.16	21161
833.299	21173
833.437	21226
833.576	21317
833.714	21173
833.852	21313
833.991	21298
834.129	21351
834.267	21272
834.406	21294
834.544	21325
834.682	21180
834.821	21070
834.959	21370
835.097	21150
835.235	21344
835.373	21188
835.511	21241
835.65	21074
835.788	21169
835.926	20982
836.064	20914
836.202	20944
836.34	21070
836.478	21207
836.615	20998
836.753	21036
836.891	21169
837.029	21142
837.167	21009
837.305	20975
837.443	21020
837.58	20948
837.718	21081
837.856	20948
837.993	20891
838.131	20914
838.269	20891
838.406	20933
838.544	20872
838.681	20606
838.819	20511
838.956	20446
839.094	20362
839.231	20442
839.369	20461
839.506	20830
839.643	20526
839.781	20370
839.918	20282
840.055	20343
840.193	20301
840.33	20332
840.467	20320
840.604	20377
840.742	20541
840.879	20202
841.016	20221
841.153	20229
841.29	20328
841.427	20385
841.564	20381
841.701	20366
841.838	20275
841.975	20187
842.112	20142
842.249	20103
842.385	20027
842.522	20339
842.659	20119
842.796	20065
842.933	20195
843.069	20012
843.206	19955
843.343	20183
843.479	20039
843.616	20092
843.752	19868
843.889	19814
844.025	19944
844.162	19860
844.298	19951
844.435	19738
844.571	19708
844.708	19845
844.844	19883
844.98	19864
845.117	19841
845.253	19788
845.389	19495
845.525	19731
845.661	19674
845.798	19586
845.934	19632
846.07	19506
846.206	19556
846.342	19647
846.478	19559
846.614	19407
846.75	19308
846.886	19285
847.022	19301
847.158	19259
847.294	19244
847.429	19354
847.565	19301
847.701	19426
847.837	19008
847.972	18958
848.108	19072
848.244	18951
848.379	18856
848.515	18764
848.65	18760
848.786	18844
848.921	18909
849.057	18958
849.192	18886
849.328	18730
849.463	18745
849.598	18730
849.734	18707
849.869	18684
850.004	18536
850.14	18566
850.275	18623
850.41	18452
850.545	18498
850.68	18559
850.815	18597
850.95	18528
851.085	18681
851.22	18745
851.355	18441
851.49	18574
851.625	18475
851.76	18471
851.895	18422
852.03	18399
852.165	18544
852.299	18601
852.434	18593
852.569	18528
852.703	18566
852.838	18570
852.973	18563
853.107	18582
853.242	18388
853.376	18464
853.511	18323
853.645	18296
853.78	18513
853.914	18479
854.048	18273
854.183	18372
854.317	18422
854.451	18547
854.585	18372
854.72	18334
854.854	18445
854.988	18258
855.122	18350
855.256	18190
855.39	18346
855.524	18464
855.658	18372
855.792	18380
855.926	18323
856.06	18433
856.194	18460
856.327	18353
856.461	18311
856.595	18182
856.729	18232
856.862	18388
856.996	18342
857.13	18365
857.263	18532
857.397	18433
857.53	18315
857.664	18342
857.797	18475
857.931	18448
858.064	18403
858.197	18464
858.331	18448
858.464	18281
858.597	18190
858.731	18239
858.864	18273
858.997	18239
859.13	18273
859.263	18262
859.396	18395
859.529	18247
859.662	18228
859.795	18125
859.928	18235
860.061	18330
860.194	18460
860.327	18410
860.46	18243
860.592	18475
860.725	18486
860.858	18448
860.99	18243
861.123	18213
861.256	18270
861.388	18209
861.521	19038
861.653	18311
861.786	18091
861.918	18163
862.05	18228
862.183	18391
862.315	18350
862.447	18369
862.58	18235
862.712	18026
862.844	18019
862.976	18121
863.108	18152
863.24	18479
863.372	18011
863.504	17908
863.636	18049
863.768	18087
863.9	18011
864.032	17980
864.164	17923
864.296	17961
864.428	18041
864.559	18144
864.691	18228
864.823	17935
864.954	17973
865.086	18026
865.217	18030
865.349	17828
865.48	17977
865.612	17931
865.743	17999
865.875	17965
866.006	17969
866.137	17851
866.269	18030
866.4	17965
866.531	17878
866.662	17809
866.793	17999
866.924	17874
867.055	17984
867.186	17908
867.317	17805
867.448	17764
867.579	17904
867.71	17802
867.841	17836
867.972	17912
868.103	17988
868.233	18019
868.364	18003
868.495	18041
868.625	18201
868.756	18228
868.886	18038
869.017	17984
869.147	18232
869.278	18186
869.408	18117
869.539	18174
869.669	18258
869.799	18121
869.929	18342
870.06	18235
870.19	18456
870.32	18369
870.45	18528
870.58	18471
870.71	18715
870.84	18726
870.97	18445
871.1	18544
871.23	18627
871.36	18719
871.489	18650
871.619	18593
871.749	18646
871.879	18833
872.008	18863
872.138	18776
872.267	18623
872.397	18627
872.526	18559
872.656	18509
872.785	18597
872.915	18669
873.044	18810
873.173	18700
873.303	18798
873.432	18817
873.561	18795
873.69	18821
873.819	18700
873.948	18825
874.077	18798
874.206	18779
874.335	18772
874.464	18871
874.593	19084
874.722	19042
874.851	19080
874.979	19019
875.108	19171
875.237	19000
875.365	18962
875.494	19015
875.623	19099
875.751	19084
875.88	19099
876.008	19122
876.136	19320
876.265	19556
876.393	19506
876.521	19495
876.65	19510
876.778	19491
876.906	19343
877.034	19381
877.162	19514
877.29	19392
877.418	19438
877.546	19480
877.674	19415
877.802	19468
877.93	19392
878.058	19434
878.185	19460
878.313	19411
878.441	19377
878.568	19251
878.696	19247
878.824	19434
878.951	19521
879.079	19620
879.206	19723
879.333	19590
879.461	19365
879.588	19632
879.715	19750
879.842	19696
879.97	19502
880.097	19270
880.224	19285
880.351	19320
880.478	19217
880.605	19164
880.732	19236
880.859	19556
880.986	19282
881.112	19312
881.239	19038
881.366	19012
881.493	18924
881.619	18852
881.746	18966
881.872	18913
881.999	18833
882.125	18905
882.252	18920
882.378	18859
882.505	19042
882.631	18844
882.757	18627
882.883	18650
883.01	18669
883.136	18627
883.262	18445
883.388	18544
883.514	18661
883.64	18650
883.766	18467
883.892	18422
884.018	18521
884.143	18703
884.269	18711
884.395	18342
884.52	18251
884.646	18304
884.772	18163
884.897	18239
885.023	18277
885.148	18365
885.274	18467
885.399	18315
885.524	18445
885.65	18273
885.775	18178
885.9	18232
886.025	18452
886.15	18327
886.275	18273
886.4	18144
886.525	18319
886.65	18258
886.775	18258
886.9	18308
887.025	18479
887.149	18224
887.274	18182
887.399	18159
887.523	18076
887.648	18098
887.773	17999
887.897	18125
888.021	18144
888.146	17923
888.27	18144
888.395	18155
888.519	18117
888.643	18136
888.767	18129
888.891	17897
889.015	17836
889.139	17935
889.263	17840
889.387	17992
889.511	18030
889.635	17999
889.759	17859
889.883	17901
890.006	17874
890.13	18015
890.254	17866
890.377	17821
890.501	17729
890.624	17684
890.748	17726
890.871	17634
890.995	17448
891.118	17478
891.241	17505
891.364	17539
891.488	17596
891.611	17490
891.734	17558
891.857	17562
891.98	17528
892.103	17570
892.226	17630
892.349	17387
892.471	17254
892.594	17501
892.717	17596
892.839	17455
892.962	17490
893.085	17577
893.207	17474
893.33	17284
893.452	17383
893.575	17524
893.697	17429
893.819	17551
893.941	17657
894.064	17539
894.186	17368
894.308	17463
894.43	17539
894.552	17760
894.674	17684
894.796	17440
894.918	17406
895.04	17436
895.161	17642
895.283	17562
895.405	17395
895.526	17532
895.648	17421
895.769	17524
895.891	17471
896.012	17551
896.134	17570
896.255	17627
896.376	17520
896.498	17551
896.619	17661
896.74	17581
896.861	17695
896.982	17977
897.103	18064
897.224	17855
897.345	17752
897.466	17642
897.587	17809
897.708	17958
897.828	17748
897.949	17726
898.07	17638
898.19	17695
898.311	17866
898.431	17672
898.552	17912
898.672	17843
898.792	17813
898.913	17779
899.033	17646
899.153	17581
899.273	17558
899.393	17604
899.513	17566
899.633	17566
899.753	17562
899.873	17482
899.993	17486
900.113	17516
900.232	17455
900.352	17482
900.472	17414
900.591	17425
900.711	17459
900.83	17376
900.95	17554
901.069	17512
901.189	17246
901.308	16984
901.427	17025
901.546	17056
901.665	17060
901.784	17052
901.904	16980
902.023	16759
902.141	16542
902.26	16615
902.379	16615
902.498	16550
902.617	16523
902.735	16599
902.854	16504
902.973	16436
903.091	16303
903.21	16249
903.328	16204
903.446	16166
903.565	16131
903.683	15987
903.801	15968
903.919	16082
904.038	16074
904.156	15854
904.274	15892
904.392	15816
904.51	15812
904.627	15751
904.745	15918
904.863	15915
904.981	15553
905.098	15511
905.216	15568
905.334	15606
905.451	15530
905.569	15469
905.686	15526
905.803	15496
905.921	15344
906.038	15462
906.155	15389
906.272	15146
906.389	15321
906.506	15100
906.623	15123
906.74	15058
906.857	15058
906.974	15036
907.091	15211
907.208	15188
907.324	15169
907.441	15032
907.557	14830
907.674	14872
907.79	14720
907.907	14758
908.023	14853
908.139	14743
908.256	14807
908.372	14720
908.488	14640
908.604	14602
908.72	14537
908.836	14564
908.952	14492
909.068	14442
909.184	14594
909.3	14461
909.415	14610
909.531	14545
909.647	14298
909.762	14301
909.878	14103
909.993	14248
910.108	14168
910.224	14233
910.339	14180
910.454	14168
910.57	14092
910.685	13928
910.8	14271
910.915	14176
911.03	14115
911.145	13871
911.259	13795
911.374	13833
911.489	13791
911.604	13700
911.718	13712
911.833	13647
911.947	13552
912.062	13415
912.176	13674
912.291	13537
912.405	13571
912.519	13803
912.633	13788
912.748	13643
912.862	13514
912.976	13468
913.09	13384
913.204	13331
913.318	13483
913.431	13403
913.545	13506
913.659	13548
913.772	13449
913.886	13316
914	13221
914.113	13331
914.226	13445
914.34	13339
914.453	13187
914.566	13327
914.68	13228
914.793	13141
914.906	13072
915.019	12890
915.132	12916
915.245	12962
915.358	13053
915.47	12989
915.583	12973
915.696	13076
915.809	13088
915.921	13072
916.034	12993
916.146	12947
916.259	13019
916.371	12890
916.483	12985
916.595	12856
916.708	12749
916.82	12867
916.932	12787
917.044	12806
917.156	12700
917.268	12711
917.38	12738
917.491	12601
917.603	12620
917.715	12817
917.826	12814
917.938	12646
918.049	12563
918.161	12654
918.272	12795
918.384	12791
918.495	12688
918.606	12448
918.717	12490
918.828	12517
918.939	12582
919.05	12475
919.161	12433
919.272	12342
919.383	12441
919.494	12509
919.604	12578
919.715	12464
919.826	12452
919.936	12464
920.047	12532
920.157	12464
920.267	12635
920.378	12448
920.488	12471
920.598	12612
920.708	12810
920.818	12646
920.928	12623
921.038	12734
921.148	12825
921.258	12395
921.368	12365
921.477	12266
921.587	12285
921.697	12030
921.806	12144
921.916	12049
922.025	11908
922.134	11950
922.244	11927
922.353	11988
922.462	11813
922.571	11741
922.68	11592
922.789	11535
922.898	11653
923.007	11497
923.116	11547
923.224	11528
923.333	11551
923.442	11478
923.55	11433
923.659	11482
923.767	11467
923.876	11444
923.984	11474
924.092	11269
924.201	11398
924.309	11444
924.417	11337
924.525	11345
924.633	11307
924.741	12224
924.849	11132
924.956	11345
925.064	11128
925.172	11090
925.279	11193
925.387	11147
925.494	11113
925.602	11170
925.709	11201
925.816	10976
925.924	10987
926.031	11174
926.138	11170
926.245	11132
926.352	11056
926.459	11064
926.566	11094
926.673	11060
926.779	10858
926.886	10949
926.993	10866
927.099	10763
927.206	10714
927.312	10744
927.419	10702
927.525	10733
927.631	10729
927.737	10630
927.843	10588
927.95	10489
928.056	10504
928.162	10569
928.267	10618
928.373	11201
928.479	10691
928.585	10497
928.69	10592
928.796	10607
928.901	10516
929.007	10284
929.112	10508
929.218	10375
929.323	10424
929.428	10337
929.533	10424
929.638	10234
929.743	10261
929.848	10314
929.953	10265
930.058	10238
930.163	10048
930.267	10112
930.372	10253
930.477	10063
930.581	10249
930.685	10116
930.79	9907
930.894	10021
930.998	10002
931.103	10086
931.207	9705
931.311	9629
931.415	9625
931.519	9412
931.623	9492
