Data from test_V78500241_3057.txt Node
Date: Fri Mar 25 14:55:00 CST 2022
User: usil
Spectrometer: V785-0024
Trigger mode: 0
Integration Time (sec): 4.000000E-1
Scans to average: 1
Nonlinearity correction enabled: false
Boxcar width: 0
Storing dark spectrum: false
XAxis mode: Wavelengths
Number of Pixels in Spectrum: 1024
>>>>>Begin Spectral Data<<<<<
801.071	22124
801.214	22048
801.356	21842
801.499	21739
801.641	21488
801.783	21443
801.926	21545
802.068	21397
802.211	21279
802.353	21294
802.496	21085
802.638	20948
802.78	21001
802.923	20956
803.065	20868
803.208	20800
803.35	20933
803.492	20963
803.635	20975
803.777	20727
803.919	20971
804.061	21176
804.204	20861
804.346	20796
804.488	20724
804.63	20720
804.773	20674
804.915	20712
805.057	20842
805.199	20682
805.341	20826
805.483	20823
805.626	20735
805.768	20693
805.91	20750
806.052	20800
806.194	20815
806.336	20880
806.478	20727
806.62	20636
806.762	20716
806.904	20861
807.046	21222
807.188	21070
807.33	20967
807.472	21070
807.614	21028
807.756	20899
807.898	20781
808.04	20754
808.182	20815
808.324	20758
808.465	20899
808.607	20887
808.749	21043
808.891	21142
809.033	21313
809.174	21249
809.316	21138
809.458	21081
809.6	20986
809.741	21062
809.883	21127
810.025	21192
810.166	21237
810.308	21214
810.45	21150
810.591	21146
810.733	20971
810.875	20925
811.016	20834
811.158	20754
811.299	20891
811.441	20971
811.582	20967
811.724	20880
811.865	20826
812.007	20762
812.148	20887
812.29	20853
812.431	21062
812.573	21116
812.714	21165
812.855	21405
812.997	21447
813.138	21549
813.279	21591
813.421	21382
813.562	21272
813.703	21070
813.845	21001
813.986	20697
814.127	20617
814.268	20457
814.41	20415
814.551	20476
814.692	20423
814.833	20461
814.974	20385
815.115	20427
815.256	20240
815.397	20336
815.539	20233
815.68	20161
815.821	20043
815.962	20111
816.103	20122
816.244	20073
816.385	19894
816.526	19856
816.666	19689
816.807	19548
816.948	19635
817.089	19620
817.23	19464
817.371	19540
817.512	19457
817.653	19506
817.793	19441
817.934	19510
818.075	19635
818.216	19525
818.356	19544
818.497	19400
818.638	19126
818.778	19133
818.919	19206
819.06	19377
819.2	19354
819.341	19438
819.481	19369
819.622	19540
819.762	19689
819.903	19666
820.043	19529
820.184	19521
820.324	19582
820.465	19472
820.605	19441
820.746	19411
820.886	19350
821.026	19499
821.167	19411
821.307	19506
821.447	19362
821.588	19221
821.728	19206
821.868	19152
822.008	18840
822.149	18993
822.289	18928
822.429	18642
822.569	18627
822.709	18608
822.849	18399
822.99	18281
823.13	18410
823.27	18361
823.41	18194
823.55	18194
823.69	18239
823.83	18258
823.97	18140
824.11	17851
824.25	17961
824.389	17969
824.529	18049
824.669	17988
824.809	18068
824.949	18011
825.089	18060
825.228	17965
825.368	17775
825.508	17783
825.648	17752
825.787	17783
825.927	17672
826.067	17699
826.206	17710
826.346	17668
826.485	17737
826.625	17794
826.765	17729
826.904	17786
827.044	17528
827.183	17547
827.323	17406
827.462	17455
827.601	17417
827.741	17402
827.88	17440
828.02	17341
828.159	17376
828.298	17410
828.437	17520
828.577	17482
828.716	17433
828.855	17368
828.994	17181
829.134	17151
829.273	17170
829.412	17166
829.551	17159
829.69	17136
829.829	17102
829.968	17311
830.107	17208
830.246	17277
830.385	17067
830.524	17037
830.663	16900
830.802	16881
830.941	16740
831.08	16683
831.219	16881
831.357	16801
831.496	17022
831.635	16831
831.774	16774
831.913	16698
832.051	16630
832.19	16550
832.329	16500
832.467	16535
832.606	16493
832.744	16466
832.883	16417
833.022	16459
833.16	16500
833.299	16421
833.437	16504
833.576	16550
833.714	16504
833.852	16577
833.991	16523
834.129	16588
834.267	16508
834.406	16493
834.544	16516
834.682	16634
834.821	16523
834.959	16675
835.097	16417
835.235	16535
835.373	16493
835.511	16550
835.65	16417
835.788	16299
835.926	16238
836.064	16181
836.202	16223
836.34	16481
836.478	16447
836.615	16352
836.753	16337
836.891	16500
837.029	16455
837.167	16367
837.305	16310
837.443	16295
837.58	16261
837.718	16276
837.856	16314
837.993	16257
838.131	16226
838.269	16185
838.406	16226
838.544	16120
838.681	15907
838.819	15949
838.956	15888
839.094	15808
839.231	15850
839.369	15960
839.506	16280
839.643	16013
839.781	15884
839.918	15797
840.055	15781
840.193	15819
840.33	15720
840.467	15827
840.604	15861
840.742	16032
840.879	15675
841.016	15755
841.153	15774
841.29	15895
841.427	15800
841.564	15884
841.701	15838
841.838	15880
841.975	15648
842.112	15682
842.249	15549
842.385	15500
842.522	15679
842.659	15587
842.796	15618
842.933	15603
843.069	15549
843.206	15538
843.343	15652
843.479	15553
843.616	15644
843.752	15389
843.889	15447
844.025	15488
844.162	15374
844.298	15530
844.435	15351
844.571	15237
844.708	15393
844.844	15408
844.98	15526
845.117	15431
845.253	15355
845.389	15252
845.525	15321
845.661	15283
845.798	15161
845.934	15268
846.07	15070
846.206	15222
846.342	15169
846.478	15169
846.614	15013
846.75	14872
846.886	14933
847.022	15066
847.158	14952
847.294	15009
847.429	15081
847.565	14899
847.701	15089
847.837	14769
847.972	14670
848.108	14758
848.244	14712
848.379	14602
848.515	14549
848.65	14514
848.786	14549
848.921	14568
849.057	14602
849.192	14644
849.328	14655
849.463	14537
849.598	14476
849.734	14495
849.869	14461
850.004	14469
850.14	14339
850.275	14286
850.41	14271
850.545	14278
850.68	14267
850.815	14377
850.95	14252
851.085	14404
851.22	14393
851.355	14328
851.49	14271
851.625	14225
851.76	14305
851.895	14180
852.03	14244
852.165	14343
852.299	14248
852.434	14355
852.569	14362
852.703	14328
852.838	14400
852.973	14476
853.107	14412
853.242	14282
853.376	14240
853.511	14081
853.645	14119
853.78	14195
853.914	14202
854.048	14130
854.183	14176
854.317	14221
854.451	14377
854.585	14176
854.72	14084
854.854	14328
854.988	14103
855.122	14191
855.256	13993
855.39	14149
855.524	14298
855.658	14214
855.792	14214
855.926	14153
856.06	14301
856.194	14328
856.327	14115
856.461	14103
856.595	14153
856.729	14103
856.862	14180
856.996	14191
857.13	14202
857.263	14294
857.397	14328
857.53	14161
857.664	14320
857.797	14244
857.931	14313
858.064	14221
858.197	14339
858.331	14172
858.464	14199
858.597	14187
858.731	14183
858.864	14305
858.997	14134
859.13	14317
859.263	14183
859.396	14275
859.529	14172
859.662	14206
859.795	14172
859.928	14195
860.061	14324
860.194	14362
860.327	14214
860.46	14157
860.592	14328
860.725	14309
860.858	14252
860.99	14244
861.123	14069
861.256	14134
861.388	14164
861.521	14918
861.653	14119
861.786	14027
861.918	14050
862.05	14073
862.183	14149
862.315	14145
862.447	14153
862.58	14126
862.712	14016
862.844	13955
862.976	14069
863.108	13928
863.24	14377
863.372	13837
863.504	14012
863.636	13986
863.768	14008
863.9	13989
864.032	13989
864.164	14016
864.296	14077
864.428	14134
864.559	14024
864.691	14001
864.823	14092
864.954	13974
865.086	14012
865.217	13921
865.349	13875
865.48	14012
865.612	13928
865.743	14069
865.875	13947
866.006	13970
866.137	13955
866.269	13925
866.4	13909
866.531	13864
866.662	13902
866.793	13974
866.924	13940
867.055	13932
867.186	13944
867.317	13890
867.448	13769
867.579	13887
867.71	13936
867.841	13909
867.972	13989
868.103	13902
868.233	14005
868.364	13947
868.495	14001
868.625	14180
868.756	14221
868.886	14126
869.017	14130
869.147	14256
869.278	14256
869.408	14180
869.539	14191
869.669	14233
869.799	14225
869.929	14183
870.06	14290
870.19	14526
870.32	14495
870.45	14541
870.58	14530
870.71	14629
870.84	14651
870.97	14602
871.1	14640
871.23	14739
871.36	14811
871.489	14640
871.619	14788
871.749	14754
871.879	14777
872.008	14956
872.138	14811
872.267	14792
872.397	14743
872.526	14568
872.656	14598
872.785	14648
872.915	14845
873.044	14876
873.173	14861
873.303	14902
873.432	14883
873.561	14838
873.69	14743
873.819	14876
873.948	14921
874.077	14864
874.206	14876
874.335	14895
874.464	14910
874.593	15150
874.722	15051
874.851	15226
874.979	15146
875.108	15131
875.237	15108
875.365	15066
875.494	15123
875.623	15169
875.751	15154
875.88	15138
876.008	15264
876.136	15393
876.265	15553
876.393	15641
876.521	15622
876.65	15614
876.778	15599
876.906	15519
877.034	15564
877.162	15564
877.29	15431
877.418	15610
877.546	15637
877.674	15614
877.802	15488
877.93	15469
878.058	15473
878.185	15416
878.313	15549
878.441	15557
878.568	15485
878.696	15526
878.824	15701
878.951	15618
879.079	15785
879.206	15850
879.333	15694
879.461	15561
879.588	15709
879.715	15701
879.842	15960
879.97	15679
880.097	15340
880.224	15431
880.351	15526
880.478	15344
880.605	15424
880.732	15405
880.859	15644
880.986	15405
881.112	15447
881.239	15378
881.366	15142
881.493	15184
881.619	14986
881.746	15127
881.872	15165
881.999	15077
882.125	14971
882.252	15169
882.378	15100
882.505	15245
882.631	15104
882.757	14902
882.883	14937
883.01	14895
883.136	14804
883.262	14777
883.388	14777
883.514	14971
883.64	14944
883.766	14739
883.892	14720
884.018	14807
884.143	14864
884.269	14883
884.395	14598
884.52	14587
884.646	14575
884.772	14571
884.897	14473
885.023	14560
885.148	14773
885.274	14773
885.399	14765
885.524	14632
885.65	14632
885.775	14606
885.9	14648
886.025	14705
886.15	14663
886.275	14533
886.4	14457
886.525	14522
886.65	14552
886.775	14594
886.9	14819
887.025	14826
887.149	14644
887.274	14473
887.399	14332
887.523	14419
887.648	14362
887.773	14381
887.897	14488
888.021	14583
888.146	14457
888.27	14480
888.395	14495
888.519	14484
888.643	14537
888.767	14518
888.891	14450
889.015	14240
889.139	14339
889.263	14343
889.387	14355
889.511	14446
889.635	14454
889.759	14218
889.883	14290
890.006	14275
890.13	14389
890.254	14256
890.377	14195
890.501	14157
890.624	14161
890.748	14240
890.871	14016
890.995	13978
891.118	13860
891.241	14008
891.364	13986
891.488	14073
891.611	13913
891.734	14058
891.857	14111
891.98	14001
892.103	14187
892.226	14103
892.349	13932
892.471	13826
892.594	14005
892.717	14027
892.839	13997
892.962	13932
893.085	14100
893.207	14054
893.33	13898
893.452	13989
893.575	14062
893.697	14012
893.819	14153
893.941	14282
894.064	14233
894.186	13902
894.308	13955
894.43	14172
894.552	14206
894.674	14027
894.796	13997
894.918	14024
895.04	14145
895.161	14119
895.283	14172
895.405	13936
895.526	14111
895.648	14119
895.769	14103
895.891	14161
896.012	14225
896.134	14233
896.255	14199
896.376	14123
896.498	14206
896.619	14164
896.74	14221
896.861	14187
896.982	14564
897.103	14625
897.224	14514
897.345	14488
897.466	14396
897.587	14385
897.708	14499
897.828	14488
897.949	14434
898.07	14301
898.19	14442
898.311	14727
898.431	14442
898.552	14526
898.672	14610
898.792	14640
898.913	14549
899.033	14526
899.153	14358
899.273	14336
899.393	14393
899.513	14275
899.633	14396
899.753	14480
899.873	14396
899.993	14412
900.113	14362
900.232	14408
900.352	14317
900.472	14374
900.591	14278
900.711	14218
900.83	14233
900.95	14358
901.069	14434
901.189	14168
901.308	14103
901.427	13925
901.546	13875
901.665	14077
901.784	13936
901.904	13837
902.023	13586
902.141	13464
902.26	13510
902.379	13571
902.498	13434
902.617	13487
902.735	13556
902.854	13434
902.973	13533
903.091	13247
903.21	13160
903.328	13263
903.446	13240
903.565	13076
903.683	13202
903.801	13031
903.919	13091
904.038	13072
904.156	12958
904.274	12916
904.392	12791
904.51	12856
904.627	12882
904.745	12894
904.863	12996
904.981	12715
905.098	12593
905.216	12574
905.334	12688
905.451	12563
905.569	12536
905.686	12715
905.803	12559
905.921	12395
906.038	12445
906.155	12403
906.272	12281
906.389	12292
906.506	12148
906.623	12159
906.74	12171
906.857	12068
906.974	12129
907.091	12266
907.208	12315
907.324	12209
907.441	12079
907.557	11950
907.674	11912
907.79	11901
907.907	11885
908.023	11916
908.139	11927
908.256	11866
908.372	11726
908.488	11771
908.604	11722
908.72	11653
908.836	11752
908.952	11623
909.068	11630
909.184	11790
909.3	11676
909.415	11737
909.531	11649
909.647	11486
909.762	11444
909.878	11459
909.993	11330
910.108	11474
910.224	11391
910.339	11436
910.454	11376
910.57	11288
910.685	11254
910.8	11535
910.915	11421
911.03	11250
911.145	11178
911.259	11128
911.374	11151
911.489	11029
911.604	11052
911.718	10923
911.833	10949
911.947	10904
912.062	10733
912.176	10839
912.291	10847
912.405	10854
912.519	11105
912.633	11094
912.748	10904
912.862	10942
912.976	10854
913.09	10740
913.204	10725
913.318	10820
913.431	10850
913.545	10847
913.659	10919
913.772	10797
913.886	10641
914	10611
914.113	10752
914.226	10763
914.34	10767
914.453	10542
914.566	10816
914.68	10721
914.793	10618
914.906	10276
915.019	10394
915.132	10394
915.245	10405
915.358	10485
915.47	10485
915.583	10440
915.696	10493
915.809	10550
915.921	10508
916.034	10367
916.146	10390
916.259	10352
916.371	10500
916.483	10451
916.595	10318
916.708	10356
916.82	10371
916.932	10371
917.044	10322
917.156	10291
917.268	10177
917.38	10299
917.491	10188
917.603	10276
917.715	10348
917.826	10337
917.938	10253
918.049	10059
918.161	10299
918.272	10428
918.384	10322
918.495	10284
918.606	10147
918.717	10135
918.828	10173
918.939	10074
919.05	9934
919.161	10124
919.272	9960
919.383	9975
919.494	10227
919.604	10348
919.715	10090
919.826	10025
919.936	10044
920.047	10166
920.157	10101
920.267	10379
920.378	10143
920.488	10215
920.598	10287
920.708	10569
920.818	10356
920.928	10310
921.038	10428
921.148	10386
921.258	10238
921.368	10177
921.477	10006
921.587	10013
921.697	9907
921.806	10036
921.916	9903
922.025	9732
922.134	9671
922.244	9698
922.353	9778
922.462	9580
922.571	9625
922.68	9401
922.789	9412
922.898	9458
923.007	9420
923.116	9458
923.224	9428
923.333	9389
923.442	9317
923.55	9317
923.659	9408
923.767	9317
923.876	9321
923.984	9363
924.092	9218
924.201	9302
924.309	9348
924.417	9302
924.525	9249
924.633	9233
924.741	10177
924.849	9047
924.956	9203
925.064	9070
925.172	9013
925.279	9051
925.387	9104
925.494	9024
925.602	9173
925.709	9169
925.816	8975
925.924	9028
926.031	9131
926.138	9097
926.245	9150
926.352	8967
926.459	9062
926.566	9154
926.673	9055
926.779	8982
926.886	8956
926.993	8872
927.099	8777
927.206	8773
927.312	8701
927.419	8773
927.525	8838
927.631	8823
927.737	8724
927.843	8689
927.95	8602
928.056	8636
928.162	8689
928.267	8743
928.373	9173
928.479	8773
928.585	8552
928.69	8674
928.796	8720
928.901	8590
929.007	8423
929.112	8602
929.218	8541
929.323	8537
929.428	8488
929.533	8648
929.638	8492
929.743	8507
929.848	8507
929.953	8465
930.058	8408
930.163	8259
930.267	8279
930.372	8450
930.477	8256
930.581	8507
930.685	8404
930.79	8244
930.894	8191
930.998	8282
931.103	8362
931.207	8027
931.311	8020
931.415	7963
931.519	7734
931.623	7753
