Data from test_V78500241_1128.txt Node
Date: Fri Mar 25 14:41:34 CST 2022
User: usil
Spectrometer: V785-0024
Trigger mode: 0
Integration Time (sec): 4.000000E-1
Scans to average: 1
Nonlinearity correction enabled: false
Boxcar width: 0
Storing dark spectrum: false
XAxis mode: Wavelengths
Number of Pixels in Spectrum: 1024
>>>>>Begin Spectral Data<<<<<
801.071	22645
801.214	22615
801.356	22242
801.499	22135
801.641	22040
801.783	21930
801.926	21975
802.068	21857
802.211	21743
802.353	21816
802.496	21477
802.638	21462
802.78	21374
802.923	21447
803.065	21207
803.208	21207
803.35	21424
803.492	21454
803.635	21557
803.777	21344
803.919	21351
804.061	21644
804.204	21355
804.346	21131
804.488	21146
804.63	21214
804.773	21154
804.915	21230
805.057	21336
805.199	21146
805.341	21332
805.483	21233
805.626	21412
805.768	21146
805.91	21233
806.052	21203
806.194	21203
806.336	21389
806.478	21165
806.62	21192
806.762	21298
806.904	21359
807.046	21743
807.188	21614
807.33	21587
807.472	21610
807.614	21580
807.756	21545
807.898	21428
808.04	21416
808.182	21504
808.324	21610
808.465	21519
808.607	21724
808.749	21922
808.891	22090
809.033	22116
809.174	22029
809.316	21838
809.458	21911
809.6	21751
809.741	21804
809.883	21823
810.025	21873
810.166	21934
810.308	21903
810.45	21762
810.591	21720
810.733	21610
810.875	21492
811.016	21378
811.158	21393
811.299	21523
811.441	21428
811.582	21599
811.724	21428
811.865	21332
812.007	21378
812.148	21378
812.29	21454
812.431	21652
812.573	21724
812.714	21751
812.855	21842
812.997	21987
813.138	22215
813.279	22006
813.421	21903
813.562	21835
813.703	21781
813.845	21545
813.986	21367
814.127	21096
814.268	21017
814.41	21081
814.551	20861
814.692	21157
814.833	20933
814.974	20990
815.115	21047
815.256	20765
815.397	20834
815.539	20948
815.68	20876
815.821	20564
815.962	20792
816.103	20625
816.244	20465
816.385	20431
816.526	20427
816.666	20237
816.807	20172
816.948	20290
817.089	20282
817.23	20119
817.371	20286
817.512	20020
817.653	20043
817.793	20153
817.934	20122
818.075	20248
818.216	20111
818.356	20020
818.497	19970
818.638	19856
818.778	19864
818.919	19784
819.06	19818
819.2	19868
819.341	19890
819.481	20043
819.622	20210
819.762	20199
819.903	20278
820.043	20142
820.184	20134
820.324	20157
820.465	20096
820.605	20122
820.746	20054
820.886	20016
821.026	20145
821.167	20206
821.307	20183
821.447	20024
821.588	19830
821.728	19845
821.868	19647
822.008	19415
822.149	19422
822.289	19533
822.429	19244
822.569	19168
822.709	19152
822.849	19057
822.99	19160
823.13	18947
823.27	18825
823.41	18939
823.55	18829
823.69	18837
823.83	18772
823.97	18730
824.11	18585
824.25	18513
824.389	18635
824.529	18650
824.669	18486
824.809	18661
824.949	18673
825.089	18544
825.228	18700
825.368	18376
825.508	18384
825.648	18334
825.787	18407
825.927	18448
826.067	18323
826.206	18346
826.346	18407
826.485	18357
826.625	18384
826.765	18483
826.904	18410
827.044	18209
827.183	18167
827.323	18038
827.462	18163
827.601	18102
827.741	18136
827.88	18041
828.02	17882
828.159	18072
828.298	18102
828.437	18079
828.577	18049
828.716	18216
828.855	18049
828.994	17885
829.134	17870
829.273	17832
829.412	17722
829.551	17672
829.69	17805
829.829	17866
829.968	17847
830.107	18015
830.246	17855
830.385	17741
830.524	17642
830.663	17653
830.802	17577
830.941	17532
831.08	17474
831.219	17539
831.357	17558
831.496	17642
831.635	17398
831.774	17383
831.913	17307
832.051	17242
832.19	17242
832.329	17299
832.467	17239
832.606	17140
832.744	17083
832.883	17098
833.022	17124
833.16	17174
833.299	17124
833.437	17212
833.576	17299
833.714	17223
833.852	17315
833.991	17231
834.129	17280
834.267	17292
834.406	17231
834.544	17151
834.682	17265
834.821	17235
834.959	17406
835.097	17143
835.235	17307
835.373	17292
835.511	17166
835.65	17185
835.788	17029
835.926	16961
836.064	16908
836.202	16934
836.34	17045
836.478	17128
836.615	17071
836.753	17090
836.891	17151
837.029	17170
837.167	17083
837.305	16927
837.443	16942
837.58	16881
837.718	17113
837.856	16911
837.993	16995
838.131	16858
838.269	16881
838.406	16934
838.544	16736
838.681	16615
838.819	16660
838.956	16577
839.094	16489
839.231	16504
839.369	16558
839.506	16965
839.643	16717
839.781	16531
839.918	16428
840.055	16432
840.193	16485
840.33	16466
840.467	16603
840.604	16546
840.742	16759
840.879	16402
841.016	16436
841.153	16489
841.29	16565
841.427	16489
841.564	16459
841.701	16459
841.838	16535
841.975	16508
842.112	16325
842.249	16284
842.385	16322
842.522	16413
842.659	16329
842.796	16242
842.933	16303
843.069	16223
843.206	16223
843.343	16268
843.479	16322
843.616	16341
843.752	16154
843.889	16051
844.025	16185
844.162	16032
844.298	16333
844.435	16105
844.571	16036
844.708	16139
844.844	16169
844.98	16287
845.117	16188
845.253	16055
845.389	16063
845.525	16124
845.661	16074
845.798	16090
845.934	16158
846.07	16185
846.206	16238
846.342	16242
846.478	15930
846.614	15759
846.75	15671
846.886	15671
847.022	15850
847.158	15663
847.294	15724
847.429	15698
847.565	15663
847.701	15827
847.837	15401
847.972	15378
848.108	15397
848.244	15302
848.379	15245
848.515	15127
848.65	15161
848.786	15188
848.921	15237
849.057	15283
849.192	15382
849.328	15389
849.463	15275
849.598	15104
849.734	15127
849.869	15047
850.004	14952
850.14	15020
850.275	14963
850.41	14826
850.545	14849
850.68	14948
850.815	15013
850.95	14948
851.085	15131
851.22	15176
851.355	14914
851.49	14899
851.625	14906
851.76	15085
851.895	14853
852.03	14872
852.165	14868
852.299	14963
852.434	15062
852.569	15001
852.703	15001
852.838	15024
852.973	15161
853.107	15157
853.242	14956
853.376	14857
853.511	14758
853.645	14804
853.78	14967
853.914	14876
854.048	14765
854.183	14845
854.317	14895
854.451	15097
854.585	14880
854.72	14804
854.854	14887
854.988	14788
855.122	14826
855.256	14610
855.39	14910
855.524	14944
855.658	14895
855.792	14883
855.926	14918
856.06	14781
856.194	14948
856.327	14887
856.461	14849
856.595	14826
856.729	14849
856.862	14918
856.996	14887
857.13	14918
857.263	14937
857.397	14963
857.53	14845
857.664	14925
857.797	14857
857.931	14963
858.064	14880
858.197	14941
858.331	14845
858.464	14769
858.597	14750
858.731	15001
858.864	14819
858.997	14743
859.13	14872
859.263	14910
859.396	14963
859.529	14796
859.662	14876
859.795	14883
859.928	14819
860.061	14956
860.194	14952
860.327	14849
860.46	14826
860.592	14994
860.725	15005
860.858	14971
860.99	14758
861.123	14781
861.256	14750
861.388	14857
861.521	15557
861.653	14727
861.786	14735
861.918	14644
862.05	14796
862.183	14750
862.315	14765
862.447	14807
862.58	14762
862.712	14571
862.844	14560
862.976	14701
863.108	14575
863.24	15062
863.372	14545
863.504	14587
863.636	14571
863.768	14758
863.9	14651
864.032	14526
864.164	14545
864.296	14663
864.428	14777
864.559	14750
864.691	14697
864.823	14621
864.954	14648
865.086	14610
865.217	14469
865.349	14579
865.48	14564
865.612	14560
865.743	14724
865.875	14636
866.006	14545
866.137	14621
866.269	14511
866.4	14648
866.531	14484
866.662	14583
866.793	14606
866.924	14537
867.055	14621
867.186	14579
867.317	14560
867.448	14545
867.579	14587
867.71	14484
867.841	14415
867.972	14590
868.103	14499
868.233	14518
868.364	14590
868.495	14686
868.625	14781
868.756	14895
868.886	14697
869.017	14811
869.147	14883
869.278	14929
869.408	14918
869.539	14811
869.669	14826
869.799	14868
869.929	14960
870.06	14963
870.19	15180
870.32	15123
870.45	15146
870.58	15203
870.71	15340
870.84	15313
870.97	15214
871.1	15241
871.23	15313
871.36	15420
871.489	15428
871.619	15389
871.749	15393
871.879	15450
872.008	15561
872.138	15401
872.267	15374
872.397	15287
872.526	15195
872.656	15157
872.785	15268
872.915	15348
873.044	15545
873.173	15477
873.303	15496
873.432	15572
873.561	15534
873.69	15431
873.819	15519
873.948	15580
874.077	15515
874.206	15386
874.335	15428
874.464	15538
874.593	15698
874.722	15709
874.851	15812
874.979	15816
875.108	15876
875.237	15694
875.365	15682
875.494	15739
875.623	15766
875.751	15793
875.88	15968
876.008	15884
876.136	15884
876.265	16246
876.393	16344
876.521	16242
876.65	16253
876.778	16230
876.906	16211
877.034	16147
877.162	16162
877.29	16112
877.418	16112
877.546	16306
877.674	16261
877.802	16207
877.93	16109
878.058	16112
878.185	16112
878.313	16257
878.441	16230
878.568	16074
878.696	16238
878.824	16333
878.951	16421
879.079	16500
879.206	16523
879.333	16459
879.461	16382
879.588	16508
879.715	16554
879.842	16702
879.97	16432
880.097	16196
880.224	16097
880.351	16207
880.478	16135
880.605	16010
880.732	16082
880.859	16322
880.986	16105
881.112	16090
881.239	15907
881.366	15781
881.493	15701
881.619	15724
881.746	15739
881.872	15690
881.999	15739
882.125	15694
882.252	15698
882.378	15633
882.505	15869
882.631	15625
882.757	15561
882.883	15572
883.01	15568
883.136	15603
883.262	15481
883.388	15507
883.514	15515
883.64	15610
883.766	15450
883.892	15367
884.018	15393
884.143	15481
884.269	15671
884.395	15336
884.52	15211
884.646	15363
884.772	15127
884.897	15150
885.023	15336
885.148	15325
885.274	15466
885.399	15294
885.524	15287
885.65	15188
885.775	15336
885.9	15252
886.025	15325
886.15	15260
886.275	15154
886.4	15127
886.525	15241
886.65	15161
886.775	15108
886.9	15325
887.025	15443
887.149	15230
887.274	15039
887.399	15013
887.523	15058
887.648	15070
887.773	14921
887.897	15116
888.021	15112
888.146	14986
888.27	15135
888.395	15218
888.519	15028
888.643	15100
888.767	15176
888.891	15020
889.015	14994
889.139	14982
889.263	14861
889.387	15131
889.511	15097
889.635	14986
889.759	14849
889.883	14758
890.006	14883
890.13	14998
890.254	14868
890.377	14781
890.501	14800
890.624	14632
890.748	14781
890.871	14587
890.995	14571
891.118	14575
891.241	14697
891.364	14579
891.488	14682
891.611	14598
891.734	14625
891.857	14716
891.98	14617
892.103	14689
892.226	14610
892.349	14678
892.471	14495
892.594	14571
892.717	14556
892.839	14549
892.962	14621
893.085	14640
893.207	14602
893.33	14442
893.452	14499
893.575	14621
893.697	14568
893.819	14651
893.941	14765
894.064	14724
894.186	14537
894.308	14507
894.43	14743
894.552	14765
894.674	14769
894.796	14450
894.918	14617
895.04	14716
895.161	14667
895.283	14651
895.405	14659
895.526	14568
895.648	14697
895.769	14758
895.891	14731
896.012	14781
896.134	14785
896.255	14735
896.376	14655
896.498	14724
896.619	14804
896.74	14746
896.861	14952
896.982	15028
897.103	15272
897.224	15013
897.345	15058
897.466	14979
897.587	14906
897.708	15074
897.828	15104
897.949	14971
898.07	14929
898.19	15058
898.311	15165
898.431	15024
898.552	15051
898.672	15188
898.792	15135
898.913	15123
899.033	14975
899.153	14933
899.273	14921
899.393	14895
899.513	14944
899.633	14952
899.753	14918
899.873	14948
899.993	14914
900.113	14830
900.232	15009
900.352	14872
900.472	14807
900.591	14739
900.711	14826
900.83	14682
900.95	14845
901.069	14834
901.189	14693
901.308	14610
901.427	14469
901.546	14530
901.665	14454
901.784	14545
901.904	14317
902.023	14202
902.141	14073
902.26	14016
902.379	14088
902.498	14069
902.617	14062
902.735	14073
902.854	13997
902.973	13902
903.091	13742
903.21	13780
903.328	13738
903.446	13670
903.565	13605
903.683	13586
903.801	13476
903.919	13552
904.038	13533
904.156	13460
904.274	13403
904.392	13304
904.51	13396
904.627	13365
904.745	13480
904.863	13434
904.981	13213
905.098	13118
905.216	13061
905.334	13095
905.451	13160
905.569	13099
905.686	13072
905.803	13050
905.921	12909
906.038	13046
906.155	12947
906.272	12814
906.389	12810
906.506	12654
906.623	12673
906.74	12593
906.857	12597
906.974	12597
907.091	12700
907.208	12783
907.324	12665
907.441	12559
907.557	12429
907.674	12471
907.79	12407
907.907	12372
908.023	12452
908.139	12414
908.256	12353
908.372	12262
908.488	12247
908.604	12209
908.72	12057
908.836	12110
908.952	12076
909.068	12228
909.184	12300
909.3	12110
909.415	12254
909.531	12224
909.647	11980
909.762	11977
909.878	11863
909.993	11878
910.108	11935
910.224	11874
910.339	11901
910.454	11859
910.57	11794
910.685	11741
910.8	11969
910.915	11828
911.03	11745
911.145	11585
911.259	11535
911.374	11627
911.489	11482
911.604	11474
911.718	11406
911.833	11372
911.947	11356
912.062	11208
912.176	11368
912.291	11265
912.405	11486
912.519	11509
912.633	11570
912.748	11406
912.862	11398
912.976	11246
913.09	11083
913.204	11189
913.318	11159
913.431	11311
913.545	11326
913.659	11330
913.772	11258
913.886	11102
914	11124
914.113	11162
914.226	11235
914.34	11220
914.453	10984
914.566	11223
914.68	10991
914.793	11022
914.906	10839
915.019	10850
915.132	10740
915.245	10805
915.358	10877
915.47	10828
915.583	10812
915.696	10835
915.809	11037
915.921	10987
916.034	10831
916.146	10835
916.259	10755
916.371	10889
916.483	10869
916.595	10763
916.708	10755
916.82	10790
916.932	10755
917.044	10683
917.156	10767
917.268	10679
917.38	10664
917.491	10656
917.603	10714
917.715	10729
917.826	10763
917.938	10596
918.049	10561
918.161	10626
918.272	10790
918.384	10858
918.495	10660
918.606	10542
918.717	10432
918.828	10542
918.939	10554
919.05	10443
919.161	10523
919.272	10341
919.383	10424
919.494	10630
919.604	10702
919.715	10504
919.826	10508
919.936	10580
920.047	10729
920.157	10596
920.267	10790
920.378	10603
920.488	10580
920.598	10740
920.708	10904
920.818	10725
920.928	10736
921.038	10984
921.148	10869
921.258	10694
921.368	10489
921.477	10390
921.587	10462
921.697	10196
921.806	10333
921.916	10382
922.025	10135
922.134	10135
922.244	10074
922.353	10162
922.462	9983
922.571	9960
922.68	9869
922.789	9766
922.898	9785
923.007	9736
923.116	9736
923.224	9751
923.333	9743
923.442	9629
923.55	9720
923.659	9663
923.767	9698
923.876	9599
923.984	9667
924.092	9614
924.201	9679
924.309	9648
924.417	9618
924.525	9576
924.633	9591
924.741	10394
924.849	9348
924.956	9576
925.064	9435
925.172	9325
925.279	9363
925.387	9405
925.494	9370
925.602	9542
925.709	9496
925.816	9367
925.924	9435
926.031	9500
926.138	9363
926.245	9477
926.352	9287
926.459	9454
926.566	9580
926.673	9325
926.779	9279
926.886	9218
926.993	9184
927.099	9062
927.206	9104
927.312	9051
927.419	9302
927.525	9150
927.631	9104
927.737	8960
927.843	8979
927.95	8891
928.056	9032
928.162	9066
928.267	9066
928.373	9660
928.479	9131
928.585	8826
928.69	9009
928.796	9013
928.901	8925
929.007	8708
929.112	8895
929.218	8902
929.323	8823
929.428	8792
929.533	8994
929.638	8804
929.743	8823
929.848	8891
929.953	8792
930.058	8693
930.163	8606
930.267	8560
930.372	8750
930.477	8476
930.581	8823
930.685	8651
930.79	8446
930.894	8541
930.998	8545
931.103	8625
931.207	8343
931.311	8305
931.415	8240
931.519	8024
931.623	7970
