Data from test_V78500241_2155.txt Node
Date: Fri Mar 25 14:48:43 CST 2022
User: usil
Spectrometer: V785-0024
Trigger mode: 0
Integration Time (sec): 4.000000E-1
Scans to average: 1
Nonlinearity correction enabled: false
Boxcar width: 0
Storing dark spectrum: false
XAxis mode: Wavelengths
Number of Pixels in Spectrum: 1024
>>>>>Begin Spectral Data<<<<<
801.071	22230
801.214	21972
801.356	21884
801.499	21736
801.641	21595
801.783	21557
801.926	21530
802.068	21428
802.211	21431
802.353	21329
802.496	21131
802.638	21123
802.78	21032
802.923	20842
803.065	20834
803.208	20849
803.35	20830
803.492	20811
803.635	21043
803.777	20819
803.919	20952
804.061	21233
804.204	20963
804.346	20777
804.488	20743
804.63	20868
804.773	20952
804.915	20948
805.057	20853
805.199	20735
805.341	21013
805.483	21005
805.626	20929
805.768	20765
805.91	20811
806.052	21001
806.194	20773
806.336	20872
806.478	20746
806.62	20777
806.762	20830
806.904	21017
807.046	21165
807.188	21123
807.33	21135
807.472	21226
807.614	21005
807.756	21032
807.898	20914
808.04	20925
808.182	20948
808.324	20925
808.465	21017
808.607	21123
808.749	21085
808.891	21154
809.033	21378
809.174	21336
809.316	21161
809.458	21207
809.6	21127
809.741	21192
809.883	21192
810.025	21405
810.166	21374
810.308	21313
810.45	21310
810.591	21222
810.733	21123
810.875	20982
811.016	20937
811.158	20876
811.299	20880
811.441	21150
811.582	21119
811.724	20975
811.865	20838
812.007	20948
812.148	20933
812.29	21093
812.431	21127
812.573	21230
812.714	21329
812.855	21496
812.997	21492
813.138	21713
813.279	21610
813.421	21561
813.562	21317
813.703	21150
813.845	21077
813.986	20765
814.127	20686
814.268	20552
814.41	20583
814.551	20545
814.692	20644
814.833	20419
814.974	20434
815.115	20511
815.256	20320
815.397	20366
815.539	20343
815.68	20336
815.821	20221
815.962	20244
816.103	20081
816.244	20134
816.385	19951
816.526	20050
816.666	19742
816.807	19731
816.948	19845
817.089	19849
817.23	19765
817.371	19708
817.512	19613
817.653	19700
817.793	19674
817.934	19677
818.075	19616
818.216	19594
818.356	19658
818.497	19510
818.638	19362
818.778	19343
818.919	19350
819.06	19308
819.2	19495
819.341	19533
819.481	19540
819.622	19750
819.762	19788
819.903	19738
820.043	19624
820.184	19765
820.324	19696
820.465	19715
820.605	19662
820.746	19674
820.886	19430
821.026	19670
821.167	19521
821.307	19628
821.447	19552
821.588	19438
821.728	19232
821.868	19198
822.008	18977
822.149	18962
822.289	18989
822.429	18806
822.569	18692
822.709	18692
822.849	18563
822.99	18479
823.13	18471
823.27	18464
823.41	18327
823.55	18403
823.69	18311
823.83	18243
823.97	18235
824.11	18159
824.25	18102
824.389	18254
824.529	18095
824.669	18083
824.809	18209
824.949	18197
825.089	18106
825.228	18079
825.368	17939
825.508	17832
825.648	17851
825.787	17916
825.927	17950
826.067	17863
826.206	17805
826.346	17916
826.485	17992
826.625	17965
826.765	18133
826.904	17874
827.044	17638
827.183	17703
827.323	17581
827.462	17657
827.601	17570
827.741	17600
827.88	17512
828.02	17429
828.159	17520
828.298	17532
828.437	17604
828.577	17459
828.716	17707
828.855	17589
828.994	17414
829.134	17410
829.273	17493
829.412	17242
829.551	17155
829.69	17254
829.829	17246
829.968	17459
830.107	17372
830.246	17330
830.385	17189
830.524	17265
830.663	17136
830.802	16930
830.941	17041
831.08	16877
831.219	17143
831.357	16995
831.496	17220
831.635	16995
831.774	16911
831.913	16835
832.051	16744
832.19	16687
832.329	16782
832.467	16656
832.606	16538
832.744	16573
832.883	16554
833.022	16573
833.16	16649
833.299	16622
833.437	16683
833.576	16710
833.714	16702
833.852	16675
833.991	16660
834.129	16717
834.267	16611
834.406	16618
834.544	16679
834.682	16694
834.821	16569
834.959	16881
835.097	16527
835.235	16778
835.373	16698
835.511	16748
835.65	16664
835.788	16478
835.926	16360
836.064	16341
836.202	16394
836.34	16603
836.478	16599
836.615	16554
836.753	16580
836.891	16645
837.029	16615
837.167	16584
837.305	16512
837.443	16592
837.58	16329
837.718	16565
837.856	16519
837.993	16348
838.131	16428
838.269	16314
838.406	16371
838.544	16348
838.681	16116
838.819	16124
838.956	15915
839.094	16021
839.231	16036
839.369	16207
839.506	16310
839.643	16135
839.781	16002
839.918	15895
840.055	16040
840.193	15915
840.33	15979
840.467	15983
840.604	15972
840.742	16200
840.879	15915
841.016	15903
841.153	16002
841.29	16002
841.427	16090
841.564	16082
841.701	15968
841.838	15975
841.975	15968
842.112	15876
842.249	15873
842.385	15812
842.522	15930
842.659	15793
842.796	15759
842.933	15781
843.069	15743
843.206	15660
843.343	15861
843.479	15724
843.616	15694
843.752	15572
843.889	15614
844.025	15644
844.162	15614
844.298	15606
844.435	15641
844.571	15485
844.708	15682
844.844	15686
844.98	15690
845.117	15690
845.253	15584
845.389	15428
845.525	15382
845.661	15420
845.798	15382
845.934	15416
846.07	15294
846.206	15359
846.342	15462
846.478	15325
846.614	15131
846.75	15055
846.886	15127
847.022	15116
847.158	15039
847.294	15085
847.429	15256
847.565	15066
847.701	15313
847.837	14864
847.972	14811
848.108	14857
848.244	15017
848.379	14727
848.515	14746
848.65	14781
848.786	14731
848.921	14739
849.057	14727
849.192	14864
849.328	14735
849.463	14659
849.598	14716
849.734	14731
849.869	14648
850.004	14533
850.14	14530
850.275	14461
850.41	14488
850.545	14374
850.68	14438
850.815	14454
850.95	14507
851.085	14743
851.22	14545
851.355	14465
851.49	14476
851.625	14488
851.76	14492
851.895	14355
852.03	14370
852.165	14499
852.299	14522
852.434	14590
852.569	14617
852.703	14530
852.838	14549
852.973	14693
853.107	14625
853.242	14415
853.376	14347
853.511	14275
853.645	14237
853.78	14438
853.914	14305
854.048	14343
854.183	14267
854.317	14339
854.451	14587
854.585	14389
854.72	14389
854.854	14355
854.988	14210
855.122	14317
855.256	14214
855.39	14438
855.524	14404
855.658	14469
855.792	14317
855.926	14389
856.06	14415
856.194	14434
856.327	14282
856.461	14309
856.595	14282
856.729	14389
856.862	14431
856.996	14400
857.13	14328
857.263	14450
857.397	14564
857.53	14362
857.664	14374
857.797	14438
857.931	14446
858.064	14415
858.197	14450
858.331	14408
858.464	14358
858.597	14229
858.731	14362
858.864	14412
858.997	14286
859.13	14282
859.263	14271
859.396	14385
859.529	14328
859.662	14298
859.795	14278
859.928	14355
860.061	14537
860.194	14579
860.327	14404
860.46	14313
860.592	14355
860.725	14450
860.858	14442
860.99	14282
861.123	14263
861.256	14294
861.388	14305
861.521	14887
861.653	14202
861.786	14134
861.918	14263
862.05	14225
862.183	14294
862.315	14393
862.447	14400
862.58	14244
862.712	13989
862.844	14100
862.976	14218
863.108	14278
863.24	14408
863.372	14103
863.504	14081
863.636	14168
863.768	14176
863.9	14126
864.032	14115
864.164	14081
864.296	14111
864.428	14317
864.559	14237
864.691	14191
864.823	14145
864.954	14172
865.086	14240
865.217	14046
865.349	14005
865.48	14176
865.612	14206
865.743	14298
865.875	14119
866.006	14119
866.137	14088
866.269	14157
866.4	14107
866.531	13993
866.662	14145
866.793	14119
866.924	14115
867.055	14202
867.186	14050
867.317	14084
867.448	14054
867.579	14073
867.71	14035
867.841	14069
867.972	14111
868.103	14161
868.233	14142
868.364	14084
868.495	14339
868.625	14290
868.756	14438
868.886	14290
869.017	14351
869.147	14461
869.278	14545
869.408	14419
869.539	14355
869.669	14530
869.799	14396
869.929	14423
870.06	14571
870.19	14663
870.32	14651
870.45	14735
870.58	14754
870.71	14830
870.84	14914
870.97	14792
871.1	14693
871.23	14967
871.36	14849
871.489	14929
871.619	15001
871.749	14990
871.879	15036
872.008	15154
872.138	14902
872.267	14998
872.397	14933
872.526	14807
872.656	14777
872.785	14819
872.915	14960
873.044	15104
873.173	15089
873.303	15131
873.432	15157
873.561	15066
873.69	15051
873.819	14990
873.948	15112
874.077	15131
874.206	14994
874.335	15020
874.464	15154
874.593	15252
874.722	15161
874.851	15298
874.979	15428
875.108	15374
875.237	15351
875.365	15359
875.494	15302
875.623	15469
875.751	15340
875.88	15287
876.008	15492
876.136	15564
876.265	15686
876.393	15953
876.521	15759
876.65	15819
876.778	15800
876.906	15717
877.034	15644
877.162	15698
877.29	15720
877.418	15778
877.546	15770
877.674	15660
877.802	15770
877.93	15755
878.058	15663
878.185	15660
878.313	15717
878.441	15778
878.568	15663
878.696	15679
878.824	15739
878.951	15793
879.079	15922
879.206	16105
879.333	15865
879.461	15789
879.588	15869
879.715	15895
879.842	16040
879.97	15831
880.097	15698
880.224	15580
880.351	15629
880.478	15644
880.605	15519
880.732	15656
880.859	15876
880.986	15572
881.112	15732
881.239	15538
881.366	15382
881.493	15359
881.619	15317
881.746	15374
881.872	15260
881.999	15264
882.125	15218
882.252	15336
882.378	15306
882.505	15401
882.631	15264
882.757	15104
882.883	15100
883.01	15070
883.136	14967
883.262	14914
883.388	14902
883.514	15104
883.64	15127
883.766	14967
883.892	14880
884.018	14895
884.143	15127
884.269	15138
884.395	14735
884.52	14762
884.646	14773
884.772	14667
884.897	14674
885.023	14686
885.148	14887
885.274	14956
885.399	14777
885.524	14785
885.65	14788
885.775	14861
885.9	14842
886.025	14845
886.15	14792
886.275	14788
886.4	14781
886.525	14720
886.65	14773
886.775	14708
886.9	14937
887.025	15039
887.149	14815
887.274	14575
887.399	14556
887.523	14552
887.648	14556
887.773	14537
887.897	14686
888.021	14670
888.146	14610
888.27	14602
888.395	14735
888.519	14590
888.643	14598
888.767	14583
888.891	14492
889.015	14366
889.139	14587
889.263	14412
889.387	14415
889.511	14716
889.635	14533
889.759	14465
889.883	14469
890.006	14389
890.13	14579
890.254	14415
890.377	14480
890.501	14275
890.624	14233
890.748	14290
890.871	14275
890.995	14126
891.118	14157
891.241	14153
891.364	14138
891.488	14244
891.611	14176
891.734	14077
891.857	14225
891.98	14187
892.103	14218
892.226	14294
892.349	14195
892.471	14062
892.594	14145
892.717	14191
892.839	14134
892.962	14214
893.085	14214
893.207	14149
893.33	14020
893.452	14172
893.575	14195
893.697	14168
893.819	14423
893.941	14374
894.064	14427
894.186	14073
894.308	14157
894.43	14267
894.552	14298
894.674	14225
894.796	14103
894.918	14237
895.04	14252
895.161	14320
895.283	14362
895.405	14164
895.526	14252
895.648	14183
895.769	14431
895.891	14343
896.012	14324
896.134	14286
896.255	14339
896.376	14324
896.498	14450
896.619	14480
896.74	14294
896.861	14427
896.982	14632
897.103	14705
897.224	14644
897.345	14629
897.466	14499
897.587	14503
897.708	14731
897.828	14644
897.949	14549
898.07	14503
898.19	14579
898.311	14724
898.431	14598
898.552	14648
898.672	14716
898.792	14758
898.913	14667
899.033	14575
899.153	14495
899.273	14389
899.393	14583
899.513	14518
899.633	14613
899.753	14575
899.873	14518
899.993	14613
900.113	14457
900.232	14587
900.352	14480
900.472	14438
900.591	14290
900.711	14374
900.83	14320
900.95	14465
901.069	14552
901.189	14362
901.308	14161
901.427	13970
901.546	14084
901.665	14161
901.784	14115
901.904	14043
902.023	13928
902.141	13742
902.26	13620
902.379	13723
902.498	13689
902.617	13537
902.735	13586
902.854	13655
902.973	13647
903.091	13343
903.21	13282
903.328	13293
903.446	13308
903.565	13175
903.683	13236
903.801	13103
903.919	13190
904.038	13168
904.156	12977
904.274	13091
904.392	12962
904.51	12951
904.627	13046
904.745	13122
904.863	13065
904.981	12817
905.098	12738
905.216	12673
905.334	12764
905.451	12738
905.569	12707
905.686	12783
905.803	12772
905.921	12585
906.038	12639
906.155	12475
906.272	12391
906.389	12475
906.506	12254
906.623	12258
906.74	12311
906.857	12201
906.974	12190
907.091	12346
907.208	12479
907.324	12323
907.441	12273
907.557	12049
907.674	12007
907.79	12034
907.907	12022
908.023	12057
908.139	12041
908.256	11980
908.372	12045
908.488	11996
908.604	11916
908.72	11821
908.836	11802
908.952	11828
909.068	11885
909.184	11946
909.3	11741
909.415	11935
909.531	11931
909.647	11554
909.762	11589
909.878	11604
909.993	11661
910.108	11554
910.224	11532
910.339	11512
910.454	11509
910.57	11379
910.685	11376
910.8	11646
910.915	11596
911.03	11448
911.145	11280
911.259	11345
911.374	11265
911.489	11261
911.604	11216
911.718	11060
911.833	11117
911.947	10873
912.062	10889
912.176	11041
912.291	11056
912.405	11083
912.519	11284
912.633	11326
912.748	11189
912.862	11060
912.976	10911
913.09	10824
913.204	10881
913.318	10889
913.431	11041
913.545	11022
913.659	11113
913.772	10949
913.886	10850
914	10721
914.113	10946
914.226	10953
914.34	10900
914.453	10733
914.566	10919
914.68	10801
914.793	10824
914.906	10634
915.019	10641
915.132	10542
915.245	10607
915.358	10489
915.47	10607
915.583	10615
915.696	10672
915.809	10774
915.921	10809
916.034	10531
916.146	10558
916.259	10443
916.371	10626
916.483	10641
916.595	10451
916.708	10512
916.82	10481
916.932	10523
917.044	10474
917.156	10459
917.268	10390
917.38	10402
917.491	10382
917.603	10421
917.715	10500
917.826	10493
917.938	10390
918.049	10287
918.161	10421
918.272	10535
918.384	10535
918.495	10470
918.606	10314
918.717	10261
918.828	10272
918.939	10318
919.05	10234
919.161	10219
919.272	10086
919.383	10166
919.494	10318
919.604	10489
919.715	10303
919.826	10246
919.936	10287
920.047	10375
920.157	10272
920.267	10561
920.378	10371
920.488	10287
920.598	10459
920.708	10710
920.818	10447
920.928	10500
921.038	10596
921.148	10596
921.258	10325
921.368	10306
921.477	10135
921.587	10120
921.697	10021
921.806	10173
921.916	10090
922.025	9911
922.134	9804
922.244	9880
922.353	9880
922.462	9789
922.571	9724
922.68	9599
922.789	9557
922.898	9530
923.007	9485
923.116	9614
923.224	9545
923.333	9526
923.442	9466
923.55	9344
923.659	9488
923.767	9481
923.876	9401
923.984	9549
924.092	9313
924.201	9424
924.309	9420
924.417	9439
924.525	9408
924.633	9294
924.741	10173
924.849	9207
924.956	9306
925.064	9169
925.172	9119
925.279	9093
925.387	9230
925.494	9249
925.602	9306
925.709	9222
925.816	9154
925.924	9195
926.031	9313
926.138	9256
926.245	9272
926.352	9176
926.459	9283
926.566	9287
926.673	9085
926.779	9070
926.886	9138
926.993	8933
927.099	8929
927.206	8826
927.312	8876
927.419	8975
927.525	8902
927.631	9055
927.737	8826
927.843	8777
927.95	8705
928.056	8845
928.162	8853
928.267	8857
928.373	9389
928.479	8925
928.585	8629
928.69	8766
928.796	8781
928.901	8701
929.007	8613
929.112	8686
929.218	8644
929.323	8640
929.428	8663
929.533	8750
929.638	8590
929.743	8621
929.848	8632
929.953	8541
930.058	8537
930.163	8358
930.267	8454
930.372	8575
930.477	8408
930.581	8594
930.685	8503
930.79	8290
930.894	8385
930.998	8301
931.103	8438
931.207	8130
931.311	8103
931.415	8024
931.519	7818
931.623	7780
