Data from test_V78500241_3530.txt Node
Date: Fri Mar 25 14:58:17 CST 2022
User: usil
Spectrometer: V785-0024
Trigger mode: 0
Integration Time (sec): 4.000000E-1
Scans to average: 1
Nonlinearity correction enabled: false
Boxcar width: 0
Storing dark spectrum: false
XAxis mode: Wavelengths
Number of Pixels in Spectrum: 1024
>>>>>Begin Spectral Data<<<<<
801.071	21812
801.214	21766
801.356	21568
801.499	21298
801.641	21294
801.783	21199
801.926	21245
802.068	21214
802.211	21112
802.353	20963
802.496	20842
802.638	20674
802.78	20826
802.923	20632
803.065	20518
803.208	20594
803.35	20541
803.492	20693
803.635	20648
803.777	20609
803.919	20727
804.061	20921
804.204	20686
804.346	20560
804.488	20427
804.63	20632
804.773	20400
804.915	20511
805.057	20556
805.199	20427
805.341	20549
805.483	20583
805.626	20583
805.768	20358
805.91	20507
806.052	20431
806.194	20396
806.336	20590
806.478	20412
806.62	20336
806.762	20594
806.904	20765
807.046	20823
807.188	20792
807.33	20857
807.472	20834
807.614	20838
807.756	20720
807.898	20545
808.04	20533
808.182	20476
808.324	20522
808.465	20651
808.607	20819
808.749	20868
808.891	20929
809.033	21093
809.174	20849
809.316	20705
809.458	20842
809.6	20686
809.741	20819
809.883	20834
810.025	21058
810.166	20902
810.308	20899
810.45	20868
810.591	20777
810.733	20663
810.875	20571
811.016	20552
811.158	20556
811.299	20598
811.441	20724
811.582	20682
811.724	20571
811.865	20625
812.007	20613
812.148	20602
812.29	20636
812.431	20769
812.573	20895
812.714	20994
812.855	21180
812.997	21180
813.138	21226
813.279	21192
813.421	21077
813.562	20963
813.703	20910
813.845	20750
813.986	20537
814.127	20351
814.268	20172
814.41	20229
814.551	20065
814.692	20229
814.833	20088
814.974	19940
815.115	20115
815.256	19978
815.397	19959
815.539	19947
815.68	19833
815.821	19814
815.962	19909
816.103	19936
816.244	19624
816.385	19544
816.526	19685
816.666	19381
816.807	19247
816.948	19362
817.089	19388
817.23	19339
817.371	19282
817.512	19335
817.653	19274
817.793	19289
817.934	19244
818.075	19308
818.216	19282
818.356	19240
818.497	19069
818.638	18920
818.778	18962
818.919	18954
819.06	19023
819.2	19061
819.341	19274
819.481	19175
819.622	19251
819.762	19445
819.903	19381
820.043	19339
820.184	19225
820.324	19282
820.465	19289
820.605	19156
820.746	19164
820.886	19145
821.026	19266
821.167	19198
821.307	19304
821.447	19247
821.588	19061
821.728	18943
821.868	18810
822.008	18684
822.149	18658
822.289	18547
822.429	18433
822.569	18357
822.709	18292
822.849	18285
822.99	18114
823.13	18053
823.27	18053
823.41	17942
823.55	17843
823.69	17965
823.83	17939
823.97	17984
824.11	17745
824.25	17722
824.389	17767
824.529	17779
824.669	17726
824.809	17760
824.949	17737
825.089	17783
825.228	17775
825.368	17551
825.508	17512
825.648	17509
825.787	17490
825.927	17608
826.067	17417
826.206	17520
826.346	17547
826.485	17414
826.625	17516
826.765	17615
826.904	17585
827.044	17345
827.183	17334
827.323	17239
827.462	17353
827.601	17414
827.741	17200
827.88	17315
828.02	17143
828.159	17212
828.298	17166
828.437	17174
828.577	17166
828.716	17379
828.855	17105
828.994	17060
829.134	16927
829.273	17014
829.412	16965
829.551	16900
829.69	16900
829.829	16927
829.968	17045
830.107	17109
830.246	17025
830.385	16976
830.524	16839
830.663	16786
830.802	16675
830.941	16531
831.08	16580
831.219	16580
831.357	16702
831.496	16911
831.635	16554
831.774	16538
831.913	16504
832.051	16371
832.19	16428
832.329	16447
832.467	16272
832.606	16097
832.744	16249
832.883	16291
833.022	16211
833.16	16284
833.299	16363
833.437	16295
833.576	16284
833.714	16390
833.852	16424
833.991	16291
834.129	16436
834.267	16371
834.406	16402
834.544	16375
834.682	16481
834.821	16375
834.959	16516
835.097	16386
835.235	16394
835.373	16440
835.511	16421
835.65	16261
835.788	16272
835.926	16082
836.064	16044
836.202	16097
836.34	16268
836.478	16344
836.615	16272
836.753	16310
836.891	16276
837.029	16200
837.167	16268
837.305	16139
837.443	16246
837.58	16158
837.718	16204
837.856	16223
837.993	16139
838.131	16181
838.269	16029
838.406	16131
838.544	15987
838.681	15915
838.819	15895
838.956	15751
839.094	15720
839.231	15797
839.369	15789
839.506	16192
839.643	15998
839.781	15736
839.918	15625
840.055	15759
840.193	15717
840.33	15534
840.467	15671
840.604	15800
840.742	15930
840.879	15515
841.016	15667
841.153	15564
841.29	15831
841.427	15751
841.564	15709
841.701	15720
841.838	15656
841.975	15587
842.112	15656
842.249	15568
842.385	15500
842.522	15557
842.659	15625
842.796	15488
842.933	15454
843.069	15500
843.206	15538
843.343	15568
843.479	15580
843.616	15603
843.752	15294
843.889	15291
844.025	15450
844.162	15241
844.298	15431
844.435	15283
844.571	15188
844.708	15386
844.844	15416
844.98	15443
845.117	15507
845.253	15294
845.389	15199
845.525	15245
845.661	15188
845.798	15142
845.934	14998
846.07	15047
846.206	15135
846.342	15165
846.478	15020
846.614	14944
846.75	14746
846.886	14781
847.022	14918
847.158	14864
847.294	14864
847.429	14921
847.565	14800
847.701	15184
847.837	14701
847.972	14499
848.108	14697
848.244	14651
848.379	14457
848.515	14442
848.65	14427
848.786	14484
848.921	14511
849.057	14537
849.192	14507
849.328	14465
849.463	14473
849.598	14355
849.734	14343
849.869	14309
850.004	14210
850.14	14278
850.275	14233
850.41	14168
850.545	14126
850.68	14244
850.815	14221
850.95	14142
851.085	14457
851.22	14259
851.355	14259
851.49	14202
851.625	14187
851.76	14100
851.895	14050
852.03	14119
852.165	14259
852.299	14282
852.434	14275
852.569	14374
852.703	14248
852.838	14309
852.973	14320
853.107	14351
853.242	14142
853.376	14115
853.511	13955
853.645	13974
853.78	14187
853.914	14123
854.048	14111
854.183	14050
854.317	14115
854.451	14252
854.585	14058
854.72	14054
854.854	14103
854.988	14035
855.122	14119
855.256	14016
855.39	14119
855.524	14168
855.658	14119
855.792	14100
855.926	14058
856.06	14111
856.194	14176
856.327	14081
856.461	14054
856.595	14096
856.729	14107
856.862	14161
856.996	14134
857.13	14119
857.263	14240
857.397	14244
857.53	14046
857.664	14183
857.797	14206
857.931	14286
858.064	14206
858.197	14180
858.331	14130
858.464	14123
858.597	14069
858.731	14100
858.864	14077
858.997	14103
859.13	14050
859.263	14221
859.396	14134
859.529	14077
859.662	14164
859.795	13997
859.928	14123
860.061	14271
860.194	14271
860.327	14088
860.46	14126
860.592	14294
860.725	14191
860.858	14126
860.99	14069
861.123	13997
861.256	14065
861.388	14149
861.521	14883
861.653	14046
861.786	13932
861.918	13978
862.05	14020
862.183	14103
862.315	14058
862.447	14103
862.58	14054
862.712	13902
862.844	13906
862.976	13944
863.108	14005
863.24	14259
863.372	13871
863.504	13841
863.636	13807
863.768	13928
863.9	13890
864.032	13849
864.164	13780
864.296	13921
864.428	13986
864.559	14107
864.691	13925
864.823	13978
864.954	13921
865.086	13890
865.217	13761
865.349	13780
865.48	13852
865.612	13852
865.743	14005
865.875	13837
866.006	13795
866.137	13947
866.269	13849
866.4	13803
866.531	13890
866.662	13769
866.793	13822
866.924	13772
867.055	13944
867.186	13803
867.317	13753
867.448	13841
867.579	13780
867.71	13803
867.841	13830
867.972	13833
868.103	13913
868.233	13883
868.364	13837
868.495	13986
868.625	14164
868.756	14195
868.886	14031
869.017	14107
869.147	14244
869.278	14313
869.408	14161
869.539	14058
869.669	14168
869.799	14199
869.929	14317
870.06	14309
870.19	14476
870.32	14450
870.45	14476
870.58	14503
870.71	14632
870.84	14629
870.97	14492
871.1	14537
871.23	14746
871.36	14765
871.489	14621
871.619	14731
871.749	14655
871.879	14842
872.008	14819
872.138	14716
872.267	14731
872.397	14606
872.526	14530
872.656	14602
872.785	14708
872.915	14781
873.044	14792
873.173	14746
873.303	14788
873.432	14815
873.561	14838
873.69	14811
873.819	14769
873.948	14861
874.077	14754
874.206	14781
874.335	14811
874.464	15020
874.593	15074
874.722	14971
874.851	15176
874.979	15131
875.108	15184
875.237	15047
875.365	14910
875.494	15116
875.623	15161
875.751	15146
875.88	15135
876.008	15233
876.136	15321
876.265	15481
876.393	15618
876.521	15701
876.65	15622
876.778	15496
876.906	15492
877.034	15473
877.162	15477
877.29	15469
877.418	15496
877.546	15515
877.674	15633
877.802	15534
877.93	15454
878.058	15428
878.185	15435
878.313	15481
878.441	15496
878.568	15359
878.696	15450
878.824	15534
878.951	15629
879.079	15637
879.206	15797
879.333	15717
879.461	15618
879.588	15701
879.715	15599
879.842	15797
879.97	15667
880.097	15355
880.224	15405
880.351	15431
880.478	15405
880.605	15336
880.732	15382
880.859	15637
880.986	15450
881.112	15325
881.239	15283
881.366	15097
881.493	15112
881.619	14963
881.746	15058
881.872	15017
881.999	15036
882.125	14975
882.252	15097
882.378	15127
882.505	15226
882.631	14994
882.757	14921
882.883	14849
883.01	14853
883.136	14807
883.262	14743
883.388	14659
883.514	14963
883.64	14960
883.766	14826
883.892	14598
884.018	14720
884.143	14864
884.269	14944
884.395	14571
884.52	14549
884.646	14533
884.772	14526
884.897	14381
885.023	14526
885.148	14632
885.274	14727
885.399	14636
885.524	14621
885.65	14514
885.775	14667
885.9	14545
886.025	14693
886.15	14590
886.275	14568
886.4	14522
886.525	14511
886.65	14465
886.775	14537
886.9	14762
887.025	14811
887.149	14518
887.274	14374
887.399	14294
887.523	14366
887.648	14157
887.773	14324
887.897	14495
888.021	14495
888.146	14362
888.27	14492
888.395	14511
888.519	14396
888.643	14526
888.767	14442
888.891	14347
889.015	14275
889.139	14294
889.263	14237
889.387	14343
889.511	14541
889.635	14393
889.759	14237
889.883	14267
890.006	14362
890.13	14377
890.254	14256
890.377	14206
890.501	14096
890.624	14054
890.748	14176
890.871	14024
890.995	13906
891.118	13849
891.241	13913
891.364	13959
891.488	14092
891.611	13887
891.734	13955
891.857	13940
891.98	14054
892.103	14031
892.226	13955
892.349	13883
892.471	13795
892.594	13928
892.717	13959
892.839	13917
892.962	13894
893.085	14088
893.207	13917
893.33	13871
893.452	13841
893.575	13986
893.697	14081
893.819	14180
893.941	14126
894.064	14161
894.186	13982
894.308	13967
894.43	14157
894.552	14157
894.674	14103
894.796	13894
894.918	13986
895.04	14050
895.161	14065
895.283	14088
895.405	13947
895.526	14054
895.648	14077
895.769	14119
895.891	14100
896.012	14161
896.134	14134
896.255	14259
896.376	14126
896.498	14126
896.619	14119
896.74	14130
896.861	14187
896.982	14457
897.103	14465
897.224	14465
897.345	14465
897.466	14404
897.587	14362
897.708	14537
897.828	14393
897.949	14259
898.07	14267
898.19	14332
898.311	14575
898.431	14393
898.552	14492
898.672	14484
898.792	14556
898.913	14446
899.033	14393
899.153	14267
899.273	14176
899.393	14347
899.513	14336
899.633	14313
899.753	14343
899.873	14237
899.993	14336
900.113	14305
900.232	14347
900.352	14328
900.472	14282
900.591	14233
900.711	14134
900.83	14111
900.95	14267
901.069	14275
901.189	14214
901.308	13978
901.427	13917
901.546	13864
901.665	13898
901.784	13864
901.904	13803
902.023	13689
902.141	13540
902.26	13453
902.379	13499
902.498	13468
902.617	13343
902.735	13537
902.854	13430
902.973	13377
903.091	13228
903.21	13053
903.328	13168
903.446	13122
903.565	12993
903.683	13080
903.801	12943
903.919	13023
904.038	13004
904.156	12863
904.274	12981
904.392	12741
904.51	12916
904.627	12772
904.745	12886
904.863	12882
904.981	12684
905.098	12528
905.216	12544
905.334	12547
905.451	12490
905.569	12498
905.686	12620
905.803	12506
905.921	12361
906.038	12467
906.155	12330
906.272	12194
906.389	12334
906.506	12110
906.623	12114
906.74	12110
906.857	11999
906.974	12057
907.091	12136
907.208	12197
907.324	12114
907.441	12022
907.557	11874
907.674	11920
907.79	11832
907.907	11817
908.023	11920
908.139	11863
908.256	11798
908.372	11783
908.488	11752
908.604	11699
908.72	11630
908.836	11668
908.952	11642
909.068	11642
909.184	11672
909.3	11528
909.415	11589
909.531	11634
909.647	11425
909.762	11436
909.878	11395
909.993	11353
910.108	11425
910.224	11345
910.339	11497
910.454	11307
910.57	11280
910.685	11227
910.8	11410
910.915	11440
911.03	11193
911.145	11201
911.259	11185
911.374	11064
911.489	11045
911.604	11052
911.718	10828
911.833	10892
911.947	10725
912.062	10649
912.176	10854
912.291	10839
912.405	10869
912.519	11041
912.633	11056
912.748	10938
912.862	10824
912.976	10736
913.09	10634
913.204	10618
913.318	10828
913.431	10843
913.545	10820
913.659	10839
913.772	10839
913.886	10679
914	10607
914.113	10786
914.226	10790
914.34	10744
914.453	10550
914.566	10706
914.68	10641
914.793	10588
914.906	10417
915.019	10348
915.132	10238
915.245	10367
915.358	10379
915.47	10363
915.583	10405
915.696	10470
915.809	10546
915.921	10554
916.034	10291
916.146	10451
916.259	10329
916.371	10432
916.483	10481
916.595	10352
916.708	10227
916.82	10325
916.932	10242
917.044	10318
917.156	10268
917.268	10188
917.38	10268
917.491	10192
917.603	10162
917.715	10322
917.826	10386
917.938	10181
918.049	10139
918.161	10185
918.272	10409
918.384	10325
918.495	10276
918.606	10105
918.717	10074
918.828	10139
918.939	10158
919.05	10002
919.161	10067
919.272	9911
919.383	9934
919.494	10200
919.604	10303
919.715	10143
919.826	9941
919.936	10071
920.047	10181
920.157	10131
920.267	10356
920.378	10219
920.488	10082
920.598	10344
920.708	10413
920.818	10287
920.928	10398
921.038	10470
921.148	10481
921.258	10147
921.368	10055
921.477	10051
921.587	10002
921.697	9854
921.806	10036
921.916	9899
922.025	9587
922.134	9720
922.244	9637
922.353	9614
922.462	9561
922.571	9466
922.68	9397
922.789	9359
922.898	9382
923.007	9306
923.116	9447
923.224	9344
923.333	9321
923.442	9230
923.55	9317
923.659	9260
923.767	9279
923.876	9230
923.984	9283
924.092	9161
924.201	9199
924.309	9237
924.417	9249
924.525	9199
924.633	9253
924.741	10021
924.849	9013
924.956	9218
925.064	9028
925.172	8979
925.279	9009
925.387	9047
925.494	9093
925.602	9169
925.709	9009
925.816	9036
925.924	9043
926.031	9066
926.138	9051
926.245	9116
926.352	8971
926.459	9074
926.566	9089
926.673	9017
926.779	8891
926.886	8861
926.993	8750
927.099	8720
927.206	8629
927.312	8613
927.419	8868
927.525	8792
927.631	8868
927.737	8705
927.843	8640
927.95	8648
928.056	8568
928.162	8617
928.267	8697
928.373	9279
928.479	8819
928.585	8488
928.69	8613
928.796	8693
928.901	8571
929.007	8469
929.112	8583
929.218	8541
929.323	8480
929.428	8488
929.533	8632
929.638	8358
929.743	8446
929.848	8526
929.953	8480
930.058	8370
930.163	8286
930.267	8240
930.372	8298
930.477	8168
930.581	8419
930.685	8347
930.79	8206
930.894	8191
930.998	8115
931.103	8351
931.207	7955
931.311	7909
931.415	7837
931.519	7742
931.623	7723
