Data from test_V78500241_3131.txt Node
Date: Fri Mar 25 14:55:30 CST 2022
User: usil
Spectrometer: V785-0024
Trigger mode: 0
Integration Time (sec): 4.000000E-1
Scans to average: 1
Nonlinearity correction enabled: false
Boxcar width: 0
Storing dark spectrum: false
XAxis mode: Wavelengths
Number of Pixels in Spectrum: 1024
>>>>>Begin Spectral Data<<<<<
801.071	22048
801.214	21968
801.356	21679
801.499	21576
801.641	21374
801.783	21370
801.926	21412
802.068	21397
802.211	21397
802.353	21268
802.496	21032
802.638	20990
802.78	20849
802.923	20754
803.065	20834
803.208	20712
803.35	20777
803.492	20910
803.635	20891
803.777	20693
803.919	20868
804.061	21135
804.204	20731
804.346	20724
804.488	20659
804.63	20727
804.773	20629
804.915	20606
805.057	20746
805.199	20598
805.341	20720
805.483	20693
805.626	20644
805.768	20636
805.91	20602
806.052	20632
806.194	20598
806.336	20800
806.478	20663
806.62	20526
806.762	20769
806.904	20796
807.046	21024
807.188	21028
807.33	20971
807.472	21001
807.614	20861
807.756	20864
807.898	20678
808.04	20724
808.182	20727
808.324	20708
808.465	20796
808.607	20826
808.749	20986
808.891	21146
809.033	21214
809.174	21043
809.316	20861
809.458	20990
809.6	20979
809.741	21062
809.883	21047
810.025	21211
810.166	21233
810.308	21142
810.45	21062
810.591	20933
810.733	20849
810.875	20769
811.016	20785
811.158	20659
811.299	20876
811.441	20845
811.582	21001
811.724	20815
811.865	20746
812.007	20815
812.148	20765
812.29	20792
812.431	21005
812.573	21131
812.714	21157
812.855	21348
812.997	21370
813.138	21454
813.279	21488
813.421	21264
813.562	21211
813.703	20952
813.845	21051
813.986	20708
814.127	20503
814.268	20336
814.41	20431
814.551	20172
814.692	20423
814.833	20237
814.974	20081
815.115	20339
815.256	20214
815.397	20237
815.539	20183
815.68	20077
815.821	19997
815.962	19982
816.103	19963
816.244	20016
816.385	19795
816.526	19742
816.666	19586
816.807	19480
816.948	19460
817.089	19533
817.23	19438
817.371	19449
817.512	19457
817.653	19388
817.793	19415
817.934	19510
818.075	19525
818.216	19483
818.356	19362
818.497	19320
818.638	19133
818.778	19129
818.919	19091
819.06	19217
819.2	19152
819.341	19381
819.481	19343
819.622	19521
819.762	19670
819.903	19575
820.043	19457
820.184	19590
820.324	19384
820.465	19407
820.605	19540
820.746	19308
820.886	19343
821.026	19316
821.167	19472
821.307	19487
821.447	19251
821.588	19289
821.728	19175
821.868	19019
822.008	18882
822.149	18913
822.289	18852
822.429	18559
822.569	18563
822.709	18456
822.849	18376
822.99	18224
823.13	18315
823.27	18251
823.41	18194
823.55	18098
823.69	18091
823.83	18041
823.97	18068
824.11	17958
824.25	17927
824.389	17885
824.529	17904
824.669	17927
824.809	17908
824.949	17878
825.089	17847
825.228	17946
825.368	17684
825.508	17649
825.648	17741
825.787	17691
825.927	17676
826.067	17691
826.206	17756
826.346	17760
826.485	17775
826.625	17695
826.765	17707
826.904	17703
827.044	17448
827.183	17372
827.323	17307
827.462	17372
827.601	17296
827.741	17349
827.88	17391
828.02	17258
828.159	17296
828.298	17414
828.437	17417
828.577	17231
828.716	17429
828.855	17269
828.994	17105
829.134	17094
829.273	17178
829.412	17132
829.551	17124
829.69	17010
829.829	17128
829.968	17212
830.107	17117
830.246	17193
830.385	17086
830.524	16976
830.663	17006
830.802	16839
830.941	16736
831.08	16713
831.219	16801
831.357	16763
831.496	16908
831.635	16615
831.774	16615
831.913	16607
832.051	16481
832.19	16497
832.329	16546
832.467	16367
832.606	16481
832.744	16363
832.883	16348
833.022	16409
833.16	16451
833.299	16402
833.437	16436
833.576	16535
833.714	16466
833.852	16421
833.991	16512
834.129	16577
834.267	16561
834.406	16421
834.544	16447
834.682	16478
834.821	16390
834.959	16519
835.097	16455
835.235	16592
835.373	16504
835.511	16470
835.65	16379
835.788	16367
835.926	16177
836.064	16234
836.202	16257
836.34	16390
836.478	16447
836.615	16363
836.753	16428
836.891	16398
837.029	16371
837.167	16382
837.305	16348
837.443	16291
837.58	16211
837.718	16436
837.856	16253
837.993	16280
838.131	16299
838.269	16207
838.406	16238
838.544	16078
838.681	15998
838.819	15968
838.956	15831
839.094	15797
839.231	15816
839.369	15972
839.506	16253
839.643	16021
839.781	15835
839.918	15736
840.055	15838
840.193	15842
840.33	15728
840.467	15781
840.604	15884
840.742	16128
840.879	15633
841.016	15603
841.153	15618
841.29	15922
841.427	15930
841.564	15762
841.701	15778
841.838	15762
841.975	15747
842.112	15648
842.249	15568
842.385	15500
842.522	15739
842.659	15614
842.796	15519
842.933	15564
843.069	15564
843.206	15557
843.343	15679
843.479	15485
843.616	15606
843.752	15469
843.889	15370
844.025	15572
844.162	15310
844.298	15473
844.435	15408
844.571	15485
844.708	15492
844.844	15644
844.98	15466
845.117	15481
845.253	15359
845.389	15287
845.525	15275
845.661	15291
845.798	15226
845.934	15180
846.07	15089
846.206	15226
846.342	15363
846.478	15218
846.614	15032
846.75	14941
846.886	14906
847.022	15058
847.158	15058
847.294	15017
847.429	14902
847.565	14891
847.701	15184
847.837	14667
847.972	14701
848.108	14735
848.244	14788
848.379	14617
848.515	14450
848.65	14495
848.786	14636
848.921	14575
849.057	14568
849.192	14621
849.328	14629
849.463	14522
849.598	14446
849.734	14434
849.869	14446
850.004	14332
850.14	14362
850.275	14336
850.41	14267
850.545	14282
850.68	14271
850.815	14278
850.95	14301
851.085	14495
851.22	14495
851.355	14332
851.49	14259
851.625	14237
851.76	14309
851.895	14259
852.03	14237
852.165	14427
852.299	14385
852.434	14412
852.569	14275
852.703	14282
852.838	14450
852.973	14450
853.107	14434
853.242	14199
853.376	14263
853.511	14103
853.645	14111
853.78	14229
853.914	14187
854.048	14183
854.183	14096
854.317	14229
854.451	14347
854.585	14202
854.72	14100
854.854	14290
854.988	14069
855.122	14172
855.256	14043
855.39	14172
855.524	14221
855.658	14328
855.792	14233
855.926	14244
856.06	14263
856.194	14301
856.327	14229
856.461	14100
856.595	14126
856.729	14191
856.862	14374
856.996	14229
857.13	14233
857.263	14328
857.397	14339
857.53	13959
857.664	14313
857.797	14263
857.931	14332
858.064	14229
858.197	14362
858.331	14244
858.464	14111
858.597	14031
858.731	14183
858.864	14206
858.997	14176
859.13	14305
859.263	14339
859.396	14256
859.529	14252
859.662	14107
859.795	14149
859.928	14301
860.061	14282
860.194	14412
860.327	14214
860.46	14176
860.592	14275
860.725	14301
860.858	14412
860.99	14267
861.123	14123
861.256	14031
861.388	14263
861.521	14800
861.653	14149
861.786	13959
861.918	14084
862.05	14176
862.183	14084
862.315	14115
862.447	14233
862.58	14206
862.712	13967
862.844	13906
862.976	13997
863.108	14020
863.24	14343
863.372	13963
863.504	13955
863.636	13951
863.768	14035
863.9	14008
864.032	13879
864.164	13917
864.296	14024
864.428	14069
864.559	14005
864.691	14161
864.823	14035
864.954	13940
865.086	14027
865.217	14096
865.349	13826
865.48	14012
865.612	13986
865.743	14130
865.875	13909
866.006	13978
866.137	13989
866.269	13936
866.4	13871
866.531	13917
866.662	13871
866.793	14024
866.924	13947
867.055	13940
867.186	14062
867.317	13890
867.448	13936
867.579	13963
867.71	13909
867.841	13898
867.972	13959
868.103	13932
868.233	13940
868.364	13970
868.495	14054
868.625	14119
868.756	14332
868.886	14210
869.017	14123
869.147	14320
869.278	14298
869.408	14256
869.539	14294
869.669	14362
869.799	14199
869.929	14347
870.06	14244
870.19	14370
870.32	14514
870.45	14492
870.58	14606
870.71	14670
870.84	14670
870.97	14556
871.1	14541
871.23	14758
871.36	14727
871.489	14659
871.619	14777
871.749	14762
871.879	14765
872.008	14971
872.138	14785
872.267	14739
872.397	14602
872.526	14686
872.656	14693
872.785	14606
872.915	14853
873.044	14853
873.173	14861
873.303	14929
873.432	14883
873.561	14845
873.69	14891
873.819	14910
873.948	14975
874.077	14948
874.206	14765
874.335	14899
874.464	15070
874.593	15146
874.722	15108
874.851	15062
874.979	15207
875.108	15222
875.237	15138
875.365	15047
875.494	15119
875.623	15252
875.751	15085
875.88	15142
876.008	15287
876.136	15306
876.265	15606
876.393	15717
876.521	15770
876.65	15595
876.778	15618
876.906	15545
877.034	15622
877.162	15595
877.29	15576
877.418	15576
877.546	15622
877.674	15561
877.802	15610
877.93	15641
878.058	15603
878.185	15526
878.313	15469
878.441	15576
878.568	15351
878.696	15492
878.824	15572
878.951	15633
879.079	15648
879.206	15873
879.333	15682
879.461	15641
879.588	15641
879.715	15770
879.842	15819
879.97	15717
880.097	15507
880.224	15420
880.351	15458
880.478	15488
880.605	15382
880.732	15447
880.859	15637
880.986	15424
881.112	15542
881.239	15405
881.366	15321
881.493	15169
881.619	15013
881.746	15123
881.872	15043
881.999	15017
882.125	15131
882.252	15055
882.378	15100
882.505	15180
882.631	14948
882.757	14975
882.883	15062
883.01	14902
883.136	14899
883.262	14811
883.388	14785
883.514	14868
883.64	14921
883.766	14796
883.892	14720
884.018	14705
884.143	14937
884.269	14994
884.395	14655
884.52	14537
884.646	14644
884.772	14518
884.897	14484
885.023	14587
885.148	14659
885.274	14754
885.399	14720
885.524	14670
885.65	14663
885.775	14648
885.9	14712
886.025	14678
886.15	14667
886.275	14610
886.4	14484
886.525	14598
886.65	14594
886.775	14522
886.9	14765
887.025	14826
887.149	14564
887.274	14385
887.399	14438
887.523	14423
887.648	14377
887.773	14301
887.897	14530
888.021	14434
888.146	14355
888.27	14484
888.395	14575
888.519	14503
888.643	14499
888.767	14511
888.891	14351
889.015	14263
889.139	14351
889.263	14267
889.387	14427
889.511	14514
889.635	14366
889.759	14263
889.883	14324
890.006	14282
890.13	14465
890.254	14218
890.377	14282
890.501	14073
890.624	14031
890.748	14168
890.871	14065
890.995	13902
891.118	14043
891.241	14039
891.364	14035
891.488	14069
891.611	13959
891.734	14050
891.857	14100
891.98	13989
892.103	14084
892.226	13997
892.349	14027
892.471	13845
892.594	14050
892.717	14100
892.839	14005
892.962	13993
893.085	14157
893.207	14031
893.33	13890
893.452	13947
893.575	14016
893.697	14001
893.819	14153
893.941	14225
894.064	14206
894.186	14050
894.308	14001
894.43	14081
894.552	14199
894.674	14206
894.796	14001
894.918	14065
895.04	14126
895.161	14069
895.283	14138
895.405	14058
895.526	14164
895.648	14103
895.769	14138
895.891	14248
896.012	14240
896.134	14221
896.255	14126
896.376	14119
896.498	14142
896.619	14225
896.74	14271
896.861	14294
896.982	14511
897.103	14644
897.224	14358
897.345	14446
897.466	14355
897.587	14454
897.708	14617
897.828	14575
897.949	14423
898.07	14351
898.19	14381
898.311	14541
898.431	14511
898.552	14514
898.672	14651
898.792	14651
898.913	14537
899.033	14454
899.153	14400
899.273	14282
899.393	14358
899.513	14450
899.633	14404
899.753	14442
899.873	14362
899.993	14389
900.113	14434
900.232	14404
900.352	14374
900.472	14336
900.591	14275
900.711	14294
900.83	14305
900.95	14294
901.069	14457
901.189	14221
901.308	13986
901.427	13940
901.546	13974
901.665	14027
901.784	13982
901.904	13818
902.023	13727
902.141	13525
902.26	13514
902.379	13620
902.498	13495
902.617	13483
902.735	13540
902.854	13533
902.973	13491
903.091	13270
903.21	13255
903.328	13263
903.446	13171
903.565	13171
903.683	13118
903.801	13008
903.919	13061
904.038	13046
904.156	12909
904.274	12985
904.392	12806
904.51	12852
904.627	12825
904.745	12966
904.863	13038
904.981	12719
905.098	12612
905.216	12544
905.334	12601
905.451	12498
905.569	12627
905.686	12646
905.803	12578
905.921	12414
906.038	12475
906.155	12483
906.272	12304
906.389	12330
906.506	12190
906.623	12182
906.74	12182
906.857	12106
906.974	12095
907.091	12232
907.208	12273
907.324	12270
907.441	12053
907.557	12034
907.674	11889
907.79	11836
907.907	11961
908.023	11954
908.139	11935
908.256	11863
908.372	11893
908.488	11817
908.604	11748
908.72	11653
908.836	11657
908.952	11718
909.068	11699
909.184	11851
909.3	11589
909.415	11737
909.531	11703
909.647	11467
909.762	11436
909.878	11406
909.993	11414
910.108	11455
910.224	11486
910.339	11383
910.454	11364
910.57	11353
910.685	11197
910.8	11455
910.915	11512
911.03	11356
911.145	11162
911.259	11048
911.374	11117
911.489	11052
911.604	11041
911.718	10900
911.833	10885
911.947	10797
912.062	10725
912.176	10927
912.291	10934
912.405	10885
912.519	11102
912.633	11113
912.748	10999
912.862	10946
912.976	10778
913.09	10675
913.204	10782
913.318	10805
913.431	10915
913.545	10847
913.659	10896
913.772	10828
913.886	10714
914	10725
914.113	10744
914.226	10809
914.34	10721
914.453	10554
914.566	10736
914.68	10611
914.793	10645
914.906	10436
915.019	10474
915.132	10405
915.245	10451
915.358	10421
915.47	10443
915.583	10519
915.696	10546
915.809	10569
915.921	10618
916.034	10371
916.146	10382
916.259	10382
916.371	10485
916.483	10432
916.595	10356
916.708	10413
916.82	10367
916.932	10375
917.044	10402
917.156	10386
917.268	10299
917.38	10287
917.491	10329
917.603	10280
917.715	10375
917.826	10386
917.938	10318
918.049	10173
918.161	10398
918.272	10424
918.384	10447
918.495	10333
918.606	10177
918.717	10090
918.828	10173
918.939	10177
919.05	10109
919.161	10196
919.272	9991
919.383	10032
919.494	10207
919.604	10459
919.715	10147
919.826	10086
919.936	10154
920.047	10287
920.157	10215
920.267	10474
920.378	10249
920.488	10223
920.598	10284
920.708	10527
920.818	10409
920.928	10375
921.038	10550
921.148	10462
921.258	10276
921.368	10154
921.477	10097
921.587	10021
921.697	9911
921.806	10101
921.916	9953
922.025	9736
922.134	9774
922.244	9690
922.353	9740
922.462	9675
922.571	9542
922.68	9428
922.789	9420
922.898	9526
923.007	9363
923.116	9515
923.224	9481
923.333	9485
923.442	9416
923.55	9230
923.659	9355
923.767	9325
923.876	9325
923.984	9348
924.092	9272
924.201	9370
924.309	9245
924.417	9279
924.525	9157
924.633	9287
924.741	10192
924.849	9055
924.956	9256
925.064	9089
925.172	9047
925.279	9051
925.387	9093
925.494	9074
925.602	9176
925.709	9173
925.816	9074
925.924	9062
926.031	9195
926.138	9138
926.245	9135
926.352	9039
926.459	9154
926.566	9138
926.673	8982
926.779	8990
926.886	8971
926.993	8845
927.099	8826
927.206	8727
927.312	8754
927.419	8880
927.525	8838
927.631	8899
927.737	8724
927.843	8746
927.95	8621
928.056	8750
928.162	8629
928.267	8830
928.373	9302
928.479	8796
928.585	8541
928.69	8701
928.796	8750
928.901	8655
929.007	8473
929.112	8651
929.218	8594
929.323	8545
929.428	8537
929.533	8640
929.638	8484
929.743	8469
929.848	8533
929.953	8598
930.058	8438
930.163	8252
930.267	8355
930.372	8446
930.477	8244
930.581	8518
930.685	8358
930.79	8252
930.894	8259
930.998	8164
931.103	8396
931.207	8024
931.311	7967
931.415	7875
931.519	7715
931.623	7761
