Data from test_V78500241_3497.txt Node
Date: Fri Mar 25 14:58:04 CST 2022
User: usil
Spectrometer: V785-0024
Trigger mode: 0
Integration Time (sec): 4.000000E-1
Scans to average: 1
Nonlinearity correction enabled: false
Boxcar width: 0
Storing dark spectrum: false
XAxis mode: Wavelengths
Number of Pixels in Spectrum: 1024
>>>>>Begin Spectral Data<<<<<
801.071	21838
801.214	21861
801.356	21545
801.499	21504
801.641	21249
801.783	21321
801.926	21268
802.068	21207
802.211	21184
802.353	20933
802.496	20998
802.638	20826
802.78	20724
802.923	20781
803.065	20571
803.208	20423
803.35	20575
803.492	20640
803.635	20636
803.777	20655
803.919	20659
804.061	20887
804.204	20651
804.346	20651
804.488	20503
804.63	20583
804.773	20408
804.915	20606
805.057	20613
805.199	20412
805.341	20370
805.483	20560
805.626	20511
805.768	20533
805.91	20575
806.052	20568
806.194	20415
806.336	20636
806.478	20488
806.62	20431
806.762	20518
806.904	20731
807.046	20971
807.188	20880
807.33	20941
807.472	20910
807.614	20735
807.756	20705
807.898	20678
808.04	20552
808.182	20568
808.324	20552
808.465	20530
808.607	20811
808.749	20864
808.891	20925
809.033	21131
809.174	20834
809.316	20826
809.458	20815
809.6	20796
809.741	20834
809.883	20887
810.025	20918
810.166	21123
810.308	20967
810.45	20842
810.591	20868
810.733	20720
810.875	20644
811.016	20492
811.158	20446
811.299	20621
811.441	20754
811.582	20678
811.724	20541
811.865	20606
812.007	20533
812.148	20602
812.29	20807
812.431	20655
812.573	20971
812.714	21047
812.855	21150
812.997	21222
813.138	21351
813.279	21207
813.421	21028
813.562	20910
813.703	20921
813.845	20674
813.986	20507
814.127	20317
814.268	20225
814.41	20275
814.551	20168
814.692	20195
814.833	20043
814.974	20111
815.115	20145
815.256	20065
815.397	20020
815.539	20008
815.68	19955
815.821	19944
815.962	19822
816.103	19909
816.244	19628
816.385	19518
816.526	19609
816.666	19343
816.807	19255
816.948	19285
817.089	19499
817.23	19354
817.371	19301
817.512	19225
817.653	19289
817.793	19187
817.934	19217
818.075	19160
818.216	19209
818.356	19274
818.497	19050
818.638	18890
818.778	18993
818.919	18924
819.06	18935
819.2	19046
819.341	19187
819.481	19221
819.622	19282
819.762	19495
819.903	19354
820.043	19362
820.184	19304
820.324	19179
820.465	19304
820.605	19324
820.746	19278
820.886	19050
821.026	19244
821.167	19236
821.307	19388
821.447	19217
821.588	19065
821.728	18947
821.868	18783
822.008	18665
822.149	18719
822.289	18684
822.429	18388
822.569	18441
822.709	18304
822.849	18178
822.99	18144
823.13	18079
823.27	18064
823.41	17977
823.55	17843
823.69	17946
823.83	17999
823.97	18011
824.11	17745
824.25	17760
824.389	17741
824.529	17832
824.669	17665
824.809	17760
824.949	17805
825.089	17767
825.228	17741
825.368	17657
825.508	17592
825.648	17539
825.787	17505
825.927	17653
826.067	17478
826.206	17547
826.346	17482
826.485	17535
826.625	17478
826.765	17581
826.904	17581
827.044	17326
827.183	17265
827.323	17220
827.462	17296
827.601	17178
827.741	17227
827.88	17140
828.02	17079
828.159	17250
828.298	17227
828.437	17239
828.577	17174
828.716	17395
828.855	17166
828.994	16991
829.134	16896
829.273	17079
829.412	16961
829.551	16953
829.69	16877
829.829	16919
829.968	17014
830.107	17105
830.246	17022
830.385	16892
830.524	17022
830.663	16790
830.802	16729
830.941	16527
831.08	16561
831.219	16717
831.357	16641
831.496	16812
831.635	16607
831.774	16599
831.913	16417
832.051	16398
832.19	16360
832.329	16405
832.467	16333
832.606	16246
832.744	16356
832.883	16356
833.022	16207
833.16	16268
833.299	16363
833.437	16257
833.576	16360
833.714	16379
833.852	16360
833.991	16398
834.129	16394
834.267	16398
834.406	16272
834.544	16386
834.682	16451
834.821	16295
834.959	16474
835.097	16440
835.235	16417
835.373	16375
835.511	16337
835.65	16352
835.788	16306
835.926	16150
836.064	16086
836.202	16044
836.34	16287
836.478	16337
836.615	16287
836.753	16424
836.891	16409
837.029	16268
837.167	16272
837.305	16253
837.443	16253
837.58	16040
837.718	16310
837.856	16226
837.993	16093
838.131	16192
838.269	16101
838.406	16090
838.544	16013
838.681	15880
838.819	15835
838.956	15724
839.094	15679
839.231	15690
839.369	15804
839.506	16135
839.643	15949
839.781	15785
839.918	15587
840.055	15739
840.193	15663
840.33	15736
840.467	15679
840.604	15842
840.742	15983
840.879	15580
841.016	15625
841.153	15671
841.29	15766
841.427	15717
841.564	15720
841.701	15679
841.838	15663
841.975	15739
842.112	15641
842.249	15629
842.385	15462
842.522	15633
842.659	15492
842.796	15492
842.933	15587
843.069	15454
843.206	15405
843.343	15564
843.479	15382
843.616	15542
843.752	15313
843.889	15264
844.025	15412
844.162	15154
844.298	15443
844.435	15287
844.571	15195
844.708	15294
844.844	15424
844.98	15393
845.117	15363
845.253	15294
845.389	15123
845.525	15222
845.661	15180
845.798	15119
845.934	15169
846.07	15097
846.206	15192
846.342	15294
846.478	14971
846.614	14861
846.75	14880
846.886	14899
847.022	14960
847.158	14864
847.294	14830
847.429	14853
847.565	14883
847.701	15055
847.837	14590
847.972	14537
848.108	14712
848.244	14644
848.379	14473
848.515	14457
848.65	14396
848.786	14461
848.921	14545
849.057	14549
849.192	14518
849.328	14389
849.463	14469
849.598	14415
849.734	14442
849.869	14301
850.004	14339
850.14	14229
850.275	14313
850.41	14233
850.545	14244
850.68	14244
850.815	14324
850.95	14305
851.085	14374
851.22	14377
851.355	14252
851.49	14244
851.625	14259
851.76	14210
851.895	14149
852.03	14065
852.165	14225
852.299	14195
852.434	14271
852.569	14240
852.703	14317
852.838	14259
852.973	14324
853.107	14332
853.242	14195
853.376	14149
853.511	14027
853.645	14100
853.78	14237
853.914	14123
854.048	14039
854.183	14088
854.317	14157
854.451	14259
854.585	14115
854.72	14119
854.854	14130
854.988	13978
855.122	14020
855.256	13906
855.39	14077
855.524	14218
855.658	14149
855.792	14111
855.926	14119
856.06	14240
856.194	14202
856.327	14092
856.461	14073
856.595	14172
856.729	14115
856.862	14168
856.996	14065
857.13	14126
857.263	14259
857.397	14229
857.53	14180
857.664	14161
857.797	14138
857.931	14290
858.064	14195
858.197	14161
858.331	14145
858.464	14043
858.597	14005
858.731	14069
858.864	14062
858.997	14111
859.13	14088
859.263	14176
859.396	14278
859.529	14046
859.662	14058
859.795	14073
859.928	14237
860.061	14244
860.194	14370
860.327	14126
860.46	14119
860.592	14218
860.725	14256
860.858	14172
860.99	14138
861.123	14081
861.256	13967
861.388	14100
861.521	14853
861.653	14031
861.786	13963
861.918	13970
862.05	14077
862.183	14092
862.315	14126
862.447	14153
862.58	13955
862.712	13814
862.844	13833
862.976	14031
863.108	13818
863.24	14351
863.372	13864
863.504	13875
863.636	13833
863.768	13906
863.9	13944
864.032	13932
864.164	13811
864.296	13909
864.428	14008
864.559	13967
864.691	13974
864.823	13982
864.954	13807
865.086	13883
865.217	13856
865.349	13803
865.48	13845
865.612	13951
865.743	13978
865.875	13780
866.006	13932
866.137	13890
866.269	13871
866.4	13951
866.531	13784
866.662	13830
866.793	13807
866.924	13909
867.055	13917
867.186	13837
867.317	13845
867.448	13795
867.579	13833
867.71	13811
867.841	13871
867.972	13940
868.103	13944
868.233	13921
868.364	13871
868.495	13925
868.625	14123
868.756	14286
868.886	14046
869.017	14244
869.147	14278
869.278	14317
869.408	14138
869.539	14180
869.669	14191
869.799	14172
869.929	14320
870.06	14237
870.19	14583
870.32	14415
870.45	14480
870.58	14533
870.71	14655
870.84	14762
870.97	14583
871.1	14549
871.23	14712
871.36	14689
871.489	14670
871.619	14773
871.749	14819
871.879	14769
872.008	14826
872.138	14758
872.267	14758
872.397	14716
872.526	14556
872.656	14541
872.785	14655
872.915	14762
873.044	14834
873.173	14716
873.303	14811
873.432	14853
873.561	14887
873.69	14849
873.819	14952
873.948	14986
874.077	14857
874.206	14765
874.335	14899
874.464	14918
874.593	15089
874.722	15093
874.851	15199
874.979	15195
875.108	15264
875.237	15032
875.365	14963
875.494	15165
875.623	15161
875.751	15100
875.88	15192
876.008	15275
876.136	15310
876.265	15599
876.393	15610
876.521	15633
876.65	15648
876.778	15545
876.906	15515
877.034	15507
877.162	15629
877.29	15431
877.418	15542
877.546	15526
877.674	15477
877.802	15606
877.93	15564
878.058	15587
878.185	15496
878.313	15603
878.441	15523
878.568	15504
878.696	15526
878.824	15538
878.951	15709
879.079	15652
879.206	15888
879.333	15838
879.461	15587
879.588	15717
879.715	15709
879.842	15869
879.97	15709
880.097	15424
880.224	15325
880.351	15485
880.478	15443
880.605	15355
880.732	15348
880.859	15648
880.986	15450
881.112	15458
881.239	15298
881.366	15237
881.493	15135
881.619	15100
881.746	15074
881.872	15036
881.999	15032
882.125	15051
882.252	15173
882.378	15051
882.505	15123
882.631	14975
882.757	14925
882.883	14960
883.01	14811
883.136	14815
883.262	14716
883.388	14773
883.514	14956
883.64	14937
883.766	14777
883.892	14743
884.018	14746
884.143	14868
884.269	14937
884.395	14663
884.52	14545
884.646	14625
884.772	14537
884.897	14556
885.023	14640
885.148	14716
885.274	14754
885.399	14708
885.524	14693
885.65	14636
885.775	14613
885.9	14606
886.025	14743
886.15	14617
886.275	14469
886.4	14412
886.525	14617
886.65	14530
886.775	14526
886.9	14674
887.025	14807
887.149	14663
887.274	14469
887.399	14366
887.523	14370
887.648	14347
887.773	14366
887.897	14568
888.021	14511
888.146	14278
888.27	14495
888.395	14549
888.519	14374
888.643	14450
888.767	14556
888.891	14351
889.015	14259
889.139	14271
889.263	14320
889.387	14385
889.511	14484
889.635	14393
889.759	14332
889.883	14240
890.006	14229
890.13	14305
890.254	14183
890.377	14286
890.501	14115
890.624	14050
890.748	14252
890.871	14005
890.995	13967
891.118	13868
891.241	14054
891.364	14039
891.488	14103
891.611	14050
891.734	14008
891.857	14062
891.98	14008
892.103	14016
892.226	14001
892.349	13989
892.471	13913
892.594	14005
892.717	13967
892.839	13974
892.962	14050
893.085	14046
893.207	14005
893.33	13852
893.452	13875
893.575	14084
893.697	13982
893.819	14142
893.941	14119
894.064	14183
894.186	13845
894.308	13974
894.43	14119
894.552	14206
894.674	14088
894.796	13967
894.918	14107
895.04	13989
895.161	14153
895.283	14081
895.405	14065
895.526	14024
895.648	14092
895.769	14100
895.891	14191
896.012	14237
896.134	14233
896.255	14187
896.376	14096
896.498	14111
896.619	14206
896.74	14130
896.861	14195
896.982	14442
897.103	14613
897.224	14495
897.345	14408
897.466	14309
897.587	14450
897.708	14495
897.828	14480
897.949	14408
898.07	14233
898.19	14431
898.311	14537
898.431	14415
898.552	14594
898.672	14549
898.792	14659
898.913	14526
899.033	14480
899.153	14404
899.273	14351
899.393	14351
899.513	14374
899.633	14412
899.753	14366
899.873	14355
899.993	14503
900.113	14271
900.232	14370
900.352	14332
900.472	14206
900.591	14138
900.711	14267
900.83	14195
900.95	14317
901.069	14248
901.189	14180
901.308	13871
901.427	13700
901.546	13871
901.665	13921
901.784	13940
901.904	13788
902.023	13616
902.141	13563
902.26	13384
902.379	13533
902.498	13476
902.617	13453
902.735	13468
902.854	13419
902.973	13426
903.091	13194
903.21	13141
903.328	13168
903.446	13118
903.565	13107
903.683	13076
903.801	12897
903.919	13084
904.038	12977
904.156	12947
904.274	12962
904.392	12817
904.51	12856
904.627	12871
904.745	12943
904.863	12943
904.981	12711
905.098	12578
905.216	12566
905.334	12593
905.451	12559
905.569	12429
905.686	12627
905.803	12612
905.921	12315
906.038	12452
906.155	12350
906.272	12300
906.389	12330
906.506	12171
906.623	12262
906.74	12163
906.857	12106
906.974	12121
907.091	12205
907.208	12258
907.324	12232
907.441	12140
907.557	11866
907.674	11828
907.79	11832
907.907	11950
908.023	11969
908.139	11939
908.256	11920
908.372	11855
908.488	11775
908.604	11718
908.72	11577
908.836	11649
908.952	11589
909.068	11630
909.184	11790
909.3	11680
909.415	11688
909.531	11680
909.647	11490
909.762	11539
909.878	11364
909.993	11509
910.108	11444
910.224	11360
910.339	11421
910.454	11379
910.57	11315
910.685	11235
910.8	11436
910.915	11429
911.03	11299
911.145	11151
911.259	11239
911.374	11147
911.489	11018
911.604	11037
911.718	10885
911.833	10934
911.947	10725
912.062	10694
912.176	10919
912.291	10927
912.405	10984
912.519	11079
912.633	11178
912.748	10987
912.862	10927
912.976	10763
913.09	10637
913.204	10679
913.318	10793
913.431	10927
913.545	10850
913.659	10869
913.772	10786
913.886	10664
914	10611
914.113	10793
914.226	10736
914.34	10694
914.453	10588
914.566	10714
914.68	10519
914.793	10596
914.906	10413
915.019	10394
915.132	10356
915.245	10447
915.358	10405
915.47	10424
915.583	10451
915.696	10455
915.809	10565
915.921	10455
916.034	10348
916.146	10390
916.259	10306
916.371	10398
916.483	10462
916.595	10310
916.708	10344
916.82	10299
916.932	10348
917.044	10314
917.156	10314
917.268	10230
917.38	10299
917.491	10196
917.603	10242
917.715	10314
917.826	10238
917.938	10265
918.049	10128
918.161	10211
918.272	10398
918.384	10440
918.495	10310
918.606	10093
918.717	10105
918.828	10131
918.939	10215
919.05	10048
919.161	10067
919.272	9979
919.383	10074
919.494	10177
919.604	10363
919.715	10150
919.826	10105
919.936	10044
920.047	10246
920.157	10227
920.267	10352
920.378	10181
920.488	10135
920.598	10325
920.708	10493
920.818	10360
920.928	10341
921.038	10462
921.148	10432
921.258	10147
921.368	10025
921.477	10021
921.587	10048
921.697	9895
921.806	10013
921.916	9888
922.025	9770
922.134	9675
922.244	9740
922.353	9690
922.462	9568
922.571	9473
922.68	9408
922.789	9428
922.898	9386
923.007	9317
923.116	9408
923.224	9439
923.333	9439
923.442	9306
923.55	9203
923.659	9386
923.767	9298
923.876	9275
923.984	9317
924.092	9237
924.201	9325
924.309	9279
924.417	9211
924.525	9150
924.633	9256
924.741	9998
924.849	8952
924.956	9222
925.064	9051
925.172	8967
925.279	9043
925.387	9005
925.494	9077
925.602	9135
925.709	9070
925.816	9028
925.924	9028
926.031	9131
926.138	9119
926.245	9146
926.352	8944
926.459	9157
926.566	9150
926.673	9051
926.779	8937
926.886	8952
926.993	8762
927.099	8739
927.206	8777
927.312	8746
927.419	8807
927.525	8731
927.631	8838
927.737	8682
927.843	8636
927.95	8556
928.056	8617
928.162	8663
928.267	8773
928.373	9291
928.479	8883
928.585	8560
928.69	8651
928.796	8724
928.901	8587
929.007	8412
929.112	8590
929.218	8541
929.323	8564
929.428	8499
929.533	8610
929.638	8503
929.743	8495
929.848	8507
929.953	8488
930.058	8396
930.163	8233
930.267	8252
930.372	8317
930.477	8225
930.581	8503
930.685	8355
930.79	8164
930.894	8199
930.998	8138
931.103	8290
931.207	8046
931.311	7940
931.415	7906
931.519	7712
931.623	7658
