Data from test_V78500241_3436.txt Node
Date: Fri Mar 25 14:57:38 CST 2022
User: usil
Spectrometer: V785-0024
Trigger mode: 0
Integration Time (sec): 4.000000E-1
Scans to average: 1
Nonlinearity correction enabled: false
Boxcar width: 0
Storing dark spectrum: false
XAxis mode: Wavelengths
Number of Pixels in Spectrum: 1024
>>>>>Begin Spectral Data<<<<<
801.071	21972
801.214	21819
801.356	21671
801.499	21485
801.641	21367
801.783	21275
801.926	21268
802.068	21294
802.211	21329
802.353	21024
802.496	20891
802.638	20842
802.78	20773
802.923	20670
803.065	20545
803.208	20590
803.35	20724
803.492	20777
803.635	20746
803.777	20602
803.919	20655
804.061	21024
804.204	20735
804.346	20514
804.488	20621
804.63	20663
804.773	20571
804.915	20617
805.057	20686
805.199	20598
805.341	20571
805.483	20724
805.626	20663
805.768	20473
805.91	20522
806.052	20492
806.194	20400
806.336	20663
806.478	20587
806.62	20495
806.762	20590
806.904	20830
807.046	20914
807.188	20921
807.33	20815
807.472	20994
807.614	20781
807.756	20815
807.898	20739
808.04	20507
808.182	20659
808.324	20655
808.465	20564
808.607	20792
808.749	20906
808.891	20956
809.033	21051
809.174	20868
809.316	20807
809.458	20853
809.6	20838
809.741	20948
809.883	20990
810.025	21043
810.166	21081
810.308	20975
810.45	20956
810.591	20864
810.733	20667
810.875	20804
811.016	20609
811.158	20568
811.299	20682
811.441	20765
811.582	20682
811.724	20587
811.865	20621
812.007	20545
812.148	20594
812.29	20590
812.431	20750
812.573	20891
812.714	20956
812.855	21298
812.997	21264
813.138	21298
813.279	21256
813.421	21085
813.562	21135
813.703	20819
813.845	20861
813.986	20514
814.127	20381
814.268	20332
814.41	20294
814.551	20111
814.692	20221
814.833	20073
814.974	20176
815.115	20271
815.256	20069
815.397	20096
815.539	20058
815.68	19917
815.821	19742
815.962	19856
816.103	19944
816.244	19731
816.385	19677
816.526	19738
816.666	19548
816.807	19270
816.948	19487
817.089	19449
817.23	19396
817.371	19403
817.512	19392
817.653	19320
817.793	19285
817.934	19190
818.075	19358
818.216	19339
818.356	19343
818.497	19228
818.638	18993
818.778	18977
818.919	19008
819.06	19050
819.2	19114
819.341	19156
819.481	19171
819.622	19278
819.762	19521
819.903	19460
820.043	19339
820.184	19301
820.324	19320
820.465	19285
820.605	19308
820.746	19225
820.886	19099
821.026	19228
821.167	19232
821.307	19304
821.447	19213
821.588	19179
821.728	18916
821.868	18901
822.008	18738
822.149	18665
822.289	18734
822.429	18464
822.569	18357
822.709	18403
822.849	18243
822.99	18319
823.13	18140
823.27	18213
823.41	18144
823.55	18038
823.69	17984
823.83	18114
823.97	17859
824.11	17885
824.25	17764
824.389	17847
824.529	17893
824.669	17767
824.809	17927
824.949	17927
825.089	17741
825.228	17699
825.368	17630
825.508	17444
825.648	17570
825.787	17558
825.927	17566
826.067	17547
826.206	17516
826.346	17608
826.485	17482
826.625	17547
826.765	17661
826.904	17581
827.044	17383
827.183	17292
827.323	17166
827.462	17326
827.601	17376
827.741	17330
827.88	17216
828.02	17242
828.159	17299
828.298	17189
828.437	17334
828.577	17193
828.716	17444
828.855	17181
828.994	17090
829.134	16965
829.273	17014
829.412	16991
829.551	16976
829.69	16957
829.829	17037
829.968	17083
830.107	17098
830.246	16980
830.385	16915
830.524	16949
830.663	16873
830.802	16698
830.941	16630
831.08	16607
831.219	16740
831.357	16729
831.496	16850
831.635	16717
831.774	16596
831.913	16599
832.051	16382
832.19	16481
832.329	16489
832.467	16474
832.606	16257
832.744	16280
832.883	16382
833.022	16276
833.16	16348
833.299	16329
833.437	16306
833.576	16417
833.714	16382
833.852	16478
833.991	16386
834.129	16554
834.267	16405
834.406	16341
834.544	16424
834.682	16466
834.821	16405
834.959	16493
835.097	16382
835.235	16459
835.373	16363
835.511	16371
835.65	16257
835.788	16333
835.926	16154
836.064	16101
836.202	16226
836.34	16352
836.478	16360
836.615	16238
836.753	16287
836.891	16451
837.029	16394
837.167	16238
837.305	16226
837.443	16188
837.58	16143
837.718	16287
837.856	16185
837.993	16177
838.131	16147
838.269	16097
838.406	16078
838.544	16101
838.681	15823
838.819	15876
838.956	15778
839.094	15667
839.231	15816
839.369	15808
839.506	16215
839.643	15941
839.781	15869
839.918	15732
840.055	15701
840.193	15789
840.33	15751
840.467	15838
840.604	15789
840.742	16044
840.879	15648
841.016	15519
841.153	15736
841.29	15922
841.427	15789
841.564	15759
841.701	15842
841.838	15694
841.975	15534
842.112	15732
842.249	15625
842.385	15473
842.522	15701
842.659	15519
842.796	15587
842.933	15488
843.069	15534
843.206	15428
843.343	15625
843.479	15561
843.616	15488
843.752	15279
843.889	15367
844.025	15416
844.162	15245
844.298	15431
844.435	15275
844.571	15169
844.708	15310
844.844	15481
844.98	15530
845.117	15344
845.253	15230
845.389	15184
845.525	15241
845.661	15214
845.798	15089
845.934	15131
846.07	15112
846.206	15123
846.342	15241
846.478	15112
846.614	14906
846.75	14902
846.886	14811
847.022	14941
847.158	14845
847.294	14815
847.429	14937
847.565	14823
847.701	15062
847.837	14693
847.972	14667
848.108	14708
848.244	14750
848.379	14495
848.515	14415
848.65	14484
848.786	14549
848.921	14511
849.057	14503
849.192	14625
849.328	14530
849.463	14606
849.598	14469
849.734	14465
849.869	14393
850.004	14313
850.14	14385
850.275	14218
850.41	14305
850.545	14214
850.68	14164
850.815	14309
850.95	14195
851.085	14457
851.22	14347
851.355	14362
851.49	14233
851.625	14240
851.76	14256
851.895	14183
852.03	14187
852.165	14180
852.299	14180
852.434	14282
852.569	14267
852.703	14374
852.838	14244
852.973	14400
853.107	14389
853.242	14214
853.376	14096
853.511	13989
853.645	14134
853.78	14172
853.914	14027
854.048	14130
854.183	14043
854.317	14069
854.451	14237
854.585	14100
854.72	14084
854.854	14168
854.988	14020
855.122	14084
855.256	14008
855.39	14081
855.524	14172
855.658	14077
855.792	14100
855.926	14164
856.06	14172
856.194	14267
856.327	14202
856.461	13993
856.595	14134
856.729	14092
856.862	14309
856.996	14206
857.13	14142
857.263	14248
857.397	14305
857.53	14149
857.664	14259
857.797	14210
857.931	14233
858.064	14130
858.197	14290
858.331	14058
858.464	14020
858.597	13993
858.731	14183
858.864	14134
858.997	14096
859.13	14130
859.263	14199
859.396	14240
859.529	14069
859.662	14008
859.795	14103
859.928	14020
860.061	14267
860.194	14343
860.327	14073
860.46	14130
860.592	14259
860.725	14366
860.858	14237
860.99	14153
861.123	14115
861.256	14031
861.388	14107
861.521	14842
861.653	14005
861.786	14008
861.918	13856
862.05	14020
862.183	14092
862.315	14088
862.447	14111
862.58	14088
862.712	13822
862.844	13833
862.976	14073
863.108	14031
863.24	14446
863.372	13856
863.504	13936
863.636	13849
863.768	13906
863.9	13833
864.032	13883
864.164	13868
864.296	13837
864.428	14008
864.559	13928
864.691	13944
864.823	13978
864.954	13875
865.086	13963
865.217	13841
865.349	13715
865.48	13860
865.612	13986
865.743	14069
865.875	13944
866.006	13906
866.137	13864
866.269	13947
866.4	13936
866.531	13833
866.662	13830
866.793	13871
866.924	13936
867.055	13913
867.186	13883
867.317	13845
867.448	13864
867.579	13788
867.71	13788
867.841	13742
867.972	13909
868.103	13894
868.233	13860
868.364	13864
868.495	13944
868.625	14103
868.756	14259
868.886	14050
869.017	14161
869.147	14214
869.278	14271
869.408	14172
869.539	14199
869.669	14259
869.799	14176
869.929	14240
870.06	14313
870.19	14431
870.32	14461
870.45	14446
870.58	14514
870.71	14678
870.84	14667
870.97	14450
871.1	14499
871.23	14735
871.36	14735
871.489	14663
871.619	14708
871.749	14815
871.879	14693
872.008	14804
872.138	14834
872.267	14838
872.397	14621
872.526	14583
872.656	14530
872.785	14610
872.915	14788
873.044	14868
873.173	14686
873.303	14868
873.432	14842
873.561	14914
873.69	14807
873.819	14796
873.948	14857
874.077	14811
874.206	14830
874.335	14781
874.464	14971
874.593	15074
874.722	14990
874.851	15165
874.979	15066
875.108	15218
875.237	15051
875.365	15093
875.494	15108
875.623	15108
875.751	15028
875.88	15146
876.008	15279
876.136	15291
876.265	15515
876.393	15625
876.521	15705
876.65	15652
876.778	15526
876.906	15564
877.034	15496
877.162	15572
877.29	15416
877.418	15515
877.546	15553
877.674	15587
877.802	15587
877.93	15519
878.058	15473
878.185	15485
878.313	15545
878.441	15610
878.568	15420
878.696	15485
878.824	15526
878.951	15690
879.079	15660
879.206	15785
879.333	15739
879.461	15580
879.588	15671
879.715	15595
879.842	15869
879.97	15481
880.097	15370
880.224	15294
880.351	15355
880.478	15363
880.605	15367
880.732	15329
880.859	15561
880.986	15473
881.112	15344
881.239	15207
881.366	15161
881.493	15066
881.619	14933
881.746	15093
881.872	15104
881.999	14952
882.125	14960
882.252	15093
882.378	15051
882.505	15169
882.631	15077
882.757	14838
882.883	14899
883.01	14937
883.136	14800
883.262	14716
883.388	14743
883.514	14849
883.64	14975
883.766	14815
883.892	14625
884.018	14670
884.143	14872
884.269	14929
884.395	14621
884.52	14575
884.646	14602
884.772	14514
884.897	14476
885.023	14617
885.148	14651
885.274	14739
885.399	14686
885.524	14644
885.65	14625
885.775	14655
885.9	14442
886.025	14701
886.15	14575
886.275	14545
886.4	14495
886.525	14545
886.65	14495
886.775	14556
886.9	14735
887.025	14765
887.149	14594
887.274	14465
887.399	14305
887.523	14404
887.648	14290
887.773	14362
887.897	14492
888.021	14522
888.146	14370
888.27	14446
888.395	14625
888.519	14514
888.643	14499
888.767	14442
888.891	14305
889.015	14282
889.139	14271
889.263	14210
889.387	14385
889.511	14438
889.635	14374
889.759	14214
889.883	14275
890.006	14366
890.13	14408
890.254	14161
890.377	14351
890.501	14103
890.624	14084
890.748	14096
890.871	14046
890.995	14012
891.118	13860
891.241	13932
891.364	14005
891.488	14024
891.611	14001
891.734	13932
891.857	14031
891.98	14024
892.103	14050
892.226	13947
892.349	13993
892.471	13753
892.594	13955
892.717	14039
892.839	13909
892.962	14001
893.085	13997
893.207	13978
893.33	13883
893.452	13955
893.575	13940
893.697	13993
893.819	14191
893.941	14225
894.064	14103
894.186	14008
894.308	13814
894.43	14024
894.552	14183
894.674	14149
894.796	14020
894.918	14046
895.04	14008
895.161	14168
895.283	14062
895.405	14054
895.526	14100
895.648	14043
895.769	14180
895.891	14115
896.012	14210
896.134	14206
896.255	14100
896.376	14214
896.498	14065
896.619	14172
896.74	14218
896.861	14210
896.982	14484
897.103	14674
897.224	14545
897.345	14454
897.466	14301
897.587	14545
897.708	14571
897.828	14454
897.949	14385
898.07	14362
898.19	14381
898.311	14526
898.431	14514
898.552	14514
898.672	14606
898.792	14514
898.913	14522
899.033	14431
899.153	14347
899.273	14176
899.393	14381
899.513	14336
899.633	14404
899.753	14374
899.873	14381
899.993	14393
900.113	14347
900.232	14351
900.352	14294
900.472	14218
900.591	14229
900.711	14202
900.83	14180
900.95	14298
901.069	14263
901.189	14138
901.308	13974
901.427	13890
901.546	13871
901.665	13849
901.784	13879
901.904	13830
902.023	13643
902.141	13525
902.26	13506
902.379	13552
902.498	13453
902.617	13343
902.735	13472
902.854	13472
902.973	13468
903.091	13149
903.21	13206
903.328	13209
903.446	13122
903.565	13023
903.683	13061
903.801	12932
903.919	12993
904.038	13065
904.156	12856
904.274	12954
904.392	12837
904.51	12840
904.627	12882
904.745	12840
904.863	12947
904.981	12612
905.098	12475
905.216	12525
905.334	12559
905.451	12521
905.569	12467
905.686	12631
905.803	12574
905.921	12327
906.038	12448
906.155	12346
906.272	12273
906.389	12304
906.506	12175
906.623	12152
906.74	12125
906.857	12079
906.974	12057
907.091	12190
907.208	12270
907.324	12216
907.441	11935
907.557	11889
907.674	11908
907.79	11836
907.907	11912
908.023	11958
908.139	11882
908.256	11893
908.372	11935
908.488	11813
908.604	11668
908.72	11604
908.836	11592
908.952	11642
909.068	11741
909.184	11809
909.3	11604
909.415	11611
909.531	11638
909.647	11440
909.762	11421
909.878	11448
909.993	11501
910.108	11356
910.224	11425
910.339	11398
910.454	11391
910.57	11341
910.685	11193
910.8	11452
910.915	11452
911.03	11368
911.145	11117
911.259	11136
911.374	11185
911.489	11029
911.604	11010
911.718	10885
911.833	10927
911.947	10824
912.062	10763
912.176	10942
912.291	10908
912.405	10889
912.519	11037
912.633	11003
912.748	10904
912.862	10786
912.976	10771
913.09	10656
913.204	10721
913.318	10778
913.431	10801
913.545	10839
913.659	10847
913.772	10702
913.886	10691
914	10645
914.113	10782
914.226	10706
914.34	10809
914.453	10546
914.566	10698
914.68	10630
914.793	10565
914.906	10459
915.019	10390
915.132	10352
915.245	10333
915.358	10352
915.47	10409
915.583	10417
915.696	10516
915.809	10592
915.921	10542
916.034	10295
916.146	10303
916.259	10329
916.371	10398
916.483	10398
916.595	10314
916.708	10356
916.82	10341
916.932	10249
917.044	10276
917.156	10284
917.268	10177
917.38	10227
917.491	10185
917.603	10234
917.715	10303
917.826	10371
917.938	10131
918.049	10101
918.161	10223
918.272	10398
918.384	10382
918.495	10276
918.606	10059
918.717	10002
918.828	10059
918.939	10074
919.05	10097
919.161	10154
919.272	9835
919.383	10017
919.494	10246
919.604	10333
919.715	10173
919.826	10082
919.936	10143
920.047	10211
920.157	10112
920.267	10261
920.378	10150
920.488	10124
920.598	10295
920.708	10485
920.818	10261
920.928	10337
921.038	10523
921.148	10417
921.258	10090
921.368	10101
921.477	9945
921.587	9979
921.697	9835
921.806	10017
921.916	9903
922.025	9709
922.134	9675
922.244	9595
922.353	9724
922.462	9595
922.571	9477
922.68	9378
922.789	9298
922.898	9348
923.007	9389
923.116	9454
923.224	9351
923.333	9374
923.442	9325
923.55	9317
923.659	9237
923.767	9382
923.876	9226
923.984	9370
924.092	9203
924.201	9264
924.309	9264
924.417	9275
924.525	9218
924.633	9256
924.741	10082
924.849	9009
924.956	9222
925.064	9081
925.172	8941
925.279	9024
925.387	9017
925.494	9135
925.602	9192
925.709	9097
925.816	8986
925.924	9089
926.031	9081
926.138	8960
926.245	9039
926.352	9081
926.459	9081
926.566	9180
926.673	8963
926.779	8864
926.886	8853
926.993	8773
927.099	8788
927.206	8777
927.312	8712
927.419	8811
927.525	8762
927.631	8796
927.737	8682
927.843	8720
927.95	8537
928.056	8537
928.162	8686
928.267	8701
928.373	9298
928.479	8686
928.585	8518
928.69	8724
928.796	8735
928.901	8629
929.007	8480
929.112	8590
929.218	8564
929.323	8488
929.428	8488
929.533	8610
929.638	8450
929.743	8450
929.848	8495
929.953	8415
930.058	8408
930.163	8279
930.267	8279
930.372	8415
930.477	8195
930.581	8442
930.685	8320
930.79	8225
930.894	8256
930.998	8187
931.103	8271
931.207	7947
931.311	7982
931.415	7902
931.519	7708
931.623	7742
