Data from test_V78500241_3284.txt Node
Date: Fri Mar 25 14:56:34 CST 2022
User: usil
Spectrometer: V785-0024
Trigger mode: 0
Integration Time (sec): 4.000000E-1
Scans to average: 1
Nonlinearity correction enabled: false
Boxcar width: 0
Storing dark spectrum: false
XAxis mode: Wavelengths
Number of Pixels in Spectrum: 1024
>>>>>Begin Spectral Data<<<<<
801.071	21934
801.214	21789
801.356	21622
801.499	21496
801.641	21412
801.783	21389
801.926	21317
802.068	21306
802.211	21230
802.353	21169
802.496	20929
802.638	20872
802.78	20819
802.923	20674
803.065	20754
803.208	20640
803.35	20663
803.492	20739
803.635	20796
803.777	20606
803.919	20674
804.061	20975
804.204	20621
804.346	20526
804.488	20598
804.63	20705
804.773	20579
804.915	20621
805.057	20788
805.199	20556
805.341	20625
805.483	20773
805.626	20541
805.768	20480
805.91	20670
806.052	20674
806.194	20355
806.336	20632
806.478	20514
806.62	20533
806.762	20705
806.904	20678
807.046	21077
807.188	20979
807.33	20986
807.472	20899
807.614	20853
807.756	20792
807.898	20743
808.04	20644
808.182	20556
808.324	20708
808.465	20838
808.607	20864
808.749	20895
808.891	20960
809.033	21119
809.174	21032
809.316	20967
809.458	20971
809.6	20960
809.741	21055
809.883	21032
810.025	21112
810.166	21077
810.308	21203
810.45	21062
810.591	20944
810.733	20765
810.875	20678
811.016	20644
811.158	20617
811.299	20686
811.441	20777
811.582	20819
811.724	20552
811.865	20617
812.007	20769
812.148	20625
812.29	20724
812.431	20876
812.573	21051
812.714	21036
812.855	21249
812.997	21393
813.138	21389
813.279	21393
813.421	21233
813.562	21005
813.703	20834
813.845	20857
813.986	20640
814.127	20450
814.268	20221
814.41	20259
814.551	20252
814.692	20381
814.833	20020
814.974	20145
815.115	20157
815.256	20031
815.397	20103
815.539	19986
815.68	19989
815.821	19967
815.962	20020
816.103	19887
816.244	19765
816.385	19750
816.526	19635
816.666	19575
816.807	19453
816.948	19491
817.089	19411
817.23	19430
817.371	19362
817.512	19392
817.653	19407
817.793	19293
817.934	19335
818.075	19365
818.216	19373
818.356	19339
818.497	19141
818.638	19091
818.778	19129
818.919	19122
819.06	19091
819.2	19179
819.341	19251
819.481	19278
819.622	19430
819.762	19590
819.903	19495
820.043	19510
820.184	19388
820.324	19312
820.465	19548
820.605	19304
820.746	19221
820.886	19152
821.026	19358
821.167	19259
821.307	19365
821.447	19278
821.588	19133
821.728	19012
821.868	18829
822.008	18738
822.149	18871
822.289	18692
822.429	18475
822.569	18494
822.709	18319
822.849	18209
822.99	18209
823.13	18334
823.27	18281
823.41	18098
823.55	17999
823.69	18125
823.83	17946
823.97	17965
824.11	17741
824.25	17851
824.389	17714
824.529	17935
824.669	17779
824.809	17980
824.949	17908
825.089	17935
825.228	17912
825.368	17630
825.508	17676
825.648	17589
825.787	17699
825.927	17554
826.067	17547
826.206	17604
826.346	17619
826.485	17623
826.625	17566
826.765	17627
826.904	17687
827.044	17330
827.183	17455
827.323	17273
827.462	17417
827.601	17269
827.741	17197
827.88	17326
828.02	17170
828.159	17216
828.298	17318
828.437	17387
828.577	17147
828.716	17296
828.855	17185
828.994	17075
829.134	17109
829.273	17064
829.412	16968
829.551	16980
829.69	17052
829.829	17067
829.968	16999
830.107	17071
830.246	17159
830.385	16991
830.524	16942
830.663	16793
830.802	16790
830.941	16744
831.08	16649
831.219	16736
831.357	16790
831.496	16839
831.635	16660
831.774	16558
831.913	16592
832.051	16440
832.19	16481
832.329	16481
832.467	16360
832.606	16417
832.744	16329
832.883	16398
833.022	16348
833.16	16390
833.299	16500
833.437	16344
833.576	16474
833.714	16394
833.852	16348
833.991	16352
834.129	16382
834.267	16462
834.406	16348
834.544	16504
834.682	16459
834.821	16405
834.959	16660
835.097	16512
835.235	16512
835.373	16459
835.511	16527
835.65	16390
835.788	16344
835.926	16154
836.064	16173
836.202	16124
836.34	16265
836.478	16417
836.615	16303
836.753	16432
836.891	16428
837.029	16367
837.167	16337
837.305	16272
837.443	16272
837.58	16093
837.718	16261
837.856	16230
837.993	16135
838.131	16268
838.269	16166
838.406	16211
838.544	16044
838.681	16021
838.819	15895
838.956	15732
839.094	15789
839.231	15766
839.369	15918
839.506	16188
839.643	16078
839.781	15842
839.918	15652
840.055	15743
840.193	15770
840.33	15713
840.467	15778
840.604	15766
840.742	15998
840.879	15671
841.016	15667
841.153	15591
841.29	15816
841.427	15804
841.564	15797
841.701	15903
841.838	15827
841.975	15679
842.112	15720
842.249	15599
842.385	15496
842.522	15667
842.659	15633
842.796	15534
842.933	15466
843.069	15511
843.206	15424
843.343	15633
843.479	15633
843.616	15625
843.752	15367
843.889	15389
844.025	15424
844.162	15283
844.298	15450
844.435	15294
844.571	15283
844.708	15405
844.844	15545
844.98	15412
845.117	15363
845.253	15230
845.389	15142
845.525	15256
845.661	15173
845.798	15070
845.934	15237
846.07	15009
846.206	15154
846.342	15325
846.478	15104
846.614	14883
846.75	14811
846.886	14944
847.022	15005
847.158	14868
847.294	14975
847.429	14906
847.565	14902
847.701	15157
847.837	14651
847.972	14613
848.108	14769
848.244	14785
848.379	14514
848.515	14541
848.65	14545
848.786	14549
848.921	14549
849.057	14632
849.192	14644
849.328	14522
849.463	14533
849.598	14423
849.734	14530
849.869	14366
850.004	14305
850.14	14358
850.275	14343
850.41	14191
850.545	14221
850.68	14336
850.815	14278
850.95	14191
851.085	14442
851.22	14412
851.355	14347
851.49	14229
851.625	14309
851.76	14233
851.895	14202
852.03	14157
852.165	14301
852.299	14294
852.434	14343
852.569	14282
852.703	14317
852.838	14332
852.973	14427
853.107	14480
853.242	14294
853.376	14153
853.511	14077
853.645	14043
853.78	14271
853.914	14210
854.048	14149
854.183	14134
854.317	14123
854.451	14256
854.585	14073
854.72	14130
854.854	14286
854.988	14092
855.122	14024
855.256	14031
855.39	14199
855.524	14214
855.658	14225
855.792	14153
855.926	14134
856.06	14286
856.194	14225
856.327	14164
856.461	14081
856.595	14058
856.729	14024
856.862	14225
856.996	14149
857.13	14237
857.263	14225
857.397	14240
857.53	14111
857.664	14225
857.797	14282
857.931	14290
858.064	14168
858.197	14244
858.331	14149
858.464	14103
858.597	14043
858.731	14172
858.864	14111
858.997	14058
859.13	14195
859.263	14282
859.396	14294
859.529	14050
859.662	14096
859.795	14119
859.928	14149
860.061	14221
860.194	14332
860.327	14191
860.46	14054
860.592	14294
860.725	14259
860.858	14214
860.99	14183
861.123	14020
861.256	14054
861.388	14115
861.521	14979
861.653	13955
861.786	14043
861.918	14062
862.05	14065
862.183	14027
862.315	14153
862.447	14138
862.58	14107
862.712	13894
862.844	13860
862.976	13997
863.108	13883
863.24	14332
863.372	13856
863.504	13925
863.636	13986
863.768	13932
863.9	13928
864.032	13890
864.164	13890
864.296	13909
864.428	14088
864.559	13959
864.691	14024
864.823	13955
864.954	14031
865.086	13959
865.217	13906
865.349	13925
865.48	13944
865.612	13826
865.743	14069
865.875	13871
866.006	13936
866.137	13871
866.269	13936
866.4	13932
866.531	13822
866.662	13833
866.793	13875
866.924	13868
867.055	13902
867.186	14126
867.317	13852
867.448	13822
867.579	13788
867.71	13902
867.841	13830
867.972	13860
868.103	13906
868.233	13970
868.364	13852
868.495	13967
868.625	14077
868.756	14183
868.886	14157
869.017	14183
869.147	14343
869.278	14172
869.408	14168
869.539	14119
869.669	14225
869.799	14183
869.929	14298
870.06	14263
870.19	14408
870.32	14492
870.45	14476
870.58	14522
870.71	14571
870.84	14632
870.97	14621
871.1	14541
871.23	14815
871.36	14743
871.489	14693
871.619	14735
871.749	14785
871.879	14826
872.008	14830
872.138	14746
872.267	14746
872.397	14552
872.526	14587
872.656	14522
872.785	14640
872.915	14746
873.044	14842
873.173	14750
873.303	14834
873.432	14853
873.561	14948
873.69	14895
873.819	14838
873.948	14826
874.077	14819
874.206	14777
874.335	14769
874.464	14895
874.593	15089
874.722	15093
874.851	15093
874.979	15173
875.108	15222
875.237	15028
875.365	15097
875.494	15165
875.623	15161
875.751	15180
875.88	15123
876.008	15260
876.136	15275
876.265	15572
876.393	15648
876.521	15603
876.65	15701
876.778	15660
876.906	15504
877.034	15488
877.162	15557
877.29	15523
877.418	15545
877.546	15477
877.674	15580
877.802	15549
877.93	15595
878.058	15492
878.185	15344
878.313	15568
878.441	15500
878.568	15374
878.696	15500
878.824	15557
878.951	15526
879.079	15778
879.206	15804
879.333	15781
879.461	15595
879.588	15622
879.715	15762
879.842	15854
879.97	15580
880.097	15363
880.224	15348
880.351	15397
880.478	15481
880.605	15275
880.732	15321
880.859	15599
880.986	15386
881.112	15515
881.239	15222
881.366	15272
881.493	15055
881.619	15028
881.746	15093
881.872	15032
881.999	15051
882.125	14994
882.252	15089
882.378	15097
882.505	15184
882.631	15043
882.757	14868
882.883	14838
883.01	14838
883.136	14819
883.262	14754
883.388	14792
883.514	14902
883.64	15013
883.766	14796
883.892	14701
884.018	14765
884.143	14872
884.269	14956
884.395	14670
884.52	14579
884.646	14568
884.772	14560
884.897	14514
885.023	14560
885.148	14648
885.274	14754
885.399	14689
885.524	14503
885.65	14560
885.775	14587
885.9	14537
886.025	14621
886.15	14617
886.275	14587
886.4	14446
886.525	14613
886.65	14518
886.775	14545
886.9	14750
887.025	14739
887.149	14617
887.274	14415
887.399	14343
887.523	14385
887.648	14328
887.773	14355
887.897	14473
888.021	14473
888.146	14332
888.27	14571
888.395	14594
888.519	14450
888.643	14457
888.767	14549
888.891	14263
889.015	14339
889.139	14275
889.263	14271
889.387	14389
889.511	14446
889.635	14461
889.759	14191
889.883	14317
890.006	14408
890.13	14461
890.254	14183
890.377	14210
890.501	14058
890.624	14046
890.748	14046
890.871	13951
890.995	14081
891.118	13871
891.241	13925
891.364	14012
891.488	14145
891.611	13921
891.734	13944
891.857	14039
891.98	14043
892.103	14058
892.226	14001
892.349	14001
892.471	13769
892.594	13921
892.717	14077
892.839	13974
892.962	13970
893.085	14081
893.207	13963
893.33	13849
893.452	13868
893.575	14031
893.697	13963
893.819	14031
893.941	14119
894.064	14145
894.186	13978
894.308	13951
894.43	14069
894.552	14218
894.674	14138
894.796	13898
894.918	14027
895.04	13921
895.161	14100
895.283	14214
895.405	14096
895.526	14157
895.648	14111
895.769	14084
895.891	14199
896.012	14157
896.134	14172
896.255	14221
896.376	14119
896.498	14199
896.619	14237
896.74	14206
896.861	14168
896.982	14438
897.103	14670
897.224	14457
897.345	14427
897.466	14343
897.587	14400
897.708	14560
897.828	14415
897.949	14385
898.07	14339
898.19	14412
898.311	14503
898.431	14438
898.552	14473
898.672	14549
898.792	14659
898.913	14526
899.033	14480
899.153	14324
899.273	14218
899.393	14256
899.513	14404
899.633	14362
899.753	14347
899.873	14381
899.993	14400
900.113	14404
900.232	14427
900.352	14301
900.472	14240
900.591	14214
900.711	14202
900.83	14187
900.95	14301
901.069	14286
901.189	14168
901.308	13932
901.427	13845
901.546	13909
901.665	13894
901.784	13928
901.904	13780
902.023	13795
902.141	13529
902.26	13445
902.379	13544
902.498	13400
902.617	13506
902.735	13499
902.854	13480
902.973	13396
903.091	13209
903.21	13198
903.328	13171
903.446	13110
903.565	13031
903.683	13129
903.801	12981
903.919	13027
904.038	13015
904.156	12939
904.274	12989
904.392	12886
904.51	12844
904.627	12924
904.745	12920
904.863	12920
904.981	12658
905.098	12578
905.216	12521
905.334	12612
905.451	12490
905.569	12528
905.686	12589
905.803	12604
905.921	12361
906.038	12490
906.155	12521
906.272	12353
906.389	12346
906.506	12057
906.623	12190
906.74	12262
906.857	12072
906.974	12030
907.091	12270
907.208	12323
907.324	12239
907.441	12178
907.557	11878
907.674	11927
907.79	11901
907.907	12019
908.023	11996
908.139	11973
908.256	11901
908.372	11824
908.488	11866
908.604	11710
908.72	11691
908.836	11722
908.952	11691
909.068	11726
909.184	11783
909.3	11714
909.415	11771
909.531	11688
909.647	11459
909.762	11478
909.878	11421
909.993	11573
910.108	11421
910.224	11356
910.339	11482
910.454	11490
910.57	11303
910.685	11223
910.8	11562
910.915	11524
911.03	11349
911.145	11193
911.259	11166
911.374	11223
911.489	11121
911.604	11052
911.718	10858
911.833	10961
911.947	10805
912.062	10748
912.176	10919
912.291	10949
912.405	10896
912.519	11132
912.633	11136
912.748	10980
912.862	10915
912.976	10866
913.09	10736
913.204	10740
913.318	10881
913.431	10946
913.545	10938
913.659	10911
913.772	10820
913.886	10725
914	10660
914.113	10873
914.226	10820
914.34	10831
914.453	10592
914.566	10790
914.68	10584
914.793	10611
914.906	10493
915.019	10424
915.132	10367
915.245	10417
915.358	10440
915.47	10470
915.583	10546
915.696	10554
915.809	10538
915.921	10535
916.034	10409
916.146	10394
916.259	10375
916.371	10474
916.483	10474
916.595	10295
916.708	10314
916.82	10424
916.932	10398
917.044	10398
917.156	10318
917.268	10181
917.38	10287
917.491	10242
917.603	10303
917.715	10394
917.826	10268
917.938	10276
918.049	10181
918.161	10272
918.272	10421
918.384	10512
918.495	10242
918.606	10207
918.717	10093
918.828	10185
918.939	10207
919.05	10101
919.161	10044
919.272	9949
919.383	10059
919.494	10257
919.604	10402
919.715	10185
919.826	10025
919.936	10143
920.047	10246
920.157	10188
920.267	10367
920.378	10215
920.488	10200
920.598	10333
920.708	10451
920.818	10344
920.928	10394
921.038	10542
921.148	10462
921.258	10173
921.368	10086
921.477	10071
921.587	10017
921.697	9907
921.806	10147
921.916	9873
922.025	9724
922.134	9690
922.244	9671
922.353	9743
922.462	9686
922.571	9587
922.68	9526
922.789	9351
922.898	9443
923.007	9382
923.116	9439
923.224	9447
923.333	9443
923.442	9233
923.55	9302
923.659	9367
923.767	9378
923.876	9260
923.984	9298
924.092	9260
924.201	9298
924.309	9298
924.417	9355
924.525	9214
924.633	9298
924.741	10173
924.849	9074
924.956	9195
925.064	9104
925.172	8971
925.279	9043
925.387	9043
925.494	9055
925.602	9218
925.709	9176
925.816	9032
925.924	9154
926.031	9184
926.138	9108
926.245	9195
926.352	9051
926.459	9108
926.566	9116
926.673	9028
926.779	8963
926.886	8933
926.993	8815
927.099	8746
927.206	8750
927.312	8777
927.419	8864
927.525	8826
927.631	8807
927.737	8712
927.843	8720
927.95	8640
928.056	8655
928.162	8701
928.267	8773
928.373	9253
928.479	8830
928.585	8579
928.69	8716
928.796	8625
928.901	8590
929.007	8484
929.112	8621
929.218	8560
929.323	8587
929.428	8507
929.533	8598
929.638	8488
929.743	8533
929.848	8537
929.953	8480
930.058	8408
930.163	8290
930.267	8332
930.372	8431
930.477	8237
930.581	8469
930.685	8351
930.79	8240
930.894	8229
930.998	8259
931.103	8370
931.207	8024
931.311	7944
931.415	7951
931.519	7681
931.623	7708
