Data from test_V78500241_721.txt Node
Date: Fri Mar 25 14:38:44 CST 2022
User: usil
Spectrometer: V785-0024
Trigger mode: 0
Integration Time (sec): 4.000000E-1
Scans to average: 1
Nonlinearity correction enabled: false
Boxcar width: 0
Storing dark spectrum: false
XAxis mode: Wavelengths
Number of Pixels in Spectrum: 1024
>>>>>Begin Spectral Data<<<<<
801.071	27572
801.214	27523
801.356	27226
801.499	27150
801.641	27013
801.783	26990
801.926	27043
802.068	26773
802.211	26777
802.353	26648
802.496	26549
802.638	26396
802.78	26431
802.923	26469
803.065	26332
803.208	26434
803.35	26393
803.492	26644
803.635	26602
803.777	26556
803.919	26587
804.061	26910
804.204	26655
804.346	26575
804.488	26644
804.63	26708
804.773	26750
804.915	26743
805.057	26948
805.199	26948
805.341	27013
805.483	27093
805.626	27176
805.768	27104
805.91	27462
806.052	27431
806.194	27416
806.336	27907
806.478	27979
806.62	28200
806.762	28421
806.904	28881
807.046	29387
807.188	29608
807.33	30064
807.472	30654
807.614	31278
807.756	32374
807.898	33412
808.04	34984
808.182	36985
808.324	39884
808.465	42859
808.607	46219
808.749	49335
808.891	51096
809.033	51211
809.174	49358
809.316	46752
809.458	43050
809.6	39412
809.741	36753
809.883	34401
810.025	32887
810.166	31776
810.308	30996
810.45	30254
810.591	29741
810.733	29124
810.875	28782
811.016	28409
811.158	28314
811.299	28200
811.441	28086
811.582	27816
811.724	27633
811.865	27458
812.007	27363
812.148	27310
812.29	27389
812.431	27488
812.573	27450
812.714	27454
812.855	27557
812.997	27587
813.138	27587
813.279	27526
813.421	27427
813.562	27291
813.703	27081
813.845	27058
813.986	26518
814.127	26374
814.268	26282
814.41	26298
814.551	26244
814.692	26290
814.833	26024
814.974	26107
815.115	26119
815.256	25860
815.397	25970
815.539	25811
815.68	25734
815.821	25559
815.962	25571
816.103	25544
816.244	25521
816.385	25381
816.526	25373
816.666	25145
816.807	25012
816.948	25091
817.089	25069
817.23	25084
817.371	25027
817.512	24970
817.653	24856
817.793	24810
817.934	24859
818.075	24806
818.216	24916
818.356	24863
818.497	24852
818.638	24532
818.778	24608
818.919	24574
819.06	24563
819.2	24719
819.341	24795
819.481	24779
819.622	24837
819.762	24943
819.903	24970
820.043	24791
820.184	24829
820.324	24821
820.465	24871
820.605	24810
820.746	24757
820.886	24559
821.026	24513
821.167	24665
821.307	24738
821.447	24677
821.588	24357
821.728	24311
821.868	24239
822.008	23923
822.149	23950
822.289	24007
822.429	23585
822.569	23615
822.709	23657
822.849	23459
822.99	23478
823.13	23402
823.27	23318
823.41	23292
823.55	23147
823.69	23288
823.83	23269
823.97	23113
824.11	23044
824.25	22995
824.389	23060
824.529	22965
824.669	22904
824.809	23090
824.949	23056
825.089	23079
825.228	22915
825.368	22831
825.508	22710
825.648	22702
825.787	22748
825.927	22831
826.067	22733
826.206	22733
826.346	22774
826.485	22782
826.625	22622
826.765	22812
826.904	22774
827.044	22432
827.183	22447
827.323	22447
827.462	22440
827.601	22455
827.741	22352
827.88	22481
828.02	22234
828.159	22226
828.298	22238
828.437	22455
828.577	22280
828.716	22523
828.855	22310
828.994	22128
829.134	22021
829.273	22147
829.412	21983
829.551	22074
829.69	22082
829.829	21979
829.968	22166
830.107	22029
830.246	22120
830.385	22097
830.524	21934
830.663	21998
830.802	21842
830.941	21682
831.08	21557
831.219	21842
831.357	21797
831.496	21774
831.635	21732
831.774	21614
831.913	21515
832.051	21443
832.19	21473
832.329	21637
832.467	21496
832.606	21439
832.744	21549
832.883	21595
833.022	21583
833.16	21701
833.299	21949
833.437	22006
833.576	22135
833.714	22257
833.852	22447
833.991	22580
834.129	22710
834.267	22767
834.406	22561
834.544	22542
834.682	22474
834.821	22341
834.959	22485
835.097	22105
835.235	22051
835.373	21728
835.511	21739
835.65	21568
835.788	21462
835.926	21260
836.064	21119
836.202	21207
836.34	21351
836.478	21291
836.615	21066
836.753	21230
836.891	21264
837.029	21165
837.167	21043
837.305	21066
837.443	20921
837.58	20868
837.718	21028
837.856	21028
837.993	20975
838.131	21020
838.269	20941
838.406	20868
838.544	20857
838.681	20648
838.819	20461
838.956	20442
839.094	20549
839.231	20495
839.369	20552
839.506	20796
839.643	20727
839.781	20393
839.918	20282
840.055	20370
840.193	20423
840.33	20389
840.467	20457
840.604	20503
840.742	20727
840.879	20153
841.016	20328
841.153	20278
841.29	20480
841.427	20301
841.564	20419
841.701	20412
841.838	20339
841.975	20362
842.112	20317
842.249	20157
842.385	20214
842.522	20400
842.659	20237
842.796	20149
842.933	20210
843.069	20210
843.206	20183
843.343	20396
843.479	20351
843.616	20374
843.752	20271
843.889	20237
844.025	20332
844.162	20427
844.298	20480
844.435	20629
844.571	20895
844.708	21207
844.844	21511
844.98	22109
845.117	22672
845.253	23589
845.389	25685
845.525	29383
845.661	35497
845.798	42528
845.934	47977
846.07	49575
846.206	48041
846.342	43152
846.478	36110
846.614	30277
846.75	26290
846.886	23855
847.022	22432
847.158	21549
847.294	20906
847.429	20533
847.565	20305
847.701	20320
847.837	19799
847.972	19719
848.108	19643
848.244	19533
848.379	19434
848.515	19312
848.65	19194
848.786	19331
848.921	19247
849.057	19251
849.192	19274
849.328	19168
849.463	19236
849.598	19031
849.734	19122
849.869	18970
850.004	18916
850.14	18897
850.275	18859
850.41	18726
850.545	18779
850.68	18753
850.815	18833
850.95	18795
851.085	19031
851.22	18798
851.355	18916
851.49	18905
851.625	18837
851.76	18749
851.895	18741
852.03	18677
852.165	18856
852.299	18909
852.434	18932
852.569	18833
852.703	18852
852.838	18954
852.973	18954
853.107	19076
853.242	18996
853.376	18863
853.511	18741
853.645	18913
853.78	19061
853.914	19042
854.048	18970
854.183	19027
854.317	19076
854.451	19156
854.585	19091
854.72	19095
854.854	19091
854.988	18844
855.122	18905
855.256	18776
855.39	18867
855.524	18905
855.658	18909
855.792	18802
855.926	18810
856.06	18795
856.194	18840
856.327	18559
856.461	18669
856.595	18608
856.729	18563
856.862	18817
856.996	18703
857.13	18627
857.263	18806
857.397	18696
857.53	18654
857.664	18700
857.797	18631
857.931	18711
858.064	18464
858.197	18700
858.331	18544
858.464	18456
858.597	18365
858.731	18528
858.864	18388
858.997	18391
859.13	18479
859.263	18467
859.396	18464
859.529	18433
859.662	18441
859.795	18460
859.928	18498
860.061	18639
860.194	18616
860.327	18395
860.46	18445
860.592	18483
860.725	18528
860.858	18490
860.99	18475
861.123	18350
861.256	18251
861.388	18433
861.521	19103
861.653	18311
861.786	18243
861.918	18300
862.05	18403
862.183	18372
862.315	18315
862.447	18517
862.58	18391
862.712	18213
862.844	18133
862.976	18289
863.108	18091
863.24	18646
863.372	17950
863.504	18121
863.636	18095
863.768	18186
863.9	18125
864.032	17969
864.164	18026
864.296	18144
864.428	18228
864.559	18155
864.691	18205
864.823	18209
864.954	18060
865.086	18041
865.217	18064
865.349	18110
865.48	17920
865.612	17988
865.743	18209
865.875	18068
866.006	17980
866.137	18060
866.269	18015
866.4	17920
866.531	17935
866.662	17977
866.793	17946
866.924	17897
867.055	18007
867.186	18007
867.317	17916
867.448	17965
867.579	17912
867.71	17908
867.841	17939
867.972	18007
868.103	17984
868.233	17916
868.364	18045
868.495	18064
868.625	18304
868.756	18433
868.886	18289
869.017	18247
869.147	18292
869.278	18315
869.408	18289
869.539	18266
869.669	18300
869.799	18380
869.929	18262
870.06	18422
870.19	18692
870.32	18532
870.45	18631
870.58	18650
870.71	18886
870.84	18730
870.97	18677
871.1	18726
871.23	18837
871.36	18943
871.489	18852
871.619	18935
871.749	18932
871.879	19008
872.008	19297
872.138	18958
872.267	19061
872.397	18920
872.526	18837
872.656	18882
872.785	18848
872.915	19187
873.044	19171
873.173	19198
873.303	19221
873.432	19156
873.561	19282
873.69	19225
873.819	19236
873.948	19316
874.077	19331
874.206	19293
874.335	19270
874.464	19514
874.593	19761
874.722	19674
874.851	19803
874.979	19795
875.108	19902
875.237	19814
875.365	19795
875.494	19913
875.623	19936
875.751	19963
875.88	20058
876.008	20183
876.136	20286
876.265	20613
876.393	20739
876.521	20762
876.65	20773
876.778	20933
876.906	20819
877.034	20899
877.162	20994
877.29	21001
877.418	21241
877.546	21272
877.674	21272
877.802	21545
877.93	21538
878.058	21759
878.185	21911
878.313	22299
878.441	22569
878.568	22927
878.696	23695
878.824	24384
878.951	25567
879.079	27154
879.206	29482
879.333	31506
879.461	33271
879.588	34440
879.715	34211
879.842	33348
879.97	31301
880.097	29220
880.224	27599
880.351	26358
880.478	25373
880.605	24890
880.732	24433
880.859	24285
880.986	23973
881.112	23927
881.239	23722
881.366	23493
881.493	23585
881.619	23516
881.746	23474
881.872	23467
881.999	23604
882.125	23474
882.252	23684
882.378	23684
882.505	23920
882.631	23665
882.757	23535
882.883	23604
883.01	23524
883.136	23463
883.262	23402
883.388	23292
883.514	23589
883.64	23516
883.766	23372
883.892	23216
884.018	23212
884.143	23425
884.269	23604
884.395	23330
884.52	23315
884.646	23235
884.772	23155
884.897	23170
885.023	23307
885.148	23345
885.274	23258
885.399	23250
885.524	22984
885.65	22854
885.775	22774
885.9	22596
886.025	22516
886.15	22424
886.275	22154
886.4	21926
886.525	21937
886.65	21667
886.775	21469
886.9	21610
887.025	21549
887.149	21393
887.274	21005
887.399	20842
887.523	20876
887.648	20522
887.773	20560
887.897	20663
888.021	20545
888.146	20309
888.27	20583
888.395	20469
888.519	20377
888.643	20244
888.767	20172
888.891	20161
889.015	19883
889.139	19967
889.263	19944
889.387	19963
889.511	20005
889.635	19795
889.759	19651
889.883	19666
890.006	19670
890.13	19655
890.254	19514
890.377	19388
890.501	19255
890.624	19164
890.748	19335
890.871	19122
890.995	19023
891.118	19031
891.241	18970
891.364	18981
891.488	18973
891.611	18924
891.734	18863
891.857	18821
891.98	18753
892.103	18882
892.226	18867
892.349	18798
892.471	18582
892.594	18639
892.717	18623
892.839	18471
892.962	18513
893.085	18608
893.207	18498
893.33	18410
893.452	18334
893.575	18509
893.697	18338
893.819	18445
893.941	18414
894.064	18372
894.186	18209
894.308	18205
894.43	18369
894.552	18361
894.674	18266
894.796	18041
894.918	18178
895.04	18057
895.161	18247
895.283	18026
895.405	17961
895.526	18053
895.648	18053
895.769	18087
895.891	18019
896.012	18174
896.134	18117
896.255	17996
896.376	18030
896.498	17942
896.619	18076
896.74	17961
896.861	18076
896.982	18251
897.103	18429
897.224	18266
897.345	18121
897.466	18060
897.587	18144
897.708	18239
897.828	18216
897.949	18243
898.07	17996
898.19	18159
898.311	18247
898.431	18155
898.552	18285
898.672	18201
898.792	18304
898.913	18163
899.033	18041
899.153	17999
899.273	17923
899.393	17961
899.513	17908
899.633	17961
899.753	17889
899.873	17828
899.993	18015
900.113	17961
900.232	17965
900.352	17942
900.472	17828
900.591	17672
900.711	17840
900.83	17718
900.95	17836
901.069	17745
901.189	17611
901.308	17315
901.427	17269
901.546	17311
901.665	17330
901.784	17318
901.904	17159
902.023	17075
902.141	16816
902.26	16725
902.379	16927
902.498	16721
902.617	16721
902.735	16759
902.854	16736
902.973	16630
903.091	16455
903.21	16413
903.328	16402
903.446	16242
903.565	16196
903.683	16207
903.801	16112
903.919	16185
904.038	16067
904.156	15956
904.274	16010
904.392	15926
904.51	15895
904.627	15930
904.745	16006
904.863	15964
904.981	15606
905.098	15542
905.216	15492
905.334	15591
905.451	15618
905.569	15545
905.686	15561
905.803	15538
905.921	15393
906.038	15424
906.155	15389
906.272	15241
906.389	15275
906.506	15150
906.623	15104
906.74	15097
906.857	14982
906.974	15020
907.091	15169
907.208	15157
907.324	15062
907.441	14880
907.557	14857
907.674	14769
907.79	14739
907.907	14788
908.023	14815
908.139	14716
908.256	14811
908.372	14655
908.488	14663
908.604	14667
908.72	14480
908.836	14408
908.952	14492
909.068	14568
909.184	14507
909.3	14518
909.415	14606
909.531	14518
909.647	14267
909.762	14180
909.878	14267
909.993	14191
910.108	14252
910.224	14187
910.339	14206
910.454	14172
910.57	14107
910.685	14081
910.8	14328
910.915	14218
911.03	14016
911.145	13917
911.259	13830
911.374	13841
911.489	13883
911.604	13693
911.718	13651
911.833	13700
911.947	13472
912.062	13480
912.176	13563
912.291	13537
912.405	13601
912.519	13883
912.633	13799
912.748	13719
912.862	13594
912.976	13483
913.09	13308
913.204	13316
913.318	13514
913.431	13559
913.545	13495
913.659	13628
913.772	13419
913.886	13339
914	13293
914.113	13388
914.226	13403
914.34	13381
914.453	13198
914.566	13373
914.68	13362
914.793	13225
914.906	13031
915.019	12958
915.132	13095
915.245	13076
915.358	13034
915.47	13012
915.583	13080
915.696	13061
915.809	13145
915.921	13187
916.034	13012
916.146	13015
916.259	12894
916.371	13133
916.483	13023
916.595	12886
916.708	13012
916.82	12970
916.932	12947
917.044	12924
917.156	12901
917.268	12806
917.38	12768
917.491	12719
917.603	12829
917.715	12897
917.826	12825
917.938	12669
918.049	12627
918.161	12688
918.272	12825
918.384	12871
918.495	12658
918.606	12559
918.717	12426
918.828	12479
918.939	12551
919.05	12410
919.161	12429
919.272	12258
919.383	12391
919.494	12589
919.604	12642
919.715	12486
919.826	12475
919.936	12486
920.047	12589
920.157	12483
920.267	12711
920.378	12490
920.488	12490
920.598	12711
920.708	12760
920.818	12570
920.928	12681
921.038	12810
921.148	12677
921.258	12506
921.368	12308
921.477	12251
921.587	12228
921.697	12125
921.806	12102
921.916	12095
922.025	11977
922.134	11996
922.244	11885
922.353	11965
922.462	11828
922.571	11699
922.68	11592
922.789	11627
922.898	11596
923.007	11486
923.116	11619
923.224	11581
923.333	11543
923.442	11497
923.55	11402
923.659	11478
923.767	11455
923.876	11372
923.984	11471
924.092	11288
924.201	11372
924.309	11364
924.417	11482
924.525	11299
924.633	11231
924.741	12330
924.849	11132
924.956	11322
925.064	11136
925.172	10980
925.279	11105
925.387	11140
925.494	11086
925.602	11201
925.709	11105
925.816	10968
925.924	11136
926.031	11223
926.138	11090
926.245	11136
926.352	11010
926.459	11113
926.566	11105
926.673	11124
926.779	10965
926.886	10854
926.993	10854
927.099	10736
927.206	10714
927.312	10664
927.419	10778
927.525	10675
927.631	10824
927.737	10615
927.843	10607
927.95	10455
928.056	10618
928.162	10542
928.267	10649
928.373	11208
928.479	10767
928.585	10447
928.69	10580
928.796	10691
928.901	10535
929.007	10329
929.112	10466
929.218	10481
929.323	10398
929.428	10409
929.533	10531
929.638	10337
929.743	10344
929.848	10382
929.953	10337
930.058	10204
930.163	10090
930.267	10131
930.372	10242
930.477	10086
930.581	10318
930.685	10143
930.79	10101
930.894	10032
930.998	10032
931.103	10105
931.207	9766
931.311	9709
931.415	9595
931.519	9454
931.623	9408
