Data from test_V78500241_2410.txt Node
Date: Fri Mar 25 14:50:29 CST 2022
User: usil
Spectrometer: V785-0024
Trigger mode: 0
Integration Time (sec): 4.000000E-1
Scans to average: 1
Nonlinearity correction enabled: false
Boxcar width: 0
Storing dark spectrum: false
XAxis mode: Wavelengths
Number of Pixels in Spectrum: 1024
>>>>>Begin Spectral Data<<<<<
801.071	22207
801.214	22055
801.356	21876
801.499	21724
801.641	21454
801.783	21466
801.926	21504
802.068	21435
802.211	21313
802.353	21275
802.496	21104
802.638	20883
802.78	20876
802.923	20941
803.065	20838
803.208	20906
803.35	20952
803.492	20982
803.635	20914
803.777	20682
803.919	20887
804.061	21233
804.204	20910
804.346	20712
804.488	20568
804.63	20727
804.773	20545
804.915	20697
805.057	20796
805.199	20826
805.341	20830
805.483	20746
805.626	20864
805.768	20762
805.91	20727
806.052	20777
806.194	20743
806.336	20906
806.478	20724
806.62	20739
806.762	20724
806.904	20975
807.046	21039
807.188	21157
807.33	20941
807.472	21199
807.614	21074
807.756	21028
807.898	20842
808.04	20758
808.182	20804
808.324	20788
808.465	20845
808.607	20956
808.749	21074
808.891	21272
809.033	21218
809.174	21283
809.316	21207
809.458	21192
809.6	20994
809.741	21138
809.883	21123
810.025	21351
810.166	21367
810.308	21230
810.45	21367
810.591	21256
810.733	20952
810.875	20906
811.016	20743
811.158	20842
811.299	20838
811.441	20956
811.582	20948
811.724	20914
811.865	20880
812.007	20914
812.148	20941
812.29	20937
812.431	21039
812.573	21207
812.714	21165
812.855	21378
812.997	21526
813.138	21504
813.279	21435
813.421	21416
813.562	21313
813.703	21047
813.845	21039
813.986	20731
814.127	20564
814.268	20423
814.41	20564
814.551	20488
814.692	20480
814.833	20366
814.974	20400
815.115	20400
815.256	20400
815.397	20210
815.539	20339
815.68	20187
815.821	20233
815.962	20195
816.103	20206
816.244	20027
816.385	19845
816.526	19856
816.666	19757
816.807	19567
816.948	19700
817.089	19613
817.23	19563
817.371	19613
817.512	19582
817.653	19567
817.793	19483
817.934	19597
818.075	19476
818.216	19487
818.356	19495
818.497	19396
818.638	19209
818.778	19255
818.919	19236
819.06	19217
819.2	19381
819.341	19426
819.481	19453
819.622	19601
819.762	19761
819.903	19643
820.043	19753
820.184	19548
820.324	19578
820.465	19693
820.605	19464
820.746	19529
820.886	19445
821.026	19544
821.167	19491
821.307	19529
821.447	19445
821.588	19282
821.728	19263
821.868	19160
822.008	19000
822.149	18932
822.289	18810
822.429	18661
822.569	18635
822.709	18677
822.849	18441
822.99	18369
823.13	18407
823.27	18384
823.41	18205
823.55	18258
823.69	18216
823.83	18330
823.97	18136
824.11	17908
824.25	17897
824.389	17973
824.529	18129
824.669	17954
824.809	18136
824.949	18110
825.089	18087
825.228	17961
825.368	17866
825.508	17798
825.648	17802
825.787	17859
825.927	17786
826.067	17551
826.206	17752
826.346	17824
826.485	17737
826.625	17870
826.765	17931
826.904	17783
827.044	17471
827.183	17539
827.323	17402
827.462	17482
827.601	17444
827.741	17410
827.88	17448
828.02	17254
828.159	17414
828.298	17444
828.437	17501
828.577	17349
828.716	17421
828.855	17505
828.994	17318
829.134	17261
829.273	17220
829.412	17231
829.551	17136
829.69	17178
829.829	17296
829.968	17383
830.107	17315
830.246	17337
830.385	17067
830.524	17037
830.663	17056
830.802	17022
830.941	16900
831.08	16725
831.219	16942
831.357	16953
831.496	17041
831.635	16835
831.774	16675
831.913	16710
832.051	16660
832.19	16554
832.329	16668
832.467	16455
832.606	16554
832.744	16531
832.883	16474
833.022	16580
833.16	16459
833.299	16584
833.437	16447
833.576	16577
833.714	16691
833.852	16702
833.991	16584
834.129	16622
834.267	16573
834.406	16523
834.544	16687
834.682	16573
834.821	16500
834.959	16645
835.097	16531
835.235	16535
835.373	16592
835.511	16516
835.65	16489
835.788	16462
835.926	16344
836.064	16192
836.202	16367
836.34	16394
836.478	16367
836.615	16493
836.753	16459
836.891	16672
837.029	16424
837.167	16466
837.305	16341
837.443	16417
837.58	16325
837.718	16432
837.856	16268
837.993	16291
838.131	16234
838.269	16333
838.406	16204
838.544	16207
838.681	16017
838.819	16025
838.956	15899
839.094	15972
839.231	15846
839.369	16059
839.506	16303
839.643	16109
839.781	15911
839.918	15880
840.055	15892
840.193	15937
840.33	15892
840.467	15766
840.604	15888
840.742	16105
840.879	15663
841.016	15800
841.153	15785
841.29	16067
841.427	15968
841.564	15888
841.701	15861
841.838	15846
841.975	15751
842.112	15800
842.249	15656
842.385	15736
842.522	15895
842.659	15739
842.796	15644
842.933	15625
843.069	15568
843.206	15610
843.343	15648
843.479	15667
843.616	15720
843.752	15439
843.889	15382
844.025	15538
844.162	15374
844.298	15519
844.435	15374
844.571	15481
844.708	15485
844.844	15587
844.98	15629
845.117	15587
845.253	15424
845.389	15218
845.525	15374
845.661	15275
845.798	15252
845.934	15283
846.07	15188
846.206	15416
846.342	15439
846.478	15233
846.614	15024
846.75	15020
846.886	15108
847.022	15180
847.158	15028
847.294	15020
847.429	15066
847.565	14967
847.701	15351
847.837	14872
847.972	14701
848.108	14864
848.244	14804
848.379	14636
848.515	14602
848.65	14564
848.786	14564
848.921	14670
849.057	14705
849.192	14686
849.328	14583
849.463	14674
849.598	14511
849.734	14560
849.869	14427
850.004	14393
850.14	14454
850.275	14381
850.41	14237
850.545	14351
850.68	14298
850.815	14370
850.95	14355
851.085	14537
851.22	14499
851.355	14370
851.49	14355
851.625	14298
851.76	14415
851.895	14317
852.03	14263
852.165	14438
852.299	14374
852.434	14492
852.569	14419
852.703	14423
852.838	14381
852.973	14621
853.107	14537
853.242	14404
853.376	14259
853.511	14134
853.645	14176
853.78	14377
853.914	14290
854.048	14290
854.183	14145
854.317	14305
854.451	14408
854.585	14172
854.72	14172
854.854	14355
854.988	14123
855.122	14161
855.256	14073
855.39	14278
855.524	14309
855.658	14286
855.792	14332
855.926	14305
856.06	14298
856.194	14362
856.327	14191
856.461	14282
856.595	14214
856.729	14168
856.862	14358
856.996	14229
857.13	14313
857.263	14355
857.397	14488
857.53	14290
857.664	14305
857.797	14377
857.931	14415
858.064	14389
858.197	14309
858.331	14286
858.464	14259
858.597	14191
858.731	14278
858.864	14267
858.997	14259
859.13	14355
859.263	14309
859.396	14271
859.529	14248
859.662	14263
859.795	14282
859.928	14286
860.061	14404
860.194	14393
860.327	14290
860.46	14309
860.592	14313
860.725	14275
860.858	14320
860.99	14237
861.123	14259
861.256	14100
861.388	14248
861.521	14956
861.653	14210
861.786	14024
861.918	14020
862.05	14084
862.183	14176
862.315	14214
862.447	14259
862.58	14164
862.712	14020
862.844	13989
862.976	14157
863.108	14046
863.24	14396
863.372	13963
863.504	14046
863.636	13993
863.768	14058
863.9	14020
864.032	14024
864.164	13959
864.296	13955
864.428	14183
864.559	14096
864.691	14103
864.823	14073
864.954	14168
865.086	14065
865.217	13997
865.349	13989
865.48	14111
865.612	13978
865.743	14191
865.875	14035
866.006	13902
866.137	13909
866.269	13997
866.4	14027
866.531	13898
866.662	13932
866.793	13917
866.924	14027
867.055	14054
867.186	14001
867.317	13997
867.448	13951
867.579	13959
867.71	13978
867.841	14008
867.972	14084
868.103	14001
868.233	14054
868.364	14031
868.495	14164
868.625	14256
868.756	14358
868.886	14134
869.017	14229
869.147	14343
869.278	14351
869.408	14309
869.539	14233
869.669	14351
869.799	14256
869.929	14454
870.06	14358
870.19	14579
870.32	14651
870.45	14625
870.58	14648
870.71	14758
870.84	14773
870.97	14708
871.1	14651
871.23	14887
871.36	14937
871.489	14682
871.619	14834
871.749	14815
871.879	14880
872.008	14941
872.138	14952
872.267	14849
872.397	14659
872.526	14743
872.656	14693
872.785	14716
872.915	14849
873.044	15024
873.173	14956
873.303	14986
873.432	14967
873.561	15051
873.69	14895
873.819	14857
873.948	14979
874.077	14899
874.206	14834
874.335	14925
874.464	15089
874.593	15180
874.722	15264
874.851	15302
874.979	15184
875.108	15447
875.237	15150
875.365	15142
875.494	15184
875.623	15329
875.751	15310
875.88	15321
876.008	15378
876.136	15424
876.265	15580
876.393	15762
876.521	15762
876.65	15648
876.778	15705
876.906	15667
877.034	15633
877.162	15648
877.29	15553
877.418	15644
877.546	15656
877.674	15622
877.802	15648
877.93	15698
878.058	15580
878.185	15500
878.313	15542
878.441	15675
878.568	15466
878.696	15660
878.824	15660
878.951	15660
879.079	15739
879.206	15880
879.333	15846
879.461	15755
879.588	15705
879.715	15800
879.842	15953
879.97	15720
880.097	15599
880.224	15488
880.351	15523
880.478	15507
880.605	15458
880.732	15439
880.859	15789
880.986	15511
881.112	15523
881.239	15481
881.366	15370
881.493	15165
881.619	15192
881.746	15165
881.872	15135
881.999	15089
882.125	15138
882.252	15169
882.378	15169
882.505	15287
882.631	15146
882.757	14883
882.883	15093
883.01	15066
883.136	14963
883.262	14853
883.388	14727
883.514	15005
883.64	15047
883.766	14975
883.892	14758
884.018	14838
884.143	14929
884.269	15036
884.395	14689
884.52	14579
884.646	14651
884.772	14621
884.897	14530
885.023	14762
885.148	14765
885.274	14838
885.399	14773
885.524	14678
885.65	14735
885.775	14682
885.9	14724
886.025	14785
886.15	14750
886.275	14613
886.4	14625
886.525	14613
886.65	14587
886.775	14610
886.9	14902
887.025	14910
887.149	14632
887.274	14568
887.399	14461
887.523	14423
887.648	14339
887.773	14415
887.897	14549
888.021	14625
888.146	14492
888.27	14644
888.395	14655
888.519	14499
888.643	14549
888.767	14598
888.891	14412
889.015	14374
889.139	14366
889.263	14286
889.387	14522
889.511	14590
889.635	14465
889.759	14366
889.883	14362
890.006	14355
890.13	14564
890.254	14324
890.377	14339
890.501	14187
890.624	14202
890.748	14183
890.871	14088
890.995	14081
891.118	13963
891.241	14039
891.364	14043
891.488	14092
891.611	14043
891.734	14111
891.857	14035
891.98	14081
892.103	14149
892.226	14111
892.349	14012
892.471	13906
892.594	14031
892.717	14183
892.839	14035
892.962	14005
893.085	14183
893.207	14001
893.33	13928
893.452	14012
893.575	14100
893.697	14027
893.819	14240
893.941	14195
894.064	14183
894.186	14046
894.308	14005
894.43	14237
894.552	14332
894.674	14126
894.796	14008
894.918	14119
895.04	14065
895.161	14248
895.283	14134
895.405	14027
895.526	14183
895.648	14138
895.769	14199
895.891	14210
896.012	14290
896.134	14172
896.255	14214
896.376	14237
896.498	14183
896.619	14267
896.74	14355
896.861	14252
896.982	14629
897.103	14712
897.224	14526
897.345	14511
897.466	14442
897.587	14537
897.708	14689
897.828	14590
897.949	14480
898.07	14351
898.19	14507
898.311	14670
898.431	14552
898.552	14617
898.672	14708
898.792	14670
898.913	14564
899.033	14537
899.153	14438
899.273	14381
899.393	14469
899.513	14396
899.633	14499
899.753	14427
899.873	14442
899.993	14530
900.113	14389
900.232	14442
900.352	14389
900.472	14454
900.591	14286
900.711	14427
900.83	14278
900.95	14511
901.069	14438
901.189	14301
901.308	14088
901.427	13978
901.546	14043
901.665	14115
901.784	14012
901.904	13826
902.023	13765
902.141	13689
902.26	13605
902.379	13712
902.498	13506
902.617	13552
902.735	13601
902.854	13502
902.973	13483
903.091	13388
903.21	13179
903.328	13312
903.446	13198
903.565	13118
903.683	13198
903.801	13133
903.919	13145
904.038	13099
904.156	13034
904.274	13019
904.392	12913
904.51	12954
904.627	12924
904.745	12928
904.863	12981
904.981	12745
905.098	12566
905.216	12597
905.334	12707
905.451	12646
905.569	12650
905.686	12631
905.803	12627
905.921	12563
906.038	12566
906.155	12414
906.272	12369
906.389	12353
906.506	12327
906.623	12171
906.74	12235
906.857	12117
906.974	12159
907.091	12350
907.208	12350
907.324	12228
907.441	12144
907.557	11999
907.674	11912
907.79	11954
907.907	11977
908.023	12022
908.139	11961
908.256	11939
908.372	11889
908.488	11824
908.604	11851
908.72	11634
908.836	11752
908.952	11646
909.068	11703
909.184	11756
909.3	11745
909.415	11714
909.531	11695
909.647	11524
909.762	11478
909.878	11516
909.993	11448
910.108	11452
910.224	11436
910.339	11558
910.454	11398
910.57	11239
910.685	11261
910.8	11573
910.915	11543
911.03	11383
911.145	11284
911.259	11124
911.374	11201
911.489	11075
911.604	11064
911.718	10949
911.833	11006
911.947	10892
912.062	10816
912.176	10991
912.291	10953
912.405	10972
912.519	11231
912.633	11174
912.748	10972
912.862	10968
912.976	10812
913.09	10725
913.204	10778
913.318	10858
913.431	10938
913.545	10911
913.659	10987
913.772	10816
913.886	10801
914	10740
914.113	10755
914.226	10892
914.34	10828
914.453	10649
914.566	10786
914.68	10752
914.793	10698
914.906	10523
915.019	10325
915.132	10428
915.245	10451
915.358	10493
915.47	10409
915.583	10451
915.696	10519
915.809	10615
915.921	10615
916.034	10462
916.146	10459
916.259	10360
916.371	10421
916.483	10466
916.595	10451
916.708	10394
916.82	10409
916.932	10344
917.044	10382
917.156	10360
917.268	10348
917.38	10242
917.491	10367
917.603	10303
917.715	10421
917.826	10333
917.938	10284
918.049	10154
918.161	10375
918.272	10405
918.384	10390
918.495	10265
918.606	10246
918.717	10135
918.828	10181
918.939	10204
919.05	10116
919.161	10109
919.272	9975
919.383	10071
919.494	10261
919.604	10363
919.715	10238
919.826	10029
919.936	10166
920.047	10219
920.157	10204
920.267	10428
920.378	10253
920.488	10272
920.598	10386
920.708	10626
920.818	10398
920.928	10386
921.038	10580
921.148	10371
921.258	10204
921.368	10135
921.477	10093
921.587	10044
921.697	9888
921.806	10044
921.916	10025
922.025	9732
922.134	9743
922.244	9679
922.353	9827
922.462	9603
922.571	9606
922.68	9420
922.789	9435
922.898	9473
923.007	9443
923.116	9496
923.224	9416
923.333	9477
923.442	9355
923.55	9340
923.659	9344
923.767	9401
923.876	9245
923.984	9401
924.092	9332
924.201	9374
924.309	9351
924.417	9378
924.525	9325
924.633	9264
924.741	10078
924.849	9150
924.956	9253
925.064	9077
925.172	8975
925.279	9020
925.387	9077
925.494	9085
925.602	9294
925.709	9150
925.816	9028
925.924	9058
926.031	9184
926.138	9077
926.245	9123
926.352	9020
926.459	9150
926.566	9233
926.673	9077
926.779	8929
926.886	8941
926.993	8781
927.099	8777
927.206	8811
927.312	8731
927.419	8823
927.525	8811
927.631	8800
927.737	8773
927.843	8640
927.95	8495
928.056	8689
928.162	8796
928.267	8800
928.373	9370
928.479	8811
928.585	8579
928.69	8636
928.796	8724
928.901	8644
929.007	8473
929.112	8606
929.218	8594
929.323	8492
929.428	8564
929.533	8689
929.638	8495
929.743	8545
929.848	8568
929.953	8556
930.058	8431
930.163	8286
930.267	8259
930.372	8446
930.477	8313
930.581	8507
930.685	8355
930.79	8218
930.894	8252
930.998	8206
931.103	8370
931.207	8039
931.311	8027
931.415	7913
931.519	7750
931.623	7776
