Data from test_V78500241_2959.txt Node
Date: Fri Mar 25 14:54:19 CST 2022
User: usil
Spectrometer: V785-0024
Trigger mode: 0
Integration Time (sec): 4.000000E-1
Scans to average: 1
Nonlinearity correction enabled: false
Boxcar width: 0
Storing dark spectrum: false
XAxis mode: Wavelengths
Number of Pixels in Spectrum: 1024
>>>>>Begin Spectral Data<<<<<
801.071	22158
801.214	21991
801.356	21747
801.499	21698
801.641	21530
801.783	21458
801.926	21462
802.068	21420
802.211	21294
802.353	21321
802.496	21043
802.638	21013
802.78	20982
802.923	20883
803.065	20807
803.208	20773
803.35	20963
803.492	20910
803.635	21009
803.777	20902
803.919	20902
804.061	21184
804.204	20902
804.346	20648
804.488	20712
804.63	20796
804.773	20686
804.915	20845
805.057	20781
805.199	20754
805.341	20845
805.483	20830
805.626	20777
805.768	20792
805.91	20731
806.052	20731
806.194	20682
806.336	20899
806.478	20670
806.62	20716
806.762	20697
806.904	20960
807.046	21089
807.188	21112
807.33	21032
807.472	21268
807.614	20971
807.756	20910
807.898	20788
808.04	20746
808.182	20765
808.324	20868
808.465	20914
808.607	21020
808.749	21135
808.891	21207
809.033	21275
809.174	21135
809.316	21032
809.458	21123
809.6	21077
809.741	21249
809.883	21176
810.025	21275
810.166	21176
810.308	21321
810.45	21165
810.591	21108
810.733	20929
810.875	20929
811.016	20792
811.158	20823
811.299	20956
811.441	21131
811.582	21028
811.724	20872
811.865	20830
812.007	20792
812.148	20792
812.29	20906
812.431	20933
812.573	21138
812.714	21199
812.855	21397
812.997	21443
813.138	21561
813.279	21523
813.421	21397
813.562	21332
813.703	21058
813.845	20982
813.986	20731
814.127	20579
814.268	20503
814.41	20457
814.551	20465
814.692	20450
814.833	20259
814.974	20408
815.115	20332
815.256	20244
815.397	20355
815.539	20252
815.68	20157
815.821	20130
815.962	20073
816.103	20221
816.244	20016
816.385	19784
816.526	19906
816.666	19780
816.807	19582
816.948	19689
817.089	19635
817.23	19639
817.371	19605
817.512	19480
817.653	19480
817.793	19567
817.934	19518
818.075	19544
818.216	19575
818.356	19552
818.497	19381
818.638	19213
818.778	19304
818.919	19228
819.06	19263
819.2	19411
819.341	19445
819.481	19422
819.622	19613
819.762	19826
819.903	19647
820.043	19556
820.184	19563
820.324	19559
820.465	19571
820.605	19556
820.746	19533
820.886	19396
821.026	19438
821.167	19419
821.307	19449
821.447	19426
821.588	19415
821.728	19263
821.868	19118
822.008	19027
822.149	18962
822.289	18837
822.429	18593
822.569	18696
822.709	18547
822.849	18426
822.99	18426
823.13	18460
823.27	18357
823.41	18205
823.55	18216
823.69	18190
823.83	18266
823.97	18270
824.11	18064
824.25	17961
824.389	17977
824.529	18079
824.669	17901
824.809	18182
824.949	17984
825.089	18076
825.228	18060
825.368	17836
825.508	17958
825.648	17889
825.787	17817
825.927	17946
826.067	17745
826.206	17691
826.346	17847
826.485	17847
826.625	17859
826.765	17851
826.904	17863
827.044	17604
827.183	17501
827.323	17429
827.462	17566
827.601	17551
827.741	17512
827.88	17490
828.02	17433
828.159	17467
828.298	17516
828.437	17604
828.577	17444
828.716	17592
828.855	17433
828.994	17292
829.134	17227
829.273	17315
829.412	17162
829.551	17220
829.69	17147
829.829	17216
829.968	17242
830.107	17345
830.246	17155
830.385	17254
830.524	17178
830.663	17083
830.802	16877
830.941	16801
831.08	16919
831.219	16847
831.357	16942
831.496	17086
831.635	16801
831.774	16771
831.913	16721
832.051	16653
832.19	16554
832.329	16649
832.467	16466
832.606	16413
832.744	16493
832.883	16535
833.022	16432
833.16	16656
833.299	16626
833.437	16542
833.576	16565
833.714	16603
833.852	16630
833.991	16599
834.129	16801
834.267	16656
834.406	16588
834.544	16630
834.682	16641
834.821	16577
834.959	16702
835.097	16462
835.235	16744
835.373	16630
835.511	16554
835.65	16519
835.788	16466
835.926	16398
836.064	16314
836.202	16295
836.34	16573
836.478	16527
836.615	16371
836.753	16504
836.891	16561
837.029	16432
837.167	16474
837.305	16424
837.443	16272
837.58	16325
837.718	16375
837.856	16306
837.993	16242
838.131	16276
838.269	16284
838.406	16276
838.544	16265
838.681	16051
838.819	15987
838.956	15880
839.094	15960
839.231	15846
839.369	15983
839.506	16276
839.643	16147
839.781	15964
839.918	15804
840.055	15781
840.193	15876
840.33	15781
840.467	15861
840.604	15915
840.742	16074
840.879	15641
841.016	15736
841.153	15865
841.29	16006
841.427	15922
841.564	15888
841.701	15934
841.838	15743
841.975	15713
842.112	15739
842.249	15679
842.385	15637
842.522	15888
842.659	15728
842.796	15526
842.933	15652
843.069	15488
843.206	15530
843.343	15751
843.479	15610
843.616	15720
843.752	15458
843.889	15378
844.025	15545
844.162	15408
844.298	15515
844.435	15542
844.571	15363
844.708	15428
844.844	15584
844.98	15576
845.117	15469
845.253	15367
845.389	15279
845.525	15443
845.661	15298
845.798	15264
845.934	15310
846.07	15211
846.206	15313
846.342	15351
846.478	15245
846.614	15150
846.75	14960
846.886	14998
847.022	15089
847.158	15047
847.294	14994
847.429	14956
847.565	14994
847.701	15260
847.837	14773
847.972	14842
848.108	14914
848.244	14921
848.379	14629
848.515	14594
848.65	14587
848.786	14495
848.921	14648
849.057	14765
849.192	14708
849.328	14590
849.463	14724
849.598	14579
849.734	14511
849.869	14484
850.004	14355
850.14	14427
850.275	14393
850.41	14294
850.545	14351
850.68	14358
850.815	14317
850.95	14370
851.085	14522
851.22	14495
851.355	14434
851.49	14396
851.625	14400
851.76	14259
851.895	14282
852.03	14271
852.165	14408
852.299	14412
852.434	14484
852.569	14454
852.703	14423
852.838	14438
852.973	14587
853.107	14610
853.242	14355
853.376	14332
853.511	14191
853.645	14225
853.78	14415
853.914	14263
854.048	14180
854.183	14168
854.317	14275
854.451	14377
854.585	14252
854.72	14138
854.854	14256
854.988	14103
855.122	14199
855.256	14191
855.39	14187
855.524	14305
855.658	14362
855.792	14161
855.926	14248
856.06	14282
856.194	14324
856.327	14202
856.461	14233
856.595	14210
856.729	14073
856.862	14259
856.996	14240
857.13	14259
857.263	14328
857.397	14301
857.53	14278
857.664	14313
857.797	14328
857.931	14301
858.064	14263
858.197	14355
858.331	14199
858.464	14240
858.597	14164
858.731	14305
858.864	14317
858.997	14187
859.13	14294
859.263	14202
859.396	14377
859.529	14267
859.662	14176
859.795	14221
859.928	14237
860.061	14309
860.194	14336
860.327	14221
860.46	14202
860.592	14351
860.725	14309
860.858	14332
860.99	14210
861.123	14130
861.256	14134
861.388	14221
861.521	14826
861.653	14046
861.786	14084
861.918	14084
862.05	14202
862.183	14233
862.315	14237
862.447	14301
862.58	14157
862.712	14035
862.844	14001
862.976	14077
863.108	13989
863.24	14469
863.372	13944
863.504	14062
863.636	13894
863.768	14035
863.9	14054
864.032	13898
864.164	14001
864.296	14031
864.428	14111
864.559	14191
864.691	14020
864.823	14031
864.954	14024
865.086	14100
865.217	14046
865.349	14001
865.48	13951
865.612	13951
865.743	14119
865.875	14062
866.006	13978
866.137	13978
866.269	13963
866.4	14016
866.531	13936
866.662	13906
866.793	13989
866.924	13955
867.055	13947
867.186	14005
867.317	13955
867.448	13944
867.579	13898
867.71	13944
867.841	13906
867.972	13944
868.103	13936
868.233	13974
868.364	13940
868.495	14065
868.625	14142
868.756	14328
868.886	14180
869.017	14202
869.147	14343
869.278	14400
869.408	14214
869.539	14206
869.669	14351
869.799	14294
869.929	14347
870.06	14358
870.19	14552
870.32	14514
870.45	14556
870.58	14689
870.71	14800
870.84	14724
870.97	14492
871.1	14708
871.23	14834
871.36	14842
871.489	14693
871.619	14754
871.749	14807
871.879	15017
872.008	14929
872.138	14880
872.267	14788
872.397	14659
872.526	14629
872.656	14667
872.785	14651
872.915	14834
873.044	14941
873.173	14902
873.303	14979
873.432	14982
873.561	14986
873.69	14902
873.819	14906
873.948	14853
874.077	14906
874.206	14826
874.335	14929
874.464	15039
874.593	15165
874.722	15104
874.851	15249
874.979	15214
875.108	15256
875.237	15214
875.365	15074
875.494	15211
875.623	15237
875.751	15195
875.88	15199
876.008	15405
876.136	15477
876.265	15660
876.393	15736
876.521	15675
876.65	15717
876.778	15610
876.906	15584
877.034	15485
877.162	15671
877.29	15530
877.418	15671
877.546	15606
877.674	15557
877.802	15580
877.93	15663
878.058	15534
878.185	15511
878.313	15614
878.441	15507
878.568	15374
878.696	15549
878.824	15656
878.951	15637
879.079	15808
879.206	15915
879.333	15800
879.461	15561
879.588	15797
879.715	15709
879.842	15850
879.97	15682
880.097	15515
880.224	15534
880.351	15507
880.478	15439
880.605	15359
880.732	15466
880.859	15694
880.986	15549
881.112	15496
881.239	15450
881.366	15161
881.493	15211
881.619	15058
881.746	15108
881.872	15097
881.999	15138
882.125	15051
882.252	15116
882.378	15195
882.505	15203
882.631	15123
882.757	14975
882.883	14941
883.01	14960
883.136	14990
883.262	14819
883.388	14773
883.514	14914
883.64	14967
883.766	14914
883.892	14739
884.018	14861
884.143	14967
884.269	14929
884.395	14739
884.52	14651
884.646	14575
884.772	14533
884.897	14533
885.023	14571
885.148	14830
885.274	14838
885.399	14739
885.524	14705
885.65	14689
885.775	14667
885.9	14705
886.025	14727
886.15	14651
886.275	14659
886.4	14518
886.525	14613
886.65	14533
886.775	14484
886.9	14811
887.025	14906
887.149	14651
887.274	14389
887.399	14362
887.523	14446
887.648	14355
887.773	14412
887.897	14568
888.021	14602
888.146	14492
888.27	14511
888.395	14469
888.519	14526
888.643	14552
888.767	14579
888.891	14450
889.015	14278
889.139	14446
889.263	14377
889.387	14499
889.511	14587
889.635	14461
889.759	14301
889.883	14317
890.006	14381
890.13	14442
890.254	14214
890.377	14396
890.501	14183
890.624	14115
890.748	14214
890.871	14100
890.995	14008
891.118	13932
891.241	14012
891.364	14046
891.488	14138
891.611	13982
891.734	14096
891.857	14062
891.98	14077
892.103	14054
892.226	14039
892.349	13955
892.471	13879
892.594	14024
892.717	13997
892.839	14001
892.962	14024
893.085	14126
893.207	14062
893.33	13898
893.452	13997
893.575	14119
893.697	14027
893.819	14256
893.941	14259
894.064	14149
894.186	13955
894.308	14088
894.43	14138
894.552	14256
894.674	14195
894.796	14046
894.918	14107
895.04	14039
895.161	14161
895.283	14153
895.405	14149
895.526	14164
895.648	14176
895.769	14107
895.891	14252
896.012	14305
896.134	14221
896.255	14248
896.376	14214
896.498	14149
896.619	14248
896.74	14206
896.861	14305
896.982	14594
897.103	14769
897.224	14571
897.345	14488
897.466	14400
897.587	14404
897.708	14682
897.828	14530
897.949	14492
898.07	14248
898.19	14454
898.311	14610
898.431	14579
898.552	14530
898.672	14640
898.792	14552
898.913	14556
899.033	14537
899.153	14362
899.273	14415
899.393	14396
899.513	14518
899.633	14374
899.753	14488
899.873	14396
899.993	14511
900.113	14408
900.232	14514
900.352	14396
900.472	14298
900.591	14301
900.711	14339
900.83	14221
900.95	14374
901.069	14389
901.189	14206
901.308	14100
901.427	13978
901.546	14024
901.665	14054
901.784	14016
901.904	13818
902.023	13791
902.141	13571
902.26	13586
902.379	13578
902.498	13434
902.617	13514
902.735	13601
902.854	13578
902.973	13480
903.091	13247
903.21	13316
903.328	13308
903.446	13194
903.565	13187
903.683	13133
903.801	12985
903.919	13038
904.038	13095
904.156	12977
904.274	13099
904.392	12894
904.51	12848
904.627	12901
904.745	12954
904.863	12966
904.981	12700
905.098	12650
905.216	12547
905.334	12608
905.451	12639
905.569	12616
905.686	12623
905.803	12612
905.921	12445
906.038	12509
906.155	12399
906.272	12327
906.389	12369
906.506	12289
906.623	12239
906.74	12144
906.857	12019
906.974	12155
907.091	12251
907.208	12258
907.324	12277
907.441	12057
907.557	11961
907.674	11965
907.79	11828
907.907	11946
908.023	11912
908.139	11935
908.256	11935
908.372	11824
908.488	11840
908.604	11783
908.72	11627
908.836	11733
908.952	11703
909.068	11726
909.184	11821
909.3	11714
909.415	11703
909.531	11680
909.647	11570
909.762	11516
909.878	11471
909.993	11486
910.108	11474
910.224	11444
910.339	11528
910.454	11334
910.57	11345
910.685	11296
910.8	11535
910.915	11501
911.03	11429
911.145	11170
911.259	11254
911.374	11181
911.489	11113
911.604	11048
911.718	10930
911.833	10949
911.947	10835
912.062	10759
912.176	10957
912.291	11014
912.405	10908
912.519	11143
912.633	11166
912.748	10892
912.862	10862
912.976	10866
913.09	10664
913.204	10694
913.318	10752
913.431	10904
913.545	10862
913.659	10881
913.772	10831
913.886	10698
914	10717
914.113	10763
914.226	10809
914.34	10755
914.453	10672
914.566	10771
914.68	10596
914.793	10675
914.906	10478
915.019	10322
915.132	10360
915.245	10478
915.358	10485
915.47	10455
915.583	10424
915.696	10443
915.809	10554
915.921	10698
916.034	10352
916.146	10379
916.259	10379
916.371	10489
916.483	10455
916.595	10367
916.708	10402
916.82	10337
916.932	10371
917.044	10341
917.156	10375
917.268	10211
917.38	10204
917.491	10238
917.603	10394
917.715	10432
917.826	10344
917.938	10276
918.049	10147
918.161	10329
918.272	10356
918.384	10348
918.495	10310
918.606	10124
918.717	10162
918.828	10116
918.939	10230
919.05	10002
919.161	10139
919.272	9876
919.383	10067
919.494	10249
919.604	10356
919.715	10173
919.826	10025
919.936	10135
920.047	10215
920.157	10234
920.267	10325
920.378	10207
920.488	10086
920.598	10382
920.708	10500
920.818	10447
920.928	10371
921.038	10546
921.148	10481
921.258	10257
921.368	10071
921.477	10059
921.587	10055
921.697	9945
921.806	10078
921.916	9846
922.025	9713
922.134	9762
922.244	9663
922.353	9774
922.462	9622
922.571	9587
922.68	9340
922.789	9416
922.898	9511
923.007	9389
923.116	9587
923.224	9412
923.333	9504
923.442	9325
923.55	9237
923.659	9306
923.767	9355
923.876	9214
923.984	9344
924.092	9195
924.201	9260
924.309	9249
924.417	9264
924.525	9207
924.633	9260
924.741	10207
924.849	9097
924.956	9180
925.064	9032
925.172	8998
925.279	9074
925.387	9066
925.494	9093
925.602	9195
925.709	9150
925.816	9043
925.924	9051
926.031	9199
926.138	9066
926.245	9157
926.352	9036
926.459	9157
926.566	9142
926.673	9036
926.779	8941
926.886	8906
926.993	8842
927.099	8800
927.206	8811
927.312	8731
927.419	8785
927.525	8800
927.631	8834
927.737	8682
927.843	8712
927.95	8594
928.056	8674
928.162	8743
928.267	8693
928.373	9389
928.479	8880
928.585	8590
928.69	8651
928.796	8746
928.901	8670
929.007	8457
929.112	8621
929.218	8556
929.323	8564
929.428	8564
929.533	8655
929.638	8533
929.743	8552
929.848	8560
929.953	8446
930.058	8427
930.163	8252
930.267	8282
930.372	8450
930.477	8305
930.581	8492
930.685	8339
930.79	8237
930.894	8210
930.998	8218
931.103	8404
931.207	8043
931.311	8001
931.415	7997
931.519	7814
931.623	7715
