Data from test_V78500241_497.txt Node
Date: Fri Mar 25 14:37:10 CST 2022
User: usil
Spectrometer: V785-0024
Trigger mode: 0
Integration Time (sec): 4.000000E-1
Scans to average: 1
Nonlinearity correction enabled: false
Boxcar width: 0
Storing dark spectrum: false
XAxis mode: Wavelengths
Number of Pixels in Spectrum: 1024
>>>>>Begin Spectral Data<<<<<
801.071	26701
801.214	26727
801.356	26450
801.499	26309
801.641	26206
801.783	26149
801.926	26149
802.068	26153
802.211	25993
802.353	25871
802.496	25677
802.638	25875
802.78	25677
802.923	25632
803.065	25575
803.208	25472
803.35	25521
803.492	25647
803.635	25799
803.777	25571
803.919	25670
804.061	25890
804.204	25731
804.346	25658
804.488	25430
804.63	25666
804.773	25506
804.915	25635
805.057	25795
805.199	25556
805.341	25639
805.483	25586
805.626	25605
805.768	25559
805.91	25662
806.052	25537
806.194	25635
806.336	25788
806.478	25864
806.62	25632
806.762	25742
806.904	25883
807.046	26115
807.188	26134
807.33	26035
807.472	26202
807.614	26084
807.756	26157
807.898	25944
808.04	26024
808.182	26210
808.324	26351
808.465	26366
808.607	26511
808.749	26792
808.891	27154
809.033	27077
809.174	26960
809.316	26648
809.458	26621
809.6	26400
809.741	26564
809.883	26389
810.025	26423
810.166	26389
810.308	26484
810.45	26343
810.591	26301
810.733	26168
810.875	26039
811.016	25906
811.158	25890
811.299	26107
811.441	26164
811.582	26122
811.724	25909
811.865	25970
812.007	25940
812.148	25818
812.29	25963
812.431	26031
812.573	26134
812.714	26511
812.855	26488
812.997	26480
813.138	26682
813.279	26442
813.421	26438
813.562	26358
813.703	26180
813.845	26035
813.986	25864
814.127	25556
814.268	25521
814.41	25464
814.551	25354
814.692	25495
814.833	25445
814.974	25438
815.115	25369
815.256	25335
815.397	25236
815.539	25396
815.68	25343
815.821	25179
815.962	25194
816.103	25171
816.244	24966
816.385	25027
816.526	24920
816.666	24665
816.807	24616
816.948	24646
817.089	24627
817.23	24509
817.371	24627
817.512	24627
817.653	24502
817.793	24532
817.934	24445
818.075	24486
818.216	24574
818.356	24460
818.497	24350
818.638	24228
818.778	24361
818.919	24258
819.06	24300
819.2	24334
819.341	24426
819.481	24604
819.622	24486
819.762	24840
819.903	24734
820.043	24688
820.184	24604
820.324	24467
820.465	24684
820.605	24620
820.746	24467
820.886	24498
821.026	24475
821.167	24509
821.307	24604
821.447	24426
821.588	24330
821.728	24155
821.868	24121
822.008	23992
822.149	23802
822.289	23794
822.429	23501
822.569	23551
822.709	23676
822.849	23391
822.99	23421
823.13	23391
823.27	23288
823.41	23121
823.55	23189
823.69	23140
823.83	23181
823.97	23037
824.11	22877
824.25	22790
824.389	22995
824.529	23025
824.669	22892
824.809	22930
824.949	23029
825.089	22877
825.228	22942
825.368	22752
825.508	22767
825.648	22778
825.787	22672
825.927	22786
826.067	22653
826.206	22634
826.346	22771
826.485	22717
826.625	22763
826.765	22816
826.904	22729
827.044	22527
827.183	22455
827.323	22333
827.462	22375
827.601	22413
827.741	22325
827.88	22424
828.02	22238
828.159	22276
828.298	22363
828.437	22417
828.577	22303
828.716	22440
828.855	22162
828.994	22010
829.134	22192
829.273	22086
829.412	21945
829.551	21956
829.69	22048
829.829	22036
829.968	22101
830.107	22204
830.246	22086
830.385	21918
830.524	21861
830.663	21850
830.802	21755
830.941	21732
831.08	21622
831.219	21793
831.357	21774
831.496	21800
831.635	21622
831.774	21530
831.913	21386
832.051	21424
832.19	21435
832.329	21397
832.467	21256
832.606	21165
832.744	21245
832.883	21351
833.022	21237
833.16	21222
833.299	21260
833.437	21222
833.576	21355
833.714	21302
833.852	21313
833.991	21260
834.129	21306
834.267	21336
834.406	21344
834.544	21268
834.682	21355
834.821	21298
834.959	21454
835.097	21237
835.235	21336
835.373	21291
835.511	21355
835.65	21055
835.788	21108
835.926	21017
836.064	20891
836.202	20963
836.34	21096
836.478	21233
836.615	20986
836.753	21074
836.891	21203
837.029	21093
837.167	21032
837.305	21051
837.443	20960
837.58	21001
837.718	20830
837.856	21146
837.993	20876
838.131	20895
838.269	20663
838.406	20853
838.544	20830
838.681	20644
838.819	20545
838.956	20317
839.094	20366
839.231	20328
839.369	20545
839.506	20853
839.643	20629
839.781	20518
839.918	20351
840.055	20423
840.193	20339
840.33	20233
840.467	20309
840.604	20328
840.742	20530
840.879	20153
841.016	20252
841.153	20240
841.29	20351
841.427	20358
841.564	20309
841.701	20427
841.838	20187
841.975	20157
842.112	20168
842.249	20130
842.385	20027
842.522	20240
842.659	20183
842.796	20020
842.933	20134
843.069	19974
843.206	19978
843.343	20122
843.479	19963
843.616	20012
843.752	19780
843.889	19837
844.025	19967
844.162	19757
844.298	19890
844.435	19738
844.571	19761
844.708	19890
844.844	19974
844.98	19875
845.117	19986
845.253	19932
845.389	19776
845.525	19974
845.661	20225
845.798	20351
845.934	20640
846.07	20724
846.206	20613
846.342	20503
846.478	20172
846.614	19742
846.75	19605
846.886	19434
847.022	19441
847.158	19396
847.294	19316
847.429	19312
847.565	19251
847.701	19480
847.837	19065
847.972	18935
848.108	19099
848.244	19012
848.379	18829
848.515	18779
848.65	18707
848.786	18844
848.921	18745
849.057	18932
849.192	18787
849.328	18905
849.463	18821
849.598	18730
849.734	18559
849.869	18703
850.004	18642
850.14	18593
850.275	18582
850.41	18483
850.545	18509
850.68	18578
850.815	18441
850.95	18506
851.085	18582
851.22	18673
851.355	18608
851.49	18391
851.625	18460
851.76	18479
851.895	18502
852.03	18494
852.165	18563
852.299	18563
852.434	18673
852.569	18669
852.703	18441
852.838	18623
852.973	18593
853.107	18551
853.242	18563
853.376	18350
853.511	18296
853.645	18369
853.78	18509
853.914	18357
854.048	18506
854.183	18311
854.317	18285
854.451	18540
854.585	18342
854.72	18357
854.854	18452
854.988	18258
855.122	18407
855.256	18281
855.39	18353
855.524	18270
855.658	18399
855.792	18445
855.926	18422
856.06	18376
856.194	18399
856.327	18410
856.461	18308
856.595	18311
856.729	18338
856.862	18460
856.996	18315
857.13	18323
857.263	18361
857.397	18437
857.53	18308
857.664	18372
857.797	18361
857.931	18448
858.064	18289
858.197	18308
858.331	18388
858.464	18247
858.597	18243
858.731	18323
858.864	18201
858.997	18254
859.13	18262
859.263	18296
859.396	18441
859.529	18315
859.662	18194
859.795	18292
859.928	18395
860.061	18464
860.194	18418
860.327	18353
860.46	18277
860.592	18445
860.725	18448
860.858	18372
860.99	18330
861.123	18201
861.256	18167
861.388	18315
861.521	19050
861.653	18220
861.786	18121
861.918	18201
862.05	18247
862.183	18311
862.315	18380
862.447	18437
862.58	18270
862.712	18041
862.844	17954
862.976	18053
863.108	18049
863.24	18513
863.372	18045
863.504	18030
863.636	17965
863.768	18079
863.9	18060
864.032	17821
864.164	17984
864.296	18060
864.428	18114
864.559	18030
864.691	18098
864.823	18022
864.954	18041
865.086	18064
865.217	17916
865.349	17859
865.48	17855
865.612	18079
865.743	17916
865.875	18095
866.006	17958
866.137	17961
866.269	18022
866.4	17954
866.531	17832
866.662	17783
866.793	17817
866.924	17920
867.055	17901
867.186	17965
867.317	17916
867.448	17821
867.579	17809
867.71	17855
867.841	17718
867.972	17897
868.103	17984
868.233	17859
868.364	17988
868.495	17992
868.625	18144
868.756	18194
868.886	17969
869.017	18152
869.147	18220
869.278	18251
869.408	18159
869.539	18117
869.669	18228
869.799	18121
869.929	18216
870.06	18232
870.19	18498
870.32	18433
870.45	18437
870.58	18502
870.71	18639
870.84	18593
870.97	18555
871.1	18582
871.23	18646
871.36	18719
871.489	18490
871.619	18745
871.749	18658
871.879	18757
872.008	18787
872.138	18795
872.267	18707
872.397	18578
872.526	18490
872.656	18422
872.785	18486
872.915	18821
873.044	18878
873.173	18700
873.303	18829
873.432	18764
873.561	18757
873.69	18734
873.819	18798
873.948	18768
874.077	18806
874.206	18715
874.335	18715
874.464	18837
874.593	18977
874.722	19034
874.851	19008
874.979	19072
875.108	19122
875.237	18996
875.365	19019
875.494	19080
875.623	19145
875.751	18996
875.88	19232
876.008	19244
876.136	19255
876.265	19518
876.393	19578
876.521	19472
876.65	19544
876.778	19495
876.906	19472
877.034	19384
877.162	19396
877.29	19426
877.418	19403
877.546	19487
877.674	19502
877.802	19480
877.93	19590
878.058	19506
878.185	19407
878.313	19381
878.441	19468
878.568	19384
878.696	19460
878.824	19548
878.951	19609
879.079	19814
879.206	20073
879.333	20039
879.461	19852
879.588	20058
879.715	20138
879.842	20126
879.97	19883
880.097	19647
880.224	19422
880.351	19556
880.478	19464
880.605	19415
880.732	19434
880.859	19616
880.986	19362
881.112	19362
881.239	19331
881.366	19209
881.493	19107
881.619	19042
881.746	19050
881.872	18973
881.999	19145
882.125	19031
882.252	19019
882.378	18947
882.505	19114
882.631	18985
882.757	18821
882.883	18848
883.01	18821
883.136	18696
883.262	18833
883.388	18700
883.514	18768
883.64	18806
883.766	18787
883.892	18604
884.018	18623
884.143	18749
884.269	18867
884.395	18547
884.52	18426
884.646	18635
884.772	18350
884.897	18327
885.023	18437
885.148	18604
885.274	18688
885.399	18597
885.524	18391
885.65	18563
885.775	18376
885.9	18380
886.025	18441
886.15	18479
886.275	18338
886.4	18384
886.525	18350
886.65	18300
886.775	18262
886.9	18490
887.025	18681
887.149	18426
887.274	18213
887.399	18258
887.523	18152
887.648	18114
887.773	18003
887.897	18216
888.021	18140
888.146	18159
888.27	18243
888.395	18228
888.519	18182
888.643	18216
888.767	18140
888.891	18049
889.015	17939
889.139	18015
889.263	17935
889.387	18045
889.511	18205
889.635	18030
889.759	17878
889.883	17920
890.006	17840
890.13	18057
890.254	17771
890.377	17843
890.501	17737
890.624	17665
890.748	17722
890.871	17657
890.995	17672
891.118	17425
891.241	17516
891.364	17562
891.488	17684
891.611	17478
891.734	17497
891.857	17638
891.98	17570
892.103	17524
892.226	17524
892.349	17551
892.471	17444
892.594	17414
892.717	17452
892.839	17474
892.962	17501
893.085	17608
893.207	17440
893.33	17345
893.452	17509
893.575	17421
893.697	17433
893.819	17695
893.941	17634
894.064	17649
894.186	17425
894.308	17395
894.43	17600
894.552	17535
894.674	17596
894.796	17471
894.918	17444
895.04	17611
895.161	17577
895.283	17490
895.405	17410
895.526	17497
895.648	17505
895.769	17608
895.891	17505
896.012	17478
896.134	17619
896.255	17528
896.376	17596
896.498	17554
896.619	17539
896.74	17551
896.861	17680
896.982	17882
897.103	18053
897.224	17847
897.345	17847
897.466	17756
897.587	17802
897.708	17920
897.828	17824
897.949	17764
898.07	17733
898.19	17653
898.311	17859
898.431	17726
898.552	17779
898.672	17904
898.792	17840
898.913	17893
899.033	17794
899.153	17649
899.273	17482
899.393	17611
899.513	17680
899.633	17634
899.753	17615
899.873	17657
899.993	17619
900.113	17505
900.232	17581
900.352	17611
900.472	17478
900.591	17406
900.711	17509
900.83	17414
900.95	17573
901.069	17474
901.189	17406
901.308	17143
901.427	17041
901.546	16980
901.665	17109
901.784	17033
901.904	17022
902.023	16812
902.141	16691
902.26	16622
902.379	16618
902.498	16603
902.617	16546
902.735	16588
902.854	16554
902.973	16443
903.091	16341
903.21	16223
903.328	16276
903.446	16078
903.565	16074
903.683	16090
903.801	15930
903.919	16006
904.038	16097
904.156	15918
904.274	15937
904.392	15884
904.51	15850
904.627	15857
904.745	15835
904.863	15979
904.981	15561
905.098	15580
905.216	15500
905.334	15584
905.451	15561
905.569	15515
905.686	15519
905.803	15386
905.921	15298
906.038	15393
906.155	15317
906.272	15252
906.389	15275
906.506	15032
906.623	15135
906.74	15055
906.857	15043
906.974	14883
907.091	15097
907.208	15127
907.324	15058
907.441	14967
907.557	14754
907.674	14682
907.79	14735
907.907	14663
908.023	14739
908.139	14731
908.256	14640
908.372	14552
908.488	14507
908.604	14533
908.72	14454
908.836	14469
908.952	14503
909.068	14419
909.184	14526
909.3	14400
909.415	14598
909.531	14400
909.647	14248
909.762	14145
909.878	14180
909.993	14145
910.108	14161
910.224	14172
910.339	14157
910.454	14077
910.57	13936
910.685	13845
910.8	14229
910.915	14111
911.03	14039
911.145	13864
911.259	13814
911.374	13860
911.489	13712
911.604	13677
911.718	13597
911.833	13525
911.947	13480
912.062	13362
912.176	13563
912.291	13590
912.405	13613
912.519	13761
912.633	13750
912.748	13693
912.862	13552
912.976	13514
913.09	13339
913.204	13392
913.318	13358
913.431	13445
913.545	13468
913.659	13438
913.772	13430
913.886	13213
914	13316
914.113	13304
914.226	13335
914.34	13396
914.453	13183
914.566	13320
914.68	13187
914.793	13164
914.906	12951
915.019	12863
915.132	12856
915.245	12901
915.358	12890
915.47	12943
915.583	12920
915.696	12943
915.809	13008
915.921	13057
916.034	12776
916.146	12749
916.259	12779
916.371	12943
916.483	12878
916.595	12840
916.708	12817
916.82	12730
916.932	12924
917.044	12776
917.156	12745
917.268	12764
917.38	12631
917.491	12604
917.603	12616
917.715	12700
917.826	12734
917.938	12589
918.049	12471
918.161	12597
918.272	12760
918.384	12726
918.495	12642
918.606	12372
918.717	12372
918.828	12498
918.939	12414
919.05	12407
919.161	12391
919.272	12266
919.383	12300
919.494	12395
919.604	12665
919.715	12445
919.826	12414
919.936	12388
920.047	12582
920.157	12410
920.267	12601
920.378	12437
920.488	12361
920.598	12677
920.708	12745
920.818	12551
920.928	12620
921.038	12631
921.148	12639
921.258	12388
921.368	12251
921.477	12216
921.587	12125
921.697	11980
921.806	12155
921.916	11992
922.025	11950
922.134	11988
922.244	11756
922.353	11840
922.462	11676
922.571	11733
922.68	11608
922.789	11486
922.898	11509
923.007	11463
923.116	11516
923.224	11524
923.333	11520
923.442	11452
923.55	11414
923.659	11376
923.767	11459
923.876	11387
923.984	11383
924.092	11318
924.201	11379
924.309	11383
924.417	11330
924.525	11311
924.633	11296
924.741	12171
924.849	11121
924.956	11166
925.064	11109
925.172	10934
925.279	11003
925.387	11033
925.494	11109
925.602	11170
925.709	11064
925.816	10934
925.924	11018
926.031	11071
926.138	10999
926.245	11022
926.352	10980
926.459	11071
926.566	11105
926.673	10953
926.779	10858
926.886	10820
926.993	10755
927.099	10702
927.206	10660
927.312	10668
927.419	10706
927.525	10675
927.631	10740
927.737	10565
927.843	10527
927.95	10379
928.056	10618
928.162	10577
928.267	10649
928.373	11155
928.479	10645
928.585	10478
928.69	10485
928.796	10512
928.901	10485
929.007	10348
929.112	10489
929.218	10451
929.323	10322
929.428	10287
929.533	10478
929.638	10223
929.743	10265
929.848	10291
929.953	10257
930.058	10154
930.163	10002
930.267	10063
930.372	10181
930.477	10006
930.581	10257
930.685	10150
930.79	9911
930.894	9972
930.998	9918
931.103	10025
931.207	9743
931.311	9690
931.415	9515
931.519	9431
931.623	9386
