Data from test_V78500241_760.txt Node
Date: Fri Mar 25 14:39:00 CST 2022
User: usil
Spectrometer: V785-0024
Trigger mode: 0
Integration Time (sec): 4.000000E-1
Scans to average: 1
Nonlinearity correction enabled: false
Boxcar width: 0
Storing dark spectrum: false
XAxis mode: Wavelengths
Number of Pixels in Spectrum: 1024
>>>>>Begin Spectral Data<<<<<
801.071	27081
801.214	26979
801.356	26644
801.499	26514
801.641	26332
801.783	26366
801.926	26408
802.068	26233
802.211	26111
802.353	26092
802.496	25902
802.638	25955
802.78	25902
802.923	25765
803.065	25772
803.208	25879
803.35	25818
803.492	25917
803.635	26024
803.777	25902
803.919	26046
804.061	26286
804.204	26111
804.346	25978
804.488	25913
804.63	26092
804.773	25928
804.915	26206
805.057	26252
805.199	26176
805.341	26522
805.483	26499
805.626	26336
805.768	26442
805.91	26640
806.052	26838
806.194	26880
806.336	27207
806.478	27199
806.62	27469
806.762	27804
806.904	28192
807.046	28634
807.188	29010
807.33	29429
807.472	29973
807.614	30665
807.756	31483
807.898	32720
808.04	34010
808.182	36163
808.324	38872
808.465	41805
808.607	45154
808.749	47980
808.891	49879
809.033	49890
809.174	48323
809.316	45348
809.458	42213
809.6	38579
809.741	35596
809.883	33656
810.025	32199
810.166	30939
810.308	30197
810.45	29638
810.591	29064
810.733	28382
810.875	28044
811.016	27717
811.158	27553
811.299	27599
811.441	27344
811.582	27275
811.724	26944
811.865	26921
812.007	26765
812.148	26758
812.29	26583
812.431	26720
812.573	26925
812.714	26785
812.855	26826
812.997	26876
813.138	27005
813.279	26940
813.421	26796
813.562	26606
813.703	26613
813.845	26358
813.986	25875
814.127	25875
814.268	25647
814.41	25689
814.551	25479
814.692	25624
814.833	25499
814.974	25460
815.115	25388
815.256	25232
815.397	25221
815.539	25107
815.68	25012
815.821	25038
815.962	25164
816.103	25069
816.244	24764
816.385	24623
816.526	24661
816.666	24540
816.807	24407
816.948	24429
817.089	24566
817.23	24513
817.371	24388
817.512	24289
817.653	24304
817.793	24357
817.934	24155
818.075	24330
818.216	24178
818.356	24163
818.497	24121
818.638	23931
818.778	23958
818.919	23927
819.06	24018
819.2	24026
819.341	24060
819.481	24076
819.622	24319
819.762	24448
819.903	24353
820.043	24083
820.184	24186
820.324	24098
820.465	24114
820.605	24045
820.746	24060
820.886	23931
821.026	24110
821.167	23977
821.307	23973
821.447	23977
821.588	23866
821.728	23703
821.868	23505
822.008	23391
822.149	23364
822.289	23391
822.429	23041
822.569	22942
822.709	23128
822.849	22847
822.99	22790
823.13	22797
823.27	22755
823.41	22645
823.55	22622
823.69	22527
823.83	22569
823.97	22500
824.11	22318
824.25	22299
824.389	22402
824.529	22428
824.669	22322
824.809	22462
824.949	22455
825.089	22413
825.228	22329
825.368	22181
825.508	22147
825.648	22185
825.787	22242
825.927	22192
826.067	22032
826.206	22082
826.346	22185
826.485	22105
826.625	22109
826.765	22177
826.904	22150
827.044	21838
827.183	21686
827.323	21743
827.462	21922
827.601	21865
827.741	21827
827.88	21724
828.02	21663
828.159	21865
828.298	21739
828.437	21785
828.577	21682
828.716	21819
828.855	21641
828.994	21583
829.134	21374
829.273	21454
829.412	21378
829.551	21382
829.69	21507
829.829	21435
829.968	21572
830.107	21542
830.246	21462
830.385	21348
830.524	21401
830.663	21313
830.802	21192
830.941	20960
831.08	21081
831.219	21074
831.357	21047
831.496	21237
831.635	21081
831.774	21013
831.913	20982
832.051	20971
832.19	20830
832.329	20929
832.467	20979
832.606	20849
832.744	20883
832.883	21028
833.022	20990
833.16	21154
833.299	21131
833.437	21382
833.576	21469
833.714	21622
833.852	21857
833.991	22029
834.129	22078
834.267	22101
834.406	22078
834.544	21865
834.682	21679
834.821	21618
834.959	21679
835.097	21431
835.235	21294
835.373	21116
835.511	21055
835.65	20910
835.788	20891
835.926	20743
836.064	20568
836.202	20724
836.34	20765
836.478	20716
836.615	20583
836.753	20579
836.891	20716
837.029	20629
837.167	20636
837.305	20560
837.443	20511
837.58	20438
837.718	20408
837.856	20370
837.993	20427
838.131	20374
838.269	20282
838.406	20275
838.544	20164
838.681	20039
838.819	19879
838.956	19879
839.094	19795
839.231	19917
839.369	19921
839.506	20210
839.643	20103
839.781	19852
839.918	19719
840.055	19871
840.193	19761
840.33	19696
840.467	19807
840.604	19803
840.742	20046
840.879	19658
841.016	19700
841.153	19677
841.29	19837
841.427	19795
841.564	19818
841.701	19826
841.838	19776
841.975	19529
842.112	19818
842.249	19544
842.385	19628
842.522	19753
842.659	19628
842.796	19708
842.933	19681
843.069	19506
843.206	19658
843.343	19852
843.479	19757
843.616	19746
843.752	19499
843.889	19632
844.025	19856
844.162	19784
844.298	19868
844.435	20046
844.571	20199
844.708	20518
844.844	21100
844.98	21348
845.117	22090
845.253	22900
845.389	24760
845.525	28489
845.661	34382
845.798	41147
845.934	46390
846.07	48178
846.206	46797
846.342	42030
846.478	35193
846.614	29318
846.75	25419
846.886	23181
847.022	21831
847.158	20971
847.294	20317
847.429	20069
847.565	19841
847.701	19860
847.837	19255
847.972	19091
848.108	19046
848.244	19004
848.379	18749
848.515	18768
848.65	18681
848.786	18707
848.921	18585
849.057	18730
849.192	18722
849.328	18715
849.463	18620
849.598	18627
849.734	18426
849.869	18414
850.004	18247
850.14	18391
850.275	18243
850.41	18289
850.545	18129
850.68	18277
850.815	18216
850.95	18277
851.085	18433
851.22	18277
851.355	18262
851.49	18254
851.625	18247
851.76	18133
851.895	18121
852.03	18144
852.165	18300
852.299	18361
852.434	18437
852.569	18285
852.703	18350
852.838	18327
852.973	18475
853.107	18471
853.242	18395
853.376	18201
853.511	18182
853.645	18292
853.78	18547
853.914	18365
854.048	18506
854.183	18544
854.317	18509
854.451	18749
854.585	18506
854.72	18445
854.854	18532
854.988	18410
855.122	18380
855.256	18266
855.39	18270
855.524	18350
855.658	18262
855.792	18163
855.926	18296
856.06	18300
856.194	18270
856.327	18190
856.461	18190
856.595	18182
856.729	18098
856.862	18087
856.996	18140
857.13	18144
857.263	18133
857.397	18304
857.53	18079
857.664	18072
857.797	18098
857.931	18228
858.064	18167
858.197	18155
858.331	18083
858.464	17851
858.597	18007
858.731	18057
858.864	17999
858.997	17969
859.13	17999
859.263	18026
859.396	18030
859.529	17973
859.662	17977
859.795	17916
859.928	18007
860.061	18125
860.194	18076
860.327	18098
860.46	17882
860.592	18091
860.725	18125
860.858	18041
860.99	17973
861.123	17908
861.256	17870
861.388	17920
861.521	18620
861.653	17760
861.786	17687
861.918	17805
862.05	17916
862.183	17836
862.315	17965
862.447	18038
862.58	17916
862.712	17737
862.844	17646
862.976	17638
863.108	17619
863.24	18102
863.372	17566
863.504	17600
863.636	17516
863.768	17623
863.9	17592
864.032	17570
864.164	17482
864.296	17657
864.428	17752
864.559	17710
864.691	17718
864.823	17714
864.954	17623
865.086	17604
865.217	17623
865.349	17452
865.48	17501
865.612	17501
865.743	17764
865.875	17596
866.006	17417
866.137	17452
866.269	17482
866.4	17440
866.531	17501
866.662	17429
866.793	17436
866.924	17535
867.055	17524
867.186	17547
867.317	17516
867.448	17444
867.579	17463
867.71	17440
867.841	17417
867.972	17448
868.103	17520
868.233	17482
868.364	17440
868.495	17585
868.625	17691
868.756	17836
868.886	17657
869.017	17859
869.147	17775
869.278	17836
869.408	17714
869.539	17790
869.669	17923
869.799	17847
869.929	17927
870.06	17889
870.19	18171
870.32	18045
870.45	18205
870.58	18205
870.71	18304
870.84	18300
870.97	18144
871.1	18254
871.23	18445
871.36	18502
871.489	18315
871.619	18448
871.749	18555
871.879	18540
872.008	18509
872.138	18513
872.267	18498
872.397	18418
872.526	18323
872.656	18441
872.785	18483
872.915	18623
873.044	18947
873.173	18673
873.303	18540
873.432	18757
873.561	18795
873.69	18802
873.819	18738
873.948	18928
874.077	18776
874.206	18909
874.335	18825
874.464	18932
874.593	19278
874.722	19118
874.851	19346
874.979	19183
875.108	19297
875.237	19377
875.365	19316
875.494	19377
875.623	19563
875.751	19403
875.88	19563
876.008	19715
876.136	19761
876.265	20183
876.393	20229
876.521	20237
876.65	20286
876.778	20317
876.906	20290
877.034	20347
877.162	20541
877.29	20446
877.418	20545
877.546	20678
877.674	20689
877.802	20963
877.93	21081
878.058	21230
878.185	21359
878.313	21682
878.441	22055
878.568	22230
878.696	22953
878.824	23668
878.951	24833
879.079	26446
879.206	28649
879.333	30692
879.461	32366
879.588	33397
879.715	33538
879.842	32514
879.97	30749
880.097	28596
880.224	26918
880.351	25734
880.478	24753
880.605	24247
880.732	23954
880.859	23809
880.986	23398
881.112	23364
881.239	23185
881.366	23022
881.493	22873
881.619	22778
881.746	22873
881.872	22919
881.999	23086
882.125	22919
882.252	23151
882.378	23193
882.505	23296
882.631	23052
882.757	22957
882.883	22987
883.01	23037
883.136	22923
883.262	22717
883.388	22850
883.514	22968
883.64	23052
883.766	22873
883.892	22694
884.018	22580
884.143	22904
884.269	22972
884.395	22790
884.52	22527
884.646	22523
884.772	22584
884.897	22679
885.023	22687
885.148	22634
885.274	22649
885.399	22447
885.524	22432
885.65	22287
885.775	22139
885.9	22013
886.025	21907
886.15	21838
886.275	21561
886.4	21348
886.525	21233
886.65	21157
886.775	21020
886.9	21093
887.025	21043
887.149	20777
887.274	20480
887.399	20355
887.523	20328
887.648	20161
887.773	19997
887.897	20096
888.021	19940
888.146	19913
888.27	19909
888.395	19993
888.519	19818
888.643	19833
888.767	19677
888.891	19525
889.015	19460
889.139	19472
889.263	19339
889.387	19499
889.511	19506
889.635	19400
889.759	19343
889.883	19236
890.006	19088
890.13	19091
890.254	19023
890.377	18996
890.501	18757
890.624	18833
890.748	18719
890.871	18639
890.995	18597
891.118	18448
891.241	18509
891.364	18464
891.488	18490
891.611	18304
891.734	18350
891.857	18479
891.98	18319
892.103	18346
892.226	18270
892.349	18197
892.471	18152
892.594	18140
892.717	18220
892.839	18102
892.962	18209
893.085	18133
893.207	18015
893.33	17828
893.452	17999
893.575	18053
893.697	17874
893.819	17927
893.941	18102
894.064	17935
894.186	17809
894.308	17745
894.43	17885
894.552	17973
894.674	17863
894.796	17707
894.918	17619
895.04	17699
895.161	17798
895.283	17718
895.405	17573
895.526	17634
895.648	17611
895.769	17638
895.891	17684
896.012	17668
896.134	17672
896.255	17684
896.376	17554
896.498	17573
896.619	17596
896.74	17611
896.861	17611
896.982	17889
897.103	18057
897.224	17779
897.345	17707
897.466	17741
897.587	17703
897.708	17764
897.828	17790
897.949	17741
898.07	17528
898.19	17741
898.311	17882
898.431	17737
898.552	17779
898.672	17889
898.792	17851
898.913	17703
899.033	17676
899.153	17665
899.273	17463
899.393	17383
899.513	17493
899.633	17596
899.753	17570
899.873	17486
899.993	17585
900.113	17486
900.232	17425
900.352	17410
900.472	17429
900.591	17345
900.711	17337
900.83	17330
900.95	17490
901.069	17490
901.189	17239
901.308	17048
901.427	16873
901.546	16862
901.665	16915
901.784	17014
901.904	16702
902.023	16679
902.141	16409
902.26	16409
902.379	16504
902.498	16337
902.617	16379
902.735	16466
902.854	16310
902.973	16204
903.091	16044
903.21	16051
903.328	16013
903.446	15865
903.565	15759
903.683	15778
903.801	15724
903.919	15747
904.038	15812
904.156	15644
904.274	15736
904.392	15568
904.51	15496
904.627	15564
904.745	15656
904.863	15545
904.981	15329
905.098	15306
905.216	15348
905.334	15230
905.451	15218
905.569	15116
905.686	15321
905.803	15203
905.921	15055
906.038	15123
906.155	15020
906.272	14902
906.389	15020
906.506	14762
906.623	14769
906.74	14731
906.857	14610
906.974	14663
907.091	14826
907.208	14914
907.324	14861
907.441	14613
907.557	14389
907.674	14488
907.79	14415
907.907	14423
908.023	14461
908.139	14518
908.256	14393
908.372	14313
908.488	14294
908.604	14187
908.72	14069
908.836	14164
908.952	14168
909.068	14199
909.184	14229
909.3	14084
909.415	14100
909.531	14142
909.647	13940
909.762	13982
909.878	13883
909.993	13871
910.108	13769
910.224	13841
910.339	13860
910.454	13852
910.57	13803
910.685	13662
910.8	13955
910.915	13795
911.03	13723
911.145	13620
911.259	13548
911.374	13544
911.489	13506
911.604	13419
911.718	13278
911.833	13369
911.947	13240
912.062	13168
912.176	13289
912.291	13285
912.405	13278
912.519	13430
912.633	13464
912.748	13354
912.862	13343
912.976	13190
913.09	13019
913.204	13103
913.318	13168
913.431	13285
913.545	13221
913.659	13217
913.772	13213
913.886	12928
914	13015
914.113	13053
914.226	13110
914.34	13061
914.453	12958
914.566	13103
914.68	12886
914.793	12951
914.906	12738
915.019	12719
915.132	12635
915.245	12696
915.358	12711
915.47	12757
915.583	12684
915.696	12817
915.809	12833
915.921	12810
916.034	12684
916.146	12597
916.259	12631
916.371	12719
916.483	12779
916.595	12642
916.708	12604
916.82	12681
916.932	12623
917.044	12684
917.156	12662
917.268	12513
917.38	12509
917.491	12422
917.603	12452
917.715	12551
917.826	12532
917.938	12445
918.049	12350
918.161	12426
918.272	12563
918.384	12525
918.495	12517
918.606	12304
918.717	12121
918.828	12228
918.939	12380
919.05	12190
919.161	12235
919.272	12060
919.383	12034
919.494	12296
919.604	12403
919.715	12175
919.826	12186
919.936	12155
920.047	12323
920.157	12239
920.267	12380
920.378	12228
920.488	12232
920.598	12445
920.708	12551
920.818	12369
920.928	12441
921.038	12574
921.148	12445
921.258	12266
921.368	12121
921.477	12030
921.587	12034
921.697	11927
921.806	12045
921.916	11878
922.025	11737
922.134	11680
922.244	11657
922.353	11718
922.462	11653
922.571	11520
922.68	11406
922.789	11315
922.898	11421
923.007	11360
923.116	11402
923.224	11284
923.333	11349
923.442	11235
923.55	11231
923.659	11140
923.767	11299
923.876	11117
923.984	11246
924.092	10957
924.201	11178
924.309	11159
924.417	11098
924.525	11083
924.633	11052
924.741	11817
924.849	11003
924.956	11140
925.064	10900
925.172	10881
925.279	10927
925.387	10915
925.494	10889
925.602	11025
925.709	10995
925.816	10839
925.924	10858
926.031	10873
926.138	10828
926.245	10896
926.352	10774
926.459	10957
926.566	10995
926.673	10809
926.779	10733
926.886	10714
926.993	10519
927.099	10626
927.206	10512
927.312	10535
927.419	10554
927.525	10523
927.631	10641
927.737	10447
927.843	10413
927.95	10314
928.056	10379
928.162	10443
928.267	10443
928.373	11045
928.479	10565
928.585	10215
928.69	10344
928.796	10402
928.901	10265
929.007	10265
929.112	10219
929.218	10272
929.323	10223
929.428	10150
929.533	10238
929.638	10097
929.743	10200
929.848	10147
929.953	10181
930.058	10025
930.163	9857
930.267	9869
930.372	10032
930.477	9857
930.581	10150
930.685	9949
930.79	9842
930.894	9979
930.998	9785
931.103	10059
931.207	9625
931.311	9576
931.415	9443
931.519	9256
931.623	9306
