Data from test_V78500241_719.txt Node
Date: Fri Mar 25 14:38:43 CST 2022
User: usil
Spectrometer: V785-0024
Trigger mode: 0
Integration Time (sec): 4.000000E-1
Scans to average: 1
Nonlinearity correction enabled: false
Boxcar width: 0
Storing dark spectrum: false
XAxis mode: Wavelengths
Number of Pixels in Spectrum: 1024
>>>>>Begin Spectral Data<<<<<
801.071	27625
801.214	27370
801.356	27180
801.499	27119
801.641	27055
801.783	26948
801.926	26929
802.068	26853
802.211	26823
802.353	26625
802.496	26511
802.638	26473
802.78	26366
802.923	26423
803.065	26343
803.208	26282
803.35	26469
803.492	26374
803.635	26613
803.777	26537
803.919	26644
804.061	26765
804.204	26727
804.346	26636
804.488	26678
804.63	26697
804.773	26667
804.915	26849
805.057	27058
805.199	26933
805.341	27192
805.483	27264
805.626	27268
805.768	27192
805.91	27245
806.052	27538
806.194	27523
806.336	27888
806.478	27930
806.62	28169
806.762	28485
806.904	28850
807.046	29356
807.188	29589
807.33	29999
807.472	30563
807.614	31362
807.756	32339
807.898	33386
808.04	34854
808.182	37057
808.324	39682
808.465	42802
808.607	46253
808.749	49126
808.891	50849
809.033	51081
809.174	49537
809.316	46645
809.458	43034
809.6	39523
809.741	36658
809.883	34200
810.025	33013
810.166	31761
810.308	30897
810.45	30277
810.591	29714
810.733	29220
810.875	28835
811.016	28394
811.158	28120
811.299	28211
811.441	28150
811.582	27987
811.724	27682
811.865	27583
812.007	27336
812.148	27431
812.29	27351
812.431	27378
812.573	27462
812.714	27553
812.855	27675
812.997	27553
813.138	27827
813.279	27485
813.421	27538
813.562	27310
813.703	27104
813.845	27024
813.986	26552
814.127	26381
814.268	26168
814.41	26263
814.551	26267
814.692	26282
814.833	26020
814.974	26050
815.115	26054
815.256	25864
815.397	25780
815.539	25868
815.68	25750
815.821	25738
815.962	25784
816.103	25704
816.244	25495
816.385	25506
816.526	25434
816.666	25152
816.807	24989
816.948	25034
817.089	25095
817.23	25061
817.371	24989
817.512	24905
817.653	24856
817.793	24867
817.934	24886
818.075	24875
818.216	24890
818.356	24958
818.497	24692
818.638	24665
818.778	24521
818.919	24642
819.06	24658
819.2	24798
819.341	24745
819.481	24913
819.622	24890
819.762	25107
819.903	24928
820.043	24970
820.184	24833
820.324	24734
820.465	24810
820.605	24859
820.746	24684
820.886	24490
821.026	24776
821.167	24582
821.307	24749
821.447	24517
821.588	24391
821.728	24486
821.868	24148
822.008	24064
822.149	23935
822.289	23920
822.429	23684
822.569	23638
822.709	23604
822.849	23391
822.99	23486
823.13	23273
823.27	23387
823.41	23242
823.55	23178
823.69	23193
823.83	23189
823.97	23204
824.11	23071
824.25	22968
824.389	22919
824.529	23121
824.669	23025
824.809	23075
824.949	23113
825.089	23052
825.228	23044
825.368	22755
825.508	22793
825.648	22900
825.787	22797
825.927	22748
826.067	22725
826.206	22767
826.346	22767
826.485	22748
826.625	22721
826.765	22923
826.904	22877
827.044	22500
827.183	22485
827.323	22402
827.462	22440
827.601	22379
827.741	22402
827.88	22474
828.02	22223
828.159	22367
828.298	22333
828.437	22371
828.577	22306
828.716	22489
828.855	22257
828.994	22090
829.134	22116
829.273	22226
829.412	22093
829.551	22013
829.69	22063
829.829	22021
829.968	22162
830.107	22131
830.246	22048
830.385	22070
830.524	22055
830.663	21888
830.802	21816
830.941	21789
831.08	21652
831.219	21755
831.357	21884
831.496	21876
831.635	21709
831.774	21622
831.913	21641
832.051	21561
832.19	21595
832.329	21549
832.467	21591
832.606	21500
832.744	21534
832.883	21660
833.022	21652
833.16	21755
833.299	21892
833.437	22006
833.576	22223
833.714	22379
833.852	22573
833.991	22466
834.129	22702
834.267	22759
834.406	22649
834.544	22584
834.682	22546
834.821	22344
834.959	22398
835.097	21918
835.235	21979
835.373	21876
835.511	21785
835.65	21698
835.788	21553
835.926	21355
836.064	21154
836.202	21154
836.34	21298
836.478	21355
836.615	21302
836.753	21226
836.891	21420
837.029	21199
837.167	21268
837.305	20986
837.443	21074
837.58	20994
837.718	21119
837.856	20975
837.993	20929
838.131	20906
838.269	20861
838.406	20910
838.544	20754
838.681	20689
838.819	20533
838.956	20499
839.094	20377
839.231	20560
839.369	20693
839.506	20819
839.643	20678
839.781	20454
839.918	20408
840.055	20522
840.193	20473
840.33	20320
840.467	20362
840.604	20415
840.742	20564
840.879	20263
841.016	20396
841.153	20385
841.29	20556
841.427	20484
841.564	20427
841.701	20404
841.838	20362
841.975	20225
842.112	20240
842.249	20286
842.385	20221
842.522	20351
842.659	20278
842.796	20351
842.933	20157
843.069	20252
843.206	20271
843.343	20408
843.479	20286
843.616	20324
843.752	20252
843.889	20370
844.025	20590
844.162	20393
844.298	20503
844.435	20785
844.571	20864
844.708	21058
844.844	21622
844.98	22070
845.117	22759
845.253	23714
845.389	25544
845.525	29345
845.661	35497
845.798	42418
845.934	47824
846.07	49616
846.206	48060
846.342	42890
846.478	36129
846.614	30254
846.75	26149
846.886	23752
847.022	22478
847.158	21450
847.294	20979
847.429	20686
847.565	20320
847.701	20343
847.837	19913
847.972	19696
848.108	19803
848.244	19731
848.379	19426
848.515	19255
848.65	19236
848.786	19202
848.921	19187
849.057	19354
849.192	19358
849.328	19141
849.463	19190
849.598	19145
849.734	18989
849.869	19141
850.004	18810
850.14	18859
850.275	18901
850.41	18787
850.545	18833
850.68	18802
850.815	18802
850.95	18688
851.085	19065
851.22	18852
851.355	18654
851.49	18650
851.625	18833
851.76	18776
851.895	18707
852.03	18738
852.165	18787
852.299	18829
852.434	18882
852.569	18947
852.703	18871
852.838	18901
852.973	19122
853.107	19114
853.242	18951
853.376	18894
853.511	18779
853.645	18840
853.78	19050
853.914	19103
854.048	18928
854.183	19046
854.317	19122
854.451	19297
854.585	19050
854.72	18916
854.854	19091
854.988	19129
855.122	19004
855.256	18833
855.39	18913
855.524	18913
855.658	18852
855.792	18928
855.926	18779
856.06	18829
856.194	18806
856.327	18631
856.461	18570
856.595	18627
856.729	18779
856.862	18894
856.996	18673
857.13	18760
857.263	18673
857.397	18760
857.53	18730
857.664	18707
857.797	18692
857.931	18741
858.064	18646
858.197	18620
858.331	18517
858.464	18506
858.597	18426
858.731	18536
858.864	18532
858.997	18456
859.13	18456
859.263	18544
859.396	18574
859.529	18407
859.662	18433
859.795	18502
859.928	18471
860.061	18696
860.194	18635
860.327	18547
860.46	18429
860.592	18612
860.725	18509
860.858	18448
860.99	18376
861.123	18315
861.256	18369
861.388	18418
861.521	19198
861.653	18266
861.786	18273
861.918	18395
862.05	18262
862.183	18467
862.315	18391
862.447	18486
862.58	18388
862.712	18258
862.844	18133
862.976	18289
863.108	18114
863.24	18570
863.372	18087
863.504	18079
863.636	18072
863.768	18110
863.9	18121
864.032	18045
864.164	18152
864.296	18228
864.428	18300
864.559	18117
864.691	18125
864.823	18114
864.954	18197
865.086	18079
865.217	18057
865.349	17916
865.48	18060
865.612	18007
865.743	18224
865.875	18152
866.006	18098
866.137	18083
866.269	18079
866.4	18034
866.531	18060
866.662	17996
866.793	17946
866.924	18076
867.055	18015
867.186	18064
867.317	17961
867.448	17920
867.579	17935
867.71	17912
867.841	17901
867.972	17992
868.103	17988
868.233	17992
868.364	17961
868.495	18083
868.625	18216
868.756	18323
868.886	18152
869.017	18251
869.147	18353
869.278	18350
869.408	18346
869.539	18228
869.669	18270
869.799	18304
869.929	18498
870.06	18452
870.19	18635
870.32	18521
870.45	18597
870.58	18711
870.71	18825
870.84	18791
870.97	18817
871.1	18738
871.23	18810
871.36	19076
871.489	18932
871.619	18894
871.749	18981
871.879	19084
872.008	19152
872.138	18897
872.267	19050
872.397	18932
872.526	18871
872.656	18894
872.785	18897
872.915	19061
873.044	19160
873.173	19194
873.303	19198
873.432	19274
873.561	19373
873.69	19312
873.819	19255
873.948	19460
874.077	19304
874.206	19365
874.335	19278
874.464	19544
874.593	19712
874.722	19738
874.851	19811
874.979	19826
875.108	19890
875.237	19917
875.365	19723
875.494	19928
875.623	20020
875.751	20008
875.88	20233
876.008	20351
876.136	20317
876.265	20537
876.393	20705
876.521	20792
876.65	20819
876.778	20731
876.906	20811
877.034	20853
877.162	21032
877.29	21013
877.418	21252
877.546	21321
877.674	21336
877.802	21542
877.93	21603
878.058	21766
878.185	21907
878.313	22173
878.441	22519
878.568	22949
878.696	23516
878.824	24388
878.951	25502
879.079	27142
879.206	29235
879.333	31327
879.461	33184
879.588	34200
879.715	34207
879.842	33462
879.97	31586
880.097	29387
880.224	27610
880.351	26408
880.478	25628
880.605	24825
880.732	24559
880.859	24372
880.986	23931
881.112	23984
881.239	23733
881.366	23558
881.493	23509
881.619	23440
881.746	23463
881.872	23512
881.999	23676
882.125	23558
882.252	23649
882.378	23855
882.505	23798
882.631	23646
882.757	23558
882.883	23729
883.01	23486
883.136	23509
883.262	23414
883.388	23349
883.514	23474
883.64	23554
883.766	23360
883.892	23307
884.018	23189
884.143	23398
884.269	23531
884.395	23280
884.52	23216
884.646	23288
884.772	23242
884.897	23140
885.023	23277
885.148	23258
885.274	23189
885.399	23197
885.524	22965
885.65	22949
885.775	22706
885.9	22577
886.025	22447
886.15	22348
886.275	22070
886.4	21987
886.525	21751
886.65	21675
886.775	21629
886.9	21610
887.025	21481
887.149	21226
887.274	21066
887.399	20857
887.523	20834
887.648	20697
887.773	20609
887.897	20571
888.021	20499
888.146	20434
888.27	20556
888.395	20450
888.519	20393
888.643	20294
888.767	20286
888.891	20027
889.015	20012
889.139	19932
889.263	19849
889.387	19761
889.511	19989
889.635	19875
889.759	19578
889.883	19674
890.006	19742
890.13	19769
890.254	19529
890.377	19510
890.501	19308
890.624	19282
890.748	19289
890.871	19057
890.995	19027
891.118	18905
891.241	18985
891.364	18996
891.488	18985
891.611	18890
891.734	18852
891.857	18817
891.98	18878
892.103	18707
892.226	18726
892.349	18692
892.471	18585
892.594	18559
892.717	18658
892.839	18521
892.962	18509
893.085	18593
893.207	18490
893.33	18311
893.452	18418
893.575	18380
893.697	18327
893.819	18479
893.941	18544
894.064	18391
894.186	18342
894.308	18125
894.43	18395
894.552	18376
894.674	18338
894.796	18228
894.918	18213
895.04	18076
895.161	18270
895.283	18079
895.405	18057
895.526	18019
895.648	17939
895.769	18144
895.891	18060
896.012	18133
896.134	18068
896.255	18129
896.376	17980
896.498	17950
896.619	18087
896.74	17992
896.861	18057
896.982	18327
897.103	18483
897.224	18308
897.345	18235
897.466	18155
897.587	18243
897.708	18285
897.828	18220
897.949	18060
898.07	17977
898.19	18190
898.311	18182
898.431	17931
898.552	18194
898.672	18243
898.792	18216
898.913	18095
899.033	18034
899.153	17980
899.273	17885
899.393	17958
899.513	17999
899.633	18102
899.753	17988
899.873	17923
899.993	17969
900.113	17863
900.232	17965
900.352	17847
900.472	17863
900.591	17691
900.711	17748
900.83	17710
900.95	17821
901.069	17741
901.189	17653
901.308	17368
901.427	17368
901.546	17379
901.665	17250
901.784	17269
901.904	17162
902.023	16995
902.141	16889
902.26	16831
902.379	16873
902.498	16824
902.617	16786
902.735	16755
902.854	16759
902.973	16679
903.091	16478
903.21	16455
903.328	16405
903.446	16333
903.565	16188
903.683	16173
903.801	16150
903.919	16067
904.038	16185
904.156	16036
904.274	15964
904.392	15930
904.51	15922
904.627	15907
904.745	16013
904.863	15903
904.981	15720
905.098	15603
905.216	15564
905.334	15652
905.451	15485
905.569	15485
905.686	15614
905.803	15606
905.921	15416
906.038	15435
906.155	15408
906.272	15336
906.389	15249
906.506	15127
906.623	15176
906.74	15001
906.857	15032
906.974	15005
907.091	15195
907.208	15226
907.324	15047
907.441	15058
907.557	14838
907.674	14845
907.79	14777
907.907	14826
908.023	14823
908.139	14750
908.256	14712
908.372	14727
908.488	14712
908.604	14575
908.72	14476
908.836	14552
908.952	14514
909.068	14579
909.184	14579
909.3	14499
909.415	14533
909.531	14541
909.647	14298
909.762	14176
909.878	14244
909.993	14259
910.108	14263
910.224	14187
910.339	14164
910.454	14126
910.57	14176
910.685	14050
910.8	14256
910.915	14164
911.03	14142
911.145	13921
911.259	13909
911.374	13902
911.489	13837
911.604	13776
911.718	13666
911.833	13655
911.947	13525
912.062	13453
912.176	13548
912.291	13734
912.405	13578
912.519	13765
912.633	13868
912.748	13643
912.862	13578
912.976	13453
913.09	13365
913.204	13365
913.318	13449
913.431	13567
913.545	13495
913.659	13620
913.772	13495
913.886	13335
914	13297
914.113	13373
914.226	13441
914.34	13335
914.453	13179
914.566	13354
914.68	13301
914.793	13190
914.906	13015
915.019	12962
915.132	12954
915.245	13019
915.358	13061
915.47	13042
915.583	13019
915.696	13072
915.809	13190
915.921	13194
916.034	12962
916.146	12947
916.259	13004
916.371	13015
916.483	13095
916.595	12977
916.708	12977
916.82	12897
916.932	12913
917.044	12943
917.156	12951
917.268	12875
917.38	12741
917.491	12787
917.603	12776
917.715	12837
917.826	12916
917.938	12768
918.049	12525
918.161	12673
918.272	12901
918.384	12764
918.495	12711
918.606	12540
918.717	12486
918.828	12631
918.939	12525
919.05	12441
919.161	12566
919.272	12285
919.383	12422
919.494	12467
919.604	12688
919.715	12528
919.826	12410
919.936	12475
920.047	12627
920.157	12498
920.267	12798
920.378	12494
920.488	12456
920.598	12684
920.708	12776
920.818	12631
920.928	12601
921.038	12719
921.148	12768
921.258	12467
921.368	12410
921.477	12296
921.587	12376
921.697	12140
921.806	12247
921.916	12083
922.025	11980
922.134	12022
922.244	11931
922.353	11950
922.462	11737
922.571	11729
922.68	11668
922.789	11589
922.898	11554
923.007	11596
923.116	11596
923.224	11570
923.333	11547
923.442	11471
923.55	11360
923.659	11448
923.767	11562
923.876	11387
923.984	11414
924.092	11311
924.201	11398
924.309	11398
924.417	11452
924.525	11356
924.633	11353
924.741	12232
924.849	11098
924.956	11258
925.064	11204
925.172	11041
925.279	11121
925.387	11162
925.494	11094
925.602	11155
925.709	11258
925.816	11045
925.924	11098
926.031	11155
926.138	11075
926.245	11098
926.352	10953
926.459	11060
926.566	11189
926.673	10995
926.779	10946
926.886	10919
926.993	10774
927.099	10683
927.206	10691
927.312	10683
927.419	10771
927.525	10706
927.631	10763
927.737	10645
927.843	10577
927.95	10596
928.056	10630
928.162	10660
928.267	10668
928.373	11128
928.479	10679
928.585	10459
928.69	10561
928.796	10656
928.901	10447
929.007	10329
929.112	10508
929.218	10413
929.323	10371
929.428	10424
929.533	10527
929.638	10306
929.743	10287
929.848	10424
929.953	10280
930.058	10253
930.163	10139
930.267	10124
930.372	10223
930.477	10128
930.581	10280
930.685	10238
930.79	10017
930.894	10040
930.998	9983
931.103	10105
931.207	9785
931.311	9675
931.415	9652
931.519	9473
931.623	9481
