Data from test_V78500241_1303.txt Node
Date: Fri Mar 25 14:42:47 CST 2022
User: usil
Spectrometer: V785-0024
Trigger mode: 0
Integration Time (sec): 4.000000E-1
Scans to average: 1
Nonlinearity correction enabled: false
Boxcar width: 0
Storing dark spectrum: false
XAxis mode: Wavelengths
Number of Pixels in Spectrum: 1024
>>>>>Begin Spectral Data<<<<<
801.071	22459
801.214	22322
801.356	22147
801.499	22059
801.641	21823
801.783	21823
801.926	21770
802.068	21717
802.211	21599
802.353	21511
802.496	21340
802.638	21264
802.78	21226
802.923	21260
803.065	21074
803.208	21116
803.35	21028
803.492	21214
803.635	21298
803.777	21169
803.919	21154
804.061	21439
804.204	21165
804.346	21039
804.488	20982
804.63	21089
804.773	21028
804.915	21100
805.057	21252
805.199	21096
805.341	21188
805.483	21112
805.626	21112
805.768	20994
805.91	21058
806.052	21043
806.194	20891
806.336	21135
806.478	21074
806.62	21032
806.762	21074
806.904	21233
807.046	21477
807.188	21325
807.33	21408
807.472	21538
807.614	21363
807.756	21351
807.898	21203
808.04	21074
808.182	21211
808.324	21230
808.465	21291
808.607	21557
808.749	21618
808.891	21701
809.033	21717
809.174	21633
809.316	21526
809.458	21428
809.6	21572
809.741	21599
809.883	21492
810.025	21663
810.166	21610
810.308	21686
810.45	21454
810.591	21405
810.733	21287
810.875	21332
811.016	21154
811.158	21100
811.299	21317
811.441	21389
811.582	21405
811.724	21272
811.865	21264
812.007	21184
812.148	21188
812.29	21218
812.431	21424
812.573	21580
812.714	21511
812.855	21641
812.997	21816
813.138	21998
813.279	21808
813.421	21720
813.562	21553
813.703	21469
813.845	21359
813.986	21123
814.127	20994
814.268	20807
814.41	20823
814.551	20735
814.692	20868
814.833	20651
814.974	20720
815.115	20670
815.256	20579
815.397	20598
815.539	20613
815.68	20480
815.821	20480
815.962	20560
816.103	20518
816.244	20358
816.385	20309
816.526	20248
816.666	19970
816.807	19955
816.948	20130
817.089	20035
817.23	19944
817.371	19928
817.512	20039
817.653	19826
817.793	19879
817.934	19936
818.075	19917
818.216	19830
818.356	19871
818.497	19811
818.638	19559
818.778	19609
818.919	19662
819.06	19559
819.2	19624
819.341	19742
819.481	19666
819.622	19856
819.762	20103
819.903	20084
820.043	19913
820.184	19955
820.324	19879
820.465	19959
820.605	19807
820.746	19940
820.886	19757
821.026	19932
821.167	19822
821.307	19997
821.447	19791
821.588	19761
821.728	19616
821.868	19400
822.008	19236
822.149	19278
822.289	19316
822.429	19088
822.569	18970
822.709	18939
822.849	18837
822.99	18890
823.13	18696
823.27	18829
823.41	18532
823.55	18559
823.69	18627
823.83	18661
823.97	18452
824.11	18304
824.25	18407
824.389	18304
824.529	18418
824.669	18437
824.809	18509
824.949	18422
825.089	18399
825.228	18445
825.368	18213
825.508	18163
825.648	18277
825.787	18186
825.927	18205
826.067	18144
826.206	18190
826.346	18148
826.485	18178
826.625	18140
826.765	18277
826.904	18152
827.044	17878
827.183	17954
827.323	17855
827.462	17897
827.601	17882
827.741	17908
827.88	17901
828.02	17726
828.159	17748
828.298	17843
828.437	17999
828.577	17916
828.716	17965
828.855	17851
828.994	17642
829.134	17714
829.273	17695
829.412	17551
829.551	17585
829.69	17608
829.829	17554
829.968	17687
830.107	17627
830.246	17680
830.385	17532
830.524	17471
830.663	17395
830.802	17254
830.941	17269
831.08	17239
831.219	17414
831.357	17189
831.496	17368
831.635	17216
831.774	17102
831.913	17121
832.051	16938
832.19	16991
832.329	17170
832.467	16934
832.606	16862
832.744	16900
832.883	16987
833.022	16858
833.16	16934
833.299	16968
833.437	16995
833.576	16987
833.714	16957
833.852	17003
833.991	16946
834.129	17014
834.267	17056
834.406	17018
834.544	17071
834.682	16965
834.821	16980
834.959	17151
835.097	16778
835.235	17025
835.373	16889
835.511	16984
835.65	16953
835.788	16824
835.926	16645
836.064	16675
836.202	16702
836.34	16839
836.478	16961
836.615	16839
836.753	17033
836.891	16991
837.029	16942
837.167	16892
837.305	16790
837.443	16828
837.58	16672
837.718	16866
837.856	16710
837.993	16771
838.131	16675
838.269	16706
838.406	16691
838.544	16626
838.681	16394
838.819	16379
838.956	16287
839.094	16272
839.231	16344
839.369	16523
839.506	16649
839.643	16409
839.781	16284
839.918	16211
840.055	16440
840.193	16398
840.33	16215
840.467	16325
840.604	16276
840.742	16634
840.879	16185
841.016	16204
841.153	16253
841.29	16421
841.427	16291
841.564	16310
841.701	16417
841.838	16246
841.975	16128
842.112	16150
842.249	16196
842.385	16010
842.522	16185
842.659	16105
842.796	16120
842.933	16093
843.069	15998
843.206	15991
843.343	16105
843.479	16036
843.616	16150
843.752	15892
843.889	15956
844.025	15945
844.162	15865
844.298	15926
844.435	15937
844.571	15827
844.708	15945
844.844	16067
844.98	16093
845.117	15949
845.253	15895
845.389	15724
845.525	15793
845.661	15915
845.798	15873
845.934	15789
846.07	15911
846.206	15960
846.342	15945
846.478	15808
846.614	15572
846.75	15519
846.886	15355
847.022	15458
847.158	15420
847.294	15511
847.429	15367
847.565	15389
847.701	15644
847.837	15093
847.972	15161
848.108	15283
848.244	15294
848.379	15058
848.515	15055
848.65	14979
848.786	15062
848.921	15020
849.057	15055
849.192	15062
849.328	15093
849.463	15070
849.598	15047
849.734	14918
849.869	14845
850.004	14902
850.14	14887
850.275	14724
850.41	14689
850.545	14705
850.68	14788
850.815	14849
850.95	14838
851.085	14963
851.22	14807
851.355	14830
851.49	14769
851.625	14746
851.76	14773
851.895	14758
852.03	14667
852.165	14861
852.299	14849
852.434	14834
852.569	14857
852.703	14845
852.838	14895
852.973	14967
853.107	14891
853.242	14640
853.376	14746
853.511	14427
853.645	14693
853.78	14735
853.914	14750
854.048	14602
854.183	14648
854.317	14720
854.451	14762
854.585	14670
854.72	14663
854.854	14765
854.988	14579
855.122	14579
855.256	14438
855.39	14568
855.524	14712
855.658	14746
855.792	14735
855.926	14739
856.06	14678
856.194	14792
856.327	14579
856.461	14629
856.595	14682
856.729	14682
856.862	14785
856.996	14716
857.13	14735
857.263	14781
857.397	14758
857.53	14587
857.664	14625
857.797	14788
857.931	14765
858.064	14693
858.197	14682
858.331	14583
858.464	14575
858.597	14434
858.731	14697
858.864	14530
858.997	14560
859.13	14674
859.263	14708
859.396	14762
859.529	14545
859.662	14636
859.795	14625
859.928	14682
860.061	14781
860.194	14872
860.327	14701
860.46	14655
860.592	14773
860.725	14830
860.858	14735
860.99	14625
861.123	14533
861.256	14640
861.388	14670
861.521	15325
861.653	14507
861.786	14518
861.918	14541
862.05	14522
862.183	14598
862.315	14651
862.447	14731
862.58	14583
862.712	14438
862.844	14332
862.976	14526
863.108	14511
863.24	14941
863.372	14377
863.504	14339
863.636	14343
863.768	14400
863.9	14431
864.032	14343
864.164	14393
864.296	14438
864.428	14393
864.559	14602
864.691	14564
864.823	14480
864.954	14412
865.086	14415
865.217	14427
865.349	14351
865.48	14415
865.612	14385
865.743	14518
865.875	14450
866.006	14301
866.137	14381
866.269	14507
866.4	14400
866.531	14358
866.662	14313
866.793	14442
866.924	14374
867.055	14465
867.186	14476
867.317	14377
867.448	14244
867.579	14362
867.71	14259
867.841	14294
867.972	14431
868.103	14374
868.233	14370
868.364	14454
868.495	14610
868.625	14613
868.756	14777
868.886	14568
869.017	14587
869.147	14777
869.278	14773
869.408	14674
869.539	14594
869.669	14727
869.799	14651
869.929	14743
870.06	14845
870.19	14971
870.32	14956
870.45	15070
870.58	15036
870.71	15237
870.84	15180
870.97	15013
871.1	15005
871.23	15241
871.36	15249
871.489	15241
871.619	15188
871.749	15214
871.879	15302
872.008	15363
872.138	15264
872.267	15230
872.397	15131
872.526	15047
872.656	15062
872.785	15089
872.915	15264
873.044	15340
873.173	15287
873.303	15310
873.432	15245
873.561	15306
873.69	15291
873.819	15336
873.948	15325
874.077	15279
874.206	15233
874.335	15272
874.464	15450
874.593	15599
874.722	15587
874.851	15614
874.979	15500
875.108	15709
875.237	15591
875.365	15557
875.494	15625
875.623	15641
875.751	15595
875.88	15568
876.008	15747
876.136	15755
876.265	15991
876.393	16192
876.521	16097
876.65	16131
876.778	16090
876.906	15972
877.034	15922
877.162	16029
877.29	15972
877.418	15983
877.546	16036
877.674	16036
877.802	16067
877.93	16021
878.058	15922
878.185	15956
878.313	16006
878.441	16078
878.568	15880
878.696	16010
878.824	16139
878.951	16177
879.079	16257
879.206	16417
879.333	16219
879.461	16204
879.588	16150
879.715	16329
879.842	16306
879.97	16200
880.097	15945
880.224	15911
880.351	15941
880.478	15873
880.605	15915
880.732	15911
880.859	16143
880.986	15850
881.112	15903
881.239	15804
881.366	15694
881.493	15599
881.619	15485
881.746	15603
881.872	15515
881.999	15572
882.125	15466
882.252	15656
882.378	15625
882.505	15614
882.631	15530
882.757	15378
882.883	15359
883.01	15329
883.136	15367
883.262	15313
883.388	15176
883.514	15443
883.64	15401
883.766	15260
883.892	15272
884.018	15192
884.143	15321
884.269	15378
884.395	15119
884.52	15032
884.646	15123
884.772	15013
884.897	14982
885.023	15089
885.148	15230
885.274	15222
885.399	15100
885.524	15036
885.65	15051
885.775	15097
885.9	15005
886.025	15260
886.15	15142
886.275	14967
886.4	14868
886.525	14979
886.65	14925
886.775	14975
886.9	15142
887.025	15287
887.149	14990
887.274	14914
887.399	14880
887.523	14906
887.648	14834
887.773	14800
887.897	14902
888.021	14921
888.146	14830
888.27	14952
888.395	14998
888.519	14975
888.643	14876
888.767	14994
888.891	14796
889.015	14796
889.139	14777
889.263	14651
889.387	14906
889.511	14975
889.635	14842
889.759	14792
889.883	14674
890.006	14716
890.13	14807
890.254	14727
890.377	14663
890.501	14590
890.624	14537
890.748	14575
890.871	14408
890.995	14423
891.118	14377
891.241	14400
891.364	14412
891.488	14598
891.611	14431
891.734	14374
891.857	14511
891.98	14454
892.103	14568
892.226	14549
892.349	14355
892.471	14259
892.594	14454
892.717	14351
892.839	14404
892.962	14480
893.085	14450
893.207	14431
893.33	14240
893.452	14404
893.575	14545
893.697	14400
893.819	14492
893.941	14590
894.064	14579
894.186	14355
894.308	14343
894.43	14549
894.552	14583
894.674	14442
894.796	14454
894.918	14412
895.04	14385
895.161	14499
895.283	14495
895.405	14396
895.526	14499
895.648	14461
895.769	14476
895.891	14575
896.012	14564
896.134	14610
896.255	14522
896.376	14457
896.498	14663
896.619	14663
896.74	14526
896.861	14716
896.982	15013
897.103	15043
897.224	14906
897.345	14746
897.466	14727
897.587	14883
897.708	14986
897.828	14933
897.949	14834
898.07	14640
898.19	14712
898.311	14921
898.431	14895
898.552	14998
898.672	14948
898.792	14948
898.913	15028
899.033	14849
899.153	14724
899.273	14697
899.393	14731
899.513	14781
899.633	14758
899.753	14697
899.873	14682
899.993	14777
900.113	14705
900.232	14712
900.352	14655
900.472	14754
900.591	14602
900.711	14545
900.83	14594
900.95	14667
901.069	14686
901.189	14552
901.308	14301
901.427	14286
901.546	14248
901.665	14393
901.784	14286
901.904	14149
902.023	14065
902.141	13967
902.26	13925
902.379	13913
902.498	13879
902.617	13814
902.735	13799
902.854	13818
902.973	13723
903.091	13556
903.21	13537
903.328	13567
903.446	13480
903.565	13415
903.683	13438
903.801	13346
903.919	13438
904.038	13346
904.156	13209
904.274	13285
904.392	13240
904.51	13225
904.627	13335
904.745	13206
904.863	13251
904.981	12966
905.098	12916
905.216	12920
905.334	12882
905.451	12973
905.569	12867
905.686	12897
905.803	12920
905.921	12703
906.038	12837
906.155	12768
906.272	12593
906.389	12681
906.506	12544
906.623	12582
906.74	12589
906.857	12372
906.974	12391
907.091	12620
907.208	12532
907.324	12601
907.441	12448
907.557	12330
907.674	12220
907.79	12205
907.907	12308
908.023	12216
908.139	12239
908.256	12190
908.372	12133
908.488	12182
908.604	12053
908.72	11973
908.836	12030
908.952	11980
909.068	12015
909.184	12095
909.3	11973
909.415	12110
909.531	12087
909.647	11737
909.762	11684
909.878	11680
909.993	11802
910.108	11760
910.224	11733
910.339	11771
910.454	11668
910.57	11695
910.685	11589
910.8	11840
910.915	11813
911.03	11684
911.145	11421
911.259	11486
911.374	11482
911.489	11436
911.604	11391
911.718	11242
911.833	11204
911.947	11132
912.062	11193
912.176	11193
912.291	11273
912.405	11208
912.519	11372
912.633	11372
912.748	11322
912.862	11250
912.976	11109
913.09	10949
913.204	11071
913.318	11105
913.431	11239
913.545	11250
913.659	11261
913.772	11132
913.886	11060
914	10968
914.113	11102
914.226	11071
914.34	11109
914.453	10900
914.566	11121
914.68	10904
914.793	10915
914.906	10694
915.019	10687
915.132	10615
915.245	10656
915.358	10744
915.47	10812
915.583	10729
915.696	10736
915.809	10934
915.921	10968
916.034	10668
916.146	10630
916.259	10733
916.371	10771
916.483	10729
916.595	10603
916.708	10641
916.82	10679
916.932	10618
917.044	10675
917.156	10672
917.268	10428
917.38	10584
917.491	10512
917.603	10462
917.715	10561
917.826	10596
917.938	10580
918.049	10421
918.161	10580
918.272	10733
918.384	10588
918.495	10527
918.606	10497
918.717	10291
918.828	10413
918.939	10436
919.05	10314
919.161	10394
919.272	10181
919.383	10287
919.494	10504
919.604	10668
919.715	10413
919.826	10371
919.936	10424
920.047	10512
920.157	10459
920.267	10660
920.378	10497
920.488	10413
920.598	10672
920.708	10710
920.818	10588
920.928	10565
921.038	10755
921.148	10702
921.258	10398
921.368	10402
921.477	10329
921.587	10257
921.697	10139
921.806	10280
921.916	10207
922.025	10093
922.134	9960
922.244	9941
922.353	10093
922.462	9846
922.571	9816
922.68	9663
922.789	9584
922.898	9679
923.007	9629
923.116	9720
923.224	9637
923.333	9644
923.442	9584
923.55	9469
923.659	9538
923.767	9622
923.876	9447
923.984	9511
924.092	9435
924.201	9584
924.309	9469
924.417	9576
924.525	9405
924.633	9469
924.741	10192
924.849	9275
924.956	9469
925.064	9325
925.172	9256
925.279	9245
925.387	9317
925.494	9275
925.602	9401
925.709	9435
925.816	9367
925.924	9260
926.031	9386
926.138	9287
926.245	9348
926.352	9207
926.459	9363
926.566	9351
926.673	9344
926.779	9176
926.886	9135
926.993	8998
927.099	9066
927.206	8986
927.312	9047
927.419	9009
927.525	9058
927.631	9146
927.737	9020
927.843	8883
927.95	8773
928.056	8952
928.162	8986
928.267	8979
928.373	9523
928.479	8994
928.585	8739
928.69	8830
928.796	8914
928.901	8830
929.007	8629
929.112	8861
929.218	8811
929.323	8708
929.428	8758
929.533	8845
929.638	8594
929.743	8693
929.848	8735
929.953	8693
930.058	8617
930.163	8518
930.267	8442
930.372	8697
930.477	8461
930.581	8663
930.685	8568
930.79	8370
930.894	8465
930.998	8457
931.103	8564
931.207	8240
931.311	8138
931.415	8058
931.519	7963
931.623	7936
