Data from test_V78500241_454.txt Node
Date: Fri Mar 25 14:36:52 CST 2022
User: usil
Spectrometer: V785-0024
Trigger mode: 0
Integration Time (sec): 4.000000E-1
Scans to average: 1
Nonlinearity correction enabled: false
Boxcar width: 0
Storing dark spectrum: false
XAxis mode: Wavelengths
Number of Pixels in Spectrum: 1024
>>>>>Begin Spectral Data<<<<<
801.071	26568
801.214	26461
801.356	26366
801.499	26225
801.641	25925
801.783	26020
801.926	26054
802.068	25993
802.211	25879
802.353	25769
802.496	25609
802.638	25529
802.78	25578
802.923	25457
803.065	25502
803.208	25392
803.35	25362
803.492	25632
803.635	25548
803.777	25468
803.919	25396
804.061	25814
804.204	25616
804.346	25407
804.488	25365
804.63	25491
804.773	25316
804.915	25438
805.057	25559
805.199	25510
805.341	25594
805.483	25632
805.626	25521
805.768	25453
805.91	25537
806.052	25563
806.194	25510
806.336	25731
806.478	25548
806.62	25365
806.762	25632
806.904	25753
807.046	26012
807.188	25944
807.33	25841
807.472	25966
807.614	25826
807.756	25803
807.898	25761
808.04	25590
808.182	25715
808.324	25620
808.465	25605
808.607	25841
808.749	25909
808.891	26092
809.033	26214
809.174	26046
809.316	26027
809.458	25989
809.6	25807
809.741	25978
809.883	26088
810.025	26119
810.166	26225
810.308	26172
810.45	26176
810.591	26157
810.733	25826
810.875	25791
811.016	25909
811.158	25860
811.299	25871
811.441	26077
811.582	25966
811.724	25772
811.865	25799
812.007	25856
812.148	25868
812.29	25852
812.431	26092
812.573	26027
812.714	26092
812.855	26199
812.997	26514
813.138	26560
813.279	26473
813.421	26343
813.562	26248
813.703	26267
813.845	26054
813.986	25738
814.127	25525
814.268	25441
814.41	25411
814.551	25327
814.692	25499
814.833	25339
814.974	25251
815.115	25217
815.256	25148
815.397	25175
815.539	25065
815.68	25034
815.821	25046
815.962	25107
816.103	25194
816.244	24947
816.385	24738
816.526	24779
816.666	24730
816.807	24536
816.948	24665
817.089	24612
817.23	24555
817.371	24582
817.512	24658
817.653	24505
817.793	24311
817.934	24513
818.075	24513
818.216	24505
818.356	24479
818.497	24346
818.638	24228
818.778	24155
818.919	24194
819.06	24201
819.2	24205
819.341	24414
819.481	24391
819.622	24418
819.762	24787
819.903	24650
820.043	24429
820.184	24479
820.324	24418
820.465	24509
820.605	24650
820.746	24471
820.886	24365
821.026	24574
821.167	24502
821.307	24475
821.447	24369
821.588	24357
821.728	24125
821.868	23950
822.008	23885
822.149	23828
822.289	23843
822.429	23524
822.569	23490
822.709	23630
822.849	23307
822.99	23299
823.13	23303
823.27	23318
823.41	23181
823.55	23075
823.69	23094
823.83	23094
823.97	22873
824.11	22927
824.25	22755
824.389	22858
824.529	23044
824.669	22908
824.809	23090
824.949	22995
825.089	22972
825.228	22877
825.368	22740
825.508	22725
825.648	22660
825.787	22607
825.927	22759
826.067	22535
826.206	22698
826.346	22615
826.485	22542
826.625	22767
826.765	22752
826.904	22656
827.044	22382
827.183	22398
827.323	22253
827.462	22402
827.601	22360
827.741	22272
827.88	22272
828.02	22280
828.159	22337
828.298	22405
828.437	22303
828.577	22177
828.716	22436
828.855	22360
828.994	22044
829.134	22082
829.273	22158
829.412	21895
829.551	21922
829.69	21918
829.829	22036
829.968	22185
830.107	22055
830.246	22090
830.385	21975
830.524	21930
830.663	21724
830.802	21675
830.941	21682
831.08	21587
831.219	21652
831.357	21781
831.496	21717
831.635	21698
831.774	21603
831.913	21378
832.051	21450
832.19	21306
832.329	21408
832.467	21264
832.606	21230
832.744	21180
832.883	21294
833.022	21287
833.16	21214
833.299	21283
833.437	21192
833.576	21192
833.714	21252
833.852	21214
833.991	21382
834.129	21275
834.267	21310
834.406	21154
834.544	21340
834.682	21310
834.821	21161
834.959	21416
835.097	21260
835.235	21321
835.373	21096
835.511	21348
835.65	21104
835.788	21142
835.926	21032
836.064	20857
836.202	21005
836.34	21131
836.478	21214
836.615	21020
836.753	21104
836.891	21245
837.029	21096
837.167	21074
837.305	20967
837.443	21013
837.58	21070
837.718	20979
837.856	21077
837.993	20975
838.131	20960
838.269	20853
838.406	20941
838.544	20815
838.681	20644
838.819	20484
838.956	20503
839.094	20473
839.231	20465
839.369	20549
839.506	20739
839.643	20765
839.781	20370
839.918	20286
840.055	20423
840.193	20278
840.33	20267
840.467	20412
840.604	20328
840.742	20549
840.879	20210
841.016	20317
841.153	20107
841.29	20351
841.427	20404
841.564	20313
841.701	20355
841.838	20294
841.975	20275
842.112	20218
842.249	20092
842.385	20062
842.522	20195
842.659	20111
842.796	20145
842.933	20027
843.069	19997
843.206	19989
843.343	20069
843.479	20134
843.616	20024
843.752	19849
843.889	19784
844.025	19909
844.162	19689
844.298	19993
844.435	19784
844.571	19696
844.708	19772
844.844	20005
844.98	19875
845.117	19769
845.253	19666
845.389	19685
845.525	19769
845.661	19696
845.798	19613
845.934	19655
846.07	19529
846.206	19616
846.342	19723
846.478	19510
846.614	19274
846.75	19225
846.886	19266
847.022	19362
847.158	19293
847.294	19377
847.429	19263
847.565	19320
847.701	19495
847.837	19034
847.972	18951
848.108	19137
848.244	18939
848.379	18882
848.515	18817
848.65	18833
848.786	18882
848.921	18810
849.057	18875
849.192	18970
849.328	18719
849.463	18878
849.598	18810
849.734	18764
849.869	18749
850.004	18506
850.14	18738
850.275	18513
850.41	18570
850.545	18410
850.68	18547
850.815	18635
850.95	18601
851.085	18661
851.22	18730
851.355	18658
851.49	18589
851.625	18452
851.76	18479
851.895	18350
852.03	18353
852.165	18471
852.299	18623
852.434	18544
852.569	18604
852.703	18509
852.838	18745
852.973	18677
853.107	18608
853.242	18509
853.376	18380
853.511	18300
853.645	18448
853.78	18547
853.914	18395
854.048	18285
854.183	18384
854.317	18376
854.451	18612
854.585	18350
854.72	18361
854.854	18490
854.988	18251
855.122	18372
855.256	18205
855.39	18285
855.524	18319
855.658	18452
855.792	18456
855.926	18486
856.06	18528
856.194	18429
856.327	18384
856.461	18384
856.595	18285
856.729	18353
856.862	18509
856.996	18399
857.13	18528
857.263	18456
857.397	18509
857.53	18285
857.664	18399
857.797	18414
857.931	18361
858.064	18479
858.197	18399
858.331	18346
858.464	18308
858.597	18296
858.731	18277
858.864	18289
858.997	18235
859.13	18251
859.263	18258
859.396	18475
859.529	18327
859.662	18319
859.795	18266
859.928	18270
860.061	18540
860.194	18559
860.327	18319
860.46	18285
860.592	18426
860.725	18372
860.858	18395
860.99	18224
861.123	18201
861.256	18232
861.388	18304
861.521	19012
861.653	18205
861.786	18121
861.918	18155
862.05	18258
862.183	18372
862.315	18429
862.447	18441
862.58	18228
862.712	18121
862.844	17954
862.976	18117
863.108	18171
863.24	18498
863.372	18030
863.504	18057
863.636	18106
863.768	18117
863.9	18041
864.032	18045
864.164	17992
864.296	18091
864.428	18152
864.559	18102
864.691	18178
864.823	18030
864.954	18045
865.086	17961
865.217	18041
865.349	17923
865.48	18030
865.612	18007
865.743	18178
865.875	17904
866.006	17992
866.137	18022
866.269	18041
866.4	17939
866.531	17935
866.662	17954
866.793	17958
866.924	18007
867.055	17977
867.186	17992
867.317	17920
867.448	17889
867.579	17878
867.71	17813
867.841	17897
867.972	18034
868.103	17984
868.233	18011
868.364	17977
868.495	17992
868.625	18057
868.756	18292
868.886	18163
869.017	18254
869.147	18296
869.278	18361
869.408	18194
869.539	18129
869.669	18228
869.799	18251
869.929	18296
870.06	18365
870.19	18513
870.32	18490
870.45	18578
870.58	18551
870.71	18757
870.84	18673
870.97	18547
871.1	18585
871.23	18692
871.36	18837
871.489	18635
871.619	18692
871.749	18787
871.879	18734
872.008	18897
872.138	18779
872.267	18745
872.397	18677
872.526	18707
872.656	18604
872.785	18608
872.915	18806
873.044	18859
873.173	18795
873.303	18856
873.432	18894
873.561	18890
873.69	18863
873.819	18863
873.948	18886
874.077	18840
874.206	18768
874.335	18806
874.464	19019
874.593	19080
874.722	19023
874.851	19050
874.979	19034
875.108	19175
875.237	18958
875.365	18954
875.494	19031
875.623	19198
875.751	19091
875.88	19065
876.008	19285
876.136	19213
876.265	19495
876.393	19620
876.521	19537
876.65	19525
876.778	19472
876.906	19487
877.034	19350
877.162	19460
877.29	19388
877.418	19483
877.546	19457
877.674	19464
877.802	19331
877.93	19426
878.058	19457
878.185	19335
878.313	19445
878.441	19396
878.568	19358
878.696	19491
878.824	19559
878.951	19491
879.079	19685
879.206	19799
879.333	19662
879.461	19632
879.588	19586
879.715	19643
879.842	19769
879.97	19624
880.097	19419
880.224	19289
880.351	19327
880.478	19289
880.605	19297
880.732	19358
880.859	19483
880.986	19316
881.112	19285
881.239	19213
881.366	19114
881.493	18901
881.619	18958
881.746	18905
881.872	18958
881.999	18890
882.125	18840
882.252	19015
882.378	18901
882.505	19004
882.631	18890
882.757	18768
882.883	18688
883.01	18753
883.136	18631
883.262	18566
883.388	18521
883.514	18722
883.64	18768
883.766	18669
883.892	18467
884.018	18612
884.143	18745
884.269	18700
884.395	18426
884.52	18357
884.646	18486
884.772	18311
884.897	18281
885.023	18426
885.148	18384
885.274	18502
885.399	18559
885.524	18323
885.65	18365
885.775	18327
885.9	18357
886.025	18399
886.15	18327
886.275	18308
886.4	18330
886.525	18441
886.65	18155
886.775	18289
886.9	18429
887.025	18547
887.149	18243
887.274	18102
887.399	18076
887.523	18110
887.648	17988
887.773	17942
887.897	18224
888.021	18273
888.146	18057
888.27	18174
888.395	18224
888.519	18095
888.643	18232
888.767	18129
888.891	18068
889.015	17855
889.139	17984
889.263	17912
889.387	17935
889.511	18186
889.635	18114
889.759	17893
889.883	17878
890.006	17923
890.13	18117
890.254	17840
890.377	17882
890.501	17699
890.624	17611
890.748	17824
890.871	17634
890.995	17535
891.118	17429
891.241	17566
891.364	17585
891.488	17710
891.611	17516
891.734	17638
891.857	17627
891.98	17566
892.103	17585
892.226	17452
892.349	17505
892.471	17505
892.594	17524
892.717	17562
892.839	17455
892.962	17425
893.085	17657
893.207	17562
893.33	17490
893.452	17455
893.575	17600
893.697	17570
893.819	17665
893.941	17638
894.064	17699
894.186	17490
894.308	17398
894.43	17634
894.552	17611
894.674	17551
894.796	17459
894.918	17421
895.04	17425
895.161	17630
895.283	17482
895.405	17512
895.526	17619
895.648	17581
895.769	17600
895.891	17646
896.012	17657
896.134	17615
896.255	17562
896.376	17608
896.498	17619
896.619	17592
896.74	17577
896.861	17680
896.982	17908
897.103	18019
897.224	17855
897.345	17889
897.466	17748
897.587	17874
897.708	17939
897.828	17851
897.949	17805
898.07	17695
898.19	17836
898.311	17912
898.431	17821
898.552	17866
898.672	17946
898.792	17939
898.913	17737
899.033	17649
899.153	17649
899.273	17528
899.393	17608
899.513	17623
899.633	17642
899.753	17543
899.873	17554
899.993	17634
900.113	17573
900.232	17646
900.352	17528
900.472	17414
900.591	17398
900.711	17356
900.83	17356
900.95	17558
901.069	17554
901.189	17356
901.308	17083
901.427	17086
901.546	17071
901.665	17079
901.784	17166
901.904	16858
902.023	16771
902.141	16653
902.26	16550
902.379	16485
902.498	16500
902.617	16493
902.735	16615
902.854	16611
902.973	16527
903.091	16238
903.21	16268
903.328	16253
903.446	16090
903.565	16078
903.683	16086
903.801	16029
903.919	16063
904.038	16120
904.156	15949
904.274	15892
904.392	15922
904.51	15911
904.627	15850
904.745	15922
904.863	15972
904.981	15682
905.098	15534
905.216	15492
905.334	15515
905.451	15488
905.569	15587
905.686	15637
905.803	15500
905.921	15310
906.038	15401
906.155	15401
906.272	15218
906.389	15252
906.506	15169
906.623	15055
906.74	15017
906.857	14948
906.974	14986
907.091	15058
907.208	15195
907.324	15036
907.441	15036
907.557	14914
907.674	14872
907.79	14788
907.907	14739
908.023	14849
908.139	14864
908.256	14754
908.372	14777
908.488	14625
908.604	14659
908.72	14454
908.836	14541
908.952	14385
909.068	14499
909.184	14636
909.3	14503
909.415	14560
909.531	14495
909.647	14370
909.762	14191
909.878	14126
909.993	14248
910.108	14161
910.224	14168
910.339	14218
910.454	14157
910.57	14031
910.685	13917
910.8	14290
910.915	14157
911.03	14088
911.145	13841
911.259	13807
911.374	13883
911.489	13830
911.604	13731
911.718	13567
911.833	13677
911.947	13586
912.062	13411
912.176	13651
912.291	13601
912.405	13540
912.519	13772
912.633	13727
912.748	13693
912.862	13514
912.976	13476
913.09	13381
913.204	13400
913.318	13518
913.431	13556
913.545	13487
913.659	13491
913.772	13403
913.886	13327
914	13255
914.113	13365
914.226	13388
914.34	13438
914.453	13118
914.566	13339
914.68	13213
914.793	13160
914.906	13012
915.019	12966
915.132	12871
915.245	12905
915.358	13000
915.47	13019
915.583	12962
915.696	13038
915.809	13129
915.921	13065
916.034	12916
916.146	12897
916.259	12825
916.371	12920
916.483	13015
916.595	12890
916.708	12806
916.82	12791
916.932	12837
917.044	12738
917.156	12745
917.268	12662
917.38	12700
917.491	12627
917.603	12650
917.715	12760
917.826	12757
917.938	12612
918.049	12509
918.161	12631
918.272	12757
918.384	12726
918.495	12741
918.606	12536
918.717	12441
918.828	12563
918.939	12559
919.05	12376
919.161	12452
919.272	12308
919.383	12281
919.494	12513
919.604	12642
919.715	12513
919.826	12380
919.936	12513
920.047	12635
920.157	12475
920.267	12662
920.378	12388
920.488	12486
920.598	12608
920.708	12795
920.818	12559
920.928	12551
921.038	12662
921.148	12658
921.258	12410
921.368	12384
921.477	12144
921.587	12220
921.697	12159
921.806	12281
921.916	12201
922.025	11912
922.134	11840
922.244	11859
922.353	11904
922.462	11882
922.571	11707
922.68	11592
922.789	11532
922.898	11581
923.007	11516
923.116	11672
923.224	11551
923.333	11440
923.442	11387
923.55	11440
923.659	11356
923.767	11497
923.876	11395
923.984	11417
924.092	11311
924.201	11429
924.309	11292
924.417	11379
924.525	11311
924.633	11269
924.741	12182
924.849	11143
924.956	11265
925.064	11105
925.172	10991
925.279	11143
925.387	11102
925.494	11113
925.602	11208
925.709	11136
925.816	10942
925.924	11071
926.031	11174
926.138	11048
926.245	11140
926.352	10965
926.459	11098
926.566	11102
926.673	10904
926.779	10858
926.886	10949
926.993	10805
927.099	10645
927.206	10736
927.312	10641
927.419	10782
927.525	10649
927.631	10767
927.737	10607
927.843	10569
927.95	10485
928.056	10577
928.162	10607
928.267	10702
928.373	11159
928.479	10630
928.585	10451
928.69	10584
928.796	10569
928.901	10470
929.007	10322
929.112	10535
929.218	10382
929.323	10348
929.428	10329
929.533	10459
929.638	10299
929.743	10333
929.848	10265
929.953	10375
930.058	10242
930.163	10067
930.267	10135
930.372	10219
930.477	10044
930.581	10306
930.685	10143
930.79	9979
930.894	10120
930.998	10013
931.103	10120
931.207	9701
931.311	9747
931.415	9660
931.519	9439
931.623	9428
