Data from test_V78500241_3101.txt Node
Date: Fri Mar 25 14:55:18 CST 2022
User: usil
Spectrometer: V785-0024
Trigger mode: 0
Integration Time (sec): 4.000000E-1
Scans to average: 1
Nonlinearity correction enabled: false
Boxcar width: 0
Storing dark spectrum: false
XAxis mode: Wavelengths
Number of Pixels in Spectrum: 1024
>>>>>Begin Spectral Data<<<<<
801.071	22029
801.214	21880
801.356	21663
801.499	21576
801.641	21435
801.783	21374
801.926	21447
802.068	21325
802.211	21272
802.353	21207
802.496	20910
802.638	20906
802.78	20914
802.923	20872
803.065	20769
803.208	20678
803.35	20651
803.492	20830
803.635	20842
803.777	20807
803.919	20796
804.061	20998
804.204	20811
804.346	20724
804.488	20564
804.63	20701
804.773	20609
804.915	20678
805.057	20765
805.199	20625
805.341	20762
805.483	20724
805.626	20689
805.768	20507
805.91	20762
806.052	20606
806.194	20461
806.336	21036
806.478	20750
806.62	20594
806.762	20815
806.904	20876
807.046	21009
807.188	20979
807.33	20921
807.472	21043
807.614	20899
807.756	21005
807.898	20830
808.04	20686
808.182	20720
808.324	20693
808.465	20750
808.607	20933
808.749	21093
808.891	21157
809.033	21142
809.174	21157
809.316	20857
809.458	21096
809.6	21047
809.741	20998
809.883	21100
810.025	21211
810.166	21180
810.308	21169
810.45	21039
810.591	21028
810.733	20891
810.875	20842
811.016	20769
811.158	20560
811.299	20857
811.441	20921
811.582	20830
811.724	20765
811.865	20750
812.007	20823
812.148	20731
812.29	20773
812.431	20925
812.573	21169
812.714	21249
812.855	21283
812.997	21424
813.138	21462
813.279	21481
813.421	21340
813.562	21241
813.703	21077
813.845	20960
813.986	20705
814.127	20564
814.268	20400
814.41	20256
814.551	20381
814.692	20473
814.833	20206
814.974	20347
815.115	20252
815.256	20164
815.397	20290
815.539	20225
815.68	20161
815.821	20081
815.962	20043
816.103	20008
816.244	19955
816.385	19769
816.526	19727
816.666	19651
816.807	19502
816.948	19548
817.089	19616
817.23	19518
817.371	19483
817.512	19426
817.653	19403
817.793	19392
817.934	19567
818.075	19468
818.216	19362
818.356	19403
818.497	19346
818.638	19141
818.778	19156
818.919	19095
819.06	19221
819.2	19285
819.341	19346
819.481	19293
819.622	19464
819.762	19616
819.903	19590
820.043	19525
820.184	19331
820.324	19487
820.465	19586
820.605	19445
820.746	19396
820.886	19331
821.026	19381
821.167	19457
821.307	19422
821.447	19457
821.588	19308
821.728	19080
821.868	19023
822.008	18947
822.149	18810
822.289	18779
822.429	18593
822.569	18521
822.709	18563
822.849	18372
822.99	18372
823.13	18319
823.27	18323
823.41	18182
823.55	17965
823.69	18197
823.83	18136
823.97	18064
824.11	17908
824.25	17931
824.389	17980
824.529	17973
824.669	17942
824.809	18136
824.949	17969
825.089	17996
825.228	17878
825.368	17764
825.508	17646
825.648	17722
825.787	17710
825.927	17752
826.067	17634
826.206	17752
826.346	17707
826.485	17714
826.625	17707
826.765	17745
826.904	17737
827.044	17486
827.183	17364
827.323	17353
827.462	17524
827.601	17337
827.741	17326
827.88	17436
828.02	17277
828.159	17216
828.298	17414
828.437	17364
828.577	17376
828.716	17356
828.855	17193
828.994	17174
829.134	17033
829.273	17212
829.412	17178
829.551	17056
829.69	17113
829.829	17166
829.968	17315
830.107	17140
830.246	17151
830.385	17064
830.524	16995
830.663	16881
830.802	16786
830.941	16820
831.08	16740
831.219	16831
831.357	16812
831.496	16987
831.635	16805
831.774	16630
831.913	16622
832.051	16622
832.19	16531
832.329	16596
832.467	16432
832.606	16542
832.744	16390
832.883	16504
833.022	16352
833.16	16402
833.299	16413
833.437	16440
833.576	16474
833.714	16519
833.852	16527
833.991	16474
834.129	16637
834.267	16611
834.406	16504
834.544	16588
834.682	16516
834.821	16573
834.959	16649
835.097	16485
835.235	16523
835.373	16580
835.511	16584
835.65	16375
835.788	16390
835.926	16219
836.064	16200
836.202	16257
836.34	16428
836.478	16519
836.615	16382
836.753	16367
836.891	16519
837.029	16531
837.167	16325
837.305	16451
837.443	16314
837.58	16230
837.718	16375
837.856	16230
837.993	16234
838.131	16223
838.269	16188
838.406	16280
838.544	16143
838.681	15987
838.819	15911
838.956	15831
839.094	15793
839.231	15934
839.369	15941
839.506	16257
839.643	16048
839.781	15785
839.918	15808
840.055	15797
840.193	15728
840.33	15686
840.467	15804
840.604	15781
840.742	15998
840.879	15736
841.016	15804
841.153	15660
841.29	15899
841.427	15831
841.564	15789
841.701	15819
841.838	15747
841.975	15679
842.112	15766
842.249	15705
842.385	15519
842.522	15785
842.659	15660
842.796	15644
842.933	15580
843.069	15534
843.206	15519
843.343	15694
843.479	15747
843.616	15614
843.752	15336
843.889	15405
844.025	15492
844.162	15348
844.298	15534
844.435	15332
844.571	15405
844.708	15416
844.844	15618
844.98	15492
845.117	15618
845.253	15317
845.389	15336
845.525	15310
845.661	15279
845.798	15211
845.934	15298
846.07	15180
846.206	15245
846.342	15260
846.478	15077
846.614	14971
846.75	14921
846.886	14845
847.022	15013
847.158	15024
847.294	14956
847.429	15001
847.565	14967
847.701	15245
847.837	14746
847.972	14674
848.108	14800
848.244	14689
848.379	14594
848.515	14526
848.65	14526
848.786	14587
848.921	14571
849.057	14632
849.192	14705
849.328	14598
849.463	14545
849.598	14590
849.734	14461
849.869	14389
850.004	14324
850.14	14450
850.275	14347
850.41	14317
850.545	14294
850.68	14233
850.815	14290
850.95	14366
851.085	14473
851.22	14419
851.355	14347
851.49	14263
851.625	14282
851.76	14286
851.895	14225
852.03	14134
852.165	14298
852.299	14317
852.434	14374
852.569	14347
852.703	14248
852.838	14290
852.973	14442
853.107	14305
853.242	14271
853.376	14248
853.511	14149
853.645	14202
853.78	14385
853.914	14172
854.048	14183
854.183	14138
854.317	14172
854.451	14252
854.585	14126
854.72	14142
854.854	14244
854.988	14119
855.122	14157
855.256	14138
855.39	14153
855.524	14252
855.658	14244
855.792	14218
855.926	14149
856.06	14275
856.194	14294
856.327	14233
856.461	14134
856.595	14149
856.729	14256
856.862	14351
856.996	14305
857.13	14259
857.263	14237
857.397	14248
857.53	14210
857.664	14202
857.797	14183
857.931	14381
858.064	14244
858.197	14336
858.331	14187
858.464	14073
858.597	14065
858.731	14130
858.864	14126
858.997	14168
859.13	14172
859.263	14225
859.396	14195
859.529	14267
859.662	14115
859.795	14092
859.928	14142
860.061	14298
860.194	14404
860.327	14286
860.46	14088
860.592	14233
860.725	14320
860.858	14286
860.99	14183
861.123	14183
861.256	14164
861.388	14199
861.521	14788
861.653	14050
861.786	14046
861.918	14054
862.05	14195
862.183	14145
862.315	14161
862.447	14221
862.58	14081
862.712	13902
862.844	13959
862.976	14020
863.108	13993
863.24	14324
863.372	13887
863.504	14001
863.636	13898
863.768	13986
863.9	13974
864.032	13963
864.164	13860
864.296	14077
864.428	14001
864.559	14081
864.691	14077
864.823	14065
864.954	14046
865.086	13974
865.217	14020
865.349	13788
865.48	13978
865.612	13940
865.743	14050
865.875	13982
866.006	13871
866.137	13871
866.269	13947
866.4	13936
866.531	13864
866.662	13917
866.793	13788
866.924	13913
867.055	14016
867.186	13906
867.317	13879
867.448	13883
867.579	13837
867.71	13849
867.841	13837
867.972	13936
868.103	13917
868.233	13906
868.364	13925
868.495	14005
868.625	14202
868.756	14218
868.886	14157
869.017	14142
869.147	14244
869.278	14267
869.408	14161
869.539	14138
869.669	14294
869.799	14202
869.929	14286
870.06	14332
870.19	14503
870.32	14415
870.45	14549
870.58	14606
870.71	14705
870.84	14705
870.97	14640
871.1	14594
871.23	14815
871.36	14739
871.489	14705
871.619	14777
871.749	14735
871.879	14842
872.008	14861
872.138	14804
872.267	14830
872.397	14640
872.526	14621
872.656	14621
872.785	14697
872.915	14830
873.044	14834
873.173	14796
873.303	14872
873.432	14800
873.561	14864
873.69	14944
873.819	14853
873.948	14948
874.077	14796
874.206	14754
874.335	14815
874.464	15043
874.593	15116
874.722	15230
874.851	15173
874.979	15211
875.108	15382
875.237	15036
875.365	15051
875.494	15043
875.623	15245
875.751	15100
875.88	15222
876.008	15389
876.136	15454
876.265	15584
876.393	15743
876.521	15648
876.65	15625
876.778	15648
876.906	15515
877.034	15534
877.162	15542
877.29	15629
877.418	15671
877.546	15526
877.674	15629
877.802	15614
877.93	15595
878.058	15454
878.185	15485
878.313	15595
878.441	15553
878.568	15473
878.696	15538
878.824	15625
878.951	15705
879.079	15812
879.206	15804
879.333	15713
879.461	15618
879.588	15762
879.715	15705
879.842	15888
879.97	15576
880.097	15473
880.224	15386
880.351	15485
880.478	15462
880.605	15389
880.732	15458
880.859	15625
880.986	15435
881.112	15469
881.239	15340
881.366	15214
881.493	15089
881.619	15089
881.746	15161
881.872	15028
881.999	15036
882.125	15100
882.252	15199
882.378	15081
882.505	15291
882.631	14910
882.757	15001
882.883	14941
883.01	14815
883.136	14895
883.262	14883
883.388	14773
883.514	14971
883.64	14986
883.766	14853
883.892	14720
884.018	14731
884.143	14952
884.269	14941
884.395	14724
884.52	14587
884.646	14617
884.772	14533
884.897	14530
885.023	14590
885.148	14743
885.274	14804
885.399	14640
885.524	14625
885.65	14587
885.775	14663
885.9	14587
886.025	14735
886.15	14693
886.275	14545
886.4	14541
886.525	14560
886.65	14606
886.775	14503
886.9	14701
887.025	14876
887.149	14602
887.274	14495
887.399	14313
887.523	14419
887.648	14389
887.773	14317
887.897	14358
888.021	14590
888.146	14320
888.27	14507
888.395	14552
888.519	14514
888.643	14499
888.767	14495
888.891	14484
889.015	14248
889.139	14313
889.263	14271
889.387	14317
889.511	14476
889.635	14408
889.759	14271
889.883	14347
890.006	14282
890.13	14381
890.254	14275
890.377	14294
890.501	14092
890.624	14130
890.748	14214
890.871	14069
890.995	13944
891.118	13963
891.241	13902
891.364	14153
891.488	14172
891.611	14031
891.734	13978
891.857	14039
891.98	14111
892.103	13993
892.226	13997
892.349	14081
892.471	13883
892.594	13982
892.717	14027
892.839	13944
892.962	14111
893.085	14183
893.207	14039
893.33	13906
893.452	13890
893.575	13993
893.697	13963
893.819	14237
893.941	14210
894.064	14164
894.186	13928
894.308	14054
894.43	14065
894.552	14199
894.674	14031
894.796	13978
894.918	14092
895.04	14073
895.161	14145
895.283	14183
895.405	14069
895.526	14077
895.648	14164
895.769	14168
895.891	14180
896.012	14218
896.134	14199
896.255	14237
896.376	14145
896.498	14172
896.619	14282
896.74	14138
896.861	14259
896.982	14533
897.103	14739
897.224	14465
897.345	14450
897.466	14393
897.587	14442
897.708	14568
897.828	14495
897.949	14412
898.07	14343
898.19	14549
898.311	14571
898.431	14484
898.552	14533
898.672	14568
898.792	14648
898.913	14644
899.033	14385
899.153	14389
899.273	14267
899.393	14347
899.513	14442
899.633	14328
899.753	14370
899.873	14442
899.993	14343
900.113	14461
900.232	14499
900.352	14419
900.472	14301
900.591	14259
900.711	14298
900.83	14168
900.95	14286
901.069	14427
901.189	14244
901.308	13955
901.427	13955
901.546	13963
901.665	13944
901.784	13989
901.904	13807
902.023	13712
902.141	13571
902.26	13502
902.379	13601
902.498	13533
902.617	13430
902.735	13487
902.854	13499
902.973	13441
903.091	13202
903.21	13282
903.328	13266
903.446	13088
903.565	13050
903.683	13141
903.801	13023
903.919	12985
904.038	13008
904.156	12909
904.274	12901
904.392	12894
904.51	12913
904.627	12962
904.745	12928
904.863	12981
904.981	12658
905.098	12551
905.216	12631
905.334	12616
905.451	12551
905.569	12563
905.686	12631
905.803	12578
905.921	12448
906.038	12570
906.155	12555
906.272	12220
906.389	12357
906.506	12136
906.623	12220
906.74	12079
906.857	12041
906.974	12072
907.091	12296
907.208	12353
907.324	12182
907.441	12098
907.557	11912
907.674	11942
907.79	11885
907.907	11863
908.023	12007
908.139	11927
908.256	11878
908.372	11904
908.488	11767
908.604	11733
908.72	11596
908.836	11714
908.952	11668
909.068	11729
909.184	11756
909.3	11741
909.415	11946
909.531	11783
909.647	11482
909.762	11535
909.878	11478
909.993	11467
910.108	11516
910.224	11448
910.339	11528
910.454	11360
910.57	11356
910.685	11318
910.8	11505
910.915	11448
911.03	11334
911.145	11258
911.259	11170
911.374	11197
911.489	11041
911.604	11048
911.718	11071
911.833	10965
911.947	10824
912.062	10889
912.176	10911
912.291	10976
912.405	10889
912.519	11166
912.633	11147
912.748	10976
912.862	10915
912.976	10812
913.09	10725
913.204	10778
913.318	10790
913.431	10953
913.545	10919
913.659	10908
913.772	10869
913.886	10736
914	10706
914.113	10763
914.226	10904
914.34	10771
914.453	10645
914.566	10710
914.68	10664
914.793	10634
914.906	10481
915.019	10379
915.132	10352
915.245	10367
915.358	10470
915.47	10500
915.583	10493
915.696	10531
915.809	10596
915.921	10561
916.034	10432
916.146	10367
916.259	10352
916.371	10493
916.483	10432
916.595	10363
916.708	10382
916.82	10390
916.932	10379
917.044	10405
917.156	10371
917.268	10215
917.38	10303
917.491	10265
917.603	10329
917.715	10344
917.826	10386
917.938	10261
918.049	10139
918.161	10314
918.272	10466
918.384	10428
918.495	10280
918.606	10185
918.717	10097
918.828	10234
918.939	10227
919.05	10063
919.161	10139
919.272	9926
919.383	10013
919.494	10314
919.604	10352
919.715	10223
919.826	10143
919.936	10071
920.047	10276
920.157	10135
920.267	10394
920.378	10223
920.488	10173
920.598	10379
920.708	10497
920.818	10386
920.928	10443
921.038	10527
921.148	10485
921.258	10310
921.368	10173
921.477	10051
921.587	10067
921.697	9895
921.806	10067
921.916	9876
922.025	9770
922.134	9743
922.244	9709
922.353	9823
922.462	9675
922.571	9595
922.68	9397
922.789	9351
922.898	9450
923.007	9428
923.116	9485
923.224	9511
923.333	9336
923.442	9317
923.55	9302
923.659	9336
923.767	9412
923.876	9272
923.984	9363
924.092	9294
924.201	9321
924.309	9275
924.417	9291
924.525	9226
924.633	9272
924.741	10086
924.849	9108
924.956	9249
925.064	9097
925.172	8963
925.279	9100
925.387	9100
925.494	9142
925.602	9287
925.709	9165
925.816	9066
925.924	9081
926.031	9169
926.138	9058
926.245	9104
926.352	9097
926.459	9097
926.566	9157
926.673	9028
926.779	8960
926.886	8872
926.993	8845
927.099	8811
927.206	8720
927.312	8754
927.419	8899
927.525	8834
927.631	8826
927.737	8777
927.843	8610
927.95	8648
928.056	8689
928.162	8746
928.267	8800
928.373	9382
928.479	8853
928.585	8560
928.69	8686
928.796	8788
928.901	8629
929.007	8522
929.112	8583
929.218	8560
929.323	8541
929.428	8541
929.533	8610
929.638	8461
929.743	8541
929.848	8560
929.953	8526
930.058	8473
930.163	8259
930.267	8355
930.372	8522
930.477	8252
930.581	8571
930.685	8446
930.79	8282
930.894	8290
930.998	8233
931.103	8393
931.207	8024
931.311	8054
931.415	7947
931.519	7750
931.623	7822
