Data from test_V78500241_3408.txt Node
Date: Fri Mar 25 14:57:26 CST 2022
User: usil
Spectrometer: V785-0024
Trigger mode: 0
Integration Time (sec): 4.000000E-1
Scans to average: 1
Nonlinearity correction enabled: false
Boxcar width: 0
Storing dark spectrum: false
XAxis mode: Wavelengths
Number of Pixels in Spectrum: 1024
>>>>>Begin Spectral Data<<<<<
801.071	21876
801.214	21876
801.356	21580
801.499	21572
801.641	21291
801.783	21222
801.926	21340
802.068	21287
802.211	21173
802.353	21085
802.496	20887
802.638	20788
802.78	20701
802.923	20807
803.065	20602
803.208	20781
803.35	20674
803.492	20781
803.635	20697
803.777	20644
803.919	20724
804.061	20975
804.204	20800
804.346	20503
804.488	20442
804.63	20640
804.773	20552
804.915	20412
805.057	20712
805.199	20549
805.341	20495
805.483	20594
805.626	20632
805.768	20404
805.91	20606
806.052	20545
806.194	20457
806.336	20750
806.478	20469
806.62	20507
806.762	20560
806.904	20720
807.046	20876
807.188	20918
807.33	20838
807.472	20804
807.614	20781
807.756	20765
807.898	20621
808.04	20617
808.182	20625
808.324	20659
808.465	20575
808.607	20762
808.749	20830
808.891	21036
809.033	21028
809.174	20952
809.316	20769
809.458	20895
809.6	20762
809.741	20952
809.883	21036
810.025	21009
810.166	21036
810.308	20963
810.45	20956
810.591	21013
810.733	20705
810.875	20739
811.016	20583
811.158	20583
811.299	20788
811.441	20765
811.582	20724
811.724	20663
811.865	20575
812.007	20625
812.148	20625
812.29	20636
812.431	20956
812.573	20830
812.714	20986
812.855	21081
812.997	21302
813.138	21382
813.279	21325
813.421	21112
813.562	21066
813.703	20788
813.845	20765
813.986	20495
814.127	20438
814.268	20191
814.41	20324
814.551	20206
814.692	20294
814.833	20008
814.974	20122
815.115	20084
815.256	20062
815.397	19887
815.539	19993
815.68	19913
815.821	20012
815.962	19841
816.103	19727
816.244	19852
816.385	19620
816.526	19674
816.666	19506
816.807	19259
816.948	19392
817.089	19282
817.23	19392
817.371	19282
817.512	19358
817.653	19377
817.793	19335
817.934	19350
818.075	19213
818.216	19331
818.356	19343
818.497	19194
818.638	18890
818.778	18981
818.919	18970
819.06	19095
819.2	19103
819.341	19266
819.481	19274
819.622	19327
819.762	19552
819.903	19426
820.043	19377
820.184	19346
820.324	19293
820.465	19308
820.605	19301
820.746	19415
820.886	19213
821.026	19164
821.167	19392
821.307	19457
821.447	19251
821.588	19107
821.728	19015
821.868	18901
822.008	18776
822.149	18734
822.289	18730
822.429	18509
822.569	18407
822.709	18395
822.849	18323
822.99	18174
823.13	18281
823.27	18186
823.41	18022
823.55	17946
823.69	18026
823.83	18038
823.97	17897
824.11	17870
824.25	17790
824.389	17897
824.529	17851
824.669	17824
824.809	17847
824.949	17843
825.089	17824
825.228	17748
825.368	17718
825.508	17581
825.648	17577
825.787	17615
825.927	17600
826.067	17600
826.206	17455
826.346	17600
826.485	17615
826.625	17554
826.765	17718
826.904	17623
827.044	17292
827.183	17318
827.323	17254
827.462	17417
827.601	17368
827.741	17181
827.88	17303
828.02	17159
828.159	17227
828.298	17220
828.437	17429
828.577	17208
828.716	17414
828.855	17242
828.994	16961
829.134	17022
829.273	17067
829.412	17018
829.551	16968
829.69	16984
829.829	17094
829.968	17105
830.107	17079
830.246	17048
830.385	17014
830.524	16919
830.663	16862
830.802	16710
830.941	16653
831.08	16691
831.219	16752
831.357	16660
831.496	16801
831.635	16607
831.774	16603
831.913	16622
832.051	16443
832.19	16405
832.329	16493
832.467	16333
832.606	16329
832.744	16291
832.883	16352
833.022	16291
833.16	16409
833.299	16363
833.437	16394
833.576	16398
833.714	16371
833.852	16447
833.991	16432
834.129	16432
834.267	16455
834.406	16447
834.544	16386
834.682	16421
834.821	16470
834.959	16519
835.097	16405
835.235	16523
835.373	16386
835.511	16432
835.65	16371
835.788	16306
835.926	16169
836.064	16143
836.202	16082
836.34	16276
836.478	16413
836.615	16310
836.753	16394
836.891	16360
837.029	16379
837.167	16249
837.305	16249
837.443	16207
837.58	16215
837.718	16207
837.856	16215
837.993	16128
838.131	16173
838.269	16181
838.406	16185
838.544	16090
838.681	15998
838.819	15861
838.956	15743
839.094	15797
839.231	15762
839.369	15880
839.506	16013
839.643	16021
839.781	15739
839.918	15717
840.055	15819
840.193	15732
840.33	15743
840.467	15751
840.604	15766
840.742	15991
840.879	15618
841.016	15686
841.153	15675
841.29	15888
841.427	15713
841.564	15739
841.701	15800
841.838	15701
841.975	15564
842.112	15526
842.249	15500
842.385	15481
842.522	15694
842.659	15496
842.796	15492
842.933	15538
843.069	15454
843.206	15469
843.343	15622
843.479	15553
843.616	15511
843.752	15283
843.889	15279
844.025	15454
844.162	15317
844.298	15485
844.435	15294
844.571	15374
844.708	15389
844.844	15523
844.98	15511
845.117	15447
845.253	15294
845.389	15218
845.525	15294
845.661	15226
845.798	15154
845.934	15173
846.07	15165
846.206	15138
846.342	15272
846.478	15081
846.614	14960
846.75	14895
846.886	14796
847.022	14967
847.158	14906
847.294	14918
847.429	14937
847.565	14762
847.701	15195
847.837	14648
847.972	14663
848.108	14758
848.244	14735
848.379	14533
848.515	14404
848.65	14473
848.786	14476
848.921	14537
849.057	14617
849.192	14670
849.328	14598
849.463	14431
849.598	14454
849.734	14362
849.869	14320
850.004	14225
850.14	14313
850.275	14282
850.41	14168
850.545	14157
850.68	14134
850.815	14317
850.95	14206
851.085	14408
851.22	14298
851.355	14358
851.49	14229
851.625	14145
851.76	14271
851.895	14191
852.03	14005
852.165	14244
852.299	14271
852.434	14336
852.569	14320
852.703	14259
852.838	14324
852.973	14438
853.107	14309
853.242	14240
853.376	14130
853.511	13986
853.645	14058
853.78	14324
853.914	14229
854.048	14187
854.183	14126
854.317	14172
854.451	14252
854.585	14039
854.72	14027
854.854	14248
854.988	14119
855.122	14043
855.256	14005
855.39	14206
855.524	14176
855.658	14187
855.792	14172
855.926	14123
856.06	14210
856.194	14343
856.327	14172
856.461	14161
856.595	14065
856.729	14062
856.862	14286
856.996	14176
857.13	14233
857.263	14240
857.397	14180
857.53	14123
857.664	14161
857.797	14214
857.931	14301
858.064	14149
858.197	14237
858.331	14180
858.464	14069
858.597	13936
858.731	14073
858.864	14138
858.997	14126
859.13	14130
859.263	14218
859.396	14210
859.529	14088
859.662	14096
859.795	14115
859.928	14145
860.061	14332
860.194	14351
860.327	14267
860.46	13997
860.592	14221
860.725	14259
860.858	14294
860.99	14149
861.123	14073
861.256	14153
861.388	14256
861.521	14678
861.653	13955
861.786	13963
861.918	14005
862.05	14077
862.183	13997
862.315	14134
862.447	14180
862.58	14065
862.712	13932
862.844	13909
862.976	13997
863.108	13921
863.24	14385
863.372	13856
863.504	13940
863.636	13928
863.768	13902
863.9	13951
864.032	13826
864.164	13917
864.296	13944
864.428	14012
864.559	14027
864.691	13963
864.823	14016
864.954	13928
865.086	13875
865.217	13917
865.349	13841
865.48	13860
865.612	13868
865.743	14088
865.875	13887
866.006	13917
866.137	13898
866.269	13944
866.4	13864
866.531	13879
866.662	13795
866.793	13826
866.924	13849
867.055	13940
867.186	13932
867.317	13799
867.448	13765
867.579	13852
867.71	13845
867.841	13776
867.972	13868
868.103	13909
868.233	13852
868.364	13871
868.495	13963
868.625	14100
868.756	14153
868.886	14126
869.017	14107
869.147	14256
869.278	14317
869.408	14271
869.539	14088
869.669	14282
869.799	14187
869.929	14317
870.06	14252
870.19	14454
870.32	14374
870.45	14423
870.58	14590
870.71	14731
870.84	14674
870.97	14530
871.1	14465
871.23	14762
871.36	14788
871.489	14613
871.619	14769
871.749	14754
871.879	14743
872.008	14815
872.138	14826
872.267	14708
872.397	14697
872.526	14564
872.656	14549
872.785	14632
872.915	14724
873.044	14864
873.173	14899
873.303	14872
873.432	14876
873.561	14887
873.69	14849
873.819	14880
873.948	14857
874.077	14773
874.206	14773
874.335	14864
874.464	14933
874.593	15119
874.722	15005
874.851	15074
874.979	15116
875.108	15169
875.237	15089
875.365	14963
875.494	15036
875.623	15211
875.751	15017
875.88	15165
876.008	15325
876.136	15378
876.265	15561
876.393	15679
876.521	15610
876.65	15584
876.778	15526
876.906	15473
877.034	15454
877.162	15500
877.29	15538
877.418	15595
877.546	15549
877.674	15591
877.802	15538
877.93	15542
878.058	15542
878.185	15435
878.313	15553
878.441	15549
878.568	15367
878.696	15431
878.824	15534
878.951	15675
879.079	15751
879.206	15918
879.333	15743
879.461	15561
879.588	15671
879.715	15724
879.842	15797
879.97	15629
880.097	15374
880.224	15294
880.351	15351
880.478	15382
880.605	15393
880.732	15443
880.859	15633
880.986	15447
881.112	15397
881.239	15268
881.366	15097
881.493	15070
881.619	15055
881.746	15070
881.872	15108
881.999	14925
882.125	14918
882.252	15058
882.378	15150
882.505	15180
882.631	14967
882.757	14864
882.883	15024
883.01	14895
883.136	14746
883.262	14750
883.388	14636
883.514	14963
883.64	14895
883.766	14823
883.892	14606
884.018	14655
884.143	14834
884.269	14902
884.395	14564
884.52	14495
884.646	14621
884.772	14461
884.897	14549
885.023	14511
885.148	14765
885.274	14762
885.399	14659
885.524	14708
885.65	14556
885.775	14568
885.9	14583
886.025	14663
886.15	14587
886.275	14495
886.4	14507
886.525	14492
886.65	14423
886.775	14575
886.9	14678
887.025	14765
887.149	14545
887.274	14434
887.399	14393
887.523	14339
887.648	14294
887.773	14370
887.897	14461
888.021	14518
888.146	14385
888.27	14473
888.395	14530
888.519	14396
888.643	14503
888.767	14499
888.891	14370
889.015	14298
889.139	14317
889.263	14221
889.387	14431
889.511	14495
889.635	14419
889.759	14229
889.883	14263
890.006	14256
890.13	14339
890.254	14240
890.377	14183
890.501	14138
890.624	14096
890.748	14107
890.871	14020
890.995	13833
891.118	13887
891.241	13982
891.364	13917
891.488	14153
891.611	13944
891.734	13887
891.857	14054
891.98	13951
892.103	14062
892.226	13993
892.349	13963
892.471	13830
892.594	13955
892.717	13993
892.839	13951
892.962	13970
893.085	14050
893.207	13967
893.33	13887
893.452	13890
893.575	13997
893.697	13875
893.819	14168
893.941	14252
894.064	14145
894.186	14031
894.308	13970
894.43	14096
894.552	14183
894.674	14092
894.796	13947
894.918	14054
895.04	14058
895.161	14081
895.283	14054
895.405	13902
895.526	14077
895.648	14069
895.769	14130
895.891	14119
896.012	14130
896.134	14191
896.255	14149
896.376	14005
896.498	14134
896.619	14123
896.74	14191
896.861	14309
896.982	14514
897.103	14590
897.224	14385
897.345	14324
897.466	14370
897.587	14431
897.708	14526
897.828	14385
897.949	14339
898.07	14275
898.19	14450
898.311	14499
898.431	14438
898.552	14537
898.672	14560
898.792	14610
898.913	14575
899.033	14374
899.153	14343
899.273	14191
899.393	14275
899.513	14461
899.633	14355
899.753	14374
899.873	14374
899.993	14415
900.113	14320
900.232	14457
900.352	14320
900.472	14244
900.591	14161
900.711	14290
900.83	14206
900.95	14278
901.069	14370
901.189	14103
901.308	13944
901.427	13875
901.546	13887
901.665	13913
901.784	13932
901.904	13868
902.023	13727
902.141	13495
902.26	13483
902.379	13624
902.498	13468
902.617	13457
902.735	13518
902.854	13472
902.973	13403
903.091	13236
903.21	13190
903.328	13236
903.446	13164
903.565	12985
903.683	13057
903.801	13012
903.919	12985
904.038	13042
904.156	12734
904.274	12954
904.392	12791
904.51	12840
904.627	12875
904.745	12947
904.863	12916
904.981	12700
905.098	12528
905.216	12471
905.334	12464
905.451	12555
905.569	12509
905.686	12551
905.803	12574
905.921	12372
906.038	12456
906.155	12414
906.272	12266
906.389	12235
906.506	12197
906.623	12140
906.74	12175
906.857	12053
906.974	12095
907.091	12239
907.208	12300
907.324	12133
907.441	12057
907.557	11950
907.674	11935
907.79	11847
907.907	11866
908.023	11889
908.139	11931
908.256	11855
908.372	11786
908.488	11741
908.604	11676
908.72	11634
908.836	11630
908.952	11592
909.068	11676
909.184	11695
909.3	11657
909.415	11684
909.531	11646
909.647	11455
909.762	11463
909.878	11356
909.993	11448
910.108	11402
910.224	11398
910.339	11417
910.454	11296
910.57	11212
910.685	11280
910.8	11516
910.915	11478
911.03	11216
911.145	11109
911.259	11094
911.374	11170
911.489	11109
911.604	10999
911.718	10919
911.833	11060
911.947	10748
912.062	10801
912.176	10881
912.291	10942
912.405	10938
912.519	11124
912.633	11197
912.748	10980
912.862	10942
912.976	10748
913.09	10641
913.204	10687
913.318	10847
913.431	10877
913.545	10778
913.659	10885
913.772	10843
913.886	10649
914	10611
914.113	10702
914.226	10725
914.34	10866
914.453	10550
914.566	10778
914.68	10569
914.793	10615
914.906	10462
915.019	10329
915.132	10291
915.245	10341
915.358	10440
915.47	10459
915.583	10424
915.696	10466
915.809	10519
915.921	10466
916.034	10375
916.146	10382
916.259	10287
916.371	10402
916.483	10352
916.595	10329
916.708	10318
916.82	10314
916.932	10306
917.044	10310
917.156	10291
917.268	10215
917.38	10314
917.491	10192
917.603	10265
917.715	10337
917.826	10360
917.938	10185
918.049	10105
918.161	10181
918.272	10341
918.384	10280
918.495	10249
918.606	10131
918.717	9994
918.828	10116
918.939	10150
919.05	10051
919.161	10093
919.272	9884
919.383	9975
919.494	10150
919.604	10344
919.715	10147
919.826	10097
919.936	10181
920.047	10135
920.157	10128
920.267	10306
920.378	10139
920.488	10143
920.598	10352
920.708	10470
920.818	10341
920.928	10405
921.038	10512
921.148	10409
921.258	10207
921.368	10135
921.477	10032
921.587	9956
921.697	9823
921.806	9987
921.916	9911
922.025	9641
922.134	9652
922.244	9644
922.353	9732
922.462	9557
922.571	9534
922.68	9378
922.789	9370
922.898	9401
923.007	9355
923.116	9435
923.224	9397
923.333	9405
923.442	9272
923.55	9195
923.659	9264
923.767	9351
923.876	9253
923.984	9306
924.092	9226
924.201	9241
924.309	9184
924.417	9272
924.525	9249
924.633	9222
924.741	10082
924.849	8998
924.956	9211
925.064	9028
925.172	8994
925.279	8994
925.387	9146
925.494	9097
925.602	9264
925.709	9150
925.816	8994
925.924	9013
926.031	9108
926.138	9039
926.245	9108
926.352	8914
926.459	9085
926.566	9165
926.673	8967
926.779	8857
926.886	8952
926.993	8792
927.099	8701
927.206	8834
927.312	8720
927.419	8769
927.525	8766
927.631	8773
927.737	8758
927.843	8632
927.95	8625
928.056	8632
928.162	8670
928.267	8716
928.373	9302
928.479	8693
928.585	8507
928.69	8625
928.796	8705
928.901	8560
929.007	8461
929.112	8579
929.218	8522
929.323	8511
929.428	8412
929.533	8594
929.638	8450
929.743	8434
929.848	8503
929.953	8518
930.058	8484
930.163	8256
930.267	8206
930.372	8381
930.477	8244
930.581	8507
930.685	8275
930.79	8164
930.894	8195
930.998	8172
931.103	8385
931.207	7955
931.311	7868
931.415	7947
931.519	7670
931.623	7712
