Data from test_V78500241_905.txt Node
Date: Fri Mar 25 14:40:01 CST 2022
User: usil
Spectrometer: V785-0024
Trigger mode: 0
Integration Time (sec): 4.000000E-1
Scans to average: 1
Nonlinearity correction enabled: false
Boxcar width: 0
Storing dark spectrum: false
XAxis mode: Wavelengths
Number of Pixels in Spectrum: 1024
>>>>>Begin Spectral Data<<<<<
801.071	25145
801.214	24909
801.356	24703
801.499	24623
801.641	24456
801.783	24323
801.926	24304
802.068	24277
802.211	24190
802.353	24114
802.496	23965
802.638	23710
802.78	23866
802.923	23710
803.065	23684
803.208	23634
803.35	23764
803.492	23942
803.635	23794
803.777	23710
803.919	23767
804.061	24038
804.204	23752
804.346	23653
804.488	23707
804.63	23672
804.773	23623
804.915	23786
805.057	23786
805.199	23611
805.341	23832
805.483	23878
805.626	23954
805.768	23707
805.91	23794
806.052	23821
806.194	23764
806.336	24076
806.478	24057
806.62	24015
806.762	24144
806.904	24289
807.046	24616
807.188	24536
807.33	24639
807.472	24776
807.614	24928
807.756	25012
807.898	25301
808.04	25468
808.182	25909
808.324	26450
808.465	27157
808.607	27835
808.749	28577
808.891	28881
809.033	28904
809.174	28421
809.316	27903
809.458	27077
809.6	26385
809.741	26161
809.883	25635
810.025	25483
810.166	25297
810.308	25053
810.45	24916
810.591	24783
810.733	24563
810.875	24399
811.016	24254
811.158	24144
811.299	24388
811.441	24350
811.582	24330
811.724	24129
811.865	24026
812.007	24079
812.148	24038
812.29	24011
812.431	24197
812.573	24395
812.714	24342
812.855	24513
812.997	24589
813.138	24715
813.279	24578
813.421	24479
813.562	24479
813.703	24289
813.845	24174
813.986	23760
814.127	23589
814.268	23531
814.41	23600
814.551	23440
814.692	23531
814.833	23467
814.974	23406
815.115	23444
815.256	23296
815.397	23330
815.539	23235
815.68	23216
815.821	23010
815.962	23200
816.103	23216
816.244	23136
816.385	22866
816.526	22858
816.666	22771
816.807	22626
816.948	22694
817.089	22656
817.23	22691
817.371	22557
817.512	22573
817.653	22512
817.793	22565
817.934	22592
818.075	22679
818.216	22428
818.356	22500
818.497	22322
818.638	22162
818.778	22215
818.919	22253
819.06	22238
819.2	22436
819.341	22432
819.481	22421
819.622	22432
819.762	22881
819.903	22649
820.043	22527
820.184	22611
820.324	22424
820.465	22455
820.605	22493
820.746	22516
820.886	22287
821.026	22470
821.167	22386
821.307	22417
821.447	22344
821.588	22325
821.728	22135
821.868	21892
822.008	21838
822.149	21816
822.289	21861
822.429	21454
822.569	21424
822.709	21485
822.849	21192
822.99	21344
823.13	21256
823.27	21249
823.41	21058
823.55	21062
823.69	21093
823.83	21138
823.97	21173
824.11	20994
824.25	20804
824.389	20853
824.529	20960
824.669	20883
824.809	20944
824.949	20868
825.089	20967
825.228	20971
825.368	20571
825.508	20648
825.648	20739
825.787	20716
825.927	20629
826.067	20579
826.206	20686
826.346	20587
826.485	20727
826.625	20621
826.765	20640
826.904	20575
827.044	20450
827.183	20355
827.323	20393
827.462	20339
827.601	20282
827.741	20252
827.88	20221
828.02	20176
828.159	20282
828.298	20320
828.437	20275
828.577	20244
828.716	20461
828.855	20320
828.994	20111
829.134	20046
829.273	20035
829.412	20027
829.551	20043
829.69	19978
829.829	19936
829.968	20157
830.107	19989
830.246	20005
830.385	19989
830.524	19913
830.663	19791
830.802	19715
830.941	19567
831.08	19643
831.219	19628
831.357	19765
831.496	19902
831.635	19655
831.774	19529
831.913	19403
832.051	19495
832.19	19388
832.329	19453
832.467	19354
832.606	19213
832.744	19282
832.883	19362
833.022	19255
833.16	19384
833.299	19301
833.437	19422
833.576	19468
833.714	19491
833.852	19563
833.991	19616
834.129	19594
834.267	19616
834.406	19521
834.544	19594
834.682	19460
834.821	19502
834.959	19620
835.097	19400
835.235	19468
835.373	19392
835.511	19384
835.65	19141
835.788	19095
835.926	19084
836.064	19091
836.202	19072
836.34	19206
836.478	19293
836.615	19175
836.753	19190
836.891	19225
837.029	19148
837.167	19084
837.305	19031
837.443	19114
837.58	18958
837.718	19118
837.856	19023
837.993	18939
838.131	19015
838.269	18863
838.406	18947
838.544	18806
838.681	18738
838.819	18623
838.956	18407
839.094	18445
839.231	18547
839.369	18627
839.506	18875
839.643	18764
839.781	18445
839.918	18353
840.055	18479
840.193	18448
840.33	18426
840.467	18483
840.604	18429
840.742	18738
840.879	18391
841.016	18277
841.153	18334
841.29	18467
841.427	18350
841.564	18350
841.701	18361
841.838	18445
841.975	18216
842.112	18289
842.249	18205
842.385	18209
842.522	18391
842.659	18213
842.796	18129
842.933	18102
843.069	18117
843.206	18117
843.343	18136
843.479	18235
843.616	18201
843.752	17988
843.889	17958
844.025	18148
844.162	18068
844.298	18102
844.435	18155
844.571	18015
844.708	18247
844.844	18190
844.98	18452
845.117	18445
845.253	18563
845.389	18764
845.525	19476
845.661	20579
845.798	21728
845.934	22919
846.07	23322
846.206	23231
846.342	22489
846.478	21093
846.614	19643
846.75	18764
846.886	18369
847.022	18178
847.158	17790
847.294	17783
847.429	17737
847.565	17695
847.701	17809
847.837	17376
847.972	17231
848.108	17315
848.244	17269
848.379	17098
848.515	17010
848.65	17181
848.786	17029
848.921	17216
849.057	17208
849.192	17197
849.328	17128
849.463	17109
849.598	17022
849.734	16923
849.869	16934
850.004	16843
850.14	16847
850.275	16839
850.41	16660
850.545	16771
850.68	16683
850.815	16702
850.95	16717
851.085	16961
851.22	16957
851.355	16824
851.49	16660
851.625	16771
851.76	16744
851.895	16668
852.03	16687
852.165	16733
852.299	16862
852.434	16812
852.569	16717
852.703	16824
852.838	16847
852.973	16911
853.107	16976
853.242	16812
853.376	16675
853.511	16561
853.645	16744
853.78	16858
853.914	16824
854.048	16618
854.183	16664
854.317	16748
854.451	16831
854.585	16694
854.72	16653
854.854	16839
854.988	16626
855.122	16679
855.256	16615
855.39	16588
855.524	16744
855.658	16763
855.792	16740
855.926	16679
856.06	16698
856.194	16740
856.327	16683
856.461	16596
856.595	16558
856.729	16596
856.862	16660
856.996	16683
857.13	16725
857.263	16630
857.397	16664
857.53	16588
857.664	16790
857.797	16615
857.931	16687
858.064	16596
858.197	16668
858.331	16630
858.464	16538
858.597	16504
858.731	16584
858.864	16508
858.997	16584
859.13	16561
859.263	16603
859.396	16660
859.529	16599
859.662	16451
859.795	16516
859.928	16512
860.061	16729
860.194	16752
860.327	16542
860.46	16500
860.592	16603
860.725	16649
860.858	16740
860.99	16470
861.123	16417
861.256	16561
861.388	16573
861.521	17261
861.653	16390
861.786	16481
861.918	16421
862.05	16531
862.183	16462
862.315	16611
862.447	16641
862.58	16504
862.712	16303
862.844	16265
862.976	16443
863.108	16284
863.24	16710
863.372	16204
863.504	16360
863.636	16200
863.768	16249
863.9	16249
864.032	16253
864.164	16268
864.296	16333
864.428	16428
864.559	16363
864.691	16314
864.823	16291
864.954	16348
865.086	16318
865.217	16276
865.349	16257
865.48	16276
865.612	16356
865.743	16341
865.875	16268
866.006	16276
866.137	16226
866.269	16287
866.4	16207
866.531	16158
866.662	16276
866.793	16158
866.924	16303
867.055	16226
867.186	16211
867.317	16177
867.448	16116
867.579	16101
867.71	16147
867.841	16093
867.972	16131
868.103	16124
868.233	16177
868.364	16196
868.495	16474
868.625	16421
868.756	16489
868.886	16470
869.017	16546
869.147	16527
869.278	16561
869.408	16577
869.539	16497
869.669	16516
869.799	16546
869.929	16565
870.06	16637
870.19	16816
870.32	16767
870.45	16805
870.58	16820
870.71	16965
870.84	16847
870.97	16828
871.1	16824
871.23	17010
871.36	17025
871.489	16942
871.619	17086
871.749	16953
871.879	17178
872.008	17277
872.138	17174
872.267	16965
872.397	17033
872.526	16892
872.656	16946
872.785	16942
872.915	17022
873.044	17105
873.173	17075
873.303	17128
873.432	17113
873.561	17193
873.69	17136
873.819	17086
873.948	17231
874.077	17140
874.206	17132
874.335	17220
874.464	17307
874.593	17440
874.722	17303
874.851	17421
874.979	17554
875.108	17592
875.237	17417
875.365	17349
875.494	17497
875.623	17570
875.751	17589
875.88	17562
876.008	17665
876.136	17794
876.265	17984
876.393	18087
876.521	18007
876.65	18030
876.778	18064
876.906	17958
877.034	17992
877.162	18068
877.29	17973
877.418	18076
877.546	18087
877.674	18072
877.802	18045
877.93	18220
878.058	18133
878.185	18117
878.313	18174
878.441	18448
878.568	18281
878.696	18456
878.824	18658
878.951	19023
879.079	19388
879.206	19845
879.333	20058
879.461	20412
879.588	20754
879.715	20746
879.842	20602
879.97	20145
880.097	19575
880.224	19129
880.351	18973
880.478	18833
880.605	18623
880.732	18540
880.859	18760
880.986	18426
881.112	18585
881.239	18399
881.366	18205
881.493	18159
881.619	18079
881.746	18019
881.872	18144
881.999	18049
882.125	18072
882.252	18148
882.378	18114
882.505	18285
882.631	18186
882.757	17950
882.883	17992
883.01	17923
883.136	17882
883.262	17817
883.388	17714
883.514	18011
883.64	17958
883.766	17942
883.892	17714
884.018	17866
884.143	17935
884.269	17939
884.395	17665
884.52	17672
884.646	17714
884.772	17642
884.897	17535
885.023	17691
885.148	17737
885.274	17611
885.399	17680
885.524	17528
885.65	17585
885.775	17444
885.9	17398
886.025	17600
886.15	17592
886.275	17311
886.4	17246
886.525	17307
886.65	17151
886.775	17162
886.9	17395
887.025	17436
887.149	17284
887.274	17098
887.399	17090
887.523	17033
887.648	17022
887.773	17006
887.897	17048
888.021	16976
888.146	16965
888.27	17025
888.395	17052
888.519	16984
888.643	16961
888.767	17003
888.891	16831
889.015	16725
889.139	16698
889.263	16634
889.387	16908
889.511	16946
889.635	16835
889.759	16683
889.883	16653
890.006	16733
890.13	16767
890.254	16577
890.377	16641
890.501	16382
890.624	16485
890.748	16554
890.871	16268
890.995	16223
891.118	16204
891.241	16360
891.364	16299
891.488	16379
891.611	16204
891.734	16261
891.857	16344
891.98	16181
892.103	16386
892.226	16291
892.349	16120
892.471	16105
892.594	16154
892.717	16093
892.839	16154
892.962	16169
893.085	16223
893.207	16219
893.33	15975
893.452	16116
893.575	16226
893.697	16162
893.819	16268
893.941	16375
894.064	16200
894.186	16166
894.308	16002
894.43	16215
894.552	16303
894.674	16154
894.796	15972
894.918	16051
895.04	16109
895.161	16246
895.283	16211
895.405	16173
895.526	16150
895.648	16257
895.769	16196
895.891	16192
896.012	16291
896.134	16280
896.255	16166
896.376	16154
896.498	16276
896.619	16238
896.74	16230
896.861	16272
896.982	16523
897.103	16592
897.224	16470
897.345	16478
897.466	16466
897.587	16493
897.708	16656
897.828	16508
897.949	16386
898.07	16371
898.19	16424
898.311	16580
898.431	16398
898.552	16519
898.672	16527
898.792	16565
898.913	16641
899.033	16398
899.153	16443
899.273	16253
899.393	16386
899.513	16390
899.633	16314
899.753	16329
899.873	16242
899.993	16421
900.113	16325
900.232	16382
900.352	16325
900.472	16287
900.591	16272
900.711	16242
900.83	16234
900.95	16329
901.069	16325
901.189	16257
901.308	15987
901.427	15869
901.546	15751
901.665	15964
901.784	15816
901.904	15770
902.023	15580
902.141	15420
902.26	15355
902.379	15469
902.498	15363
902.617	15241
902.735	15329
902.854	15359
902.973	15325
903.091	15085
903.21	14998
903.328	14990
903.446	14918
903.565	14918
903.683	14868
903.801	14746
903.919	14872
904.038	14762
904.156	14739
904.274	14716
904.392	14629
904.51	14716
904.627	14674
904.745	14568
904.863	14632
904.981	14389
905.098	14343
905.216	14343
905.334	14305
905.451	14282
905.569	14195
905.686	14263
905.803	14301
905.921	14100
906.038	14176
906.155	14054
906.272	14054
906.389	13974
906.506	13849
906.623	13765
906.74	13928
906.857	13727
906.974	13799
907.091	13879
907.208	13974
907.324	13780
907.441	13765
907.557	13662
907.674	13628
907.79	13422
907.907	13449
908.023	13472
908.139	13540
908.256	13529
908.372	13438
908.488	13369
908.604	13270
908.72	13308
908.836	13240
908.952	13225
909.068	13343
909.184	13419
909.3	13244
909.415	13240
909.531	13259
909.647	13076
909.762	13053
909.878	12993
909.993	13019
910.108	12962
910.224	12985
910.339	12897
910.454	12814
910.57	12825
910.685	12757
910.8	13072
910.915	13004
911.03	12825
911.145	12688
911.259	12741
911.374	12662
911.489	12574
911.604	12563
911.718	12399
911.833	12460
911.947	12285
912.062	12220
912.176	12403
912.291	12410
912.405	12403
912.519	12650
912.633	12642
912.748	12490
912.862	12410
912.976	12289
913.09	12079
913.204	12216
913.318	12190
913.431	12433
913.545	12338
913.659	12395
913.772	12270
913.886	12205
914	12060
914.113	12216
914.226	12296
914.34	12155
914.453	12095
914.566	12175
914.68	12114
914.793	12034
914.906	11828
915.019	11874
915.132	11771
915.245	11828
915.358	11878
915.47	11748
915.583	11805
915.696	11980
915.809	11901
915.921	11939
916.034	11756
916.146	11798
916.259	11775
916.371	11893
916.483	11851
916.595	11710
916.708	11817
916.82	11760
916.932	11676
917.044	11756
917.156	11722
917.268	11642
917.38	11672
917.491	11657
917.603	11699
917.715	11688
917.826	11741
917.938	11638
918.049	11490
918.161	11577
918.272	11790
918.384	11699
918.495	11646
918.606	11558
918.717	11452
918.828	11535
918.939	11414
919.05	11337
919.161	11402
919.272	11178
919.383	11368
919.494	11554
919.604	11604
919.715	11493
919.826	11353
919.936	11383
920.047	11524
920.157	11490
920.267	11630
920.378	11414
920.488	11337
920.598	11581
920.708	11764
920.818	11592
920.928	11665
921.038	11729
921.148	11798
921.258	11455
921.368	11356
921.477	11299
921.587	11220
921.697	11143
921.806	11288
921.916	11216
922.025	10976
922.134	10953
922.244	10862
922.353	10892
922.462	10847
922.571	10793
922.68	10668
922.789	10588
922.898	10649
923.007	10485
923.116	10634
923.224	10630
923.333	10535
923.442	10485
923.55	10497
923.659	10531
923.767	10542
923.876	10516
923.984	10538
924.092	10500
924.201	10447
924.309	10447
924.417	10523
924.525	10424
924.633	10382
924.741	11113
924.849	10128
924.956	10306
925.064	10200
925.172	10227
925.279	10219
925.387	10249
925.494	10272
925.602	10352
925.709	10192
925.816	10162
925.924	10249
926.031	10268
926.138	10131
926.245	10223
926.352	10227
926.459	10280
926.566	10310
926.673	10078
926.779	10010
926.886	10051
926.993	9915
927.099	9899
927.206	9823
927.312	9892
927.419	9884
927.525	9884
927.631	9918
927.737	9793
927.843	9743
927.95	9656
928.056	9751
928.162	9838
928.267	9857
928.373	10504
928.479	9865
928.585	9663
928.69	9770
928.796	9816
928.901	9633
929.007	9485
929.112	9599
929.218	9648
929.323	9587
929.428	9584
929.533	9717
929.638	9454
929.743	9538
929.848	9618
929.953	9534
930.058	9435
930.163	9287
930.267	9382
930.372	9462
930.477	9233
930.581	9515
930.685	9420
930.79	9260
930.894	9344
930.998	9253
931.103	9321
931.207	9005
931.311	8979
931.415	8826
931.519	8708
931.623	8746
