Data from test_V78500241_2224.txt Node
Date: Fri Mar 25 14:49:11 CST 2022
User: usil
Spectrometer: V785-0024
Trigger mode: 0
Integration Time (sec): 4.000000E-1
Scans to average: 1
Nonlinearity correction enabled: false
Boxcar width: 0
Storing dark spectrum: false
XAxis mode: Wavelengths
Number of Pixels in Spectrum: 1024
>>>>>Begin Spectral Data<<<<<
801.071	22204
801.214	22086
801.356	21739
801.499	21713
801.641	21534
801.783	21447
801.926	21538
802.068	21473
802.211	21325
802.353	21306
802.496	21127
802.638	20952
802.78	21013
802.923	20868
803.065	20853
803.208	20853
803.35	20864
803.492	20925
803.635	20994
803.777	20788
803.919	20944
804.061	21291
804.204	20910
804.346	20804
804.488	20769
804.63	20914
804.773	20705
804.915	20815
805.057	20849
805.199	20914
805.341	20895
805.483	20941
805.626	20994
805.768	20773
805.91	20739
806.052	20769
806.194	20777
806.336	20914
806.478	20701
806.62	20769
806.762	20849
806.904	21005
807.046	21138
807.188	21127
807.33	21093
807.472	21070
807.614	20948
807.756	21062
807.898	20941
808.04	20769
808.182	20826
808.324	20925
808.465	21017
808.607	21146
808.749	21203
808.891	21306
809.033	21321
809.174	21237
809.316	21093
809.458	21245
809.6	21077
809.741	21302
809.883	21252
810.025	21386
810.166	21416
810.308	21408
810.45	21150
810.591	21154
810.733	21043
810.875	20918
811.016	20902
811.158	20788
811.299	20941
811.441	21112
811.582	21055
811.724	21024
811.865	20857
812.007	20849
812.148	20902
812.29	20986
812.431	21116
812.573	21237
812.714	21325
812.855	21507
812.997	21450
813.138	21622
813.279	21568
813.421	21557
813.562	21279
813.703	21272
813.845	20956
813.986	20788
814.127	20773
814.268	20655
814.41	20552
814.551	20552
814.692	20492
814.833	20423
814.974	20263
815.115	20503
815.256	20412
815.397	20332
815.539	20389
815.68	20157
815.821	20252
815.962	20286
816.103	20016
816.244	20050
816.385	19982
816.526	19871
816.666	19826
816.807	19544
816.948	19723
817.089	19753
817.23	19704
817.371	19594
817.512	19533
817.653	19715
817.793	19628
817.934	19635
818.075	19635
818.216	19662
818.356	19616
818.497	19487
818.638	19320
818.778	19225
818.919	19293
819.06	19362
819.2	19422
819.341	19396
819.481	19514
819.622	19677
819.762	19769
819.903	19689
820.043	19715
820.184	19693
820.324	19616
820.465	19738
820.605	19575
820.746	19609
820.886	19518
821.026	19548
821.167	19514
821.307	19689
821.447	19616
821.588	19460
821.728	19373
821.868	19202
822.008	18928
822.149	18985
822.289	18996
822.429	18867
822.569	18654
822.709	18604
822.849	18494
822.99	18502
823.13	18486
823.27	18429
823.41	18346
823.55	18273
823.69	18437
823.83	18319
823.97	18140
824.11	18022
824.25	18076
824.389	18007
824.529	18163
824.669	18072
824.809	18186
824.949	18102
825.089	18121
825.228	18171
825.368	17882
825.508	17961
825.648	17912
825.787	17859
825.927	17824
826.067	17889
826.206	17794
826.346	17813
826.485	17802
826.625	17805
826.765	17942
826.904	17897
827.044	17615
827.183	17547
827.323	17581
827.462	17573
827.601	17646
827.741	17554
827.88	17596
828.02	17524
828.159	17425
828.298	17562
828.437	17558
828.577	17615
828.716	17592
828.855	17463
828.994	17284
829.134	17258
829.273	17223
829.412	17349
829.551	17185
829.69	17212
829.829	17250
829.968	17368
830.107	17356
830.246	17189
830.385	17170
830.524	17181
830.663	17147
830.802	17037
830.941	16873
831.08	16736
831.219	16984
831.357	16938
831.496	17083
831.635	16809
831.774	16797
831.913	16774
832.051	16668
832.19	16721
832.329	16687
832.467	16691
832.606	16508
832.744	16542
832.883	16592
833.022	16641
833.16	16550
833.299	16580
833.437	16565
833.576	16656
833.714	16618
833.852	16706
833.991	16706
834.129	16744
834.267	16740
834.406	16584
834.544	16683
834.682	16767
834.821	16588
834.959	16793
835.097	16588
835.235	16767
835.373	16675
835.511	16622
835.65	16508
835.788	16607
835.926	16462
836.064	16295
836.202	16360
836.34	16493
836.478	16577
836.615	16489
836.753	16485
836.891	16565
837.029	16596
837.167	16493
837.305	16424
837.443	16432
837.58	16356
837.718	16459
837.856	16459
837.993	16276
838.131	16394
838.269	16367
838.406	16333
838.544	16192
838.681	16109
838.819	16040
838.956	15903
839.094	15918
839.231	15987
839.369	16131
839.506	16360
839.643	16242
839.781	16006
839.918	15922
840.055	15895
840.193	15850
840.33	15827
840.467	15915
840.604	15930
840.742	16078
840.879	15800
841.016	15831
841.153	15880
841.29	15987
841.427	15972
841.564	16017
841.701	15949
841.838	16002
841.975	15774
842.112	15831
842.249	15762
842.385	15603
842.522	15907
842.659	15705
842.796	15648
842.933	15698
843.069	15568
843.206	15709
843.343	15831
843.479	15671
843.616	15698
843.752	15481
843.889	15412
844.025	15739
844.162	15576
844.298	15599
844.435	15515
844.571	15500
844.708	15584
844.844	15812
844.98	15667
845.117	15526
845.253	15504
845.389	15447
845.525	15378
845.661	15363
845.798	15264
845.934	15306
846.07	15329
846.206	15348
846.342	15462
846.478	15325
846.614	15074
846.75	15066
846.886	15055
847.022	15154
847.158	15097
847.294	15070
847.429	15203
847.565	15039
847.701	15279
847.837	14830
847.972	14800
848.108	14941
848.244	14830
848.379	14735
848.515	14621
848.65	14621
848.786	14693
848.921	14693
849.057	14746
849.192	14716
849.328	14716
849.463	14632
849.598	14636
849.734	14632
849.869	14503
850.004	14419
850.14	14594
850.275	14480
850.41	14355
850.545	14377
850.68	14400
850.815	14415
850.95	14438
851.085	14678
851.22	14568
851.355	14469
851.49	14400
851.625	14419
851.76	14419
851.895	14336
852.03	14259
852.165	14431
852.299	14415
852.434	14476
852.569	14446
852.703	14503
852.838	14473
852.973	14583
853.107	14594
853.242	14442
853.376	14381
853.511	14157
853.645	14271
853.78	14396
853.914	14377
854.048	14320
854.183	14278
854.317	14320
854.451	14495
854.585	14305
854.72	14244
854.854	14267
854.988	14218
855.122	14324
855.256	14157
855.39	14153
855.524	14423
855.658	14358
855.792	14374
855.926	14210
856.06	14355
856.194	14317
856.327	14271
856.461	14244
856.595	14275
856.729	14355
856.862	14503
856.996	14294
857.13	14454
857.263	14419
857.397	14427
857.53	14267
857.664	14442
857.797	14377
857.931	14438
858.064	14374
858.197	14495
858.331	14332
858.464	14320
858.597	14210
858.731	14282
858.864	14313
858.997	14259
859.13	14298
859.263	14275
859.396	14419
859.529	14267
859.662	14214
859.795	14305
859.928	14320
860.061	14465
860.194	14476
860.327	14351
860.46	14313
860.592	14347
860.725	14408
860.858	14537
860.99	14313
861.123	14237
861.256	14161
861.388	14336
861.521	14918
861.653	14271
861.786	14031
861.918	14221
862.05	14271
862.183	14233
862.315	14218
862.447	14355
862.58	14317
862.712	14073
862.844	14008
862.976	14199
863.108	14161
863.24	14507
863.372	13959
863.504	14043
863.636	14012
863.768	14100
863.9	14008
864.032	14005
864.164	14069
864.296	14161
864.428	14138
864.559	14183
864.691	14062
864.823	14073
864.954	14096
865.086	14145
865.217	14077
865.349	14039
865.48	13986
865.612	13997
865.743	14225
865.875	14100
866.006	14020
866.137	14016
866.269	14050
866.4	14073
866.531	14119
866.662	13917
866.793	13997
866.924	13932
867.055	14107
867.186	13940
867.317	13936
867.448	13940
867.579	14081
867.71	13928
867.841	13940
867.972	14035
868.103	14046
868.233	14077
868.364	14016
868.495	14142
868.625	14336
868.756	14381
868.886	14278
869.017	14199
869.147	14358
869.278	14339
869.408	14374
869.539	14233
869.669	14374
869.799	14351
869.929	14404
870.06	14454
870.19	14670
870.32	14651
870.45	14655
870.58	14697
870.71	14720
870.84	14746
870.97	14773
871.1	14693
871.23	14849
871.36	14880
871.489	14792
871.619	14826
871.749	14975
871.879	14960
872.008	15009
872.138	14910
872.267	14895
872.397	14765
872.526	14670
872.656	14762
872.785	14746
872.915	14918
873.044	15013
873.173	14895
873.303	14902
873.432	14948
873.561	15036
873.69	15001
873.819	14887
873.948	15097
874.077	14948
874.206	14887
874.335	15028
874.464	15135
874.593	15222
874.722	15272
874.851	15264
874.979	15310
875.108	15283
875.237	15283
875.365	15230
875.494	15298
875.623	15336
875.751	15260
875.88	15275
876.008	15424
876.136	15473
876.265	15694
876.393	15827
876.521	15762
876.65	15747
876.778	15648
876.906	15633
877.034	15610
877.162	15580
877.29	15637
877.418	15720
877.546	15648
877.674	15743
877.802	15660
877.93	15667
878.058	15564
878.185	15603
878.313	15667
878.441	15732
878.568	15519
878.696	15720
878.824	15690
878.951	15797
879.079	15850
879.206	16067
879.333	15781
879.461	15732
879.588	15770
879.715	15842
879.842	15930
879.97	15778
880.097	15519
880.224	15500
880.351	15644
880.478	15526
880.605	15492
880.732	15587
880.859	15759
880.986	15526
881.112	15595
881.239	15458
881.366	15310
881.493	15241
881.619	15081
881.746	15207
881.872	15169
881.999	15135
882.125	15188
882.252	15123
882.378	15214
882.505	15367
882.631	15157
882.757	15024
882.883	15036
883.01	14941
883.136	14941
883.262	14899
883.388	14838
883.514	15077
883.64	15081
883.766	14982
883.892	14834
884.018	14826
884.143	14986
884.269	14944
884.395	14762
884.52	14724
884.646	14765
884.772	14655
884.897	14610
885.023	14697
885.148	14868
885.274	14914
885.399	14712
885.524	14796
885.65	14754
885.775	14765
885.9	14583
886.025	14807
886.15	14777
886.275	14575
886.4	14625
886.525	14670
886.65	14682
886.775	14693
886.9	14807
887.025	14963
887.149	14693
887.274	14610
887.399	14484
887.523	14587
887.648	14408
887.773	14495
887.897	14552
888.021	14541
888.146	14533
888.27	14602
888.395	14724
888.519	14590
888.643	14655
888.767	14541
888.891	14579
889.015	14412
889.139	14480
889.263	14362
889.387	14438
889.511	14587
889.635	14530
889.759	14423
889.883	14370
890.006	14343
890.13	14537
890.254	14339
890.377	14370
890.501	14187
890.624	14240
890.748	14286
890.871	14100
890.995	13997
891.118	14050
891.241	14092
891.364	14077
891.488	14161
891.611	14153
891.734	14107
891.857	14202
891.98	14134
892.103	14077
892.226	14088
892.349	14046
892.471	14005
892.594	14077
892.717	14092
892.839	14119
892.962	14168
893.085	14111
893.207	14100
893.33	13993
893.452	14115
893.575	14237
893.697	14088
893.819	14256
893.941	14256
894.064	14183
894.186	14024
894.308	14069
894.43	14206
894.552	14404
894.674	14275
894.796	14103
894.918	14206
895.04	14145
895.161	14298
895.283	14225
895.405	14187
895.526	14111
895.648	14195
895.769	14278
895.891	14320
896.012	14313
896.134	14336
896.255	14240
896.376	14138
896.498	14328
896.619	14275
896.74	14332
896.861	14358
896.982	14598
897.103	14796
897.224	14594
897.345	14518
897.466	14427
897.587	14598
897.708	14678
897.828	14571
897.949	14514
898.07	14313
898.19	14602
898.311	14651
898.431	14571
898.552	14712
898.672	14629
898.792	14701
898.913	14636
899.033	14495
899.153	14442
899.273	14370
899.393	14446
899.513	14564
899.633	14438
899.753	14537
899.873	14400
899.993	14526
900.113	14450
900.232	14522
900.352	14419
900.472	14457
900.591	14252
900.711	14347
900.83	14343
900.95	14431
901.069	14473
901.189	14248
901.308	14111
901.427	14058
901.546	14031
901.665	14001
901.784	13959
901.904	13917
902.023	13742
902.141	13655
902.26	13594
902.379	13784
902.498	13586
902.617	13540
902.735	13601
902.854	13571
902.973	13533
903.091	13396
903.21	13236
903.328	13316
903.446	13263
903.565	13168
903.683	13247
903.801	13069
903.919	13187
904.038	13133
904.156	13042
904.274	13023
904.392	12973
904.51	12928
904.627	12993
904.745	12951
904.863	13076
904.981	12783
905.098	12681
905.216	12662
905.334	12703
905.451	12646
905.569	12623
905.686	12711
905.803	12715
905.921	12426
906.038	12620
906.155	12536
906.272	12475
906.389	12441
906.506	12213
906.623	12304
906.74	12266
906.857	12125
906.974	12167
907.091	12258
907.208	12311
907.324	12285
907.441	12243
907.557	11992
907.674	11988
907.79	11927
907.907	11965
908.023	12083
908.139	12049
908.256	12003
908.372	11935
908.488	11920
908.604	11836
908.72	11779
908.836	11786
908.952	11786
909.068	11794
909.184	11916
909.3	11767
909.415	11733
909.531	11691
909.647	11604
909.762	11600
909.878	11520
909.993	11611
910.108	11490
910.224	11482
910.339	11497
910.454	11497
910.57	11360
910.685	11345
910.8	11638
910.915	11539
911.03	11440
911.145	11322
911.259	11250
911.374	11185
911.489	11117
911.604	11147
911.718	11037
911.833	10984
911.947	10953
912.062	10831
912.176	10987
912.291	10915
912.405	10965
912.519	11201
912.633	11159
912.748	11045
912.862	10953
912.976	10877
913.09	10801
913.204	10843
913.318	10896
913.431	10957
913.545	10938
913.659	10972
913.772	10877
913.886	10752
914	10736
914.113	10797
914.226	10809
914.34	10854
914.453	10630
914.566	10892
914.68	10698
914.793	10691
914.906	10497
915.019	10497
915.132	10443
915.245	10504
915.358	10546
915.47	10504
915.583	10546
915.696	10535
915.809	10558
915.921	10622
916.034	10462
916.146	10428
916.259	10417
916.371	10558
916.483	10455
916.595	10402
916.708	10390
916.82	10348
916.932	10405
917.044	10382
917.156	10341
917.268	10287
917.38	10402
917.491	10242
917.603	10405
917.715	10504
917.826	10451
917.938	10348
918.049	10215
918.161	10394
918.272	10481
918.384	10474
918.495	10390
918.606	10181
918.717	10124
918.828	10196
918.939	10287
919.05	10150
919.161	10207
919.272	10071
919.383	10059
919.494	10257
919.604	10402
919.715	10215
919.826	10204
919.936	10154
920.047	10242
920.157	10333
920.267	10375
920.378	10280
920.488	10246
920.598	10451
920.708	10584
920.818	10443
920.928	10451
921.038	10577
921.148	10466
921.258	10238
921.368	10219
921.477	10112
921.587	10044
921.697	9991
921.806	10109
921.916	9911
922.025	9865
922.134	9808
922.244	9728
922.353	9835
922.462	9629
922.571	9625
922.68	9450
922.789	9435
922.898	9485
923.007	9488
923.116	9507
923.224	9515
923.333	9443
923.442	9428
923.55	9435
923.659	9469
923.767	9370
923.876	9355
923.984	9496
924.092	9332
924.201	9344
924.309	9302
924.417	9401
924.525	9332
924.633	9211
924.741	10234
924.849	9024
924.956	9283
925.064	9116
925.172	9047
925.279	9123
925.387	9203
925.494	9119
925.602	9268
925.709	9184
925.816	9039
925.924	9195
926.031	9298
926.138	9173
926.245	9268
926.352	9081
926.459	9116
926.566	9279
926.673	9104
926.779	8910
926.886	8982
926.993	8826
927.099	8773
927.206	8842
927.312	8834
927.419	8857
927.525	8853
927.631	8864
927.737	8838
927.843	8727
927.95	8602
928.056	8712
928.162	8792
928.267	8792
928.373	9439
928.479	8864
928.585	8579
928.69	8769
928.796	8788
928.901	8686
929.007	8621
929.112	8727
929.218	8663
929.323	8598
929.428	8568
929.533	8735
929.638	8461
929.743	8518
929.848	8670
929.953	8556
930.058	8473
930.163	8347
930.267	8431
930.372	8518
930.477	8275
930.581	8511
930.685	8404
930.79	8347
930.894	8271
930.998	8199
931.103	8393
931.207	8084
931.311	8130
931.415	7959
931.519	7818
931.623	7750
