Data from test_V78500241_2786.txt Node
Date: Fri Mar 25 14:53:06 CST 2022
User: usil
Spectrometer: V785-0024
Trigger mode: 0
Integration Time (sec): 4.000000E-1
Scans to average: 1
Nonlinearity correction enabled: false
Boxcar width: 0
Storing dark spectrum: false
XAxis mode: Wavelengths
Number of Pixels in Spectrum: 1024
>>>>>Begin Spectral Data<<<<<
801.071	22002
801.214	21972
801.356	21690
801.499	21568
801.641	21504
801.783	21405
801.926	21439
802.068	21291
802.211	21351
802.353	21237
802.496	21070
802.638	20815
802.78	20880
802.923	20762
803.065	20735
803.208	20705
803.35	20762
803.492	20765
803.635	20948
803.777	20727
803.919	20796
804.061	21013
804.204	20777
804.346	20667
804.488	20587
804.63	20625
804.773	20621
804.915	20689
805.057	20701
805.199	20556
805.341	20724
805.483	20689
805.626	20651
805.768	20480
805.91	20693
806.052	20560
806.194	20651
806.336	20731
806.478	20621
806.62	20579
806.762	20743
806.904	20857
807.046	21081
807.188	21047
807.33	20929
807.472	21009
807.614	20891
807.756	20956
807.898	20804
808.04	20731
808.182	20712
808.324	20636
808.465	20800
808.607	20853
808.749	21074
808.891	21108
809.033	21237
809.174	21081
809.316	21036
809.458	21036
809.6	20910
809.741	21131
809.883	21066
810.025	21218
810.166	21226
810.308	21211
810.45	21093
810.591	21001
810.733	20906
810.875	20979
811.016	20769
811.158	20651
811.299	20853
811.441	20880
811.582	20895
811.724	20788
811.865	20765
812.007	20712
812.148	20758
812.29	20815
812.431	20857
812.573	21051
812.714	21192
812.855	21272
812.997	21302
813.138	21481
813.279	21416
813.421	21420
813.562	21138
813.703	20994
813.845	20956
813.986	20613
814.127	20339
814.268	20408
814.41	20469
814.551	20355
814.692	20362
814.833	20252
814.974	20347
815.115	20461
815.256	20119
815.397	20115
815.539	20142
815.68	20142
815.821	20092
815.962	20126
816.103	20088
816.244	19890
816.385	19807
816.526	19738
816.666	19559
816.807	19502
816.948	19460
817.089	19624
817.23	19499
817.371	19480
817.512	19495
817.653	19495
817.793	19441
817.934	19316
818.075	19506
818.216	19552
818.356	19419
818.497	19346
818.638	19190
818.778	19069
818.919	19107
819.06	19118
819.2	19236
819.341	19350
819.481	19282
819.622	19457
819.762	19605
819.903	19571
820.043	19563
820.184	19384
820.324	19464
820.465	19495
820.605	19518
820.746	19369
820.886	19289
821.026	19358
821.167	19384
821.307	19426
821.447	19358
821.588	19304
821.728	19244
821.868	18951
822.008	18852
822.149	18840
822.289	18779
822.429	18616
822.569	18574
822.709	18513
822.849	18315
822.99	18338
823.13	18338
823.27	18327
823.41	18205
823.55	18053
823.69	18216
823.83	18235
823.97	17988
824.11	17859
824.25	17821
824.389	17897
824.529	17950
824.669	17939
824.809	17988
824.949	18030
825.089	17897
825.228	17832
825.368	17798
825.508	17634
825.648	17779
825.787	17733
825.927	17775
826.067	17649
826.206	17562
826.346	17661
826.485	17691
826.625	17653
826.765	17745
826.904	17661
827.044	17478
827.183	17486
827.323	17322
827.462	17398
827.601	17452
827.741	17258
827.88	17463
828.02	17258
828.159	17353
828.298	17315
828.437	17398
828.577	17387
828.716	17486
828.855	17341
828.994	17235
829.134	17121
829.273	17132
829.412	17147
829.551	17155
829.69	17185
829.829	17159
829.968	17170
830.107	17162
830.246	17178
830.385	17147
830.524	17086
830.663	17018
830.802	16919
830.941	16702
831.08	16698
831.219	16793
831.357	16809
831.496	17052
831.635	16820
831.774	16550
831.913	16641
832.051	16561
832.19	16451
832.329	16611
832.467	16500
832.606	16508
832.744	16363
832.883	16432
833.022	16375
833.16	16462
833.299	16428
833.437	16447
833.576	16459
833.714	16493
833.852	16455
833.991	16558
834.129	16596
834.267	16645
834.406	16508
834.544	16565
834.682	16542
834.821	16493
834.959	16698
835.097	16436
835.235	16588
835.373	16508
835.511	16550
835.65	16402
835.788	16432
835.926	16223
836.064	16268
836.202	16356
836.34	16447
836.478	16462
836.615	16306
836.753	16360
836.891	16466
837.029	16504
837.167	16337
837.305	16215
837.443	16306
837.58	16230
837.718	16367
837.856	16249
837.993	16177
838.131	16314
838.269	16261
838.406	16154
838.544	16196
838.681	15922
838.819	15949
838.956	15781
839.094	15918
839.231	15911
839.369	15918
839.506	16128
839.643	16059
839.781	15762
839.918	15759
840.055	15861
840.193	15819
840.33	15800
840.467	15800
840.604	15842
840.742	16059
840.879	15755
841.016	15804
841.153	15743
841.29	15953
841.427	15907
841.564	15808
841.701	15895
841.838	15781
841.975	15747
842.112	15762
842.249	15599
842.385	15618
842.522	15854
842.659	15770
842.796	15572
842.933	15644
843.069	15576
843.206	15530
843.343	15694
843.479	15629
843.616	15717
843.752	15439
843.889	15302
844.025	15580
844.162	15344
844.298	15576
844.435	15393
844.571	15313
844.708	15519
844.844	15610
844.98	15504
845.117	15580
845.253	15332
845.389	15386
845.525	15363
845.661	15393
845.798	15176
845.934	15241
846.07	15154
846.206	15294
846.342	15275
846.478	15214
846.614	15020
846.75	14952
846.886	14895
847.022	15043
847.158	14952
847.294	14994
847.429	14902
847.565	14960
847.701	15176
847.837	14746
847.972	14689
848.108	14781
848.244	14819
848.379	14651
848.515	14663
848.65	14560
848.786	14617
848.921	14632
849.057	14541
849.192	14670
849.328	14587
849.463	14575
849.598	14533
849.734	14457
849.869	14396
850.004	14377
850.14	14358
850.275	14328
850.41	14240
850.545	14298
850.68	14434
850.815	14339
850.95	14298
851.085	14511
851.22	14454
851.355	14404
851.49	14343
851.625	14278
851.76	14290
851.895	14202
852.03	14244
852.165	14282
852.299	14233
852.434	14408
852.569	14313
852.703	14419
852.838	14446
852.973	14469
853.107	14454
853.242	14385
853.376	14324
853.511	14107
853.645	14214
853.78	14294
853.914	14145
854.048	14187
854.183	14206
854.317	14172
854.451	14370
854.585	14172
854.72	14123
854.854	14248
854.988	14180
855.122	14183
855.256	14035
855.39	14199
855.524	14267
855.658	14313
855.792	14244
855.926	14225
856.06	14298
856.194	14290
856.327	14244
856.461	14164
856.595	14191
856.729	14309
856.862	14309
856.996	14214
857.13	14237
857.263	14275
857.397	14351
857.53	14214
857.664	14225
857.797	14298
857.931	14309
858.064	14244
858.197	14313
858.331	14199
858.464	14172
858.597	14096
858.731	14096
858.864	14199
858.997	14180
859.13	14282
859.263	14199
859.396	14324
859.529	14206
859.662	14149
859.795	14103
859.928	14324
860.061	14427
860.194	14343
860.327	14267
860.46	14183
860.592	14336
860.725	14355
860.858	14252
860.99	14164
861.123	14100
861.256	14111
861.388	14309
861.521	14887
861.653	14088
861.786	14065
861.918	14142
862.05	14168
862.183	14180
862.315	14267
862.447	14282
862.58	14149
862.712	14012
862.844	13902
862.976	13993
863.108	14092
863.24	14530
863.372	13970
863.504	13917
863.636	13947
863.768	14043
863.9	13978
864.032	13909
864.164	13879
864.296	14069
864.428	14054
864.559	14062
864.691	14058
864.823	14130
864.954	13963
865.086	14092
865.217	14001
865.349	13928
865.48	13993
865.612	14050
865.743	14035
865.875	13894
866.006	14024
866.137	13974
866.269	13986
866.4	13921
866.531	13849
866.662	13902
866.793	13898
866.924	13978
867.055	13970
867.186	14008
867.317	14001
867.448	13970
867.579	13864
867.71	13936
867.841	13868
867.972	13837
868.103	13906
868.233	13978
868.364	13875
868.495	14183
868.625	14252
868.756	14358
868.886	14103
869.017	14237
869.147	14351
869.278	14374
869.408	14317
869.539	14221
869.669	14343
869.799	14229
869.929	14415
870.06	14275
870.19	14602
870.32	14457
870.45	14488
870.58	14590
870.71	14743
870.84	14682
870.97	14663
871.1	14610
871.23	14765
871.36	14842
871.489	14693
871.619	14769
871.749	14758
871.879	14925
872.008	14944
872.138	14765
872.267	14826
872.397	14708
872.526	14568
872.656	14568
872.785	14648
872.915	14762
873.044	15009
873.173	14891
873.303	14864
873.432	14925
873.561	14960
873.69	14906
873.819	14952
873.948	14982
874.077	14956
874.206	14891
874.335	14842
874.464	14963
874.593	15241
874.722	15157
874.851	15150
874.979	15161
875.108	15268
875.237	15222
875.365	15108
875.494	15184
875.623	15283
875.751	15138
875.88	15310
876.008	15306
876.136	15458
876.265	15523
876.393	15816
876.521	15808
876.65	15686
876.778	15709
876.906	15652
877.034	15606
877.162	15584
877.29	15485
877.418	15549
877.546	15690
877.674	15599
877.802	15694
877.93	15690
878.058	15538
878.185	15538
878.313	15580
878.441	15679
878.568	15450
878.696	15511
878.824	15679
878.951	15739
879.079	15865
879.206	15895
879.333	15739
879.461	15675
879.588	15713
879.715	15618
879.842	15926
879.97	15705
880.097	15443
880.224	15431
880.351	15545
880.478	15466
880.605	15542
880.732	15416
880.859	15755
880.986	15454
881.112	15542
881.239	15386
881.366	15135
881.493	15142
881.619	15119
881.746	15135
881.872	15192
881.999	15165
882.125	15123
882.252	15218
882.378	15135
882.505	15310
882.631	15081
882.757	14921
882.883	15005
883.01	14925
883.136	14838
883.262	14880
883.388	14853
883.514	14960
883.64	14902
883.766	14979
883.892	14659
884.018	14876
884.143	14861
884.269	14971
884.395	14686
884.52	14651
884.646	14629
884.772	14644
884.897	14537
885.023	14769
885.148	14800
885.274	14743
885.399	14777
885.524	14644
885.65	14587
885.775	14602
885.9	14587
886.025	14800
886.15	14765
886.275	14514
886.4	14503
886.525	14545
886.65	14594
886.775	14480
886.9	14819
887.025	14868
887.149	14636
887.274	14549
887.399	14495
887.523	14332
887.648	14431
887.773	14351
887.897	14446
888.021	14545
888.146	14473
888.27	14583
888.395	14571
888.519	14518
888.643	14438
888.767	14541
888.891	14351
889.015	14240
889.139	14381
889.263	14298
889.387	14434
889.511	14594
889.635	14495
889.759	14256
889.883	14339
890.006	14400
890.13	14473
890.254	14271
890.377	14282
890.501	14130
890.624	14123
890.748	14229
890.871	14077
890.995	13936
891.118	13936
891.241	14050
891.364	14031
891.488	14161
891.611	14020
891.734	13978
891.857	14191
891.98	14024
892.103	14058
892.226	14031
892.349	13967
892.471	13925
892.594	13986
892.717	14058
892.839	14039
892.962	14020
893.085	14138
893.207	13921
893.33	13871
893.452	13921
893.575	14111
893.697	13940
893.819	14229
893.941	14145
894.064	14214
894.186	14001
894.308	13921
894.43	14164
894.552	14252
894.674	14142
894.796	14027
894.918	14073
895.04	13978
895.161	14187
895.283	14191
895.405	14092
895.526	14229
895.648	14157
895.769	14130
895.891	14259
896.012	14244
896.134	14214
896.255	14225
896.376	14210
896.498	14180
896.619	14267
896.74	14218
896.861	14263
896.982	14526
897.103	14636
897.224	14522
897.345	14415
897.466	14339
897.587	14549
897.708	14610
897.828	14571
897.949	14389
898.07	14347
898.19	14404
898.311	14552
898.431	14480
898.552	14526
898.672	14610
898.792	14610
898.913	14644
899.033	14469
899.153	14541
899.273	14317
899.393	14427
899.513	14465
899.633	14514
899.753	14476
899.873	14427
899.993	14495
900.113	14400
900.232	14434
900.352	14431
900.472	14259
900.591	14210
900.711	14267
900.83	14195
900.95	14339
901.069	14419
901.189	14073
901.308	14016
901.427	13967
901.546	13974
901.665	13951
901.784	13963
901.904	13887
902.023	13696
902.141	13578
902.26	13464
902.379	13693
902.498	13548
902.617	13426
902.735	13616
902.854	13529
902.973	13518
903.091	13251
903.21	13209
903.328	13225
903.446	13228
903.565	13114
903.683	13103
903.801	13031
903.919	13107
904.038	13061
904.156	12989
904.274	12970
904.392	12875
904.51	12852
904.627	12928
904.745	12897
904.863	12954
904.981	12688
905.098	12578
905.216	12563
905.334	12589
905.451	12593
905.569	12585
905.686	12589
905.803	12601
905.921	12414
906.038	12551
906.155	12388
906.272	12330
906.389	12342
906.506	12277
906.623	12258
906.74	12285
906.857	12022
906.974	12163
907.091	12254
907.208	12448
907.324	12296
907.441	12114
907.557	11939
907.674	11961
907.79	11901
907.907	11950
908.023	11969
908.139	11939
908.256	11920
908.372	11935
908.488	11885
908.604	11684
908.72	11699
908.836	11775
908.952	11668
909.068	11661
909.184	11752
909.3	11642
909.415	11794
909.531	11760
909.647	11421
909.762	11448
909.878	11467
909.993	11455
910.108	11535
910.224	11425
910.339	11547
910.454	11383
910.57	11364
910.685	11254
910.8	11581
910.915	11478
911.03	11261
911.145	11273
911.259	11193
911.374	11159
911.489	11128
911.604	11025
911.718	10942
911.833	10976
911.947	10873
912.062	10812
912.176	10957
912.291	10938
912.405	10961
912.519	11143
912.633	11117
912.748	10949
912.862	10987
912.976	10797
913.09	10634
913.204	10774
913.318	10805
913.431	10961
913.545	10801
913.659	11022
913.772	10793
913.886	10733
914	10656
914.113	10767
914.226	10793
914.34	10736
914.453	10637
914.566	10698
914.68	10702
914.793	10698
914.906	10428
915.019	10379
915.132	10367
915.245	10440
915.358	10500
915.47	10523
915.583	10470
915.696	10580
915.809	10622
915.921	10679
916.034	10405
916.146	10417
916.259	10409
916.371	10508
916.483	10493
916.595	10322
916.708	10394
916.82	10436
916.932	10360
917.044	10367
917.156	10352
917.268	10299
917.38	10261
917.491	10287
917.603	10280
917.715	10398
917.826	10451
917.938	10223
918.049	10204
918.161	10268
918.272	10500
918.384	10459
918.495	10303
918.606	10150
918.717	10128
918.828	10181
918.939	10158
919.05	10051
919.161	10109
919.272	9953
919.383	10055
919.494	10181
919.604	10394
919.715	10166
919.826	10169
919.936	10097
920.047	10188
920.157	10147
920.267	10371
920.378	10253
920.488	10192
920.598	10348
920.708	10470
920.818	10363
920.928	10367
921.038	10550
921.148	10519
921.258	10219
921.368	10116
921.477	10044
921.587	9991
921.697	9899
921.806	10040
921.916	9876
922.025	9724
922.134	9740
922.244	9713
922.353	9789
922.462	9557
922.571	9595
922.68	9538
922.789	9454
922.898	9450
923.007	9397
923.116	9458
923.224	9420
923.333	9393
923.442	9325
923.55	9253
923.659	9283
923.767	9397
923.876	9287
923.984	9359
924.092	9294
924.201	9340
924.309	9294
924.417	9313
924.525	9214
924.633	9207
924.741	10040
924.849	9093
924.956	9192
925.064	9146
925.172	8982
925.279	9058
925.387	9097
925.494	9066
925.602	9188
925.709	9169
925.816	9112
925.924	9074
926.031	9230
926.138	9119
926.245	9199
926.352	8986
926.459	9203
926.566	9135
926.673	9119
926.779	8948
926.886	8975
926.993	8823
927.099	8830
927.206	8754
927.312	8750
927.419	8834
927.525	8815
927.631	8861
927.737	8750
927.843	8689
927.95	8537
928.056	8727
928.162	8746
928.267	8708
928.373	9336
928.479	8853
928.585	8541
928.69	8689
928.796	8750
928.901	8651
929.007	8503
929.112	8564
929.218	8617
929.323	8545
929.428	8457
929.533	8571
929.638	8438
929.743	8545
929.848	8514
929.953	8545
930.058	8465
930.163	8317
930.267	8317
930.372	8423
930.477	8290
930.581	8499
930.685	8370
930.79	8233
930.894	8229
930.998	8244
931.103	8320
931.207	7997
931.311	7970
931.415	7887
931.519	7784
931.623	7727
