Data from test_V78500241_805.txt Node
Date: Fri Mar 25 14:39:19 CST 2022
User: usil
Spectrometer: V785-0024
Trigger mode: 0
Integration Time (sec): 4.000000E-1
Scans to average: 1
Nonlinearity correction enabled: false
Boxcar width: 0
Storing dark spectrum: false
XAxis mode: Wavelengths
Number of Pixels in Spectrum: 1024
>>>>>Begin Spectral Data<<<<<
801.071	26320
801.214	26240
801.356	25986
801.499	25849
801.641	25605
801.783	25784
801.926	25704
802.068	25605
802.211	25670
802.353	25384
802.496	25365
802.638	25088
802.78	25225
802.923	25141
803.065	25129
803.208	25141
803.35	25221
803.492	25247
803.635	25316
803.777	25282
803.919	25419
804.061	25605
804.204	25392
804.346	25495
804.488	25365
804.63	25403
804.773	25240
804.915	25400
805.057	25616
805.199	25586
805.341	25655
805.483	25658
805.626	25795
805.768	25651
805.91	25799
806.052	26024
806.194	26039
806.336	26408
806.478	26374
806.62	26526
806.762	26663
806.904	27066
807.046	27564
807.188	27785
807.33	28025
807.472	28588
807.614	29098
807.756	29668
807.898	30563
808.04	31765
808.182	33332
808.324	35296
808.465	37772
808.607	40219
808.749	42445
808.891	43879
809.033	43955
809.174	42620
809.316	40466
809.458	37700
809.6	35166
809.741	32929
809.883	31263
810.025	30254
810.166	29288
810.308	28740
810.45	28169
810.591	27861
810.733	27344
810.875	27058
811.016	26777
811.158	26507
811.299	26651
811.441	26370
811.582	26450
811.724	26039
811.865	26058
812.007	26077
812.148	26043
812.29	25928
812.431	26100
812.573	26122
812.714	26263
812.855	26218
812.997	26210
813.138	26290
813.279	26294
813.421	26126
813.562	25940
813.703	25734
813.845	25616
813.986	25293
814.127	25084
814.268	25114
814.41	25187
814.551	24932
814.692	24977
814.833	24875
814.974	24703
815.115	24882
815.256	24738
815.397	24787
815.539	24631
815.68	24471
815.821	24384
815.962	24635
816.103	24426
816.244	24323
816.385	24197
816.526	24117
816.666	24022
816.807	23794
816.948	23954
817.089	23965
817.23	23984
817.371	23904
817.512	23843
817.653	23745
817.793	23786
817.934	23824
818.075	23767
818.216	23813
818.356	23840
818.497	23619
818.638	23425
818.778	23520
818.919	23395
819.06	23463
819.2	23672
819.341	23573
819.481	23657
819.622	23733
819.762	23920
819.903	23748
820.043	23798
820.184	23771
820.324	23596
820.465	23832
820.605	23642
820.746	23676
820.886	23573
821.026	23551
821.167	23562
821.307	23535
821.447	23592
821.588	23471
821.728	23231
821.868	23151
822.008	22930
822.149	22984
822.289	22942
822.429	22557
822.569	22592
822.709	22622
822.849	22466
822.99	22379
823.13	22306
823.27	22356
823.41	22188
823.55	22063
823.69	22166
823.83	22124
823.97	22131
824.11	21975
824.25	21884
824.389	21987
824.529	21949
824.669	21884
824.809	21918
824.949	21945
825.089	22070
825.228	22025
825.368	21800
825.508	21808
825.648	21686
825.787	21823
825.927	21873
826.067	21778
826.206	21690
826.346	21720
826.485	21701
826.625	21580
826.765	21827
826.904	21671
827.044	21488
827.183	21351
827.323	21325
827.462	21462
827.601	21450
827.741	21283
827.88	21344
828.02	21241
828.159	21222
828.298	21370
828.437	21367
828.577	21329
828.716	21439
828.855	21313
828.994	21192
829.134	21173
829.273	21119
829.412	21123
829.551	20963
829.69	21123
829.829	21112
829.968	21150
830.107	21112
830.246	21028
830.385	21058
830.524	20944
830.663	20868
830.802	20682
830.941	20682
831.08	20674
831.219	20773
831.357	20800
831.496	20857
831.635	20731
831.774	20621
831.913	20640
832.051	20522
832.19	20492
832.329	20541
832.467	20594
832.606	20320
832.744	20400
832.883	20533
833.022	20598
833.16	20564
833.299	20765
833.437	20925
833.576	20971
833.714	21017
833.852	21188
833.991	21348
834.129	21393
834.267	21447
834.406	21332
834.544	21367
834.682	21230
834.821	21036
834.959	21142
835.097	20788
835.235	20845
835.373	20796
835.511	20602
835.65	20530
835.788	20495
835.926	20332
836.064	20180
836.202	20122
836.34	20278
836.478	20480
836.615	20385
836.753	20206
836.891	20278
837.029	20298
837.167	20149
837.305	20176
837.443	20016
837.58	20024
837.718	20096
837.856	20088
837.993	20126
838.131	20145
838.269	19986
838.406	19879
838.544	19875
838.681	19708
838.819	19693
838.956	19578
839.094	19533
839.231	19544
839.369	19632
839.506	19795
839.643	19811
839.781	19559
839.918	19487
840.055	19571
840.193	19441
840.33	19396
840.467	19339
840.604	19544
840.742	19662
840.879	19422
841.016	19426
841.153	19403
841.29	19480
841.427	19499
841.564	19480
841.701	19616
841.838	19388
841.975	19244
842.112	19358
842.249	19274
842.385	19259
842.522	19407
842.659	19304
842.796	19403
842.933	19251
843.069	19221
843.206	19263
843.343	19381
843.479	19396
843.616	19453
843.752	19274
843.889	19293
844.025	19491
844.162	19247
844.298	19476
844.435	19487
844.571	19670
844.708	19993
844.844	20377
844.98	20526
845.117	21146
845.253	21713
845.389	23147
845.525	25883
845.661	30258
845.798	35531
845.934	39720
846.07	41235
846.206	40211
846.342	36730
846.478	31320
846.614	26830
846.75	23596
846.886	21808
847.022	20845
847.158	20161
847.294	19700
847.429	19377
847.565	19137
847.701	19308
847.837	18741
847.972	18741
848.108	18726
848.244	18608
848.379	18494
848.515	18452
848.65	18251
848.786	18292
848.921	18289
849.057	18330
849.192	18315
849.328	18251
849.463	18232
849.598	18117
849.734	18038
849.869	18117
850.004	18117
850.14	17999
850.275	17992
850.41	17908
850.545	17950
850.68	17942
850.815	17908
850.95	17920
851.085	17931
851.22	17961
851.355	17855
851.49	17855
851.625	17889
851.76	17901
851.895	17805
852.03	17855
852.165	17901
852.299	17961
852.434	18106
852.569	17992
852.703	17927
852.838	17958
852.973	18167
853.107	18159
853.242	17980
853.376	17912
853.511	17756
853.645	17821
853.78	18019
853.914	18087
854.048	18079
854.183	17999
854.317	18121
854.451	18273
854.585	18030
854.72	18144
854.854	17996
854.988	17977
855.122	17969
855.256	17733
855.39	17889
855.524	17946
855.658	17912
855.792	17870
855.926	17851
856.06	17760
856.194	17927
856.327	17748
856.461	17836
856.595	17661
856.729	17718
856.862	17794
856.996	17764
857.13	17920
857.263	17798
857.397	17794
857.53	17684
857.664	17627
857.797	17752
857.931	17847
858.064	17676
858.197	17828
858.331	17657
858.464	17532
858.597	17535
858.731	17581
858.864	17676
858.997	17539
859.13	17703
859.263	17638
859.396	17634
859.529	17520
859.662	17665
859.795	17604
859.928	17627
860.061	17779
860.194	17870
860.327	17570
860.46	17649
860.592	17687
860.725	17665
860.858	17691
860.99	17581
861.123	17425
861.256	17547
861.388	17657
861.521	18167
861.653	17608
861.786	17296
861.918	17459
862.05	17493
862.183	17581
862.315	17570
862.447	17604
862.58	17467
862.712	17318
862.844	17204
862.976	17356
863.108	17273
863.24	17767
863.372	17261
863.504	17364
863.636	17265
863.768	17463
863.9	17341
864.032	17174
864.164	17181
864.296	17227
864.428	17341
864.559	17315
864.691	17318
864.823	17402
864.954	17341
865.086	17227
865.217	17162
865.349	17216
865.48	17197
865.612	17292
865.743	17296
865.875	17311
866.006	17318
866.137	17185
866.269	17261
866.4	17208
866.531	17117
866.662	17102
866.793	17056
866.924	17094
867.055	17189
867.186	17174
867.317	17079
867.448	17086
867.579	17102
867.71	17143
867.841	17140
867.972	17250
868.103	17216
868.233	17284
868.364	17220
868.495	17250
868.625	17368
868.756	17452
868.886	17372
869.017	17429
869.147	17596
869.278	17634
869.408	17429
869.539	17478
869.669	17562
869.799	17554
869.929	17680
870.06	17592
870.19	17798
870.32	17836
870.45	17935
870.58	17870
870.71	17980
870.84	17977
870.97	17912
871.1	17912
871.23	18102
871.36	18174
871.489	18034
871.619	18030
871.749	18076
871.879	18247
872.008	18232
872.138	18133
872.267	18174
872.397	18174
872.526	18098
872.656	18076
872.785	18102
872.915	18281
873.044	18422
873.173	18251
873.303	18380
873.432	18456
873.561	18380
873.69	18289
873.819	18407
873.948	18429
874.077	18395
874.206	18426
874.335	18498
874.464	18677
874.593	18722
874.722	18768
874.851	18791
874.979	18848
875.108	18951
875.237	18814
875.365	18844
875.494	18848
875.623	18928
875.751	18981
875.88	19091
876.008	19095
876.136	19247
876.265	19567
876.393	19746
876.521	19738
876.65	19704
876.778	19693
876.906	19635
877.034	19769
877.162	19871
877.29	19826
877.418	19807
877.546	20081
877.674	20126
877.802	20225
877.93	20366
878.058	20343
878.185	20370
878.313	20765
878.441	21028
878.568	21165
878.696	21762
878.824	22310
878.951	23239
879.079	24604
879.206	26214
879.333	27614
879.461	29189
879.588	29885
879.715	29885
879.842	29318
879.97	27660
880.097	25974
880.224	24833
880.351	23722
880.478	23212
880.605	22664
880.732	22360
880.859	22329
880.986	22185
881.112	21926
881.239	21778
881.366	21732
881.493	21595
881.619	21496
881.746	21591
881.872	21561
881.999	21492
882.125	21629
882.252	21736
882.378	21759
882.505	21994
882.631	21694
882.757	21622
882.883	21614
883.01	21663
883.136	21450
883.262	21485
883.388	21359
883.514	21485
883.64	21500
883.766	21435
883.892	21211
884.018	21355
884.143	21473
884.269	21603
884.395	21443
884.52	21245
884.646	21287
884.772	21222
884.897	21233
885.023	21249
885.148	21401
885.274	21317
885.399	21142
885.524	21055
885.65	21104
885.775	20925
885.9	20731
886.025	20731
886.15	20632
886.275	20480
886.4	20267
886.525	20168
886.65	19944
886.775	19856
886.9	20035
887.025	20161
887.149	19658
887.274	19628
887.399	19460
887.523	19339
887.648	19320
887.773	19259
887.897	19331
888.021	19308
888.146	19107
888.27	19225
888.395	19194
888.519	19012
888.643	19023
888.767	18928
888.891	18817
889.015	18738
889.139	18692
889.263	18612
889.387	18711
889.511	18886
889.635	18612
889.759	18441
889.883	18456
890.006	18506
890.13	18570
890.254	18327
890.377	18369
890.501	18174
890.624	18152
890.748	18213
890.871	17939
890.995	17923
891.118	17927
891.241	17897
891.364	17927
891.488	17923
891.611	17840
891.734	17802
891.857	17790
891.98	17866
892.103	17908
892.226	17813
892.349	17684
892.471	17562
892.594	17585
892.717	17634
892.839	17611
892.962	17592
893.085	17604
893.207	17532
893.33	17490
893.452	17364
893.575	17554
893.697	17455
893.819	17581
893.941	17608
894.064	17554
894.186	17356
894.308	17258
894.43	17505
894.552	17577
894.674	17379
894.796	17269
894.918	17239
895.04	17288
895.161	17356
895.283	17360
895.405	17235
895.526	17296
895.648	17303
895.769	17269
895.891	17277
896.012	17269
896.134	17395
896.255	17235
896.376	17197
896.498	17265
896.619	17239
896.74	17155
896.861	17337
896.982	17615
897.103	17642
897.224	17543
897.345	17455
897.466	17372
897.587	17376
897.708	17535
897.828	17429
897.949	17337
898.07	17288
898.19	17360
898.311	17478
898.431	17402
898.552	17425
898.672	17539
898.792	17516
898.913	17417
899.033	17448
899.153	17193
899.273	17231
899.393	17220
899.513	17296
899.633	17181
899.753	17242
899.873	17094
899.993	17277
900.113	17151
900.232	17296
900.352	17094
900.472	17159
900.591	17086
900.711	17098
900.83	17025
900.95	17102
901.069	17086
901.189	16976
901.308	16771
901.427	16603
901.546	16706
901.665	16615
901.784	16668
901.904	16546
902.023	16417
902.141	16147
902.26	16131
902.379	16101
902.498	16090
902.617	16067
902.735	16249
902.854	16017
902.973	15945
903.091	15778
903.21	15736
903.328	15884
903.446	15667
903.565	15530
903.683	15618
903.801	15450
903.919	15580
904.038	15454
904.156	15310
904.274	15420
904.392	15313
904.51	15310
904.627	15275
904.745	15393
904.863	15344
904.981	15176
905.098	14971
905.216	15089
905.334	15070
905.451	15017
905.569	14990
905.686	15009
905.803	15020
905.921	14857
906.038	14861
906.155	14762
906.272	14648
906.389	14655
906.506	14415
906.623	14556
906.74	14533
906.857	14343
906.974	14396
907.091	14465
907.208	14621
907.324	14480
907.441	14370
907.557	14157
907.674	14225
907.79	14096
907.907	14248
908.023	14290
908.139	14252
908.256	14138
908.372	14069
908.488	13993
908.604	14077
908.72	13986
908.836	14031
908.952	13928
909.068	13963
909.184	14054
909.3	13955
909.415	14027
909.531	13963
909.647	13632
909.762	13670
909.878	13727
909.993	13750
910.108	13674
910.224	13578
910.339	13693
910.454	13624
910.57	13556
910.685	13468
910.8	13719
910.915	13670
911.03	13537
911.145	13293
911.259	13358
911.374	13354
911.489	13179
911.604	13339
911.718	13099
911.833	13129
911.947	12970
912.062	12932
912.176	13084
912.291	13061
912.405	13046
912.519	13206
912.633	13206
912.748	13213
912.862	13031
912.976	12939
913.09	12875
913.204	12867
913.318	13015
913.431	13099
913.545	12985
913.659	13057
913.772	12878
913.886	12715
914	12779
914.113	12886
914.226	12943
914.34	12935
914.453	12673
914.566	12924
914.68	12772
914.793	12867
914.906	12574
915.019	12544
915.132	12475
915.245	12433
915.358	12559
915.47	12513
915.583	12532
915.696	12494
915.809	12593
915.921	12677
916.034	12509
916.146	12460
916.259	12399
916.371	12483
916.483	12532
916.595	12372
916.708	12422
916.82	12521
916.932	12365
917.044	12403
917.156	12399
917.268	12357
917.38	12319
917.491	12292
917.603	12270
917.715	12448
917.826	12418
917.938	12167
918.049	12095
918.161	12239
918.272	12426
918.384	12311
918.495	12262
918.606	12129
918.717	11999
918.828	12064
918.939	12095
919.05	12034
919.161	12072
919.272	11889
919.383	11904
919.494	12064
919.604	12277
919.715	12049
919.826	12038
919.936	12095
920.047	12095
920.157	12064
920.267	12254
920.378	12045
920.488	12026
920.598	12197
920.708	12418
920.818	12155
920.928	12175
921.038	12239
921.148	12391
921.258	12015
921.368	11958
921.477	11771
921.587	11775
921.697	11798
921.806	11878
921.916	11657
922.025	11539
922.134	11455
922.244	11444
922.353	11512
922.462	11368
922.571	11322
922.68	11250
922.789	11136
922.898	11151
923.007	11181
923.116	11220
923.224	11181
923.333	11132
923.442	11128
923.55	10946
923.659	11037
923.767	11151
923.876	10957
923.984	11086
924.092	10889
924.201	11052
924.309	11018
924.417	11029
924.525	10881
924.633	10934
924.741	11802
924.849	10774
924.956	10805
925.064	10733
925.172	10660
925.279	10767
925.387	10767
925.494	10691
925.602	10809
925.709	10801
925.816	10618
925.924	10649
926.031	10816
926.138	10694
926.245	10714
926.352	10577
926.459	10736
926.566	10748
926.673	10672
926.779	10546
926.886	10508
926.993	10413
927.099	10325
927.206	10310
927.312	10287
927.419	10417
927.525	10310
927.631	10367
927.737	10265
927.843	10192
927.95	10116
928.056	10223
928.162	10287
928.267	10265
928.373	10881
928.479	10344
928.585	10093
928.69	10188
928.796	10348
928.901	10116
929.007	9975
929.112	10109
929.218	10150
929.323	10063
929.428	10051
929.533	10162
929.638	9895
929.743	9964
929.848	10025
929.953	9975
930.058	9892
930.163	9720
930.267	9755
930.372	9865
930.477	9759
930.581	9930
930.685	9816
930.79	9660
930.894	9724
930.998	9679
931.103	9857
931.207	9454
931.311	9462
931.415	9310
931.519	9249
931.623	9104
