Data from test_V78500241_2658.txt Node
Date: Fri Mar 25 14:52:13 CST 2022
User: usil
Spectrometer: V785-0024
Trigger mode: 0
Integration Time (sec): 4.000000E-1
Scans to average: 1
Nonlinearity correction enabled: false
Boxcar width: 0
Storing dark spectrum: false
XAxis mode: Wavelengths
Number of Pixels in Spectrum: 1024
>>>>>Begin Spectral Data<<<<<
801.071	21956
801.214	21884
801.356	21641
801.499	21610
801.641	21397
801.783	21408
801.926	21458
802.068	21233
802.211	21161
802.353	21169
802.496	20948
802.638	20815
802.78	20823
802.923	20663
803.065	20720
803.208	20514
803.35	20655
803.492	20686
803.635	20819
803.777	20617
803.919	20773
804.061	20975
804.204	20735
804.346	20674
804.488	20629
804.63	20659
804.773	20457
804.915	20454
805.057	20746
805.199	20613
805.341	20678
805.483	20705
805.626	20640
805.768	20526
805.91	20686
806.052	20693
806.194	20708
806.336	20659
806.478	20537
806.62	20526
806.762	20587
806.904	20758
807.046	21017
807.188	20979
807.33	20906
807.472	20883
807.614	20796
807.756	20902
807.898	20750
808.04	20587
808.182	20629
808.324	20644
808.465	20564
808.607	20941
808.749	21032
808.891	21074
809.033	21310
809.174	21089
809.316	20887
809.458	20941
809.6	20899
809.741	21077
809.883	21070
810.025	21127
810.166	21119
810.308	21028
810.45	21131
810.591	20971
810.733	20731
810.875	20712
811.016	20640
811.158	20644
811.299	20750
811.441	20800
811.582	20724
811.724	20724
811.865	20621
812.007	20682
812.148	20735
812.29	20762
812.431	20899
812.573	20986
812.714	21100
812.855	21245
812.997	21348
813.138	21382
813.279	21325
813.421	21119
813.562	21051
813.703	21047
813.845	20967
813.986	20518
814.127	20393
814.268	20339
814.41	20377
814.551	20164
814.692	20381
814.833	20206
814.974	20256
815.115	20202
815.256	20138
815.397	20210
815.539	20107
815.68	19913
815.821	19951
815.962	19986
816.103	19902
816.244	19769
816.385	19757
816.526	19811
816.666	19578
816.807	19350
816.948	19556
817.089	19674
817.23	19354
817.371	19373
817.512	19422
817.653	19392
817.793	19354
817.934	19339
818.075	19438
818.216	19460
818.356	19308
818.497	19263
818.638	19031
818.778	19168
818.919	19027
819.06	19175
819.2	19179
819.341	19160
819.481	19221
819.622	19407
819.762	19609
819.903	19525
820.043	19400
820.184	19358
820.324	19381
820.465	19468
820.605	19369
820.746	19434
820.886	19327
821.026	19403
821.167	19240
821.307	19521
821.447	19335
821.588	19202
821.728	19122
821.868	18951
822.008	18787
822.149	18734
822.289	18875
822.429	18574
822.569	18426
822.709	18566
822.849	18350
822.99	18273
823.13	18266
823.27	18258
823.41	18117
823.55	18003
823.69	18148
823.83	18133
823.97	17954
824.11	17939
824.25	17832
824.389	17870
824.529	17988
824.669	17961
824.809	18133
824.949	18019
825.089	17893
825.228	17771
825.368	17722
825.508	17653
825.648	17687
825.787	17752
825.927	17794
826.067	17657
826.206	17608
826.346	17726
826.485	17657
826.625	17672
826.765	17726
826.904	17691
827.044	17501
827.183	17436
827.323	17421
827.462	17334
827.601	17311
827.741	17448
827.88	17398
828.02	17280
828.159	17372
828.298	17395
828.437	17395
828.577	17337
828.716	17532
828.855	17326
828.994	17052
829.134	17140
829.273	17121
829.412	17155
829.551	17067
829.69	17090
829.829	17166
829.968	17258
830.107	17292
830.246	17113
830.385	17067
830.524	17109
830.663	16987
830.802	16835
830.941	16816
831.08	16778
831.219	16839
831.357	16713
831.496	17098
831.635	16672
831.774	16679
831.913	16634
832.051	16500
832.19	16546
832.329	16618
832.467	16542
832.606	16367
832.744	16428
832.883	16443
833.022	16356
833.16	16440
833.299	16523
833.437	16527
833.576	16554
833.714	16417
833.852	16542
833.991	16683
834.129	16599
834.267	16565
834.406	16573
834.544	16538
834.682	16649
834.821	16523
834.959	16733
835.097	16550
835.235	16588
835.373	16577
835.511	16478
835.65	16493
835.788	16379
835.926	16177
836.064	16230
836.202	16234
836.34	16455
836.478	16516
836.615	16394
836.753	16451
836.891	16428
837.029	16447
837.167	16295
837.305	16417
837.443	16348
837.58	16276
837.718	16341
837.856	16341
837.993	16253
838.131	16367
838.269	16299
838.406	16200
838.544	16166
838.681	16063
838.819	16002
838.956	15793
839.094	15823
839.231	15854
839.369	15983
839.506	16303
839.643	16162
839.781	15922
839.918	15884
840.055	15876
840.193	15797
840.33	15895
840.467	15819
840.604	15861
840.742	16063
840.879	15720
841.016	15759
841.153	15717
841.29	15968
841.427	15876
841.564	15804
841.701	15907
841.838	15804
841.975	15800
842.112	15728
842.249	15652
842.385	15637
842.522	15789
842.659	15682
842.796	15663
842.933	15660
843.069	15511
843.206	15644
843.343	15778
843.479	15743
843.616	15724
843.752	15412
843.889	15428
844.025	15568
844.162	15450
844.298	15568
844.435	15485
844.571	15386
844.708	15504
844.844	15519
844.98	15538
845.117	15523
845.253	15374
845.389	15325
845.525	15325
845.661	15351
845.798	15306
845.934	15294
846.07	15142
846.206	15291
846.342	15325
846.478	15112
846.614	15142
846.75	14979
846.886	15051
847.022	15066
847.158	15024
847.294	15028
847.429	15085
847.565	15024
847.701	15306
847.837	14777
847.972	14762
848.108	14785
848.244	14838
848.379	14629
848.515	14560
848.65	14640
848.786	14701
848.921	14659
849.057	14792
849.192	14648
849.328	14590
849.463	14610
849.598	14495
849.734	14499
849.869	14442
850.004	14347
850.14	14431
850.275	14461
850.41	14240
850.545	14313
850.68	14328
850.815	14408
850.95	14396
851.085	14590
851.22	14465
851.355	14339
851.49	14393
851.625	14317
851.76	14415
851.895	14252
852.03	14180
852.165	14317
852.299	14332
852.434	14419
852.569	14320
852.703	14476
852.838	14530
852.973	14617
853.107	14511
853.242	14423
853.376	14278
853.511	14172
853.645	14233
853.78	14362
853.914	14176
854.048	14195
854.183	14237
854.317	14244
854.451	14454
854.585	14317
854.72	14237
854.854	14286
854.988	14149
855.122	14183
855.256	14115
855.39	14210
855.524	14271
855.658	14210
855.792	14313
855.926	14275
856.06	14267
856.194	14450
856.327	14229
856.461	14195
856.595	14149
856.729	14271
856.862	14396
856.996	14290
857.13	14320
857.263	14282
857.397	14393
857.53	14218
857.664	14278
857.797	14324
857.931	14324
858.064	14290
858.197	14370
858.331	14244
858.464	14225
858.597	14183
858.731	14233
858.864	14225
858.997	14183
859.13	14328
859.263	14301
859.396	14301
859.529	14187
859.662	14199
859.795	14206
859.928	14210
860.061	14408
860.194	14514
860.327	14320
860.46	14263
860.592	14301
860.725	14366
860.858	14393
860.99	14195
861.123	14111
861.256	14240
861.388	14290
861.521	14834
861.653	14206
861.786	14100
861.918	14123
862.05	14088
862.183	14210
862.315	14191
862.447	14252
862.58	14161
862.712	14024
862.844	13921
862.976	14081
863.108	13993
863.24	14343
863.372	13925
863.504	13993
863.636	14027
863.768	14054
863.9	14050
864.032	13997
864.164	14035
864.296	14005
864.428	14183
864.559	14191
864.691	14168
864.823	14161
864.954	14100
865.086	14111
865.217	14024
865.349	13967
865.48	14039
865.612	13993
865.743	14149
865.875	14077
866.006	14043
866.137	13993
866.269	14035
866.4	13982
866.531	14001
866.662	13982
866.793	13932
866.924	13967
867.055	14065
867.186	13959
867.317	14081
867.448	13841
867.579	13921
867.71	13845
867.841	13925
867.972	14092
868.103	13963
868.233	14073
868.364	13989
868.495	14172
868.625	14180
868.756	14381
868.886	14229
869.017	14191
869.147	14374
869.278	14438
869.408	14320
869.539	14240
869.669	14351
869.799	14240
869.929	14339
870.06	14377
870.19	14549
870.32	14533
870.45	14613
870.58	14644
870.71	14819
870.84	14678
870.97	14590
871.1	14651
871.23	14849
871.36	14845
871.489	14678
871.619	14785
871.749	14834
871.879	14891
872.008	14902
872.138	14872
872.267	14868
872.397	14769
872.526	14720
872.656	14708
872.785	14750
872.915	14826
873.044	15020
873.173	14887
873.303	14952
873.432	14967
873.561	14986
873.69	14838
873.819	14944
873.948	14941
874.077	14883
874.206	14792
874.335	14853
874.464	15097
874.593	15211
874.722	15275
874.851	15298
874.979	15252
875.108	15214
875.237	15203
875.365	15154
875.494	15252
875.623	15313
875.751	15233
875.88	15241
876.008	15367
876.136	15443
876.265	15625
876.393	15724
876.521	15759
876.65	15762
876.778	15804
876.906	15637
877.034	15587
877.162	15595
877.29	15591
877.418	15694
877.546	15675
877.674	15641
877.802	15641
877.93	15663
878.058	15389
878.185	15492
878.313	15568
878.441	15648
878.568	15534
878.696	15595
878.824	15568
878.951	15717
879.079	15835
879.206	15994
879.333	15850
879.461	15652
879.588	15622
879.715	15846
879.842	15964
879.97	15717
880.097	15492
880.224	15561
880.351	15443
880.478	15462
880.605	15466
880.732	15519
880.859	15698
880.986	15504
881.112	15599
881.239	15332
881.366	15294
881.493	15195
881.619	15173
881.746	15195
881.872	15051
881.999	15081
882.125	15218
882.252	15199
882.378	15077
882.505	15306
882.631	15104
882.757	15024
882.883	14975
883.01	14998
883.136	14925
883.262	14792
883.388	14895
883.514	15017
883.64	14982
883.766	14918
883.892	14792
884.018	14777
884.143	14868
884.269	15020
884.395	14743
884.52	14499
884.646	14670
884.772	14629
884.897	14625
885.023	14667
885.148	14743
885.274	14743
885.399	14743
885.524	14651
885.65	14705
885.775	14659
885.9	14659
886.025	14705
886.15	14705
886.275	14511
886.4	14629
886.525	14655
886.65	14613
886.775	14663
886.9	14773
887.025	14906
887.149	14720
887.274	14492
887.399	14473
887.523	14476
887.648	14366
887.773	14355
887.897	14488
888.021	14640
888.146	14419
888.27	14606
888.395	14659
888.519	14610
888.643	14590
888.767	14590
888.891	14518
889.015	14336
889.139	14412
889.263	14286
889.387	14503
889.511	14533
889.635	14454
889.759	14328
889.883	14267
890.006	14381
890.13	14450
890.254	14332
890.377	14313
890.501	14172
890.624	14214
890.748	14214
890.871	14115
890.995	14092
891.118	13993
891.241	13982
891.364	14046
891.488	14176
891.611	14046
891.734	14054
891.857	14168
891.98	14100
892.103	14149
892.226	14054
892.349	14119
892.471	13967
892.594	14050
892.717	14077
892.839	14027
892.962	14088
893.085	14119
893.207	14088
893.33	13913
893.452	14035
893.575	14077
893.697	14168
893.819	14161
893.941	14282
894.064	14145
894.186	14012
894.308	14020
894.43	14183
894.552	14267
894.674	14153
894.796	14107
894.918	14065
895.04	14043
895.161	14275
895.283	14275
895.405	14130
895.526	14202
895.648	14195
895.769	14183
895.891	14206
896.012	14206
896.134	14320
896.255	14206
896.376	14278
896.498	14218
896.619	14210
896.74	14149
896.861	14320
896.982	14636
897.103	14686
897.224	14518
897.345	14419
897.466	14408
897.587	14522
897.708	14511
897.828	14552
897.949	14415
898.07	14320
898.19	14393
898.311	14571
898.431	14503
898.552	14629
898.672	14705
898.792	14701
898.913	14587
899.033	14518
899.153	14431
899.273	14381
899.393	14431
899.513	14377
899.633	14412
899.753	14454
899.873	14317
899.993	14514
900.113	14442
900.232	14484
900.352	14446
900.472	14347
900.591	14248
900.711	14328
900.83	14229
900.95	14374
901.069	14351
901.189	14168
901.308	14065
901.427	13925
901.546	13970
901.665	13967
901.784	13978
901.904	13864
902.023	13780
902.141	13540
902.26	13506
902.379	13601
902.498	13590
902.617	13559
902.735	13586
902.854	13495
902.973	13502
903.091	13194
903.21	13187
903.328	13247
903.446	13107
903.565	13084
903.683	13114
903.801	12973
903.919	13133
904.038	13061
904.156	12935
904.274	12993
904.392	12875
904.51	12837
904.627	12993
904.745	12977
904.863	13027
904.981	12722
905.098	12627
905.216	12772
905.334	12620
905.451	12703
905.569	12563
905.686	12662
905.803	12608
905.921	12467
906.038	12544
906.155	12437
906.272	12315
906.389	12357
906.506	12194
906.623	12197
906.74	12205
906.857	12110
906.974	12148
907.091	12277
907.208	12311
907.324	12205
907.441	12163
907.557	12011
907.674	11901
907.79	11908
907.907	11908
908.023	11954
908.139	12026
908.256	11912
908.372	11923
908.488	11889
908.604	11710
908.72	11703
908.836	11699
908.952	11691
909.068	11752
909.184	11885
909.3	11630
909.415	11802
909.531	11802
909.647	11482
909.762	11532
909.878	11566
909.993	11486
910.108	11417
910.224	11349
910.339	11547
910.454	11402
910.57	11341
910.685	11284
910.8	11630
910.915	11539
911.03	11433
911.145	11193
911.259	11121
911.374	11201
911.489	11128
911.604	11162
911.718	10972
911.833	10949
911.947	10866
912.062	10763
912.176	10881
912.291	11006
912.405	10930
912.519	11109
912.633	11094
912.748	10999
912.862	10995
912.976	10828
913.09	10698
913.204	10801
913.318	10786
913.431	10873
913.545	10987
913.659	10980
913.772	10824
913.886	10740
914	10729
914.113	10866
914.226	10854
914.34	10774
914.453	10668
914.566	10710
914.68	10687
914.793	10679
914.906	10470
915.019	10421
915.132	10360
915.245	10363
915.358	10398
915.47	10455
915.583	10413
915.696	10497
915.809	10599
915.921	10546
916.034	10481
916.146	10409
916.259	10379
916.371	10523
916.483	10409
916.595	10405
916.708	10394
916.82	10390
916.932	10489
917.044	10356
917.156	10371
917.268	10253
917.38	10371
917.491	10329
917.603	10356
917.715	10322
917.826	10386
917.938	10337
918.049	10280
918.161	10249
918.272	10417
918.384	10436
918.495	10291
918.606	10200
918.717	10013
918.828	10177
918.939	10188
919.05	10074
919.161	10101
919.272	9960
919.383	10044
919.494	10272
919.604	10325
919.715	10139
919.826	10078
919.936	10135
920.047	10257
920.157	10238
920.267	10310
920.378	10230
920.488	10223
920.598	10451
920.708	10538
920.818	10356
920.928	10428
921.038	10577
921.148	10561
921.258	10253
921.368	10154
921.477	10097
921.587	10078
921.697	10006
921.806	10124
921.916	9945
922.025	9762
922.134	9759
922.244	9682
922.353	9838
922.462	9690
922.571	9568
922.68	9458
922.789	9473
922.898	9496
923.007	9443
923.116	9564
923.224	9412
923.333	9397
923.442	9367
923.55	9374
923.659	9344
923.767	9378
923.876	9367
923.984	9416
924.092	9222
924.201	9260
924.309	9302
924.417	9329
924.525	9169
924.633	9176
924.741	9994
924.849	9070
924.956	9222
925.064	9123
925.172	9039
925.279	9005
925.387	9146
925.494	9184
925.602	9142
925.709	9195
925.816	9077
925.924	9173
926.031	9135
926.138	9119
926.245	9138
926.352	9066
926.459	9161
926.566	9184
926.673	9058
926.779	8956
926.886	8994
926.993	8830
927.099	8902
927.206	8724
927.312	8811
927.419	8807
927.525	8819
927.631	8895
927.737	8708
927.843	8712
927.95	8598
928.056	8629
928.162	8705
928.267	8731
928.373	9348
928.479	8819
928.585	8564
928.69	8708
928.796	8712
928.901	8629
929.007	8427
929.112	8541
929.218	8533
929.323	8564
929.428	8518
929.533	8720
929.638	8530
929.743	8484
929.848	8518
929.953	8484
930.058	8442
930.163	8237
930.267	8309
930.372	8469
930.477	8294
930.581	8492
930.685	8385
930.79	8309
930.894	8237
930.998	8252
931.103	8396
931.207	8020
931.311	8024
931.415	7928
931.519	7795
931.623	7772
