Data from test_V78500241_1655.txt Node
Date: Fri Mar 25 14:45:14 CST 2022
User: usil
Spectrometer: V785-0024
Trigger mode: 0
Integration Time (sec): 4.000000E-1
Scans to average: 1
Nonlinearity correction enabled: false
Boxcar width: 0
Storing dark spectrum: false
XAxis mode: Wavelengths
Number of Pixels in Spectrum: 1024
>>>>>Begin Spectral Data<<<<<
801.071	22440
801.214	22055
801.356	22021
801.499	21861
801.641	21717
801.783	21694
801.926	21762
802.068	21641
802.211	21614
802.353	21507
802.496	21279
802.638	21252
802.78	21100
802.923	21142
803.065	20994
803.208	21013
803.35	21047
803.492	21131
803.635	21142
803.777	21005
803.919	21131
804.061	21405
804.204	21173
804.346	20998
804.488	20872
804.63	21005
804.773	20891
804.915	21066
805.057	21104
805.199	20899
805.341	21001
805.483	21096
805.626	21036
805.768	20906
805.91	20948
806.052	20960
806.194	20857
806.336	21047
806.478	21005
806.62	20838
806.762	20986
806.904	21150
807.046	21313
807.188	21351
807.33	21275
807.472	21249
807.614	21222
807.756	21241
807.898	21005
808.04	21096
808.182	21100
808.324	21176
808.465	21093
808.607	21272
808.749	21287
808.891	21466
809.033	21595
809.174	21564
809.316	21393
809.458	21466
809.6	21447
809.741	21378
809.883	21313
810.025	21629
810.166	21511
810.308	21561
810.45	21523
810.591	21416
810.733	21340
810.875	21062
811.016	21062
811.158	21112
811.299	21089
811.441	21169
811.582	21317
811.724	21116
811.865	21085
812.007	21142
812.148	21089
812.29	21237
812.431	21317
812.573	21378
812.714	21454
812.855	21713
812.997	21625
813.138	21816
813.279	21679
813.421	21610
813.562	21557
813.703	21447
813.845	21313
813.986	21081
814.127	20788
814.268	20758
814.41	20853
814.551	20609
814.692	20724
814.833	20587
814.974	20609
815.115	20724
815.256	20511
815.397	20518
815.539	20438
815.68	20438
815.821	20473
815.962	20499
816.103	20389
816.244	20252
816.385	20199
816.526	20046
816.666	19967
816.807	19822
816.948	19947
817.089	20012
817.23	19791
817.371	19723
817.512	19795
817.653	19830
817.793	19769
817.934	19849
818.075	19799
818.216	19753
818.356	19811
818.497	19647
818.638	19499
818.778	19434
818.919	19537
819.06	19495
819.2	19662
819.341	19677
819.481	19635
819.622	19856
819.762	19989
819.903	19947
820.043	19913
820.184	19860
820.324	19719
820.465	19909
820.605	19818
820.746	19757
820.886	19567
821.026	19788
821.167	19776
821.307	19807
821.447	19647
821.588	19647
821.728	19556
821.868	19392
822.008	19179
822.149	19209
822.289	19285
822.429	18894
822.569	18878
822.709	18844
822.849	18730
822.99	18650
823.13	18650
823.27	18551
823.41	18380
823.55	18277
823.69	18544
823.83	18528
823.97	18308
824.11	18266
824.25	18262
824.389	18239
824.529	18239
824.669	18216
824.809	18426
824.949	18258
825.089	18201
825.228	18277
825.368	18007
825.508	18011
825.648	18110
825.787	18083
825.927	18072
826.067	17958
826.206	18045
826.346	18019
826.485	17965
826.625	17992
826.765	18095
826.904	18060
827.044	17828
827.183	17783
827.323	17657
827.462	17809
827.601	17634
827.741	17619
827.88	17668
828.02	17619
828.159	17760
828.298	17798
828.437	17630
828.577	17630
828.716	17733
828.855	17695
828.994	17429
829.134	17528
829.273	17512
829.412	17360
829.551	17406
829.69	17414
829.829	17474
829.968	17524
830.107	17444
830.246	17417
830.385	17360
830.524	17360
830.663	17227
830.802	17277
830.941	17227
831.08	17037
831.219	17117
831.357	17113
831.496	17162
831.635	16999
831.774	16976
831.913	16938
832.051	16904
832.19	16828
832.329	16858
832.467	16820
832.606	16778
832.744	16710
832.883	16717
833.022	16626
833.16	16748
833.299	16812
833.437	16713
833.576	16805
833.714	16828
833.852	16797
833.991	16839
834.129	16896
834.267	16873
834.406	16683
834.544	16812
834.682	16816
834.821	16782
834.959	16991
835.097	16847
835.235	16919
835.373	16763
835.511	16911
835.65	16748
835.788	16713
835.926	16546
836.064	16474
836.202	16478
836.34	16736
836.478	16767
836.615	16698
836.753	16668
836.891	16713
837.029	16759
837.167	16645
837.305	16656
837.443	16664
837.58	16497
837.718	16569
837.856	16641
837.993	16519
838.131	16447
838.269	16447
838.406	16577
838.544	16455
838.681	16322
838.819	16291
838.956	16097
839.094	16097
839.231	16154
839.369	16398
839.506	16508
839.643	16261
839.781	16105
839.918	16063
840.055	16131
840.193	16139
840.33	16131
840.467	16207
840.604	16185
840.742	16318
840.879	15987
841.016	16063
841.153	16029
841.29	16185
841.427	16196
841.564	16169
841.701	16078
841.838	15998
841.975	16017
842.112	16105
842.249	15895
842.385	15861
842.522	16059
842.659	15857
842.796	15861
842.933	15892
843.069	15793
843.206	15827
843.343	15941
843.479	15918
843.616	15949
843.752	15762
843.889	15732
844.025	15766
844.162	15660
844.298	15827
844.435	15671
844.571	15663
844.708	15667
844.844	15812
844.98	15797
845.117	15785
845.253	15595
845.389	15488
845.525	15591
845.661	15587
845.798	15526
845.934	15591
846.07	15466
846.206	15587
846.342	15572
846.478	15386
846.614	15351
846.75	15222
846.886	15165
847.022	15294
847.158	15264
847.294	15359
847.429	15325
847.565	15226
847.701	15473
847.837	15097
847.972	14883
848.108	15131
848.244	15100
848.379	14883
848.515	14849
848.65	14895
848.786	14826
848.921	14925
849.057	14925
849.192	15005
849.328	14823
849.463	14796
849.598	14857
849.734	14758
849.869	14674
850.004	14682
850.14	14629
850.275	14708
850.41	14492
850.545	14503
850.68	14526
850.815	14644
850.95	14606
851.085	14777
851.22	14594
851.355	14613
851.49	14541
851.625	14564
851.76	14617
851.895	14408
852.03	14492
852.165	14556
852.299	14533
852.434	14739
852.569	14530
852.703	14541
852.838	14712
852.973	14838
853.107	14754
853.242	14625
853.376	14427
853.511	14278
853.645	14427
853.78	14431
853.914	14381
854.048	14419
854.183	14396
854.317	14423
854.451	14537
854.585	14469
854.72	14419
854.854	14526
854.988	14469
855.122	14389
855.256	14374
855.39	14389
855.524	14431
855.658	14446
855.792	14571
855.926	14579
856.06	14602
856.194	14552
856.327	14461
856.461	14450
856.595	14423
856.729	14457
856.862	14606
856.996	14545
857.13	14594
857.263	14594
857.397	14537
857.53	14503
857.664	14552
857.797	14602
857.931	14610
858.064	14507
858.197	14549
858.331	14503
858.464	14427
858.597	14366
858.731	14457
858.864	14492
858.997	14499
859.13	14511
859.263	14564
859.396	14514
859.529	14347
859.662	14374
859.795	14438
859.928	14564
860.061	14716
860.194	14617
860.327	14473
860.46	14480
860.592	14613
860.725	14655
860.858	14594
860.99	14492
861.123	14450
861.256	14484
861.388	14476
861.521	15127
861.653	14370
861.786	14240
861.918	14309
862.05	14518
862.183	14434
862.315	14469
862.447	14492
862.58	14442
862.712	14248
862.844	14221
862.976	14317
863.108	14328
863.24	14785
863.372	14142
863.504	14214
863.636	14259
863.768	14415
863.9	14218
864.032	14256
864.164	14191
864.296	14286
864.428	14404
864.559	14328
864.691	14389
864.823	14389
864.954	14351
865.086	14317
865.217	14248
865.349	14187
865.48	14263
865.612	14202
865.743	14328
865.875	14252
866.006	14103
866.137	14271
866.269	14202
866.4	14252
866.531	14210
866.662	14218
866.793	14126
866.924	14275
867.055	14252
867.186	14256
867.317	14199
867.448	14164
867.579	14252
867.71	14161
867.841	14134
867.972	14290
868.103	14237
868.233	14267
868.364	14324
868.495	14240
868.625	14438
868.756	14606
868.886	14442
869.017	14495
869.147	14583
869.278	14625
869.408	14454
869.539	14457
869.669	14594
869.799	14602
869.929	14705
870.06	14663
870.19	14838
870.32	14743
870.45	14876
870.58	14880
870.71	15066
870.84	14948
870.97	14838
871.1	14864
871.23	15108
871.36	15119
871.489	14990
871.619	15043
871.749	15024
871.879	15135
872.008	15256
872.138	15070
872.267	15005
872.397	14960
872.526	14975
872.656	14902
872.785	14960
872.915	14994
873.044	15195
873.173	15100
873.303	15192
873.432	15233
873.561	15237
873.69	15131
873.819	15138
873.948	15249
874.077	15138
874.206	15047
874.335	15146
874.464	15321
874.593	15401
874.722	15325
874.851	15492
874.979	15473
875.108	15564
875.237	15469
875.365	15302
875.494	15458
875.623	15549
875.751	15401
875.88	15496
876.008	15568
876.136	15603
876.265	15831
876.393	15960
876.521	15968
876.65	15899
876.778	15876
876.906	15892
877.034	15823
877.162	15736
877.29	15766
877.418	15812
877.546	15903
877.674	15759
877.802	15972
877.93	15865
878.058	15785
878.185	15713
878.313	15880
878.441	15854
878.568	15705
878.696	15785
878.824	15759
878.951	15930
879.079	16021
879.206	16109
879.333	16086
879.461	15960
879.588	16013
879.715	16143
879.842	16192
879.97	15972
880.097	15747
880.224	15720
880.351	15751
880.478	15705
880.605	15644
880.732	15637
880.859	15846
880.986	15759
881.112	15724
881.239	15686
881.366	15462
881.493	15473
881.619	15275
881.746	15389
881.872	15363
881.999	15389
882.125	15401
882.252	15416
882.378	15450
882.505	15519
882.631	15218
882.757	15184
882.883	15230
883.01	15142
883.136	15104
883.262	15028
883.388	14887
883.514	15195
883.64	15264
883.766	15100
883.892	15062
884.018	15074
884.143	15108
884.269	15252
884.395	14956
884.52	14826
884.646	14967
884.772	14842
884.897	14765
885.023	14899
885.148	15009
885.274	15013
885.399	15005
885.524	14895
885.65	14853
885.775	14967
885.9	14807
886.025	14960
886.15	14868
886.275	14849
886.4	14773
886.525	14853
886.65	14792
886.775	14785
886.9	14906
887.025	15028
887.149	14864
887.274	14682
887.399	14712
887.523	14720
887.648	14667
887.773	14682
887.897	14777
888.021	14720
888.146	14663
888.27	14785
888.395	14880
888.519	14693
888.643	14743
888.767	14792
888.891	14651
889.015	14533
889.139	14667
889.263	14552
889.387	14670
889.511	14648
889.635	14701
889.759	14537
889.883	14507
890.006	14590
890.13	14743
890.254	14511
890.377	14499
890.501	14393
890.624	14377
890.748	14454
890.871	14343
890.995	14237
891.118	14176
891.241	14313
891.364	14320
891.488	14328
891.611	14305
891.734	14259
891.857	14324
891.98	14294
892.103	14362
892.226	14252
892.349	14267
892.471	14142
892.594	14202
892.717	14317
892.839	14252
892.962	14252
893.085	14431
893.207	14233
893.33	14073
893.452	14202
893.575	14233
893.697	14248
893.819	14469
893.941	14427
894.064	14446
894.186	14176
894.308	14164
894.43	14313
894.552	14522
894.674	14362
894.796	14271
894.918	14317
895.04	14381
895.161	14400
895.283	14514
895.405	14320
895.526	14377
895.648	14290
895.769	14370
895.891	14339
896.012	14507
896.134	14488
896.255	14484
896.376	14366
896.498	14404
896.619	14492
896.74	14507
896.861	14442
896.982	14796
897.103	14883
897.224	14815
897.345	14678
897.466	14590
897.587	14746
897.708	14800
897.828	14712
897.949	14625
898.07	14488
898.19	14644
898.311	14785
898.431	14701
898.552	14735
898.672	14727
898.792	14804
898.913	14769
899.033	14682
899.153	14739
899.273	14522
899.393	14518
899.513	14632
899.633	14560
899.753	14617
899.873	14617
899.993	14693
900.113	14636
900.232	14568
900.352	14613
900.472	14571
900.591	14465
900.711	14492
900.83	14492
900.95	14617
901.069	14651
901.189	14404
901.308	14244
901.427	14103
901.546	14237
901.665	14180
901.784	14229
901.904	14096
902.023	13928
902.141	13814
902.26	13677
902.379	13833
902.498	13750
902.617	13704
902.735	13727
902.854	13685
902.973	13666
903.091	13548
903.21	13499
903.328	13438
903.446	13430
903.565	13373
903.683	13350
903.801	13263
903.919	13304
904.038	13217
904.156	13160
904.274	13202
904.392	13107
904.51	13156
904.627	13050
904.745	13236
904.863	13168
904.981	12928
905.098	12840
905.216	12722
905.334	12867
905.451	12703
905.569	12791
905.686	12825
905.803	12890
905.921	12722
906.038	12673
906.155	12604
906.272	12483
906.389	12509
906.506	12460
906.623	12407
906.74	12361
906.857	12270
906.974	12311
907.091	12490
907.208	12551
907.324	12506
907.441	12334
907.557	12182
907.674	12163
907.79	12102
907.907	12110
908.023	12152
908.139	12152
908.256	12121
908.372	12022
908.488	11988
908.604	11920
908.72	11923
908.836	11942
908.952	11817
909.068	11927
909.184	12022
909.3	11863
909.415	11992
909.531	11912
909.647	11691
909.762	11570
909.878	11649
909.993	11699
910.108	11577
910.224	11653
910.339	11691
910.454	11554
910.57	11535
910.685	11387
910.8	11741
910.915	11672
911.03	11566
911.145	11436
911.259	11360
911.374	11376
911.489	11307
911.604	11265
911.718	11090
911.833	11098
911.947	11067
912.062	11029
912.176	11117
912.291	11216
912.405	11124
912.519	11261
912.633	11296
912.748	11269
912.862	11060
912.976	11006
913.09	10831
913.204	11006
913.318	11022
913.431	11067
913.545	11094
913.659	11143
913.772	10976
913.886	10957
914	10908
914.113	11041
914.226	11022
914.34	10949
914.453	10820
914.566	10946
914.68	10790
914.793	10759
914.906	10622
915.019	10611
915.132	10546
915.245	10675
915.358	10599
915.47	10622
915.583	10698
915.696	10668
915.809	10755
915.921	10759
916.034	10649
916.146	10550
916.259	10554
916.371	10607
916.483	10630
916.595	10550
916.708	10573
916.82	10546
916.932	10531
917.044	10523
917.156	10493
917.268	10379
917.38	10474
917.491	10455
917.603	10470
917.715	10512
917.826	10481
917.938	10489
918.049	10367
918.161	10428
918.272	10622
918.384	10546
918.495	10443
918.606	10242
918.717	10181
918.828	10337
918.939	10352
919.05	10272
919.161	10287
919.272	10147
919.383	10196
919.494	10405
919.604	10561
919.715	10371
919.826	10204
919.936	10333
920.047	10409
920.157	10386
920.267	10508
920.378	10337
920.488	10268
920.598	10546
920.708	10607
920.818	10508
920.928	10508
921.038	10748
921.148	10637
921.258	10405
921.368	10284
921.477	10234
921.587	10166
921.697	10002
921.806	10227
921.916	10029
922.025	9941
922.134	9926
922.244	9846
922.353	9903
922.462	9774
922.571	9713
922.68	9595
922.789	9610
922.898	9652
923.007	9553
923.116	9618
923.224	9568
923.333	9576
923.442	9515
923.55	9351
923.659	9530
923.767	9504
923.876	9469
923.984	9504
924.092	9477
924.201	9439
924.309	9412
924.417	9405
924.525	9374
924.633	9408
924.741	10185
924.849	9173
924.956	9310
925.064	9218
925.172	9146
925.279	9127
925.387	9283
925.494	9253
925.602	9397
925.709	9302
925.816	9169
925.924	9165
926.031	9264
926.138	9275
926.245	9233
926.352	9207
926.459	9291
926.566	9272
926.673	9157
926.779	9104
926.886	9051
926.993	8990
927.099	8956
927.206	8845
927.312	8906
927.419	9009
927.525	9036
927.631	9043
927.737	8861
927.843	8811
927.95	8766
928.056	8834
928.162	8811
928.267	8872
928.373	9408
928.479	8887
928.585	8663
928.69	8826
928.796	8876
928.901	8743
929.007	8602
929.112	8735
929.218	8621
929.323	8640
929.428	8632
929.533	8720
929.638	8602
929.743	8598
929.848	8724
929.953	8579
930.058	8545
930.163	8427
930.267	8370
930.372	8556
930.477	8377
930.581	8621
930.685	8518
930.79	8282
930.894	8400
930.998	8279
931.103	8480
931.207	8096
931.311	8062
931.415	8065
931.519	7887
931.623	7913
