Data from test_V78500241_2617.txt Node
Date: Fri Mar 25 14:51:56 CST 2022
User: usil
Spectrometer: V785-0024
Trigger mode: 0
Integration Time (sec): 4.000000E-1
Scans to average: 1
Nonlinearity correction enabled: false
Boxcar width: 0
Storing dark spectrum: false
XAxis mode: Wavelengths
Number of Pixels in Spectrum: 1024
>>>>>Begin Spectral Data<<<<<
801.071	22010
801.214	21842
801.356	21679
801.499	21435
801.641	21519
801.783	21431
801.926	21317
802.068	21370
802.211	21203
802.353	21245
802.496	21096
802.638	20899
802.78	20716
802.923	20708
803.065	20655
803.208	20689
803.35	20693
803.492	20785
803.635	20792
803.777	20701
803.919	20750
804.061	21116
804.204	20883
804.346	20701
804.488	20575
804.63	20746
804.773	20465
804.915	20484
805.057	20758
805.199	20617
805.341	20651
805.483	20705
805.626	20727
805.768	20499
805.91	20621
806.052	20678
806.194	20507
806.336	20735
806.478	20629
806.62	20511
806.762	20693
806.904	20746
807.046	21032
807.188	20933
807.33	20914
807.472	20952
807.614	20876
807.756	20845
807.898	20674
808.04	20663
808.182	20648
808.324	20716
808.465	20629
808.607	20811
808.749	21051
808.891	21062
809.033	21157
809.174	21108
809.316	20921
809.458	20853
809.6	20887
809.741	20975
809.883	21039
810.025	21154
810.166	21085
810.308	21131
810.45	20994
810.591	20811
810.733	20887
810.875	20815
811.016	20731
811.158	20651
811.299	20819
811.441	20868
811.582	20864
811.724	20735
811.865	20720
812.007	20724
812.148	20712
812.29	20686
812.431	20960
812.573	21036
812.714	21237
812.855	21233
812.997	21332
813.138	21511
813.279	21389
813.421	21237
813.562	21104
813.703	21032
813.845	20807
813.986	20640
814.127	20377
814.268	20408
814.41	20252
814.551	20164
814.692	20320
814.833	20309
814.974	20237
815.115	20298
815.256	20122
815.397	20122
815.539	20107
815.68	19925
815.821	19940
815.962	20142
816.103	19925
816.244	19780
816.385	19685
816.526	19715
816.666	19616
816.807	19400
816.948	19514
817.089	19514
817.23	19438
817.371	19411
817.512	19316
817.653	19392
817.793	19339
817.934	19472
818.075	19426
818.216	19438
818.356	19263
818.497	19259
818.638	19046
818.778	19042
818.919	19137
819.06	19122
819.2	19244
819.341	19289
819.481	19335
819.622	19312
819.762	19597
819.903	19594
820.043	19468
820.184	19384
820.324	19422
820.465	19495
820.605	19354
820.746	19297
820.886	19263
821.026	19331
821.167	19236
821.307	19392
821.447	19331
821.588	19190
821.728	19019
821.868	18966
822.008	18947
822.149	18886
822.289	18783
822.429	18574
822.569	18418
822.709	18429
822.849	18308
822.99	18136
823.13	18277
823.27	18251
823.41	18167
823.55	18041
823.69	18064
823.83	18064
823.97	18057
824.11	17889
824.25	17824
824.389	17916
824.529	17939
824.669	17920
824.809	18003
824.949	17916
825.089	17828
825.228	17817
825.368	17790
825.508	17642
825.648	17707
825.787	17665
825.927	17726
826.067	17497
826.206	17532
826.346	17703
826.485	17627
826.625	17551
826.765	17771
826.904	17668
827.044	17474
827.183	17482
827.323	17307
827.462	17372
827.601	17410
827.741	17330
827.88	17395
828.02	17223
828.159	17360
828.298	17364
828.437	17391
828.577	17189
828.716	17448
828.855	17318
828.994	17117
829.134	17132
829.273	17170
829.412	17083
829.551	16999
829.69	17143
829.829	17052
829.968	17239
830.107	17208
830.246	17170
830.385	17048
830.524	17029
830.663	16908
830.802	16843
830.941	16831
831.08	16615
831.219	16771
831.357	16869
831.496	16923
831.635	16713
831.774	16634
831.913	16592
832.051	16443
832.19	16447
832.329	16626
832.467	16413
832.606	16405
832.744	16394
832.883	16478
833.022	16455
833.16	16318
833.299	16504
833.437	16451
833.576	16409
833.714	16466
833.852	16424
833.991	16474
834.129	16546
834.267	16485
834.406	16466
834.544	16455
834.682	16508
834.821	16474
834.959	16630
835.097	16455
835.235	16538
835.373	16500
835.511	16500
835.65	16371
835.788	16409
835.926	16215
836.064	16131
836.202	16211
836.34	16432
836.478	16478
836.615	16257
836.753	16523
836.891	16489
837.029	16375
837.167	16394
837.305	16226
837.443	16333
837.58	16253
837.718	16310
837.856	16382
837.993	16192
838.131	16303
838.269	16166
838.406	16154
838.544	16112
838.681	15861
838.819	15918
838.956	15838
839.094	15816
839.231	15949
839.369	15934
839.506	16139
839.643	16036
839.781	15800
839.918	15709
840.055	15876
840.193	15686
840.33	15808
840.467	15895
840.604	15842
840.742	16059
840.879	15580
841.016	15762
841.153	15690
841.29	15953
841.427	15804
841.564	15846
841.701	15835
841.838	15800
841.975	15778
842.112	15701
842.249	15584
842.385	15538
842.522	15812
842.659	15576
842.796	15576
842.933	15603
843.069	15519
843.206	15606
843.343	15660
843.479	15622
843.616	15679
843.752	15443
843.889	15382
844.025	15424
844.162	15420
844.298	15523
844.435	15382
844.571	15302
844.708	15477
844.844	15564
844.98	15488
845.117	15504
845.253	15412
845.389	15165
845.525	15344
845.661	15283
845.798	15260
845.934	15332
846.07	15081
846.206	15252
846.342	15355
846.478	15173
846.614	14918
846.75	14956
846.886	14933
847.022	15104
847.158	15032
847.294	15066
847.429	15013
847.565	14937
847.701	15211
847.837	14762
847.972	14651
848.108	14792
848.244	14788
848.379	14571
848.515	14606
848.65	14522
848.786	14590
848.921	14644
849.057	14651
849.192	14670
849.328	14590
849.463	14533
849.598	14560
849.734	14537
849.869	14431
850.004	14362
850.14	14454
850.275	14404
850.41	14290
850.545	14233
850.68	14347
850.815	14313
850.95	14343
851.085	14438
851.22	14461
851.355	14351
851.49	14229
851.625	14377
851.76	14259
851.895	14244
852.03	14130
852.165	14305
852.299	14393
852.434	14336
852.569	14381
852.703	14389
852.838	14370
852.973	14438
853.107	14442
853.242	14324
853.376	14221
853.511	14138
853.645	14244
853.78	14343
853.914	14214
854.048	14218
854.183	14218
854.317	14275
854.451	14301
854.585	14191
854.72	14096
854.854	14256
854.988	14123
855.122	14233
855.256	14077
855.39	14149
855.524	14282
855.658	14263
855.792	14145
855.926	14153
856.06	14347
856.194	14195
856.327	14206
856.461	14168
856.595	14119
856.729	14172
856.862	14377
856.996	14214
857.13	14317
857.263	14248
857.397	14404
857.53	14290
857.664	14199
857.797	14248
857.931	14389
858.064	14343
858.197	14275
858.331	14267
858.464	14164
858.597	14168
858.731	14191
858.864	14336
858.997	14138
859.13	14263
859.263	14202
859.396	14309
859.529	14218
859.662	14157
859.795	14157
859.928	14229
860.061	14370
860.194	14442
860.327	14252
860.46	14168
860.592	14301
860.725	14328
860.858	14381
860.99	14180
861.123	14054
861.256	14153
861.388	14286
861.521	14830
861.653	14126
861.786	14024
861.918	14058
862.05	14168
862.183	14195
862.315	14244
862.447	14244
862.58	14176
862.712	13864
862.844	13894
862.976	14031
863.108	13959
863.24	14415
863.372	13906
863.504	13970
863.636	14005
863.768	14008
863.9	14020
864.032	13955
864.164	13925
864.296	14092
864.428	14058
864.559	14092
864.691	14073
864.823	14046
864.954	14142
865.086	14027
865.217	14035
865.349	13913
865.48	13997
865.612	13925
865.743	14096
865.875	13959
866.006	13898
866.137	13951
866.269	13959
866.4	13879
866.531	13936
866.662	13894
866.793	13791
866.924	13982
867.055	13974
867.186	14016
867.317	13925
867.448	13936
867.579	14020
867.71	13814
867.841	13875
867.972	13890
868.103	13947
868.233	14016
868.364	13997
868.495	14100
868.625	14298
868.756	14309
868.886	14183
869.017	14077
869.147	14358
869.278	14374
869.408	14263
869.539	14221
869.669	14317
869.799	14332
869.929	14332
870.06	14370
870.19	14594
870.32	14522
870.45	14549
870.58	14648
870.71	14579
870.84	14659
870.97	14613
871.1	14640
871.23	14807
871.36	14781
871.489	14727
871.619	14819
871.749	14857
871.879	14864
872.008	14990
872.138	14910
872.267	14785
872.397	14754
872.526	14686
872.656	14610
872.785	14693
872.915	14838
873.044	14830
873.173	14830
873.303	14921
873.432	14883
873.561	14914
873.69	14853
873.819	14796
873.948	14967
874.077	14883
874.206	14918
874.335	14929
874.464	15005
874.593	15195
874.722	15047
874.851	15157
874.979	15237
875.108	15199
875.237	15077
875.365	15104
875.494	15188
875.623	15252
875.751	15135
875.88	15154
876.008	15252
876.136	15473
876.265	15553
876.393	15652
876.521	15705
876.65	15679
876.778	15675
876.906	15614
877.034	15564
877.162	15679
877.29	15587
877.418	15625
877.546	15622
877.674	15629
877.802	15580
877.93	15542
878.058	15595
878.185	15603
878.313	15648
878.441	15625
878.568	15424
878.696	15496
878.824	15595
878.951	15637
879.079	15838
879.206	15903
879.333	15781
879.461	15618
879.588	15739
879.715	15732
879.842	15949
879.97	15701
880.097	15492
880.224	15370
880.351	15485
880.478	15488
880.605	15408
880.732	15450
880.859	15656
880.986	15584
881.112	15443
881.239	15336
881.366	15275
881.493	15138
881.619	15112
881.746	15089
881.872	15058
881.999	15097
882.125	14990
882.252	15085
882.378	15135
882.505	15294
882.631	15085
882.757	14937
882.883	14990
883.01	14967
883.136	14956
883.262	14777
883.388	14781
883.514	14941
883.64	14994
883.766	14796
883.892	14682
884.018	14773
884.143	14979
884.269	14979
884.395	14743
884.52	14575
884.646	14621
884.772	14537
884.897	14583
885.023	14602
885.148	14823
885.274	14849
885.399	14697
885.524	14670
885.65	14621
885.775	14815
885.9	14621
886.025	14693
886.15	14697
886.275	14617
886.4	14655
886.525	14583
886.65	14640
886.775	14560
886.9	14826
887.025	14834
887.149	14602
887.274	14457
887.399	14415
887.523	14450
887.648	14377
887.773	14431
887.897	14522
888.021	14533
888.146	14400
888.27	14549
888.395	14579
888.519	14412
888.643	14598
888.767	14549
888.891	14381
889.015	14244
889.139	14404
889.263	14271
889.387	14431
889.511	14518
889.635	14480
889.759	14347
889.883	14381
890.006	14278
890.13	14431
890.254	14259
890.377	14244
890.501	14134
890.624	14073
890.748	14161
890.871	14062
890.995	13963
891.118	13963
891.241	14039
891.364	14001
891.488	14176
891.611	13978
891.734	14062
891.857	14081
891.98	14065
892.103	14161
892.226	14107
892.349	14027
892.471	13883
892.594	14031
892.717	13989
892.839	14046
892.962	14058
893.085	14145
893.207	14088
893.33	13925
893.452	14005
893.575	14050
893.697	14065
893.819	14092
893.941	14275
894.064	14176
894.186	14027
894.308	13986
894.43	14206
894.552	14256
894.674	14233
894.796	14043
894.918	14088
895.04	14069
895.161	14103
895.283	14180
895.405	14115
895.526	14138
895.648	14195
895.769	14138
895.891	14206
896.012	14252
896.134	14225
896.255	14225
896.376	14199
896.498	14134
896.619	14259
896.74	14214
896.861	14286
896.982	14549
897.103	14724
897.224	14488
897.345	14511
897.466	14355
897.587	14499
897.708	14590
897.828	14511
897.949	14404
898.07	14313
898.19	14423
898.311	14644
898.431	14541
898.552	14556
898.672	14617
898.792	14697
898.913	14613
899.033	14571
899.153	14431
899.273	14233
899.393	14343
899.513	14332
899.633	14393
899.753	14450
899.873	14389
899.993	14495
900.113	14381
900.232	14339
900.352	14404
900.472	14366
900.591	14267
900.711	14256
900.83	14214
900.95	14454
901.069	14499
901.189	14210
901.308	14012
901.427	13868
901.546	13925
901.665	13997
901.784	13989
901.904	13883
902.023	13772
902.141	13533
902.26	13525
902.379	13594
902.498	13483
902.617	13422
902.735	13567
902.854	13441
902.973	13415
903.091	13202
903.21	13225
903.328	13175
903.446	13213
903.565	13110
903.683	13141
903.801	12951
903.919	13050
904.038	13053
904.156	12882
904.274	13012
904.392	12920
904.51	12901
904.627	12856
904.745	12970
904.863	13008
904.981	12658
905.098	12589
905.216	12597
905.334	12662
905.451	12662
905.569	12585
905.686	12623
905.803	12597
905.921	12391
906.038	12547
906.155	12388
906.272	12338
906.389	12327
906.506	12243
906.623	12175
906.74	12178
906.857	12038
906.974	12102
907.091	12266
907.208	12361
907.324	12155
907.441	12098
907.557	11999
907.674	11916
907.79	11889
907.907	11824
908.023	12057
908.139	12038
908.256	11927
908.372	11958
908.488	11817
908.604	11733
908.72	11688
908.836	11767
908.952	11619
909.068	11703
909.184	11866
909.3	11676
909.415	11783
909.531	11653
909.647	11539
909.762	11551
909.878	11463
909.993	11471
910.108	11474
910.224	11482
910.339	11547
910.454	11364
910.57	11383
910.685	11307
910.8	11615
910.915	11570
911.03	11349
911.145	11254
911.259	11204
911.374	11212
911.489	11109
911.604	11052
911.718	10896
911.833	10934
911.947	10881
912.062	10752
912.176	10881
912.291	11037
912.405	10900
912.519	11174
912.633	11094
912.748	11029
912.862	10919
912.976	10854
913.09	10714
913.204	10717
913.318	10778
913.431	10915
913.545	10805
913.659	10953
913.772	10858
913.886	10679
914	10714
914.113	10839
914.226	10828
914.34	10717
914.453	10645
914.566	10759
914.68	10672
914.793	10641
914.906	10485
915.019	10405
915.132	10337
915.245	10455
915.358	10504
915.47	10470
915.583	10451
915.696	10550
915.809	10573
915.921	10641
916.034	10436
916.146	10409
916.259	10409
916.371	10489
916.483	10497
916.595	10390
916.708	10382
916.82	10500
916.932	10295
917.044	10352
917.156	10337
917.268	10223
917.38	10280
917.491	10287
917.603	10295
917.715	10322
917.826	10379
917.938	10341
918.049	10154
918.161	10249
918.272	10402
918.384	10436
918.495	10352
918.606	10200
918.717	10090
918.828	10158
918.939	10227
919.05	10086
919.161	10109
919.272	9846
919.383	9979
919.494	10207
919.604	10325
919.715	10154
919.826	10097
919.936	10177
920.047	10173
920.157	10234
920.267	10379
920.378	10219
920.488	10154
920.598	10405
920.708	10481
920.818	10402
920.928	10329
921.038	10542
921.148	10519
921.258	10227
921.368	10101
921.477	10029
921.587	9968
921.697	9972
921.806	10112
921.916	9926
922.025	9713
922.134	9663
922.244	9679
922.353	9755
922.462	9595
922.571	9606
922.68	9458
922.789	9370
922.898	9466
923.007	9382
923.116	9511
923.224	9481
923.333	9412
923.442	9401
923.55	9268
923.659	9313
923.767	9374
923.876	9272
923.984	9363
924.092	9207
924.201	9302
924.309	9287
924.417	9291
924.525	9317
924.633	9279
924.741	10021
924.849	9112
924.956	9188
925.064	9058
925.172	8986
925.279	8979
925.387	9085
925.494	9085
925.602	9207
925.709	9233
925.816	8963
925.924	9081
926.031	9165
926.138	9112
926.245	9138
926.352	8948
926.459	9142
926.566	9260
926.673	9047
926.779	8914
926.886	8925
926.993	8811
927.099	8735
927.206	8834
927.312	8781
927.419	8857
927.525	8834
927.631	8849
927.737	8746
927.843	8663
927.95	8632
928.056	8636
928.162	8640
928.267	8720
928.373	9378
928.479	8830
928.585	8507
928.69	8686
928.796	8701
928.901	8644
929.007	8473
929.112	8583
929.218	8636
929.323	8518
929.428	8541
929.533	8648
929.638	8488
929.743	8461
929.848	8594
929.953	8526
930.058	8423
930.163	8298
930.267	8290
930.372	8461
930.477	8252
930.581	8541
930.685	8309
930.79	8248
930.894	8317
930.998	8191
931.103	8313
931.207	8050
931.311	7932
931.415	7894
931.519	7753
931.623	7761
