Data from test_V78500241_1015.txt Node
Date: Fri Mar 25 14:40:47 CST 2022
User: usil
Spectrometer: V785-0024
Trigger mode: 0
Integration Time (sec): 4.000000E-1
Scans to average: 1
Nonlinearity correction enabled: false
Boxcar width: 0
Storing dark spectrum: false
XAxis mode: Wavelengths
Number of Pixels in Spectrum: 1024
>>>>>Begin Spectral Data<<<<<
801.071	23064
801.214	22919
801.356	22637
801.499	22573
801.641	22493
801.783	22344
801.926	22523
802.068	22398
802.211	22181
802.353	22242
802.496	21857
802.638	21835
802.78	21857
802.923	21781
803.065	21564
803.208	21781
803.35	21838
803.492	21861
803.635	21884
803.777	21667
803.919	21873
804.061	22040
804.204	21827
804.346	21679
804.488	21542
804.63	21713
804.773	21523
804.915	21743
805.057	21762
805.199	21766
805.341	21709
805.483	21793
805.626	21812
805.768	21610
805.91	21545
806.052	21762
806.194	21591
806.336	21854
806.478	21808
806.62	21690
806.762	21842
806.904	21964
807.046	22238
807.188	22067
807.33	22093
807.472	22207
807.614	22158
807.756	22230
807.898	22211
808.04	22128
808.182	22238
808.324	22386
808.465	22466
808.607	22885
808.749	23220
808.891	23162
809.033	23284
809.174	23098
809.316	22866
809.458	22660
809.6	22523
809.741	22596
809.883	22508
810.025	22516
810.166	22542
810.308	22470
810.45	22424
810.591	22207
810.733	22036
810.875	22029
811.016	21865
811.158	21861
811.299	22097
811.441	22101
811.582	21972
811.724	21895
811.865	21968
812.007	21903
812.148	21869
812.29	21876
812.431	22051
812.573	22295
812.714	22268
812.855	22512
812.997	22523
813.138	22565
813.279	22447
813.421	22352
813.562	22398
813.703	22276
813.845	22063
813.986	21766
814.127	21698
814.268	21428
814.41	21428
814.551	21492
814.692	21523
814.833	21412
814.974	21374
815.115	21424
815.256	21138
815.397	21321
815.539	21283
815.68	21195
815.821	21154
815.962	21256
816.103	21028
816.244	21036
816.385	20971
816.526	20925
816.666	20689
816.807	20651
816.948	20739
817.089	20682
817.23	20590
817.371	20518
817.512	20552
817.653	20476
817.793	20511
817.934	20473
818.075	20602
818.216	20655
818.356	20518
818.497	20442
818.638	20180
818.778	20248
818.919	20263
819.06	20332
819.2	20381
819.341	20476
819.481	20564
819.622	20503
819.762	20754
819.903	20663
820.043	20674
820.184	20545
820.324	20568
820.465	20594
820.605	20530
820.746	20469
820.886	20358
821.026	20503
821.167	20526
821.307	20625
821.447	20374
821.588	20339
821.728	20180
821.868	19963
822.008	20039
822.149	19879
822.289	20058
822.429	19753
822.569	19651
822.709	19616
822.849	19445
822.99	19403
823.13	19430
823.27	19476
823.41	19293
823.55	19175
823.69	19198
823.83	19194
823.97	19164
824.11	19095
824.25	19004
824.389	18966
824.529	19080
824.669	18989
824.809	19012
824.949	19202
825.089	18985
825.228	19050
825.368	18943
825.508	18909
825.648	18859
825.787	18821
825.927	18825
826.067	18753
826.206	18722
826.346	18848
826.485	18806
826.625	18833
826.765	18909
826.904	18867
827.044	18513
827.183	18631
827.323	18486
827.462	18597
827.601	18486
827.741	18399
827.88	18433
828.02	18361
828.159	18471
828.298	18559
828.437	18456
828.577	18517
828.716	18570
828.855	18486
828.994	18201
829.134	18228
829.273	18232
829.412	18243
829.551	18091
829.69	18174
829.829	18296
829.968	18369
830.107	18228
830.246	18273
830.385	18129
830.524	18022
830.663	18030
830.802	17923
830.941	17908
831.08	17737
831.219	17828
831.357	17969
831.496	18091
831.635	17722
831.774	17714
831.913	17619
832.051	17668
832.19	17627
832.329	17619
832.467	17547
832.606	17490
832.744	17566
832.883	17535
833.022	17528
833.16	17649
833.299	17638
833.437	17596
833.576	17570
833.714	17676
833.852	17680
833.991	17577
834.129	17695
834.267	17611
834.406	17551
834.544	17630
834.682	17657
834.821	17543
834.959	17771
835.097	17581
835.235	17520
835.373	17687
835.511	17600
835.65	17581
835.788	17547
835.926	17391
836.064	17231
836.202	17402
836.34	17505
836.478	17532
836.615	17368
836.753	17524
836.891	17448
837.029	17501
837.167	17376
837.305	17448
837.443	17391
837.58	17368
837.718	17341
837.856	17368
837.993	17315
838.131	17318
838.269	17296
838.406	17277
838.544	17239
838.681	17003
838.819	17022
838.956	16877
839.094	16847
839.231	16915
839.369	17079
839.506	17216
839.643	16999
839.781	16858
839.918	16881
840.055	16927
840.193	16873
840.33	16854
840.467	16809
840.604	16869
840.742	17143
840.879	16691
841.016	16752
841.153	16820
841.29	17022
841.427	16831
841.564	16847
841.701	16850
841.838	16801
841.975	16725
842.112	16725
842.249	16565
842.385	16599
842.522	16816
842.659	16656
842.796	16660
842.933	16615
843.069	16588
843.206	16603
843.343	16721
843.479	16702
843.616	16626
843.752	16436
843.889	16375
844.025	16527
844.162	16375
844.298	16550
844.435	16466
844.571	16390
844.708	16485
844.844	16611
844.98	16592
845.117	16626
845.253	16485
845.389	16455
845.525	16748
845.661	16850
845.798	17052
845.934	17406
846.07	17383
846.206	17368
846.342	17395
846.478	16949
846.614	16489
846.75	16188
846.886	16131
847.022	16185
847.158	16086
847.294	15968
847.429	16025
847.565	15892
847.701	16291
847.837	15869
847.972	15694
848.108	15728
848.244	15717
848.379	15526
848.515	15511
848.65	15618
848.786	15694
848.921	15545
849.057	15713
849.192	15694
849.328	15652
849.463	15564
849.598	15340
849.734	15473
849.869	15351
850.004	15279
850.14	15294
850.275	15291
850.41	15218
850.545	15249
850.68	15230
850.815	15332
850.95	15207
851.085	15500
851.22	15477
851.355	15252
851.49	15367
851.625	15332
851.76	15252
851.895	15268
852.03	15195
852.165	15233
852.299	15351
852.434	15405
852.569	15325
852.703	15340
852.838	15412
852.973	15504
853.107	15500
853.242	15321
853.376	15169
853.511	15058
853.645	15089
853.78	15302
853.914	15241
854.048	15173
854.183	15058
854.317	15195
854.451	15272
854.585	15093
854.72	15188
854.854	15192
854.988	15058
855.122	15112
855.256	15001
855.39	15131
855.524	15218
855.658	15249
855.792	15165
855.926	15142
856.06	15302
856.194	15310
856.327	15108
856.461	15108
856.595	15195
856.729	15184
856.862	15252
856.996	15230
857.13	15283
857.263	15245
857.397	15313
857.53	15154
857.664	15249
857.797	15256
857.931	15329
858.064	15165
858.197	15195
858.331	15135
858.464	15081
858.597	15089
858.731	15058
858.864	15009
858.997	15043
859.13	15188
859.263	15176
859.396	15157
859.529	15169
859.662	15138
859.795	15085
859.928	15104
860.061	15192
860.194	15420
860.327	15207
860.46	15157
860.592	15199
860.725	15340
860.858	15264
860.99	15203
861.123	15074
861.256	14998
861.388	15199
861.521	15778
861.653	15051
861.786	15043
861.918	15051
862.05	15058
862.183	15150
862.315	15131
862.447	15161
862.58	15058
862.712	14914
862.844	14826
862.976	14998
863.108	14941
863.24	15363
863.372	14705
863.504	14830
863.636	14849
863.768	15017
863.9	14883
864.032	14883
864.164	14845
864.296	14941
864.428	15039
864.559	15043
864.691	14971
864.823	15028
864.954	14979
865.086	14994
865.217	14842
865.349	14895
865.48	14864
865.612	14868
865.743	14967
865.875	14887
866.006	14830
866.137	14925
866.269	14925
866.4	14861
866.531	14823
866.662	14849
866.793	14819
866.924	14819
867.055	14880
867.186	14941
867.317	14785
867.448	14807
867.579	14773
867.71	14796
867.841	14807
867.972	14941
868.103	14849
868.233	14826
868.364	14982
868.495	14899
868.625	15077
868.756	15241
868.886	15001
869.017	15127
869.147	15203
869.278	15325
869.408	15131
869.539	15081
869.669	15180
869.799	15283
869.929	15222
870.06	15214
870.19	15466
870.32	15488
870.45	15549
870.58	15488
870.71	15747
870.84	15694
870.97	15530
871.1	15538
871.23	15698
871.36	15755
871.489	15622
871.619	15713
871.749	15770
871.879	15686
872.008	15827
872.138	15663
872.267	15717
872.397	15591
872.526	15549
872.656	15553
872.785	15603
872.915	15759
873.044	15747
873.173	15743
873.303	15842
873.432	15838
873.561	16029
873.69	15804
873.819	15778
873.948	15808
874.077	15743
874.206	15766
874.335	15835
874.464	15956
874.593	16021
874.722	16051
874.851	16116
874.979	16124
875.108	16120
875.237	16109
875.365	15998
875.494	16025
875.623	16101
875.751	16071
875.88	16131
876.008	16246
876.136	16375
876.265	16554
876.393	16698
876.521	16546
876.65	16622
876.778	16474
876.906	16382
877.034	16561
877.162	16558
877.29	16538
877.418	16508
877.546	16607
877.674	16390
877.802	16672
877.93	16580
878.058	16497
878.185	16561
878.313	16573
878.441	16664
878.568	16531
878.696	16641
878.824	16729
878.951	16824
879.079	16965
879.206	17086
879.333	17147
879.461	17067
879.588	17208
879.715	17322
879.842	17337
879.97	16987
880.097	16786
880.224	16584
880.351	16622
880.478	16611
880.605	16512
880.732	16512
880.859	16866
880.986	16455
881.112	16577
881.239	16459
881.366	16150
881.493	16204
881.619	16150
881.746	16219
881.872	16166
881.999	16185
882.125	16219
882.252	16139
882.378	16078
882.505	16295
882.631	16135
882.757	15934
882.883	16002
883.01	15960
883.136	16048
883.262	15800
883.388	15800
883.514	15991
883.64	16002
883.766	15915
883.892	15789
884.018	15759
884.143	15926
884.269	16032
884.395	15800
884.52	15743
884.646	15694
884.772	15618
884.897	15595
885.023	15698
885.148	15709
885.274	15819
885.399	15724
885.524	15572
885.65	15641
885.775	15701
885.9	15698
886.025	15793
886.15	15717
886.275	15603
886.4	15580
886.525	15572
886.65	15458
886.775	15511
886.9	15732
887.025	15831
887.149	15633
887.274	15401
887.399	15374
887.523	15408
887.648	15408
887.773	15355
887.897	15485
888.021	15473
888.146	15443
888.27	15443
888.395	15477
888.519	15462
888.643	15561
888.767	15431
888.891	15344
889.015	15241
889.139	15275
889.263	15104
889.387	15310
889.511	15363
889.635	15443
889.759	15127
889.883	15294
890.006	15275
890.13	15306
890.254	15089
890.377	15112
890.501	14956
890.624	15017
890.748	15074
890.871	14998
890.995	14925
891.118	14769
891.241	14952
891.364	14925
891.488	14967
891.611	14952
891.734	14937
891.857	14994
891.98	14849
892.103	14895
892.226	14910
892.349	14876
892.471	14804
892.594	14868
892.717	14960
892.839	14868
892.962	14811
893.085	14899
893.207	14921
893.33	14746
893.452	14861
893.575	14868
893.697	14937
893.819	14963
893.941	15020
894.064	14986
894.186	14804
894.308	14864
894.43	14975
894.552	15066
894.674	14967
894.796	14735
894.918	14895
895.04	14868
895.161	15013
895.283	15005
895.405	14842
895.526	14929
895.648	14883
895.769	15009
895.891	15024
896.012	14982
896.134	15077
896.255	15005
896.376	15005
896.498	14967
896.619	15089
896.74	15085
896.861	15062
896.982	15348
897.103	15519
897.224	15252
897.345	15313
897.466	15283
897.587	15275
897.708	15359
897.828	15355
897.949	15260
898.07	15188
898.19	15298
898.311	15428
898.431	15275
898.552	15408
898.672	15519
898.792	15439
898.913	15370
899.033	15264
899.153	15218
899.273	15093
899.393	15116
899.513	15203
899.633	15233
899.753	15237
899.873	15108
899.993	15237
900.113	15074
900.232	15298
900.352	15222
900.472	15104
900.591	15013
900.711	15055
900.83	15062
900.95	15135
901.069	15138
901.189	15001
901.308	14883
901.427	14648
901.546	14731
901.665	14678
901.784	14788
901.904	14564
902.023	14503
902.141	14332
902.26	14328
902.379	14355
902.498	14358
902.617	14233
902.735	14229
902.854	14225
902.973	14218
903.091	13986
903.21	13967
903.328	14100
903.446	13932
903.565	13814
903.683	13841
903.801	13746
903.919	13799
904.038	13799
904.156	13636
904.274	13719
904.392	13582
904.51	13582
904.627	13636
904.745	13628
904.863	13502
904.981	13464
905.098	13285
905.216	13251
905.334	13316
905.451	13247
905.569	13259
905.686	13244
905.803	13289
905.921	13190
906.038	13244
906.155	13152
906.272	12954
906.389	13080
906.506	12913
906.623	12897
906.74	12966
906.857	12745
906.974	12886
907.091	13015
907.208	13042
907.324	12951
907.441	12783
907.557	12673
907.674	12646
907.79	12585
907.907	12582
908.023	12612
908.139	12547
908.256	12612
908.372	12585
908.488	12589
908.604	12357
908.72	12311
908.836	12353
908.952	12330
909.068	12365
909.184	12498
909.3	12357
909.415	12429
909.531	12399
909.647	12148
909.762	12072
909.878	12125
909.993	12152
910.108	12133
910.224	12129
910.339	12125
910.454	12098
910.57	12045
910.685	11870
910.8	12232
910.915	12178
911.03	12068
911.145	11920
911.259	11798
911.374	11798
911.489	11722
911.604	11748
911.718	11535
911.833	11661
911.947	11528
912.062	11436
912.176	11516
912.291	11608
912.405	11577
912.519	11691
912.633	11824
912.748	11600
912.862	11547
912.976	11463
913.09	11326
913.204	11341
913.318	11440
913.431	11509
913.545	11509
913.659	11535
913.772	11421
913.886	11406
914	11246
914.113	11349
914.226	11467
914.34	11433
914.453	11239
914.566	11368
914.68	11246
914.793	11318
914.906	11041
915.019	10987
915.132	10991
915.245	11003
915.358	10987
915.47	11052
915.583	11056
915.696	11128
915.809	11265
915.921	11174
916.034	11025
916.146	11067
916.259	11060
916.371	11079
916.483	11094
916.595	11006
916.708	10953
916.82	11033
916.932	10862
917.044	10938
917.156	10919
917.268	10801
917.38	10919
917.491	10809
917.603	10843
917.715	10885
917.826	10892
917.938	10854
918.049	10702
918.161	10831
918.272	10991
918.384	10972
918.495	10877
918.606	10744
918.717	10645
918.828	10850
918.939	10839
919.05	10683
919.161	10687
919.272	10470
919.383	10554
919.494	10736
919.604	10949
919.715	10729
919.826	10592
919.936	10702
920.047	10885
920.157	10797
920.267	10919
920.378	10729
920.488	10668
920.598	10961
920.708	11079
920.818	10873
920.928	10934
921.038	11071
921.148	11003
921.258	10733
921.368	10691
921.477	10523
921.587	10577
921.697	10428
921.806	10634
921.916	10447
922.025	10295
922.134	10230
922.244	10185
922.353	10287
922.462	10169
922.571	10071
922.68	9937
922.789	9854
922.898	9953
923.007	9911
923.116	10006
923.224	9861
923.333	9941
923.442	9850
923.55	9793
923.659	9846
923.767	9884
923.876	9747
923.984	9838
924.092	9736
924.201	9743
924.309	9823
924.417	9842
924.525	9732
924.633	9808
924.741	10687
924.849	9488
924.956	9701
925.064	9587
925.172	9511
925.279	9553
925.387	9576
925.494	9652
925.602	9705
925.709	9641
925.816	9557
925.924	9568
926.031	9629
926.138	9507
926.245	9610
926.352	9511
926.459	9622
926.566	9663
926.673	9504
926.779	9386
926.886	9462
926.993	9260
927.099	9279
927.206	9199
927.312	9241
927.419	9241
927.525	9298
927.631	9332
927.737	9218
927.843	9131
927.95	9039
928.056	9150
928.162	9097
928.267	9272
928.373	9740
928.479	9226
928.585	9062
928.69	9161
928.796	9161
928.901	9062
929.007	8929
929.112	9058
929.218	8998
929.323	8956
929.428	8998
929.533	9085
929.638	8929
929.743	8963
929.848	8982
929.953	8941
930.058	8880
930.163	8750
930.267	8762
930.372	8830
930.477	8701
930.581	8921
930.685	8819
930.79	8720
930.894	8670
930.998	8613
931.103	8762
931.207	8469
931.311	8431
931.415	8324
931.519	8145
931.623	8134
