Data from test_V78500241_972.txt Node
Date: Fri Mar 25 14:40:29 CST 2022
User: usil
Spectrometer: V785-0024
Trigger mode: 0
Integration Time (sec): 4.000000E-1
Scans to average: 1
Nonlinearity correction enabled: false
Boxcar width: 0
Storing dark spectrum: false
XAxis mode: Wavelengths
Number of Pixels in Spectrum: 1024
>>>>>Begin Spectral Data<<<<<
801.071	23425
801.214	23250
801.356	23022
801.499	22744
801.641	22736
801.783	22713
801.926	22702
802.068	22580
802.211	22542
802.353	22386
802.496	22063
802.638	22207
802.78	22238
802.923	22109
803.065	22090
803.208	22002
803.35	22116
803.492	22207
803.635	22116
803.777	22002
803.919	22177
804.061	22329
804.204	22010
804.346	21983
804.488	21953
804.63	21964
804.773	21892
804.915	22097
805.057	22219
805.199	22010
805.341	22036
805.483	22109
805.626	22169
805.768	21979
805.91	21964
806.052	22105
806.194	21964
806.336	22261
806.478	22078
806.62	21979
806.762	22325
806.904	22375
807.046	22626
807.188	22580
807.33	22577
807.472	22653
807.614	22649
807.756	22812
807.898	22653
808.04	22725
808.182	22873
808.324	23044
808.465	23505
808.607	23619
808.749	24079
808.891	24152
809.033	24315
809.174	24136
809.316	23748
809.458	23501
809.6	23246
809.741	23010
809.883	22961
810.025	22980
810.166	22976
810.308	22889
810.45	22691
810.591	22668
810.733	22592
810.875	22367
811.016	22402
811.158	22223
811.299	22329
811.441	22485
811.582	22348
811.724	22257
811.865	22204
812.007	22382
812.148	22200
812.29	22344
812.431	22379
812.573	22653
812.714	22694
812.855	22710
812.997	22782
813.138	22976
813.279	22866
813.421	22793
813.562	22653
813.703	22649
813.845	22497
813.986	22051
814.127	21960
814.268	21857
814.41	21717
814.551	21865
814.692	21831
814.833	21762
814.974	21724
815.115	21709
815.256	21534
815.397	21599
815.539	21694
815.68	21473
815.821	21382
815.962	21523
816.103	21420
816.244	21313
816.385	21207
816.526	21260
816.666	21214
816.807	20868
816.948	20975
817.089	21013
817.23	20891
817.371	21066
817.512	20990
817.653	20929
817.793	20906
817.934	20918
818.075	21032
818.216	20914
818.356	20937
818.497	20849
818.638	20594
818.778	20689
818.919	20575
819.06	20663
819.2	20720
819.341	20765
819.481	20861
819.622	20743
819.762	21180
819.903	21070
820.043	20971
820.184	20853
820.324	20857
820.465	20910
820.605	20880
820.746	20849
820.886	20670
821.026	20800
821.167	20967
821.307	20883
821.447	20815
821.588	20644
821.728	20480
821.868	20423
822.008	20301
822.149	20263
822.289	20240
822.429	19936
822.569	19928
822.709	19849
822.849	19689
822.99	19700
823.13	19700
823.27	19571
823.41	19468
823.55	19480
823.69	19616
823.83	19655
823.97	19445
824.11	19327
824.25	19255
824.389	19369
824.529	19403
824.669	19339
824.809	19407
824.949	19392
825.089	19358
825.228	19388
825.368	19099
825.508	19270
825.648	19126
825.787	19194
825.927	19076
826.067	19099
826.206	19012
826.346	19069
826.485	19126
826.625	19034
826.765	19255
826.904	19084
827.044	18890
827.183	18726
827.323	18802
827.462	18875
827.601	18719
827.741	18715
827.88	18916
828.02	18612
828.159	18787
828.298	18764
828.437	18810
828.577	18703
828.716	18837
828.855	18677
828.994	18650
829.134	18506
829.273	18521
829.412	18460
829.551	18479
829.69	18490
829.829	18460
829.968	18555
830.107	18555
830.246	18445
830.385	18509
830.524	18292
830.663	18304
830.802	18098
830.941	18159
831.08	18174
831.219	18273
831.357	18140
831.496	18361
831.635	18083
831.774	18045
831.913	17961
832.051	17973
832.19	17939
832.329	17901
832.467	17783
832.606	17847
832.744	17885
832.883	17866
833.022	17840
833.16	17847
833.299	17931
833.437	17863
833.576	17935
833.714	17882
833.852	18007
833.991	17935
834.129	17984
834.267	17969
834.406	17969
834.544	17912
834.682	17931
834.821	17977
834.959	18030
835.097	17794
835.235	17999
835.373	17954
835.511	17893
835.65	17745
835.788	17786
835.926	17581
836.064	17577
836.202	17562
836.34	17748
836.478	17790
836.615	17733
836.753	17726
836.891	17809
837.029	17767
837.167	17805
837.305	17729
837.443	17657
837.58	17528
837.718	17695
837.856	17611
837.993	17642
838.131	17562
838.269	17474
838.406	17520
838.544	17493
838.681	17334
838.819	17315
838.956	17181
839.094	17083
839.231	17128
839.369	17235
839.506	17570
839.643	17315
839.781	17128
839.918	17105
840.055	17208
840.193	17105
840.33	16968
840.467	17079
840.604	17094
840.742	17284
840.879	16953
841.016	16938
841.153	16938
841.29	17056
841.427	17048
841.564	17022
841.701	17159
841.838	17052
841.975	16976
842.112	17010
842.249	16927
842.385	16934
842.522	17071
842.659	16919
842.796	16820
842.933	16869
843.069	16869
843.206	16664
843.343	16919
843.479	16911
843.616	16889
843.752	16733
843.889	16679
844.025	16816
844.162	16649
844.298	16839
844.435	16675
844.571	16710
844.708	16782
844.844	16869
844.98	16850
845.117	16858
845.253	16820
845.389	17010
845.525	17147
845.661	17562
845.798	17935
845.934	18418
846.07	18635
846.206	18521
846.342	18342
846.478	17638
846.614	17045
846.75	16618
846.886	16409
847.022	16512
847.158	16375
847.294	16382
847.429	16295
847.565	16128
847.701	16432
847.837	15949
847.972	15934
848.108	15975
848.244	16032
848.379	15956
848.515	15739
848.65	15732
848.786	15876
848.921	15747
849.057	15835
849.192	15892
849.328	15892
849.463	15838
849.598	15778
849.734	15724
849.869	15625
850.004	15549
850.14	15603
850.275	15618
850.41	15515
850.545	15557
850.68	15500
850.815	15572
850.95	15648
851.085	15705
851.22	15625
851.355	15568
851.49	15568
851.625	15454
851.76	15492
851.895	15416
852.03	15473
852.165	15496
852.299	15603
852.434	15656
852.569	15603
852.703	15603
852.838	15538
852.973	15743
853.107	15633
853.242	15511
853.376	15439
853.511	15306
853.645	15329
853.78	15534
853.914	15454
854.048	15530
854.183	15428
854.317	15526
854.451	15595
854.585	15507
854.72	15454
854.854	15504
854.988	15287
855.122	15469
855.256	15332
855.39	15355
855.524	15382
855.658	15473
855.792	15393
855.926	15435
856.06	15519
856.194	15511
856.327	15435
856.461	15363
856.595	15317
856.729	15367
856.862	15462
856.996	15435
857.13	15443
857.263	15534
857.397	15462
857.53	15450
857.664	15439
857.797	15431
857.931	15549
858.064	15420
858.197	15408
858.331	15374
858.464	15378
858.597	15317
858.731	15431
858.864	15450
858.997	15283
859.13	15344
859.263	15443
859.396	15397
859.529	15355
859.662	15355
859.795	15222
859.928	15435
860.061	15584
860.194	15511
860.327	15424
860.46	15424
860.592	15458
860.725	15515
860.858	15439
860.99	15359
861.123	15313
861.256	15268
861.388	15393
861.521	16029
861.653	15230
861.786	15222
861.918	15116
862.05	15268
862.183	15321
862.315	15420
862.447	15363
862.58	15313
862.712	15173
862.844	15199
862.976	15252
863.108	15146
863.24	15614
863.372	15119
863.504	15165
863.636	15176
863.768	15218
863.9	15119
864.032	15070
864.164	15169
864.296	15123
864.428	15317
864.559	15237
864.691	15325
864.823	15119
864.954	15165
865.086	15157
865.217	15123
865.349	15112
865.48	15142
865.612	15195
865.743	15298
865.875	15104
866.006	15165
866.137	15051
866.269	15051
866.4	15043
866.531	15051
866.662	15127
866.793	15047
866.924	15093
867.055	15066
867.186	15104
867.317	15047
867.448	14979
867.579	15039
867.71	14971
867.841	14963
867.972	15184
868.103	15081
868.233	15127
868.364	15036
868.495	15192
868.625	15298
868.756	15477
868.886	15214
869.017	15321
869.147	15435
869.278	15469
869.408	15260
869.539	15355
869.669	15416
869.799	15317
869.929	15469
870.06	15447
870.19	15633
870.32	15652
870.45	15591
870.58	15774
870.71	15819
870.84	15895
870.97	15793
871.1	15705
871.23	15899
871.36	15895
871.489	15812
871.619	15911
871.749	15983
871.879	15934
872.008	16036
872.138	15892
872.267	15884
872.397	15736
872.526	15736
872.656	15846
872.785	15762
872.915	15994
873.044	16013
873.173	16013
873.303	15991
873.432	16090
873.561	16131
873.69	15918
873.819	15949
873.948	16139
874.077	16181
874.206	16013
874.335	16013
874.464	16078
874.593	16299
874.722	16200
874.851	16500
874.979	16322
875.108	16394
875.237	16291
875.365	16196
875.494	16299
875.623	16432
875.751	16367
875.88	16306
876.008	16531
876.136	16596
876.265	16828
876.393	16881
876.521	16850
876.65	16858
876.778	16759
876.906	16786
877.034	16725
877.162	16744
877.29	16733
877.418	16812
877.546	16786
877.674	16869
877.802	16892
877.93	16752
878.058	16771
878.185	16786
878.313	16790
878.441	16889
878.568	16698
878.696	16889
878.824	16984
878.951	17166
879.079	17364
879.206	17581
879.333	17661
879.461	17661
879.588	17946
879.715	17977
879.842	17916
879.97	17672
880.097	17254
880.224	17060
880.351	16987
880.478	16968
880.605	16869
880.732	16942
880.859	17052
880.986	16877
881.112	16763
881.239	16759
881.366	16569
881.493	16592
881.619	16462
881.746	16546
881.872	16519
881.999	16558
882.125	16386
882.252	16558
882.378	16481
882.505	16721
882.631	16367
882.757	16215
882.883	16367
883.01	16371
883.136	16246
883.262	16150
883.388	16074
883.514	16352
883.64	16333
883.766	16246
883.892	16154
884.018	16150
884.143	16299
884.269	16367
884.395	16082
884.52	16032
884.646	16032
884.772	16051
884.897	15972
885.023	15895
885.148	16139
885.274	16135
885.399	16006
885.524	15945
885.65	15960
885.775	16002
885.9	15956
886.025	16105
886.15	15964
886.275	15876
886.4	15873
886.525	15937
886.65	15789
886.775	15778
886.9	16071
887.025	16097
887.149	15918
887.274	15603
887.399	15637
887.523	15694
887.648	15667
887.773	15504
887.897	15755
888.021	15705
888.146	15663
888.27	15880
888.395	15800
888.519	15667
888.643	15682
888.767	15808
888.891	15545
889.015	15447
889.139	15492
889.263	15458
889.387	15549
889.511	15641
889.635	15633
889.759	15496
889.883	15443
890.006	15466
890.13	15530
890.254	15401
890.377	15397
890.501	15188
890.624	15218
890.748	15298
890.871	15097
890.995	15135
891.118	15024
891.241	15184
891.364	15127
891.488	15203
891.611	15146
891.734	15135
891.857	15165
891.98	15146
892.103	15241
892.226	15199
892.349	15131
892.471	15024
892.594	15017
892.717	15081
892.839	15077
892.962	15097
893.085	15146
893.207	14998
893.33	14971
893.452	14975
893.575	15142
893.697	14986
893.819	15180
893.941	15268
894.064	15211
894.186	15058
894.308	15135
894.43	15165
894.552	15291
894.674	15241
894.796	14982
894.918	15112
895.04	15104
895.161	15241
895.283	15230
895.405	15093
895.526	15192
895.648	15173
895.769	15138
895.891	15188
896.012	15237
896.134	15245
896.255	15249
896.376	15112
896.498	15230
896.619	15272
896.74	15192
896.861	15222
896.982	15488
897.103	15713
897.224	15534
897.345	15454
897.466	15500
897.587	15439
897.708	15599
897.828	15523
897.949	15534
898.07	15405
898.19	15477
898.311	15610
898.431	15504
898.552	15519
898.672	15587
898.792	15591
898.913	15633
899.033	15507
899.153	15348
899.273	15249
899.393	15302
899.513	15367
899.633	15397
899.753	15405
899.873	15367
899.993	15431
900.113	15424
900.232	15435
900.352	15264
900.472	15268
900.591	15199
900.711	15279
900.83	15260
900.95	15420
901.069	15386
901.189	15211
901.308	14925
901.427	14842
901.546	14853
901.665	14853
901.784	14861
901.904	14716
902.023	14686
902.141	14461
902.26	14480
902.379	14507
902.498	14495
902.617	14495
902.735	14530
902.854	14457
902.973	14480
903.091	14229
903.21	14168
903.328	14218
903.446	14126
903.565	14084
903.683	14024
903.801	14027
903.919	14008
904.038	13997
904.156	13830
904.274	13826
904.392	13791
904.51	13894
904.627	13700
904.745	13811
904.863	13769
904.981	13639
905.098	13540
905.216	13472
905.334	13529
905.451	13537
905.569	13525
905.686	13499
905.803	13384
905.921	13228
906.038	13426
906.155	13293
906.272	13145
906.389	13244
906.506	12985
906.623	13046
906.74	12989
906.857	12863
906.974	12928
907.091	13065
907.208	13107
907.324	13084
907.441	12943
907.557	12810
907.674	12753
907.79	12783
907.907	12681
908.023	12814
908.139	12730
908.256	12768
908.372	12726
908.488	12654
908.604	12555
908.72	12502
908.836	12521
908.952	12506
909.068	12547
909.184	12658
909.3	12506
909.415	12528
909.531	12540
909.647	12273
909.762	12342
909.878	12300
909.993	12319
910.108	12327
910.224	12254
910.339	12178
910.454	12209
910.57	12190
910.685	12076
910.8	12334
910.915	12315
911.03	12159
911.145	12091
911.259	11946
911.374	11904
911.489	11908
911.604	11870
911.718	11691
911.833	11741
911.947	11668
912.062	11581
912.176	11718
912.291	11653
912.405	11653
912.519	11939
912.633	11927
912.748	11718
912.862	11729
912.976	11566
913.09	11421
913.204	11547
913.318	11497
913.431	11676
913.545	11634
913.659	11661
913.772	11573
913.886	11433
914	11436
914.113	11524
914.226	11535
914.34	11558
914.453	11395
914.566	11596
914.68	11402
914.793	11353
914.906	11231
915.019	11201
915.132	11143
915.245	11174
915.358	11193
915.47	11220
915.583	11174
915.696	11166
915.809	11299
915.921	11277
916.034	11174
916.146	11098
916.259	11079
916.371	11132
916.483	11121
916.595	11014
916.708	11147
916.82	11136
916.932	11064
917.044	11109
917.156	11006
917.268	11003
917.38	11006
917.491	10927
917.603	10999
917.715	10999
917.826	11067
917.938	10984
918.049	10885
918.161	10953
918.272	11113
918.384	11071
918.495	10934
918.606	10843
918.717	10782
918.828	10797
918.939	10873
919.05	10771
919.161	10767
919.272	10611
919.383	10714
919.494	10877
919.604	11025
919.715	10820
919.826	10748
919.936	10839
920.047	10896
920.157	10885
920.267	10999
920.378	10919
920.488	10831
920.598	11090
920.708	11170
920.818	10995
920.928	11003
921.038	11170
921.148	11220
921.258	10896
921.368	10786
921.477	10767
921.587	10672
921.697	10573
921.806	10706
921.916	10599
922.025	10390
922.134	10386
922.244	10402
922.353	10421
922.462	10242
922.571	10230
922.68	10086
922.789	9994
922.898	10021
923.007	9964
923.116	10112
923.224	10086
923.333	9987
923.442	9831
923.55	9926
923.659	9972
923.767	9991
923.876	9907
923.984	9953
924.092	9873
924.201	9895
924.309	9907
924.417	9915
924.525	9876
924.633	9880
924.741	10634
924.849	9648
924.956	9846
925.064	9660
925.172	9652
925.279	9595
925.387	9694
925.494	9663
925.602	9831
925.709	9804
925.816	9618
925.924	9717
926.031	9789
926.138	9637
926.245	9766
926.352	9591
926.459	9743
926.566	9793
926.673	9633
926.779	9549
926.886	9542
926.993	9393
927.099	9348
927.206	9294
927.312	9336
927.419	9393
927.525	9302
927.631	9466
927.737	9332
927.843	9233
927.95	9165
928.056	9214
928.162	9253
928.267	9291
928.373	9850
928.479	9287
928.585	9116
928.69	9283
928.796	9279
928.901	9142
929.007	9074
929.112	9081
929.218	9112
929.323	9093
929.428	9055
929.533	9230
929.638	8963
929.743	9097
929.848	9043
929.953	9123
930.058	8948
930.163	8842
930.267	8807
930.372	9001
930.477	8842
930.581	9070
930.685	8918
930.79	8720
930.894	8731
930.998	8807
931.103	8864
931.207	8549
931.311	8507
931.415	8427
931.519	8271
931.623	8180
