Data from test_V78500241_1759.txt Node
Date: Fri Mar 25 14:45:57 CST 2022
User: usil
Spectrometer: V785-0024
Trigger mode: 0
Integration Time (sec): 4.000000E-1
Scans to average: 1
Nonlinearity correction enabled: false
Boxcar width: 0
Storing dark spectrum: false
XAxis mode: Wavelengths
Number of Pixels in Spectrum: 1024
>>>>>Begin Spectral Data<<<<<
801.071	22158
801.214	22078
801.356	21915
801.499	21679
801.641	21660
801.783	21553
801.926	21549
802.068	21553
802.211	21496
802.353	21378
802.496	21085
802.638	21085
802.78	21036
802.923	20819
803.065	20830
803.208	20838
803.35	20994
803.492	21028
803.635	21070
803.777	20952
803.919	20918
804.061	21260
804.204	20910
804.346	20731
804.488	20796
804.63	20781
804.773	20743
804.915	20872
805.057	20895
805.199	20804
805.341	20925
805.483	20948
805.626	20998
805.768	20785
805.91	20853
806.052	20785
806.194	20731
806.336	20925
806.478	20750
806.62	20750
806.762	20921
806.904	21020
807.046	21207
807.188	21138
807.33	21188
807.472	21104
807.614	20842
807.756	21009
807.898	20956
808.04	20971
808.182	20918
808.324	20849
808.465	20910
808.607	21005
808.749	21340
808.891	21291
809.033	21397
809.174	21275
809.316	21173
809.458	21199
809.6	21135
809.741	21195
809.883	21348
810.025	21348
810.166	21332
810.308	21283
810.45	21207
810.591	21370
810.733	21096
810.875	21081
811.016	20815
811.158	20937
811.299	21051
811.441	21119
811.582	21100
811.724	21017
811.865	20861
812.007	21017
812.148	20990
812.29	21077
812.431	21123
812.573	21157
812.714	21408
812.855	21401
812.997	21561
813.138	21720
813.279	21587
813.421	21488
813.562	21443
813.703	21283
813.845	21161
813.986	20842
814.127	20800
814.268	20689
814.41	20609
814.551	20507
814.692	20606
814.833	20511
814.974	20503
815.115	20587
815.256	20252
815.397	20408
815.539	20233
815.68	20172
815.821	20161
815.962	20202
816.103	20252
816.244	20024
816.385	20062
816.526	19951
816.666	19803
816.807	19628
816.948	19803
817.089	19852
817.23	19719
817.371	19578
817.512	19666
817.653	19658
817.793	19651
817.934	19628
818.075	19658
818.216	19609
818.356	19677
818.497	19559
818.638	19297
818.778	19331
818.919	19320
819.06	19358
819.2	19460
819.341	19483
819.481	19495
819.622	19662
819.762	19963
819.903	19719
820.043	19616
820.184	19639
820.324	19712
820.465	19635
820.605	19533
820.746	19655
820.886	19487
821.026	19601
821.167	19639
821.307	19605
821.447	19521
821.588	19422
821.728	19247
821.868	19171
822.008	19168
822.149	19004
822.289	19012
822.429	18715
822.569	18688
822.709	18757
822.849	18471
822.99	18551
823.13	18418
823.27	18513
823.41	18372
823.55	18258
823.69	18399
823.83	18433
823.97	18273
824.11	18102
824.25	18034
824.389	18178
824.529	18148
824.669	18258
824.809	18190
824.949	18266
825.089	18163
825.228	18182
825.368	17908
825.508	17893
825.648	17885
825.787	17923
825.927	17866
826.067	17840
826.206	17798
826.346	17931
826.485	17923
826.625	17859
826.765	18019
826.904	17847
827.044	17600
827.183	17600
827.323	17566
827.462	17615
827.601	17608
827.741	17672
827.88	17543
828.02	17436
828.159	17627
828.298	17646
828.437	17657
828.577	17467
828.716	17653
828.855	17543
828.994	17410
829.134	17318
829.273	17364
829.412	17326
829.551	17216
829.69	17239
829.829	17292
829.968	17501
830.107	17376
830.246	17330
830.385	17227
830.524	17155
830.663	17113
830.802	16942
830.941	16915
831.08	16972
831.219	17117
831.357	17117
831.496	17098
831.635	16908
831.774	16938
831.913	16843
832.051	16736
832.19	16653
832.329	16759
832.467	16691
832.606	16615
832.744	16710
832.883	16618
833.022	16538
833.16	16702
833.299	16679
833.437	16706
833.576	16664
833.714	16683
833.852	16656
833.991	16755
834.129	16752
834.267	16752
834.406	16672
834.544	16790
834.682	16618
834.821	16660
834.959	16835
835.097	16626
835.235	16771
835.373	16675
835.511	16653
835.65	16565
835.788	16630
835.926	16413
836.064	16466
836.202	16493
836.34	16580
836.478	16634
836.615	16485
836.753	16653
836.891	16645
837.029	16649
837.167	16535
837.305	16611
837.443	16489
837.58	16466
837.718	16519
837.856	16519
837.993	16363
838.131	16451
838.269	16375
838.406	16333
838.544	16356
838.681	16154
838.819	16029
838.956	15979
839.094	16002
839.231	15876
839.369	16105
839.506	16405
839.643	16310
839.781	15930
839.918	15930
840.055	15975
840.193	16010
840.33	16013
840.467	15998
840.604	15991
840.742	16325
840.879	15907
841.016	15953
841.153	15949
841.29	16223
841.427	16067
841.564	16097
841.701	16067
841.838	15937
841.975	15857
842.112	15991
842.249	15739
842.385	15827
842.522	16032
842.659	15774
842.796	15827
842.933	15922
843.069	15690
843.206	15739
843.343	15812
843.479	15785
843.616	15823
843.752	15633
843.889	15542
844.025	15690
844.162	15610
844.298	15690
844.435	15549
844.571	15587
844.708	15637
844.844	15705
844.98	15663
845.117	15644
845.253	15447
845.389	15416
845.525	15553
845.661	15466
845.798	15420
845.934	15355
846.07	15340
846.206	15454
846.342	15549
846.478	15363
846.614	15340
846.75	15081
846.886	15127
847.022	15370
847.158	15230
847.294	15161
847.429	15195
847.565	15180
847.701	15348
847.837	14891
847.972	14864
848.108	15036
848.244	14937
848.379	14792
848.515	14785
848.65	14754
848.786	14667
848.921	14754
849.057	14944
849.192	14948
849.328	14819
849.463	14796
849.598	14689
849.734	14667
849.869	14537
850.004	14594
850.14	14625
850.275	14560
850.41	14492
850.545	14476
850.68	14511
850.815	14560
850.95	14507
851.085	14625
851.22	14583
851.355	14476
851.49	14526
851.625	14476
851.76	14419
851.895	14434
852.03	14427
852.165	14480
852.299	14465
852.434	14731
852.569	14598
852.703	14594
852.838	14632
852.973	14754
853.107	14617
853.242	14484
853.376	14385
853.511	14271
853.645	14320
853.78	14473
853.914	14503
854.048	14332
854.183	14431
854.317	14423
854.451	14541
854.585	14412
854.72	14324
854.854	14454
854.988	14301
855.122	14419
855.256	14355
855.39	14412
855.524	14396
855.658	14415
855.792	14431
855.926	14469
856.06	14427
856.194	14476
856.327	14552
856.461	14317
856.595	14282
856.729	14374
856.862	14461
856.996	14396
857.13	14438
857.263	14465
857.397	14503
857.53	14446
857.664	14457
857.797	14480
857.931	14533
858.064	14465
858.197	14400
858.331	14358
858.464	14317
858.597	14267
858.731	14366
858.864	14259
858.997	14248
859.13	14514
859.263	14366
859.396	14530
859.529	14442
859.662	14419
859.795	14404
859.928	14415
860.061	14537
860.194	14579
860.327	14355
860.46	14381
860.592	14526
860.725	14511
860.858	14412
860.99	14438
861.123	14351
861.256	14294
861.388	14381
861.521	15154
861.653	14347
861.786	14161
861.918	14145
862.05	14377
862.183	14370
862.315	14317
862.447	14503
862.58	14298
862.712	14218
862.844	14130
862.976	14229
863.108	14267
863.24	14587
863.372	14012
863.504	14187
863.636	14172
863.768	14298
863.9	14142
864.032	14054
864.164	14180
864.296	14210
864.428	14396
864.559	14214
864.691	14206
864.823	14275
864.954	14229
865.086	14214
865.217	14145
865.349	14119
865.48	14153
865.612	14149
865.743	14309
865.875	14191
866.006	14096
866.137	14183
866.269	14103
866.4	14088
866.531	14081
866.662	14107
866.793	14149
866.924	14134
867.055	14119
867.186	14164
867.317	14145
867.448	14069
867.579	14123
867.71	14062
867.841	14031
867.972	14084
868.103	14195
868.233	14134
868.364	14058
868.495	14263
868.625	14355
868.756	14450
868.886	14389
869.017	14385
869.147	14446
869.278	14511
869.408	14427
869.539	14393
869.669	14457
869.799	14446
869.929	14571
870.06	14541
870.19	14663
870.32	14629
870.45	14697
870.58	14796
870.71	14906
870.84	14975
870.97	14746
871.1	14739
871.23	15009
871.36	14902
871.489	14956
871.619	14994
871.749	15009
871.879	15055
872.008	15131
872.138	14990
872.267	14944
872.397	14781
872.526	14899
872.656	14705
872.785	14796
872.915	15005
873.044	15157
873.173	15036
873.303	15066
873.432	15199
873.561	15062
873.69	14998
873.819	14963
873.948	15169
874.077	15138
874.206	15020
874.335	15070
874.464	15188
874.593	15310
874.722	15252
874.851	15496
874.979	15431
875.108	15401
875.237	15435
875.365	15279
875.494	15363
875.623	15462
875.751	15332
875.88	15416
876.008	15507
876.136	15584
876.265	15778
876.393	15911
876.521	15831
876.65	15892
876.778	15835
876.906	15827
877.034	15743
877.162	15797
877.29	15736
877.418	15861
877.546	15759
877.674	15743
877.802	15762
877.93	15842
878.058	15724
878.185	15770
878.313	15694
878.441	15713
878.568	15663
878.696	15660
878.824	15682
878.951	15797
879.079	15926
879.206	16040
879.333	15857
879.461	15926
879.588	15781
879.715	15911
879.842	16021
879.97	15892
880.097	15652
880.224	15507
880.351	15587
880.478	15705
880.605	15553
880.732	15633
880.859	15941
880.986	15576
881.112	15629
881.239	15523
881.366	15389
881.493	15397
881.619	15245
881.746	15275
881.872	15207
881.999	15230
882.125	15195
882.252	15291
882.378	15272
882.505	15393
882.631	15116
882.757	15032
882.883	15138
883.01	15100
883.136	15047
883.262	14990
883.388	14902
883.514	15199
883.64	15157
883.766	15085
883.892	14906
884.018	14838
884.143	14986
884.269	15100
884.395	14804
884.52	14845
884.646	14727
884.772	14731
884.897	14678
885.023	14815
885.148	14956
885.274	14982
885.399	14880
885.524	14819
885.65	14804
885.775	14887
885.9	14781
886.025	14895
886.15	14864
886.275	14701
886.4	14708
886.525	14796
886.65	14731
886.775	14750
886.9	14933
887.025	15081
887.149	14830
887.274	14606
887.399	14629
887.523	14571
887.648	14545
887.773	14522
887.897	14606
888.021	14632
888.146	14537
888.27	14590
888.395	14659
888.519	14762
888.643	14705
888.767	14781
888.891	14606
889.015	14514
889.139	14476
889.263	14431
889.387	14590
889.511	14674
889.635	14636
889.759	14545
889.883	14412
890.006	14480
890.13	14610
890.254	14404
890.377	14434
890.501	14317
890.624	14393
890.748	14446
890.871	14221
890.995	14275
891.118	14088
891.241	14301
891.364	14195
891.488	14259
891.611	14123
891.734	14237
891.857	14210
891.98	14229
892.103	14282
892.226	14214
892.349	14225
892.471	14111
892.594	14153
892.717	14225
892.839	14164
892.962	14195
893.085	14267
893.207	14142
893.33	14134
893.452	14229
893.575	14248
893.697	14134
893.819	14358
893.941	14408
894.064	14404
894.186	14240
894.308	14145
894.43	14313
894.552	14301
894.674	14431
894.796	14176
894.918	14157
895.04	14244
895.161	14374
895.283	14339
895.405	14214
895.526	14286
895.648	14317
895.769	14427
895.891	14336
896.012	14381
896.134	14358
896.255	14336
896.376	14355
896.498	14465
896.619	14336
896.74	14370
896.861	14389
896.982	14689
897.103	14773
897.224	14659
897.345	14541
897.466	14579
897.587	14625
897.708	14735
897.828	14693
897.949	14564
898.07	14419
898.19	14602
898.311	14773
898.431	14689
898.552	14632
898.672	14746
898.792	14769
898.913	14750
899.033	14617
899.153	14587
899.273	14469
899.393	14541
899.513	14610
899.633	14492
899.753	14507
899.873	14499
899.993	14705
900.113	14533
900.232	14587
900.352	14503
900.472	14476
900.591	14400
900.711	14377
900.83	14469
900.95	14575
901.069	14571
901.189	14355
901.308	14130
901.427	13993
901.546	14092
901.665	14138
901.784	14195
901.904	13921
902.023	13833
902.141	13693
902.26	13601
902.379	13696
902.498	13696
902.617	13590
902.735	13769
902.854	13571
902.973	13567
903.091	13346
903.21	13377
903.328	13308
903.446	13236
903.565	13228
903.683	13228
903.801	13183
903.919	13289
904.038	13133
904.156	12970
904.274	13046
904.392	13053
904.51	12954
904.627	13015
904.745	13179
904.863	13137
904.981	12916
905.098	12692
905.216	12692
905.334	12837
905.451	12810
905.569	12692
905.686	12779
905.803	12734
905.921	12563
906.038	12601
906.155	12555
906.272	12528
906.389	12460
906.506	12342
906.623	12391
906.74	12407
906.857	12129
906.974	12232
907.091	12391
907.208	12506
907.324	12357
907.441	12270
907.557	12087
907.674	12049
907.79	12034
907.907	12041
908.023	12140
908.139	12079
908.256	11950
908.372	11996
908.488	11950
908.604	11878
908.72	11855
908.836	11859
908.952	11771
909.068	11882
909.184	11885
909.3	11832
909.415	11916
909.531	11813
909.647	11558
909.762	11684
909.878	11509
909.993	11570
910.108	11596
910.224	11535
910.339	11589
910.454	11589
910.57	11417
910.685	11345
910.8	11642
910.915	11657
911.03	11376
911.145	11356
911.259	11204
911.374	11288
911.489	11227
911.604	11204
911.718	11109
911.833	11033
911.947	10961
912.062	10908
912.176	11041
912.291	11079
912.405	11113
912.519	11307
912.633	11292
912.748	11090
912.862	11098
912.976	10927
913.09	10862
913.204	10938
913.318	10904
913.431	11025
913.545	11064
913.659	11067
913.772	10881
913.886	10831
914	10854
914.113	10866
914.226	10930
914.34	10911
914.453	10774
914.566	10885
914.68	10759
914.793	10763
914.906	10599
915.019	10554
915.132	10546
915.245	10489
915.358	10516
915.47	10645
915.583	10527
915.696	10603
915.809	10782
915.921	10725
916.034	10588
916.146	10409
916.259	10481
916.371	10656
916.483	10527
916.595	10500
916.708	10535
916.82	10489
916.932	10440
917.044	10478
917.156	10405
917.268	10356
917.38	10375
917.491	10440
917.603	10405
917.715	10405
917.826	10508
917.938	10459
918.049	10257
918.161	10436
918.272	10523
918.384	10504
918.495	10417
918.606	10265
918.717	10192
918.828	10310
918.939	10398
919.05	10238
919.161	10234
919.272	10067
919.383	10139
919.494	10371
919.604	10360
919.715	10280
919.826	10169
919.936	10268
920.047	10379
920.157	10318
920.267	10462
920.378	10261
920.488	10238
920.598	10478
920.708	10584
920.818	10516
920.928	10436
921.038	10558
921.148	10592
921.258	10318
921.368	10272
921.477	10105
921.587	10109
921.697	9949
921.806	10166
921.916	10040
922.025	9930
922.134	9812
922.244	9755
922.353	9865
922.462	9644
922.571	9682
922.68	9526
922.789	9507
922.898	9526
923.007	9519
923.116	9561
923.224	9542
923.333	9496
923.442	9443
923.55	9393
923.659	9507
923.767	9454
923.876	9348
923.984	9469
924.092	9416
924.201	9401
924.309	9397
924.417	9348
924.525	9374
924.633	9367
924.741	10303
924.849	9142
924.956	9336
925.064	9165
925.172	9112
925.279	9116
925.387	9195
925.494	9218
925.602	9344
925.709	9272
925.816	9127
925.924	9214
926.031	9317
926.138	9195
926.245	9249
926.352	9169
926.459	9237
926.566	9298
926.673	9142
926.779	9062
926.886	9055
926.993	8883
927.099	8887
927.206	8830
927.312	8842
927.419	8918
927.525	8944
927.631	8910
927.737	8834
927.843	8834
927.95	8667
928.056	8823
928.162	8777
928.267	8746
928.373	9424
928.479	8864
928.585	8667
928.69	8758
928.796	8902
928.901	8720
929.007	8556
929.112	8720
929.218	8670
929.323	8655
929.428	8590
929.533	8724
929.638	8511
929.743	8560
929.848	8697
929.953	8613
930.058	8522
930.163	8355
930.267	8415
930.372	8537
930.477	8377
930.581	8617
930.685	8438
930.79	8328
930.894	8305
930.998	8355
931.103	8488
931.207	8142
931.311	8046
931.415	7997
931.519	7826
931.623	7799
