Data from test_V78500241_615.txt Node
Date: Fri Mar 25 14:38:00 CST 2022
User: usil
Spectrometer: V785-0024
Trigger mode: 0
Integration Time (sec): 4.000000E-1
Scans to average: 1
Nonlinearity correction enabled: false
Boxcar width: 0
Storing dark spectrum: false
XAxis mode: Wavelengths
Number of Pixels in Spectrum: 1024
>>>>>Begin Spectral Data<<<<<
801.071	27918
801.214	27827
801.356	27519
801.499	27515
801.641	27329
801.783	27218
801.926	27272
802.068	27089
802.211	27241
802.353	26921
802.496	26815
802.638	26785
802.78	26906
802.923	26792
803.065	26716
803.208	26705
803.35	26648
803.492	26940
803.635	26914
803.777	26804
803.919	26861
804.061	27036
804.204	26956
804.346	26883
804.488	26891
804.63	26963
804.773	26838
804.915	27020
805.057	27272
805.199	27039
805.341	27241
805.483	27435
805.626	27370
805.768	27287
805.91	27530
806.052	27557
806.194	27663
806.336	27922
806.478	27861
806.62	28029
806.762	28207
806.904	28656
807.046	29109
807.188	29288
807.33	29539
807.472	29958
807.614	30399
807.756	31050
807.898	31807
808.04	33009
808.182	34443
808.324	36319
808.465	38488
808.607	40881
808.749	43023
808.891	44210
809.033	44339
809.174	43099
809.316	41048
809.458	38499
809.6	36015
809.741	34226
809.883	32476
810.025	31677
810.166	30760
810.308	30098
810.45	29596
810.591	29402
810.733	28847
810.875	28622
811.016	28242
811.158	28192
811.299	28200
811.441	28204
811.582	28029
811.724	27759
811.865	27671
812.007	27656
812.148	27530
812.29	27530
812.431	27606
812.573	27679
812.714	27846
812.855	27850
812.997	27827
813.138	28055
813.279	27854
813.421	27838
813.562	27656
813.703	27458
813.845	27382
813.986	26952
814.127	26845
814.268	26724
814.41	26575
814.551	26552
814.692	26629
814.833	26317
814.974	26560
815.115	26530
815.256	26290
815.397	26450
815.539	26412
815.68	26248
815.821	26259
815.962	26111
816.103	26229
816.244	26084
816.385	25959
816.526	25883
816.666	25704
816.807	25590
816.948	25582
817.089	25514
817.23	25635
817.371	25495
817.512	25445
817.653	25377
817.793	25407
817.934	25274
818.075	25472
818.216	25339
818.356	25415
818.497	25122
818.638	25209
818.778	25088
818.919	25168
819.06	25095
819.2	25339
819.341	25308
819.481	25320
819.622	25445
819.762	25575
819.903	25605
820.043	25449
820.184	25396
820.324	25301
820.465	25476
820.605	25308
820.746	25373
820.886	25050
821.026	25209
821.167	25190
821.307	25282
821.447	25168
821.588	24996
821.728	25084
821.868	24707
822.008	24635
822.149	24722
822.289	24445
822.429	24346
822.569	24281
822.709	24357
822.849	24038
822.99	24018
823.13	23996
823.27	23935
823.41	23741
823.55	23748
823.69	23821
823.83	23904
823.97	23760
824.11	23566
824.25	23539
824.389	23619
824.529	23516
824.669	23509
824.809	23619
824.949	23649
825.089	23668
825.228	23661
825.368	23509
825.508	23368
825.648	23284
825.787	23410
825.927	23490
826.067	23307
826.206	23296
826.346	23425
826.485	23337
826.625	23349
826.765	23398
826.904	23414
827.044	23044
827.183	23079
827.323	23048
827.462	22999
827.601	23075
827.741	22987
827.88	22987
828.02	22881
828.159	22934
828.298	22995
828.437	23128
828.577	22862
828.716	23140
828.855	22991
828.994	22736
829.134	22771
829.273	22710
829.412	22656
829.551	22546
829.69	22706
829.829	22759
829.968	22740
830.107	22656
830.246	22668
830.385	22615
830.524	22527
830.663	22489
830.802	22394
830.941	22280
831.08	22310
831.219	22398
831.357	22341
831.496	22382
831.635	22181
831.774	22223
831.913	22044
832.051	22074
832.19	22059
832.329	22211
832.467	22040
832.606	22002
832.744	22021
832.883	22090
833.022	22185
833.16	22379
833.299	22318
833.437	22405
833.576	22577
833.714	22588
833.852	22626
833.991	22755
834.129	22961
834.267	22892
834.406	22713
834.544	22805
834.682	22698
834.821	22573
834.959	22622
835.097	22367
835.235	22314
835.373	22257
835.511	22337
835.65	22025
835.788	21979
835.926	21770
836.064	21781
836.202	21743
836.34	21766
836.478	21831
836.615	21800
836.753	21842
836.891	21831
837.029	21789
837.167	21770
837.305	21625
837.443	21587
837.58	21564
837.718	21675
837.856	21759
837.993	21519
838.131	21618
838.269	21481
838.406	21405
838.544	21382
838.681	21195
838.819	21214
838.956	21028
839.094	20990
839.231	21009
839.369	21112
839.506	21367
839.643	21241
839.781	21100
839.918	21032
840.055	20910
840.193	21062
840.33	20883
840.467	20887
840.604	21131
840.742	21287
840.879	20876
841.016	20998
841.153	20724
841.29	21024
841.427	20918
841.564	21074
841.701	20826
841.838	20788
841.975	20864
842.112	20883
842.249	20800
842.385	20712
842.522	20952
842.659	20667
842.796	20708
842.933	20689
843.069	20724
843.206	20686
843.343	20868
843.479	20872
843.616	20864
843.752	20648
843.889	20792
844.025	20918
844.162	20731
844.298	20823
844.435	20971
844.571	21070
844.708	21340
844.844	21747
844.98	21907
845.117	22424
845.253	23071
845.389	24197
845.525	26796
845.661	30947
845.798	35748
845.934	39819
846.07	41166
846.206	40086
846.342	36970
846.478	31966
846.614	27641
846.75	24833
846.886	23143
847.022	22139
847.158	21614
847.294	21028
847.429	20868
847.565	20598
847.701	20678
847.837	20126
847.972	20039
848.108	20027
848.244	19947
848.379	19791
848.515	19586
848.65	19689
848.786	19670
848.921	19658
849.057	19719
849.192	19715
849.328	19601
849.463	19670
849.598	19441
849.734	19403
849.869	19392
850.004	19346
850.14	19354
850.275	19327
850.41	19148
850.545	19285
850.68	19217
850.815	19472
850.95	19331
851.085	19324
851.22	19403
851.355	19343
851.49	19308
851.625	19293
851.76	19259
851.895	19175
852.03	19118
852.165	19335
852.299	19285
852.434	19358
852.569	19350
852.703	19289
852.838	19354
852.973	19449
853.107	19499
853.242	19278
853.376	19343
853.511	19190
853.645	19232
853.78	19339
853.914	19457
854.048	19225
854.183	19354
854.317	19411
854.451	19651
854.585	19441
854.72	19324
854.854	19403
854.988	19270
855.122	19388
855.256	19122
855.39	19247
855.524	19369
855.658	19335
855.792	19103
855.926	19247
856.06	19179
856.194	19278
856.327	19099
856.461	19053
856.595	18947
856.729	19148
856.862	19145
856.996	19228
857.13	19175
857.263	19289
857.397	19141
857.53	19031
857.664	19042
857.797	19095
857.931	19282
858.064	19080
858.197	19069
858.331	19012
858.464	19012
858.597	18817
858.731	18985
858.864	18928
858.997	19000
859.13	18985
859.263	19050
859.396	19004
859.529	18989
859.662	18833
859.795	18894
859.928	18951
860.061	19133
860.194	19175
860.327	19031
860.46	18928
860.592	19072
860.725	19031
860.858	19061
860.99	18924
861.123	18833
861.256	18817
861.388	18875
861.521	19559
861.653	18787
861.786	18760
861.918	18837
862.05	18878
862.183	18973
862.315	18932
862.447	18935
862.58	18882
862.712	18627
862.844	18673
862.976	18700
863.108	18635
863.24	18962
863.372	18593
863.504	18650
863.636	18604
863.768	18642
863.9	18665
864.032	18544
864.164	18620
864.296	18764
864.428	18642
864.559	18738
864.691	18745
864.823	18719
864.954	18631
865.086	18612
865.217	18540
865.349	18452
865.48	18547
865.612	18437
865.743	18639
865.875	18635
866.006	18456
866.137	18506
866.269	18559
866.4	18536
866.531	18410
866.662	18384
866.793	18486
866.924	18456
867.055	18509
867.186	18498
867.317	18452
867.448	18456
867.579	18532
867.71	18384
867.841	18410
867.972	18563
868.103	18330
868.233	18403
868.364	18574
868.495	18631
868.625	18791
868.756	18905
868.886	18757
869.017	18738
869.147	18859
869.278	18814
869.408	18711
869.539	18764
869.669	18814
869.799	18688
869.929	18856
870.06	18821
870.19	19095
870.32	19141
870.45	19179
870.58	19164
870.71	19225
870.84	19331
870.97	19095
871.1	19110
871.23	19354
871.36	19381
871.489	19335
871.619	19434
871.749	19460
871.879	19544
872.008	19476
872.138	19529
872.267	19426
872.397	19445
872.526	19419
872.656	19354
872.785	19324
872.915	19575
873.044	19704
873.173	19670
873.303	19719
873.432	19639
873.561	19643
873.69	19597
873.819	19662
873.948	19765
874.077	19700
874.206	19795
874.335	19719
874.464	19864
874.593	20046
874.722	20096
874.851	20031
874.979	20126
875.108	20111
875.237	20031
875.365	20062
875.494	20107
875.623	20336
875.751	20202
875.88	20305
876.008	20389
876.136	20446
876.265	20807
876.393	20986
876.521	21066
876.65	20990
876.778	20971
876.906	20925
877.034	20979
877.162	21127
877.29	20990
877.418	21218
877.546	21275
877.674	21329
877.802	21382
877.93	21424
878.058	21583
878.185	21599
878.313	22036
878.441	22128
878.568	22318
878.696	22824
878.824	23497
878.951	24243
879.079	25434
879.206	26940
879.333	28413
879.461	29604
879.588	30563
879.715	30574
879.842	29882
879.97	28405
880.097	26929
880.224	25674
880.351	24852
880.478	24194
880.605	23699
880.732	23406
880.859	23562
880.986	23147
881.112	23048
881.239	22881
881.366	22805
881.493	22653
881.619	22767
881.746	22698
881.872	22721
881.999	22573
882.125	22706
882.252	22809
882.378	22782
882.505	22968
882.631	22797
882.757	22634
882.883	22729
883.01	22516
883.136	22493
883.262	22451
883.388	22417
883.514	22565
883.64	22615
883.766	22478
883.892	22299
884.018	22329
884.143	22466
884.269	22641
884.395	22318
884.52	22253
884.646	22474
884.772	22124
884.897	22276
885.023	22150
885.148	22371
885.274	22405
885.399	22223
885.524	22078
885.65	22093
885.775	21987
885.9	21812
886.025	21899
886.15	21682
886.275	21507
886.4	21336
886.525	21336
886.65	21108
886.775	21047
886.9	21146
887.025	21188
887.149	20902
887.274	20731
887.399	20556
887.523	20495
887.648	20469
887.773	20248
887.897	20465
888.021	20320
888.146	20214
888.27	20252
888.395	20358
888.519	20142
888.643	20168
888.767	20176
888.891	19982
889.015	19837
889.139	19841
889.263	19807
889.387	19864
889.511	19947
889.635	19856
889.759	19765
889.883	19609
890.006	19666
890.13	19689
890.254	19578
890.377	19441
890.501	19327
890.624	19320
890.748	19369
890.871	19217
890.995	18985
891.118	19000
891.241	19069
891.364	19069
891.488	19012
891.611	19050
891.734	18985
891.857	19012
891.98	18951
892.103	18951
892.226	18871
892.349	18779
892.471	18688
892.594	18760
892.717	18817
892.839	18722
892.962	18635
893.085	18711
893.207	18760
893.33	18490
893.452	18593
893.575	18681
893.697	18494
893.819	18707
893.941	18707
894.064	18703
894.186	18574
894.308	18597
894.43	18563
894.552	18642
894.674	18597
894.796	18490
894.918	18388
895.04	18422
895.161	18525
895.283	18517
895.405	18429
895.526	18346
895.648	18361
895.769	18369
895.891	18365
896.012	18437
896.134	18372
896.255	18388
896.376	18292
896.498	18311
896.619	18467
896.74	18433
896.861	18448
896.982	18745
897.103	18817
897.224	18623
897.345	18582
897.466	18486
897.587	18498
897.708	18642
897.828	18582
897.949	18426
898.07	18437
898.19	18532
898.311	18673
898.431	18475
898.552	18486
898.672	18559
898.792	18570
898.913	18559
899.033	18410
899.153	18407
899.273	18258
899.393	18350
899.513	18289
899.633	18315
899.753	18357
899.873	18186
899.993	18441
900.113	18235
900.232	18433
900.352	18140
900.472	18205
900.591	18159
900.711	18121
900.83	18026
900.95	18190
901.069	18197
901.189	17984
901.308	17748
901.427	17714
901.546	17710
901.665	17661
901.784	17691
901.904	17512
902.023	17410
902.141	17235
902.26	17147
902.379	17269
902.498	17246
902.617	17155
902.735	17113
902.854	17060
902.973	17037
903.091	16801
903.21	16801
903.328	16820
903.446	16599
903.565	16653
903.683	16618
903.801	16474
903.919	16607
904.038	16653
904.156	16352
904.274	16573
904.392	16382
904.51	16325
904.627	16375
904.745	16455
904.863	16405
904.981	16059
905.098	16051
905.216	15922
905.334	16059
905.451	15945
905.569	15998
905.686	16002
905.803	16029
905.921	15797
906.038	15899
906.155	15789
906.272	15667
906.389	15576
906.506	15500
906.623	15671
906.74	15454
906.857	15435
906.974	15420
907.091	15584
907.208	15625
907.324	15477
907.441	15420
907.557	15298
907.674	15173
907.79	15169
907.907	15226
908.023	15207
908.139	15199
908.256	15138
908.372	15176
908.488	15135
908.604	14971
908.72	14925
908.836	14944
908.952	14800
909.068	14864
909.184	14887
909.3	14982
909.415	14998
909.531	14883
909.647	14648
909.762	14693
909.878	14579
909.993	14629
910.108	14602
910.224	14511
910.339	14629
910.454	14473
910.57	14526
910.685	14400
910.8	14663
910.915	14537
911.03	14434
911.145	14366
911.259	14290
911.374	14210
911.489	14161
911.604	14157
911.718	14084
911.833	14111
911.947	13932
912.062	13837
912.176	14035
912.291	14031
912.405	13986
912.519	14115
912.633	14065
912.748	14088
912.862	14024
912.976	13833
913.09	13643
913.204	13753
913.318	13799
913.431	13909
913.545	13932
913.659	13894
913.772	13845
913.886	13704
914	13670
914.113	13803
914.226	13921
914.34	13807
914.453	13594
914.566	13715
914.68	13655
914.793	13662
914.906	13407
915.019	13403
915.132	13369
915.245	13373
915.358	13430
915.47	13343
915.583	13335
915.696	13415
915.809	13575
915.921	13476
916.034	13377
916.146	13312
916.259	13255
916.371	13362
916.483	13392
916.595	13145
916.708	13339
916.82	13278
916.932	13293
917.044	13217
917.156	13164
917.268	13133
917.38	13129
917.491	13088
917.603	13050
917.715	13114
917.826	13160
917.938	12951
918.049	12901
918.161	12928
918.272	13236
918.384	13103
918.495	13057
918.606	12935
918.717	12787
918.828	12886
918.939	12924
919.05	12684
919.161	12776
919.272	12654
919.383	12772
919.494	12935
919.604	13069
919.715	12871
919.826	12821
919.936	12901
920.047	12939
920.157	12817
920.267	12970
920.378	12894
920.488	12760
920.598	12928
920.708	13107
920.818	12939
920.928	12894
921.038	13129
921.148	13084
921.258	12810
921.368	12616
921.477	12650
921.587	12597
921.697	12448
921.806	12662
921.916	12471
922.025	12300
922.134	12182
922.244	12296
922.353	12171
922.462	11965
922.571	12140
922.68	11939
922.789	11935
922.898	11904
923.007	11859
923.116	11870
923.224	11805
923.333	11965
923.442	11821
923.55	11691
923.659	11710
923.767	11798
923.876	11676
923.984	11726
924.092	11486
924.201	11703
924.309	11649
924.417	11733
924.525	11573
924.633	11630
924.741	12445
924.849	11448
924.956	11535
925.064	11467
925.172	11356
925.279	11311
925.387	11444
925.494	11414
925.602	11516
925.709	11501
925.816	11288
925.924	11368
926.031	11471
926.138	11345
926.245	11440
926.352	11265
926.459	11322
926.566	11421
926.673	11376
926.779	11117
926.886	11265
926.993	11098
927.099	11056
927.206	10957
927.312	10968
927.419	11124
927.525	10991
927.631	11086
927.737	10934
927.843	10934
927.95	10835
928.056	10847
928.162	10873
928.267	10904
928.373	11414
928.479	11014
928.585	10771
928.69	10919
928.796	10900
928.901	10733
929.007	10637
929.112	10687
929.218	10740
929.323	10573
929.428	10558
929.533	10828
929.638	10569
929.743	10577
929.848	10573
929.953	10615
930.058	10497
930.163	10268
930.267	10405
930.372	10550
930.477	10284
930.581	10561
930.685	10398
930.79	10253
930.894	10242
930.998	10265
931.103	10428
931.207	10017
931.311	9983
931.415	9918
931.519	9671
931.623	9682
