Data from test_V78500241_2176.txt Node
Date: Fri Mar 25 14:48:51 CST 2022
User: usil
Spectrometer: V785-0024
Trigger mode: 0
Integration Time (sec): 4.000000E-1
Scans to average: 1
Nonlinearity correction enabled: false
Boxcar width: 0
Storing dark spectrum: false
XAxis mode: Wavelengths
Number of Pixels in Spectrum: 1024
>>>>>Begin Spectral Data<<<<<
801.071	22139
801.214	21930
801.356	21781
801.499	21804
801.641	21545
801.783	21454
801.926	21557
802.068	21401
802.211	21412
802.353	21325
802.496	21165
802.638	21074
802.78	21039
802.923	20975
803.065	20731
803.208	20834
803.35	20880
803.492	20990
803.635	20891
803.777	20986
803.919	20921
804.061	21211
804.204	20910
804.346	20819
804.488	20864
804.63	20804
804.773	20781
804.915	20857
805.057	20838
805.199	20785
805.341	20773
805.483	20979
805.626	20826
805.768	20769
805.91	20777
806.052	20731
806.194	20651
806.336	20891
806.478	20640
806.62	20781
806.762	20762
806.904	20933
807.046	21176
807.188	21112
807.33	21184
807.472	21077
807.614	21013
807.756	21009
807.898	20864
808.04	20880
808.182	20853
808.324	20815
808.465	20864
808.607	21135
808.749	21146
808.891	21192
809.033	21378
809.174	21272
809.316	21123
809.458	21055
809.6	21154
809.741	21203
809.883	21370
810.025	21256
810.166	21397
810.308	21218
810.45	21188
810.591	21104
810.733	21066
810.875	21036
811.016	20823
811.158	20823
811.299	20868
811.441	21032
811.582	21009
811.724	21024
811.865	20960
812.007	20921
812.148	20979
812.29	20937
812.431	21070
812.573	21233
812.714	21367
812.855	21401
812.997	21526
813.138	21663
813.279	21526
813.421	21477
813.562	21340
813.703	21180
813.845	21081
813.986	20750
814.127	20659
814.268	20640
814.41	20404
814.551	20476
814.692	20469
814.833	20488
814.974	20351
815.115	20396
815.256	20298
815.397	20298
815.539	20248
815.68	20259
815.821	20142
815.962	20176
816.103	20164
816.244	20077
816.385	19917
816.526	19765
816.666	19780
816.807	19639
816.948	19715
817.089	19662
817.23	19693
817.371	19597
817.512	19601
817.653	19514
817.793	19514
817.934	19616
818.075	19533
818.216	19613
818.356	19510
818.497	19449
818.638	19251
818.778	19388
818.919	19282
819.06	19301
819.2	19453
819.341	19426
819.481	19449
819.622	19651
819.762	19799
819.903	19742
820.043	19723
820.184	19499
820.324	19563
820.465	19540
820.605	19514
820.746	19582
820.886	19457
821.026	19613
821.167	19639
821.307	19540
821.447	19540
821.588	19457
821.728	19331
821.868	19171
822.008	19069
822.149	19012
822.289	19031
822.429	18890
822.569	18692
822.709	18673
822.849	18471
822.99	18471
823.13	18513
823.27	18395
823.41	18270
823.55	18342
823.69	18353
823.83	18418
823.97	18346
824.11	18076
824.25	17988
824.389	18095
824.529	18121
824.669	18019
824.809	18163
824.949	18129
825.089	18148
825.228	18098
825.368	17916
825.508	17931
825.648	17882
825.787	17855
825.927	17958
826.067	17718
826.206	17756
826.346	17920
826.485	17870
826.625	17821
826.765	17912
826.904	17935
827.044	17676
827.183	17501
827.323	17512
827.462	17570
827.601	17490
827.741	17516
827.88	17619
828.02	17471
828.159	17585
828.298	17562
828.437	17623
828.577	17551
828.716	17707
828.855	17554
828.994	17376
829.134	17360
829.273	17395
829.412	17250
829.551	17159
829.69	17250
829.829	17398
829.968	17356
830.107	17273
830.246	17395
830.385	17223
830.524	17212
830.663	17239
830.802	17060
830.941	16904
831.08	16934
831.219	17102
831.357	16911
831.496	17086
831.635	16995
831.774	16725
831.913	16843
832.051	16675
832.19	16653
832.329	16786
832.467	16584
832.606	16523
832.744	16588
832.883	16588
833.022	16580
833.16	16618
833.299	16675
833.437	16615
833.576	16672
833.714	16622
833.852	16679
833.991	16660
834.129	16630
834.267	16717
834.406	16535
834.544	16778
834.682	16793
834.821	16721
834.959	16793
835.097	16698
835.235	16721
835.373	16733
835.511	16672
835.65	16573
835.788	16664
835.926	16523
836.064	16405
836.202	16371
836.34	16538
836.478	16645
836.615	16577
836.753	16519
836.891	16618
837.029	16592
837.167	16535
837.305	16405
837.443	16523
837.58	16356
837.718	16485
837.856	16478
837.993	16421
838.131	16451
838.269	16306
838.406	16363
838.544	16249
838.681	16223
838.819	16143
838.956	15968
839.094	15949
839.231	15960
839.369	16010
839.506	16329
839.643	16246
839.781	16032
839.918	15888
840.055	16048
840.193	15956
840.33	15968
840.467	15915
840.604	16044
840.742	16078
840.879	15842
841.016	15953
841.153	15812
841.29	15983
841.427	15987
841.564	15968
841.701	15975
841.838	15953
841.975	15884
842.112	15930
842.249	15724
842.385	15705
842.522	15945
842.659	15759
842.796	15595
842.933	15679
843.069	15679
843.206	15732
843.343	15766
843.479	15732
843.616	15747
843.752	15584
843.889	15549
844.025	15770
844.162	15595
844.298	15595
844.435	15614
844.571	15481
844.708	15629
844.844	15648
844.98	15663
845.117	15667
845.253	15492
845.389	15447
845.525	15447
845.661	15511
845.798	15291
845.934	15367
846.07	15252
846.206	15294
846.342	15542
846.478	15367
846.614	15241
846.75	15070
846.886	15066
847.022	15157
847.158	15085
847.294	14998
847.429	15199
847.565	15108
847.701	15348
847.837	14876
847.972	14785
848.108	14899
848.244	14849
848.379	14735
848.515	14689
848.65	14697
848.786	14674
848.921	14648
849.057	14720
849.192	14811
849.328	14727
849.463	14750
849.598	14617
849.734	14708
849.869	14659
850.004	14450
850.14	14507
850.275	14507
850.41	14473
850.545	14469
850.68	14423
850.815	14533
850.95	14450
851.085	14693
851.22	14549
851.355	14507
851.49	14442
851.625	14431
851.76	14404
851.895	14313
852.03	14305
852.165	14438
852.299	14419
852.434	14526
852.569	14480
852.703	14495
852.838	14514
852.973	14686
853.107	14640
853.242	14412
853.376	14434
853.511	14263
853.645	14271
853.78	14442
853.914	14366
854.048	14278
854.183	14339
854.317	14370
854.451	14465
854.585	14301
854.72	14202
854.854	14423
854.988	14206
855.122	14286
855.256	14145
855.39	14320
855.524	14389
855.658	14339
855.792	14278
855.926	14396
856.06	14332
856.194	14522
856.327	14415
856.461	14267
856.595	14332
856.729	14355
856.862	14442
856.996	14404
857.13	14476
857.263	14396
857.397	14400
857.53	14294
857.664	14294
857.797	14328
857.931	14556
858.064	14355
858.197	14415
858.331	14362
858.464	14339
858.597	14298
858.731	14320
858.864	14218
858.997	14233
859.13	14347
859.263	14370
859.396	14366
859.529	14218
859.662	14305
859.795	14275
859.928	14351
860.061	14564
860.194	14571
860.327	14343
860.46	14362
860.592	14469
860.725	14556
860.858	14511
860.99	14415
861.123	14256
861.256	14271
861.388	14366
861.521	14971
861.653	14202
861.786	14073
861.918	14221
862.05	14252
862.183	14248
862.315	14343
862.447	14324
862.58	14336
862.712	14100
862.844	14020
862.976	14161
863.108	14111
863.24	14431
863.372	14058
863.504	14092
863.636	14180
863.768	14161
863.9	14157
864.032	13970
864.164	14065
864.296	14180
864.428	14157
864.559	14229
864.691	14275
864.823	14221
864.954	14062
865.086	14111
865.217	14092
865.349	13951
865.48	14077
865.612	14043
865.743	14240
865.875	14084
866.006	14096
866.137	14115
866.269	14046
866.4	14054
866.531	14058
866.662	13970
866.793	14031
866.924	14069
867.055	14180
867.186	14054
867.317	13978
867.448	13925
867.579	14031
867.71	13989
867.841	13982
867.972	14062
868.103	14119
868.233	14100
868.364	14172
868.495	14176
868.625	14278
868.756	14400
868.886	14221
869.017	14294
869.147	14423
869.278	14423
869.408	14374
869.539	14366
869.669	14438
869.799	14385
869.929	14511
870.06	14446
870.19	14663
870.32	14632
870.45	14724
870.58	14705
870.71	14785
870.84	14800
870.97	14758
871.1	14598
871.23	14918
871.36	14971
871.489	14743
871.619	14815
871.749	14861
871.879	14899
872.008	15081
872.138	15017
872.267	14819
872.397	14864
872.526	14826
872.656	14743
872.785	14746
872.915	14891
873.044	15036
873.173	14883
873.303	14994
873.432	15047
873.561	15047
873.69	14986
873.819	14990
873.948	14941
874.077	14933
874.206	14963
874.335	14998
874.464	15081
874.593	15321
874.722	15252
874.851	15252
874.979	15287
875.108	15374
875.237	15176
875.365	15241
875.494	15275
875.623	15367
875.751	15222
875.88	15268
876.008	15458
876.136	15526
876.265	15686
876.393	15831
876.521	15857
876.65	15743
876.778	15736
876.906	15637
877.034	15625
877.162	15698
877.29	15580
877.418	15694
877.546	15686
877.674	15747
877.802	15774
877.93	15720
878.058	15587
878.185	15648
878.313	15625
878.441	15694
878.568	15507
878.696	15679
878.824	15705
878.951	15831
879.079	15903
879.206	16173
879.333	15812
879.461	15850
879.588	15755
879.715	15880
879.842	15937
879.97	15743
880.097	15606
880.224	15534
880.351	15580
880.478	15629
880.605	15603
880.732	15507
880.859	15888
880.986	15507
881.112	15564
881.239	15431
881.366	15412
881.493	15264
881.619	15165
881.746	15203
881.872	15165
881.999	15203
882.125	15184
882.252	15237
882.378	15245
882.505	15393
882.631	15256
882.757	14963
882.883	15032
883.01	15074
883.136	14925
883.262	14960
883.388	14914
883.514	15047
883.64	15119
883.766	15058
883.892	14792
884.018	14895
884.143	15066
884.269	15074
884.395	14781
884.52	14659
884.646	14826
884.772	14644
884.897	14686
885.023	14648
885.148	14804
885.274	14876
885.399	14823
885.524	14640
885.65	14693
885.775	14788
885.9	14644
886.025	14845
886.15	14758
886.275	14670
886.4	14651
886.525	14731
886.65	14621
886.775	14617
886.9	14830
887.025	15032
887.149	14788
887.274	14613
887.399	14598
887.523	14545
887.648	14469
887.773	14499
887.897	14640
888.021	14549
888.146	14473
888.27	14518
888.395	14621
888.519	14689
888.643	14541
888.767	14511
888.891	14503
889.015	14484
889.139	14454
889.263	14450
889.387	14473
889.511	14712
889.635	14495
889.759	14332
889.883	14412
890.006	14442
890.13	14526
890.254	14309
890.377	14389
890.501	14176
890.624	14218
890.748	14351
890.871	14202
890.995	14103
891.118	14103
891.241	14153
891.364	14100
891.488	14294
891.611	14138
891.734	14176
891.857	14199
891.98	14020
892.103	14191
892.226	14153
892.349	14145
892.471	14001
892.594	14134
892.717	14206
892.839	14100
892.962	14039
893.085	14138
893.207	14062
893.33	13890
893.452	14145
893.575	14271
893.697	14103
893.819	14248
893.941	14317
894.064	14343
894.186	14088
894.308	14046
894.43	14248
894.552	14278
894.674	14164
894.796	14077
894.918	14180
895.04	14134
895.161	14259
895.283	14267
895.405	14233
895.526	14195
895.648	14259
895.769	14294
895.891	14259
896.012	14339
896.134	14294
896.255	14244
896.376	14317
896.498	14298
896.619	14248
896.74	14317
896.861	14366
896.982	14606
897.103	14811
897.224	14488
897.345	14507
897.466	14495
897.587	14530
897.708	14693
897.828	14613
897.949	14514
898.07	14381
898.19	14495
898.311	14712
898.431	14575
898.552	14731
898.672	14693
898.792	14807
898.913	14670
899.033	14488
899.153	14499
899.273	14366
899.393	14507
899.513	14454
899.633	14533
899.753	14549
899.873	14457
899.993	14579
900.113	14484
900.232	14522
900.352	14427
900.472	14442
900.591	14339
900.711	14434
900.83	14290
900.95	14366
901.069	14427
901.189	14237
901.308	14111
901.427	14054
901.546	14020
901.665	14058
901.784	14088
901.904	13909
902.023	13769
902.141	13613
902.26	13639
902.379	13685
902.498	13578
902.617	13529
902.735	13643
902.854	13544
902.973	13620
903.091	13381
903.21	13274
903.328	13308
903.446	13244
903.565	13171
903.683	13156
903.801	13076
903.919	13133
904.038	13175
904.156	12962
904.274	12993
904.392	12962
904.51	12943
904.627	12966
904.745	12970
904.863	13091
904.981	12829
905.098	12658
905.216	12726
905.334	12745
905.451	12681
905.569	12612
905.686	12768
905.803	12741
905.921	12517
906.038	12513
906.155	12536
906.272	12388
906.389	12441
906.506	12224
906.623	12254
906.74	12190
906.857	12243
906.974	12254
907.091	12338
907.208	12342
907.324	12292
907.441	12171
907.557	11950
907.674	12019
907.79	11908
907.907	11980
908.023	12030
908.139	11961
908.256	11988
908.372	11908
908.488	11901
908.604	11802
908.72	11824
908.836	11680
908.952	11764
909.068	11756
909.184	11904
909.3	11779
909.415	11817
909.531	11840
909.647	11547
909.762	11547
909.878	11455
909.993	11501
910.108	11558
910.224	11482
910.339	11558
910.454	11490
910.57	11467
910.685	11360
910.8	11710
910.915	11581
911.03	11463
911.145	11235
911.259	11239
911.374	11212
911.489	11170
911.604	11143
911.718	10965
911.833	10984
911.947	10873
912.062	10793
912.176	10953
912.291	10972
912.405	10984
912.519	11201
912.633	11189
912.748	10976
912.862	10968
912.976	10915
913.09	10752
913.204	10835
913.318	10904
913.431	10953
913.545	10953
913.659	10991
913.772	10919
913.886	10740
914	10740
914.113	10919
914.226	10904
914.34	10862
914.453	10615
914.566	10767
914.68	10714
914.793	10668
914.906	10584
915.019	10519
915.132	10348
915.245	10466
915.358	10615
915.47	10573
915.583	10470
915.696	10519
915.809	10649
915.921	10687
916.034	10504
916.146	10443
916.259	10394
916.371	10565
916.483	10558
916.595	10489
916.708	10428
916.82	10478
916.932	10371
917.044	10440
917.156	10390
917.268	10322
917.38	10344
917.491	10207
917.603	10257
917.715	10462
917.826	10455
917.938	10382
918.049	10196
918.161	10409
918.272	10443
918.384	10523
918.495	10394
918.606	10230
918.717	10147
918.828	10215
918.939	10287
919.05	10166
919.161	10227
919.272	10051
919.383	10074
919.494	10246
919.604	10443
919.715	10219
919.826	10143
919.936	10234
920.047	10265
920.157	10173
920.267	10421
920.378	10299
920.488	10196
920.598	10413
920.708	10607
920.818	10500
920.928	10443
921.038	10622
921.148	10561
921.258	10287
921.368	10181
921.477	10090
921.587	10143
921.697	9899
921.806	10101
921.916	10032
922.025	9789
922.134	9785
922.244	9762
922.353	9781
922.462	9694
922.571	9618
922.68	9492
922.789	9462
922.898	9466
923.007	9435
923.116	9523
923.224	9412
923.333	9408
923.442	9431
923.55	9310
923.659	9401
923.767	9435
923.876	9256
923.984	9412
924.092	9283
924.201	9393
924.309	9344
924.417	9355
924.525	9279
924.633	9321
924.741	10097
924.849	9081
924.956	9302
925.064	9081
925.172	9066
925.279	9074
925.387	9154
925.494	9150
925.602	9226
925.709	9249
925.816	9104
925.924	9116
926.031	9233
926.138	9119
926.245	9180
926.352	9005
926.459	9207
926.566	9272
926.673	9161
926.779	9009
926.886	8937
926.993	8853
927.099	8880
927.206	8842
927.312	8838
927.419	8861
927.525	8853
927.631	8925
927.737	8826
927.843	8746
927.95	8613
928.056	8632
928.162	8727
928.267	8887
928.373	9393
928.479	8838
928.585	8606
928.69	8720
928.796	8781
928.901	8625
929.007	8499
929.112	8670
929.218	8667
929.323	8621
929.428	8537
929.533	8670
929.638	8549
929.743	8571
929.848	8610
929.953	8552
930.058	8465
930.163	8332
930.267	8313
930.372	8461
930.477	8320
930.581	8537
930.685	8457
930.79	8301
930.894	8271
930.998	8172
931.103	8355
931.207	8054
931.311	7978
931.415	7959
931.519	7803
931.623	7788
