Data from test_V78500241_2088.txt Node
Date: Fri Mar 25 14:48:15 CST 2022
User: usil
Spectrometer: V785-0024
Trigger mode: 0
Integration Time (sec): 4.000000E-1
Scans to average: 1
Nonlinearity correction enabled: false
Boxcar width: 0
Storing dark spectrum: false
XAxis mode: Wavelengths
Number of Pixels in Spectrum: 1024
>>>>>Begin Spectral Data<<<<<
801.071	22055
801.214	21991
801.356	21895
801.499	21682
801.641	21447
801.783	21488
801.926	21538
802.068	21405
802.211	21443
802.353	21291
802.496	21043
802.638	20910
802.78	20963
802.923	20979
803.065	20731
803.208	20754
803.35	20853
803.492	20929
803.635	21039
803.777	20857
803.919	20948
804.061	21264
804.204	20887
804.346	20788
804.488	20735
804.63	20754
804.773	20667
804.915	20921
805.057	20853
805.199	20625
805.341	20807
805.483	20811
805.626	20842
805.768	20705
805.91	20682
806.052	20842
806.194	20735
806.336	20952
806.478	20746
806.62	20644
806.762	20845
806.904	20921
807.046	21112
807.188	21146
807.33	21058
807.472	21154
807.614	21066
807.756	21028
807.898	20937
808.04	20857
808.182	20819
808.324	20872
808.465	20849
808.607	21089
808.749	21169
808.891	21237
809.033	21233
809.174	21203
809.316	21142
809.458	21161
809.6	21100
809.741	21207
809.883	21203
810.025	21367
810.166	21287
810.308	21222
810.45	21283
810.591	21192
810.733	21055
810.875	20918
811.016	20769
811.158	20788
811.299	20899
811.441	21036
811.582	20906
811.724	20845
811.865	20963
812.007	20830
812.148	20895
812.29	20963
812.431	21039
812.573	21100
812.714	21203
812.855	21435
812.997	21458
813.138	21606
813.279	21572
813.421	21447
813.562	21275
813.703	21180
813.845	21195
813.986	20861
814.127	20602
814.268	20564
814.41	20507
814.551	20412
814.692	20438
814.833	20518
814.974	20431
815.115	20598
815.256	20370
815.397	20221
815.539	20199
815.68	20191
815.821	20065
815.962	20187
816.103	20122
816.244	19928
816.385	19909
816.526	19860
816.666	19731
816.807	19487
816.948	19628
817.089	19613
817.23	19624
817.371	19556
817.512	19738
817.653	19544
817.793	19491
817.934	19582
818.075	19609
818.216	19681
818.356	19480
818.497	19449
818.638	19190
818.778	19354
818.919	19350
819.06	19430
819.2	19426
819.341	19510
819.481	19480
819.622	19666
819.762	19765
819.903	19605
820.043	19655
820.184	19605
820.324	19632
820.465	19567
820.605	19624
820.746	19597
820.886	19430
821.026	19514
821.167	19609
821.307	19620
821.447	19472
821.588	19373
821.728	19308
821.868	19103
822.008	19046
822.149	18897
822.289	18928
822.429	18745
822.569	18623
822.709	18616
822.849	18582
822.99	18483
823.13	18494
823.27	18414
823.41	18311
823.55	18243
823.69	18292
823.83	18292
823.97	18350
824.11	18007
824.25	18057
824.389	18095
824.529	18087
824.669	17942
824.809	18194
824.949	18060
825.089	18076
825.228	17931
825.368	17969
825.508	17874
825.648	17901
825.787	17859
825.927	17851
826.067	17824
826.206	17737
826.346	17843
826.485	17824
826.625	17832
826.765	17904
826.904	17790
827.044	17611
827.183	17619
827.323	17490
827.462	17577
827.601	17604
827.741	17486
827.88	17444
828.02	17436
828.159	17592
828.298	17543
828.437	17592
828.577	17509
828.716	17672
828.855	17356
828.994	17220
829.134	17356
829.273	17345
829.412	17360
829.551	17265
829.69	17208
829.829	17387
829.968	17376
830.107	17296
830.246	17303
830.385	17094
830.524	17239
830.663	17102
830.802	17022
830.941	16858
831.08	16976
831.219	16904
831.357	16946
831.496	17185
831.635	16877
831.774	16828
831.913	16755
832.051	16774
832.19	16637
832.329	16649
832.467	16653
832.606	16504
832.744	16531
832.883	16485
833.022	16561
833.16	16565
833.299	16660
833.437	16740
833.576	16679
833.714	16603
833.852	16748
833.991	16653
834.129	16698
834.267	16809
834.406	16618
834.544	16668
834.682	16656
834.821	16645
834.959	16759
835.097	16535
835.235	16691
835.373	16634
835.511	16740
835.65	16443
835.788	16607
835.926	16447
836.064	16253
836.202	16352
836.34	16497
836.478	16641
836.615	16493
836.753	16653
836.891	16641
837.029	16596
837.167	16500
837.305	16440
837.443	16478
837.58	16348
837.718	16504
837.856	16478
837.993	16341
838.131	16352
838.269	16382
838.406	16333
838.544	16238
838.681	16063
838.819	16051
838.956	15979
839.094	15895
839.231	15987
839.369	16101
839.506	16299
839.643	16226
839.781	15987
839.918	15865
840.055	16013
840.193	15960
840.33	15922
840.467	15953
840.604	16017
840.742	16173
840.879	15842
841.016	15895
841.153	15892
841.29	16188
841.427	15949
841.564	15949
841.701	15941
841.838	15857
841.975	15876
842.112	15804
842.249	15808
842.385	15690
842.522	15861
842.659	15800
842.796	15770
842.933	15774
843.069	15675
843.206	15648
843.343	15846
843.479	15781
843.616	15800
843.752	15561
843.889	15450
844.025	15667
844.162	15462
844.298	15507
844.435	15511
844.571	15504
844.708	15625
844.844	15648
844.98	15633
845.117	15625
845.253	15408
845.389	15439
845.525	15340
845.661	15431
845.798	15287
845.934	15340
846.07	15332
846.206	15481
846.342	15405
846.478	15321
846.614	15047
846.75	14971
846.886	14982
847.022	15161
847.158	15066
847.294	15119
847.429	15116
847.565	14941
847.701	15302
847.837	14834
847.972	14720
848.108	14918
848.244	14914
848.379	14819
848.515	14693
848.65	14674
848.786	14625
848.921	14750
849.057	14796
849.192	14830
849.328	14708
849.463	14705
849.598	14739
849.734	14575
849.869	14632
850.004	14503
850.14	14560
850.275	14438
850.41	14404
850.545	14454
850.68	14484
850.815	14408
850.95	14457
851.085	14625
851.22	14503
851.355	14423
851.49	14385
851.625	14461
851.76	14423
851.895	14355
852.03	14298
852.165	14495
852.299	14495
852.434	14530
852.569	14461
852.703	14434
852.838	14522
852.973	14606
853.107	14522
853.242	14427
853.376	14339
853.511	14168
853.645	14263
853.78	14427
853.914	14332
854.048	14275
854.183	14259
854.317	14202
854.451	14461
854.585	14347
854.72	14290
854.854	14362
854.988	14164
855.122	14317
855.256	14126
855.39	14244
855.524	14457
855.658	14469
855.792	14389
855.926	14355
856.06	14461
856.194	14355
856.327	14324
856.461	14298
856.595	14237
856.729	14343
856.862	14404
856.996	14400
857.13	14400
857.263	14499
857.397	14370
857.53	14328
857.664	14317
857.797	14381
857.931	14408
858.064	14366
858.197	14446
858.331	14343
858.464	14309
858.597	14164
858.731	14332
858.864	14305
858.997	14248
859.13	14328
859.263	14324
859.396	14290
859.529	14244
859.662	14221
859.795	14244
859.928	14313
860.061	14469
860.194	14457
860.327	14351
860.46	14256
860.592	14434
860.725	14480
860.858	14476
860.99	14275
861.123	14168
861.256	14309
861.388	14328
861.521	14815
861.653	14202
861.786	14252
861.918	14199
862.05	14313
862.183	14320
862.315	14362
862.447	14324
862.58	14259
862.712	14107
862.844	14145
862.976	14115
863.108	14153
863.24	14358
863.372	13989
863.504	14157
863.636	14084
863.768	14294
863.9	14020
864.032	14096
864.164	14123
864.296	14062
864.428	14218
864.559	14126
864.691	14180
864.823	14180
864.954	14145
865.086	14134
865.217	14164
865.349	14031
865.48	14084
865.612	14130
865.743	14286
865.875	14115
866.006	14050
866.137	14062
866.269	14100
866.4	14088
866.531	14020
866.662	14043
866.793	14100
866.924	14069
867.055	14065
867.186	14039
867.317	14073
867.448	13997
867.579	14096
867.71	14069
867.841	14103
867.972	14084
868.103	14142
868.233	14145
868.364	14103
868.495	14123
868.625	14294
868.756	14377
868.886	14218
869.017	14351
869.147	14400
869.278	14465
869.408	14313
869.539	14358
869.669	14465
869.799	14408
869.929	14431
870.06	14469
870.19	14617
870.32	14613
870.45	14720
870.58	14849
870.71	14952
870.84	14952
870.97	14697
871.1	14579
871.23	14994
871.36	14899
871.489	14891
871.619	14876
871.749	14921
871.879	14982
872.008	14979
872.138	14918
872.267	14941
872.397	14769
872.526	14720
872.656	14720
872.785	14826
872.915	14994
873.044	15104
873.173	14952
873.303	15024
873.432	14979
873.561	14956
873.69	15070
873.819	15017
873.948	14925
874.077	14979
874.206	14937
874.335	15047
874.464	15097
874.593	15264
874.722	15093
874.851	15298
874.979	15256
875.108	15431
875.237	15260
875.365	15226
875.494	15218
875.623	15260
875.751	15294
875.88	15325
876.008	15424
876.136	15564
876.265	15679
876.393	15895
876.521	15808
876.65	15690
876.778	15724
876.906	15720
877.034	15603
877.162	15789
877.29	15618
877.418	15671
877.546	15675
877.674	15679
877.802	15599
877.93	15633
878.058	15694
878.185	15595
878.313	15633
878.441	15701
878.568	15587
878.696	15622
878.824	15755
878.951	15816
879.079	15892
879.206	15949
879.333	15888
879.461	15781
879.588	15903
879.715	15800
879.842	15994
879.97	15797
880.097	15542
880.224	15435
880.351	15622
880.478	15656
880.605	15568
880.732	15488
880.859	15759
880.986	15644
881.112	15705
881.239	15420
881.366	15306
881.493	15256
881.619	15169
881.746	15214
881.872	15176
881.999	15173
882.125	15150
882.252	15207
882.378	15207
882.505	15336
882.631	15214
882.757	15024
882.883	14982
883.01	15020
883.136	14876
883.262	14933
883.388	14819
883.514	15001
883.64	15077
883.766	15047
883.892	14861
884.018	14823
884.143	15119
884.269	15169
884.395	14788
884.52	14670
884.646	14842
884.772	14674
884.897	14602
885.023	14678
885.148	14861
885.274	14956
885.399	14819
885.524	14777
885.65	14697
885.775	14765
885.9	14739
886.025	14883
886.15	14807
886.275	14686
886.4	14663
886.525	14811
886.65	14667
886.775	14659
886.9	14906
887.025	14994
887.149	14750
887.274	14644
887.399	14473
887.523	14503
887.648	14465
887.773	14488
887.897	14636
888.021	14697
888.146	14568
888.27	14606
888.395	14796
888.519	14659
888.643	14613
888.767	14636
888.891	14476
889.015	14389
889.139	14492
889.263	14415
889.387	14579
889.511	14571
889.635	14644
889.759	14393
889.883	14400
890.006	14366
890.13	14537
890.254	14347
890.377	14366
890.501	14252
890.624	14202
890.748	14351
890.871	14157
890.995	14134
891.118	14092
891.241	14218
891.364	14069
891.488	14309
891.611	13986
891.734	14130
891.857	14195
891.98	14199
892.103	14157
892.226	14164
892.349	14096
892.471	13928
892.594	14103
892.717	14123
892.839	14145
892.962	14172
893.085	14142
893.207	14103
893.33	14176
893.452	14088
893.575	14183
893.697	14073
893.819	14263
893.941	14286
894.064	14263
894.186	14096
894.308	14119
894.43	14301
894.552	14358
894.674	14343
894.796	14145
894.918	14206
895.04	14161
895.161	14275
895.283	14256
895.405	14221
895.526	14210
895.648	14206
895.769	14290
895.891	14229
896.012	14336
896.134	14404
896.255	14229
896.376	14275
896.498	14263
896.619	14248
896.74	14271
896.861	14438
896.982	14663
897.103	14785
897.224	14617
897.345	14492
897.466	14575
897.587	14613
897.708	14720
897.828	14697
897.949	14541
898.07	14492
898.19	14514
898.311	14655
898.431	14598
898.552	14655
898.672	14659
898.792	14823
898.913	14686
899.033	14701
899.153	14404
899.273	14400
899.393	14507
899.513	14461
899.633	14526
899.753	14511
899.873	14423
899.993	14587
900.113	14438
900.232	14423
900.352	14450
900.472	14446
900.591	14385
900.711	14434
900.83	14301
900.95	14461
901.069	14537
901.189	14202
901.308	14126
901.427	13967
901.546	14020
901.665	14077
901.784	14084
901.904	13913
902.023	13772
902.141	13632
902.26	13658
902.379	13632
902.498	13658
902.617	13567
902.735	13632
902.854	13594
902.973	13476
903.091	13407
903.21	13373
903.328	13293
903.446	13202
903.565	13251
903.683	13209
903.801	13057
903.919	13145
904.038	13190
904.156	12985
904.274	12973
904.392	12924
904.51	12970
904.627	13019
904.745	13103
904.863	13008
904.981	12821
905.098	12677
905.216	12627
905.334	12703
905.451	12726
905.569	12665
905.686	12692
905.803	12791
905.921	12407
906.038	12612
906.155	12513
906.272	12475
906.389	12384
906.506	12285
906.623	12281
906.74	12216
906.857	12197
906.974	12205
907.091	12327
907.208	12410
907.324	12391
907.441	12136
907.557	12182
907.674	12015
907.79	11942
907.907	12057
908.023	12053
908.139	11980
908.256	11885
908.372	11999
908.488	11935
908.604	11840
908.72	11767
908.836	11809
908.952	11733
909.068	11809
909.184	11851
909.3	11752
909.415	11847
909.531	11718
909.647	11600
909.762	11570
909.878	11558
909.993	11547
910.108	11577
910.224	11577
910.339	11577
910.454	11417
910.57	11383
910.685	11311
910.8	11649
910.915	11596
911.03	11391
911.145	11303
911.259	11223
911.374	11239
911.489	11185
911.604	11143
911.718	11041
911.833	11048
911.947	10889
912.062	10900
912.176	11022
912.291	10953
912.405	11041
912.519	11193
912.633	11242
912.748	11098
912.862	11018
912.976	10953
913.09	10778
913.204	10831
913.318	10896
913.431	11022
913.545	10949
913.659	10987
913.772	10850
913.886	10763
914	10767
914.113	10752
914.226	10957
914.34	10835
914.453	10714
914.566	10820
914.68	10805
914.793	10679
914.906	10478
915.019	10497
915.132	10398
915.245	10546
915.358	10565
915.47	10455
915.583	10542
915.696	10653
915.809	10675
915.921	10664
916.034	10459
916.146	10497
916.259	10409
916.371	10588
916.483	10527
916.595	10432
916.708	10424
916.82	10405
916.932	10398
917.044	10424
917.156	10356
917.268	10337
917.38	10325
917.491	10299
917.603	10371
917.715	10398
917.826	10489
917.938	10306
918.049	10207
918.161	10375
918.272	10485
918.384	10470
918.495	10398
918.606	10284
918.717	10181
918.828	10234
918.939	10291
919.05	10131
919.161	10196
919.272	10051
919.383	10029
919.494	10318
919.604	10466
919.715	10249
919.826	10143
919.936	10181
920.047	10272
920.157	10238
920.267	10405
920.378	10272
920.488	10246
920.598	10398
920.708	10542
920.818	10432
920.928	10436
921.038	10660
921.148	10637
921.258	10268
921.368	10242
921.477	10078
921.587	10040
921.697	9987
921.806	10135
921.916	10051
922.025	9835
922.134	9842
922.244	9823
922.353	9774
922.462	9690
922.571	9595
922.68	9511
922.789	9416
922.898	9519
923.007	9412
923.116	9519
923.224	9515
923.333	9401
923.442	9378
923.55	9329
923.659	9340
923.767	9488
923.876	9340
923.984	9435
924.092	9245
924.201	9382
924.309	9332
924.417	9393
924.525	9253
924.633	9218
924.741	10268
924.849	9127
924.956	9253
925.064	9123
925.172	9032
925.279	9074
925.387	9116
925.494	9119
925.602	9306
925.709	9207
925.816	9154
925.924	9112
926.031	9226
926.138	9218
926.245	9256
926.352	9051
926.459	9165
926.566	9245
926.673	9135
926.779	8998
926.886	9024
926.993	8899
927.099	8838
927.206	8777
927.312	8804
927.419	8838
927.525	8868
927.631	8902
927.737	8811
927.843	8746
927.95	8655
928.056	8701
928.162	8811
928.267	8807
928.373	9370
928.479	8883
928.585	8617
928.69	8762
928.796	8826
928.901	8746
929.007	8530
929.112	8739
929.218	8636
929.323	8564
929.428	8533
929.533	8644
929.638	8533
929.743	8571
929.848	8549
929.953	8522
930.058	8511
930.163	8355
930.267	8389
930.372	8492
930.477	8305
930.581	8587
930.685	8442
930.79	8275
930.894	8328
930.998	8294
931.103	8366
931.207	8035
931.311	8043
931.415	7978
931.519	7795
931.623	7753
