Data from test_V78500241_3209.txt Node
Date: Fri Mar 25 14:56:03 CST 2022
User: usil
Spectrometer: V785-0024
Trigger mode: 0
Integration Time (sec): 4.000000E-1
Scans to average: 1
Nonlinearity correction enabled: false
Boxcar width: 0
Storing dark spectrum: false
XAxis mode: Wavelengths
Number of Pixels in Spectrum: 1024
>>>>>Begin Spectral Data<<<<<
801.071	22032
801.214	21968
801.356	21816
801.499	21553
801.641	21443
801.783	21359
801.926	21412
802.068	21275
802.211	21252
802.353	21260
802.496	21001
802.638	20902
802.78	20731
802.923	20796
803.065	20655
803.208	20651
803.35	20735
803.492	20887
803.635	20842
803.777	20682
803.919	20796
804.061	21081
804.204	20758
804.346	20743
804.488	20533
804.63	20530
804.773	20663
804.915	20530
805.057	20705
805.199	20469
805.341	20651
805.483	20693
805.626	20640
805.768	20564
805.91	20617
806.052	20712
806.194	20556
806.336	20686
806.478	20461
806.62	20480
806.762	20659
806.904	20842
807.046	21005
807.188	20861
807.33	20971
807.472	20952
807.614	20895
807.756	20838
807.898	20792
808.04	20606
808.182	20663
808.324	20606
808.465	20693
808.607	21047
808.749	21032
808.891	21108
809.033	21131
809.174	21062
809.316	20941
809.458	20918
809.6	20849
809.741	21036
809.883	21032
810.025	21146
810.166	21116
810.308	21138
810.45	21085
810.591	20918
810.733	20834
810.875	20823
811.016	20678
811.158	20594
811.299	20746
811.441	20773
811.582	20750
811.724	20724
811.865	20670
812.007	20693
812.148	20651
812.29	20746
812.431	20883
812.573	20967
812.714	21211
812.855	21173
812.997	21291
813.138	21405
813.279	21348
813.421	21237
813.562	21112
813.703	21005
813.845	20880
813.986	20697
814.127	20495
814.268	20263
814.41	20404
814.551	20271
814.692	20347
814.833	20248
814.974	20282
815.115	20229
815.256	20096
815.397	20081
815.539	20107
815.68	20077
815.821	20024
815.962	20024
816.103	19875
816.244	19875
816.385	19757
816.526	19693
816.666	19567
816.807	19392
816.948	19468
817.089	19548
817.23	19426
817.371	19324
817.512	19407
817.653	19388
817.793	19369
817.934	19510
818.075	19533
818.216	19472
818.356	19438
818.497	19247
818.638	19057
818.778	19038
818.919	19133
819.06	19038
819.2	19099
819.341	19225
819.481	19221
819.622	19422
819.762	19677
819.903	19578
820.043	19457
820.184	19381
820.324	19346
820.465	19499
820.605	19339
820.746	19266
820.886	19240
821.026	19324
821.167	19312
821.307	19434
821.447	19324
821.588	19266
821.728	19137
821.868	19000
822.008	18810
822.149	18673
822.289	18783
822.429	18448
822.569	18525
822.709	18483
822.849	18300
822.99	18270
823.13	18327
823.27	18232
823.41	18190
823.55	18053
823.69	18053
823.83	18178
823.97	18114
824.11	17828
824.25	17855
824.389	17878
824.529	17923
824.669	17863
824.809	17984
824.949	18076
825.089	17927
825.228	17878
825.368	17695
825.508	17638
825.648	17619
825.787	17627
825.927	17714
826.067	17566
826.206	17570
826.346	17707
826.485	17539
826.625	17615
826.765	17707
826.904	17729
827.044	17440
827.183	17349
827.323	17417
827.462	17421
827.601	17410
827.741	17261
827.88	17273
828.02	17200
828.159	17288
828.298	17269
828.437	17345
828.577	17315
828.716	17376
828.855	17292
828.994	17105
829.134	17140
829.273	17105
829.412	17098
829.551	17060
829.69	17155
829.829	17056
829.968	17147
830.107	17147
830.246	17056
830.385	17060
830.524	16949
830.663	17010
830.802	16904
830.941	16725
831.08	16641
831.219	16782
831.357	16702
831.496	16896
831.635	16656
831.774	16694
831.913	16599
832.051	16451
832.19	16519
832.329	16535
832.467	16303
832.606	16337
832.744	16466
832.883	16386
833.022	16459
833.16	16356
833.299	16462
833.437	16363
833.576	16405
833.714	16390
833.852	16493
833.991	16447
834.129	16504
834.267	16485
834.406	16409
834.544	16390
834.682	16455
834.821	16417
834.959	16596
835.097	16306
835.235	16546
835.373	16379
835.511	16451
835.65	16291
835.788	16333
835.926	16272
836.064	16101
836.202	16082
836.34	16375
836.478	16459
836.615	16371
836.753	16421
836.891	16371
837.029	16341
837.167	16394
837.305	16333
837.443	16204
837.58	16196
837.718	16363
837.856	16276
837.993	16215
838.131	16242
838.269	16150
838.406	16188
838.544	16071
838.681	15953
838.819	15953
838.956	15842
839.094	15747
839.231	15880
839.369	15873
839.506	16253
839.643	16010
839.781	15793
839.918	15679
840.055	15857
840.193	15755
840.33	15793
840.467	15797
840.604	15819
840.742	16002
840.879	15587
841.016	15641
841.153	15660
841.29	15869
841.427	15804
841.564	15682
841.701	15857
841.838	15762
841.975	15709
842.112	15671
842.249	15603
842.385	15534
842.522	15739
842.659	15561
842.796	15496
842.933	15576
843.069	15553
843.206	15530
843.343	15690
843.479	15618
843.616	15614
843.752	15306
843.889	15367
844.025	15572
844.162	15317
844.298	15454
844.435	15382
844.571	15302
844.708	15401
844.844	15386
844.98	15500
845.117	15443
845.253	15291
845.389	15203
845.525	15249
845.661	15329
845.798	15165
845.934	15237
846.07	15081
846.206	15176
846.342	15245
846.478	15036
846.614	14971
846.75	14902
846.886	14914
847.022	15028
847.158	14895
847.294	15005
847.429	14914
847.565	14891
847.701	15222
847.837	14765
847.972	14617
848.108	14705
848.244	14838
848.379	14579
848.515	14533
848.65	14530
848.786	14461
848.921	14613
849.057	14537
849.192	14651
849.328	14549
849.463	14560
849.598	14404
849.734	14404
849.869	14465
850.004	14324
850.14	14298
850.275	14377
850.41	14237
850.545	14195
850.68	14237
850.815	14187
850.95	14358
851.085	14412
851.22	14374
851.355	14252
851.49	14244
851.625	14252
851.76	14233
851.895	14123
852.03	14088
852.165	14294
852.299	14286
852.434	14355
852.569	14328
852.703	14320
852.838	14370
852.973	14522
853.107	14499
853.242	14225
853.376	14161
853.511	14065
853.645	14069
853.78	14229
853.914	14248
854.048	14183
854.183	14058
854.317	14142
854.451	14290
854.585	14123
854.72	14065
854.854	14275
854.988	14005
855.122	14164
855.256	14008
855.39	14107
855.524	14172
855.658	14164
855.792	14126
855.926	14244
856.06	14221
856.194	14221
856.327	14218
856.461	14050
856.595	14100
856.729	14107
856.862	14286
856.996	14214
857.13	14225
857.263	14248
857.397	14199
857.53	14119
857.664	14233
857.797	14229
857.931	14332
858.064	14214
858.197	14218
858.331	14149
858.464	14065
858.597	14142
858.731	14123
858.864	14096
858.997	14115
859.13	14096
859.263	14218
859.396	14305
859.529	14275
859.662	14024
859.795	14172
859.928	14153
860.061	14309
860.194	14259
860.327	14214
860.46	14164
860.592	14351
860.725	14256
860.858	14301
860.99	14065
861.123	14046
861.256	14035
861.388	14206
861.521	14906
861.653	14024
861.786	14005
861.918	14081
862.05	14043
862.183	14100
862.315	14168
862.447	14176
862.58	14161
862.712	13925
862.844	13890
862.976	13978
863.108	13936
863.24	14461
863.372	13894
863.504	13845
863.636	13890
863.768	13917
863.9	13947
864.032	13883
864.164	13978
864.296	14126
864.428	14020
864.559	14008
864.691	14081
864.823	13978
864.954	13978
865.086	13955
865.217	13989
865.349	13902
865.48	13890
865.612	13955
865.743	14062
865.875	13974
866.006	13921
866.137	13887
866.269	13978
866.4	13940
866.531	13955
866.662	13871
866.793	13932
866.924	13784
867.055	13818
867.186	13982
867.317	13909
867.448	13830
867.579	13928
867.71	13826
867.841	13860
867.972	13982
868.103	13875
868.233	13928
868.364	13970
868.495	14031
868.625	14164
868.756	14191
868.886	14073
869.017	14077
869.147	14233
869.278	14294
869.408	14183
869.539	14206
869.669	14271
869.799	14176
869.929	14301
870.06	14271
870.19	14530
870.32	14488
870.45	14533
870.58	14530
870.71	14693
870.84	14735
870.97	14522
871.1	14400
871.23	14670
871.36	14765
871.489	14617
871.619	14667
871.749	14693
871.879	14849
872.008	14864
872.138	14712
872.267	14712
872.397	14590
872.526	14667
872.656	14579
872.785	14651
872.915	14743
873.044	14941
873.173	14781
873.303	14914
873.432	14785
873.561	14967
873.69	14788
873.819	14876
873.948	14902
874.077	14834
874.206	14754
874.335	14758
874.464	15036
874.593	15077
874.722	15047
874.851	15207
874.979	15214
875.108	15150
875.237	15116
875.365	15055
875.494	15112
875.623	15157
875.751	15161
875.88	15275
876.008	15306
876.136	15351
876.265	15603
876.393	15667
876.521	15629
876.65	15656
876.778	15519
876.906	15553
877.034	15473
877.162	15641
877.29	15424
877.418	15595
877.546	15557
877.674	15545
877.802	15450
877.93	15526
878.058	15500
878.185	15428
878.313	15690
878.441	15549
878.568	15500
878.696	15549
878.824	15523
878.951	15644
879.079	15739
879.206	15846
879.333	15747
879.461	15648
879.588	15690
879.715	15713
879.842	15953
879.97	15690
880.097	15382
880.224	15321
880.351	15397
880.478	15473
880.605	15386
880.732	15397
880.859	15667
880.986	15481
881.112	15313
881.239	15279
881.366	15199
881.493	15112
881.619	14979
881.746	15112
881.872	15192
881.999	15066
882.125	15039
882.252	15157
882.378	15146
882.505	15146
882.631	15017
882.757	14826
882.883	14906
883.01	14838
883.136	14895
883.262	14765
883.388	14674
883.514	14861
883.64	14960
883.766	14853
883.892	14705
884.018	14689
884.143	14857
884.269	14880
884.395	14606
884.52	14503
884.646	14602
884.772	14590
884.897	14488
885.023	14594
885.148	14697
885.274	14727
885.399	14781
885.524	14651
885.65	14594
885.775	14568
885.9	14621
886.025	14724
886.15	14640
886.275	14552
886.4	14625
886.525	14545
886.65	14541
886.775	14549
886.9	14651
887.025	14746
887.149	14610
887.274	14366
887.399	14351
887.523	14377
887.648	14434
887.773	14286
887.897	14495
888.021	14431
888.146	14450
888.27	14499
888.395	14530
888.519	14366
888.643	14507
888.767	14461
888.891	14423
889.015	14229
889.139	14290
889.263	14275
889.387	14400
889.511	14530
889.635	14396
889.759	14313
889.883	14298
890.006	14305
890.13	14457
890.254	14199
890.377	14202
890.501	14176
890.624	14043
890.748	14164
890.871	14054
890.995	14020
891.118	13917
891.241	13947
891.364	13989
891.488	14081
891.611	13959
891.734	13928
891.857	14050
891.98	14008
892.103	13978
892.226	13997
892.349	13989
892.471	13856
892.594	13856
892.717	13989
892.839	13947
892.962	14008
893.085	14027
893.207	13978
893.33	13925
893.452	13959
893.575	14035
893.697	13982
893.819	14100
893.941	14164
894.064	14153
894.186	13940
894.308	13970
894.43	14138
894.552	14145
894.674	14031
894.796	13928
894.918	14031
895.04	14126
895.161	14134
895.283	14084
895.405	14008
895.526	14096
895.648	14138
895.769	14130
895.891	14092
896.012	14221
896.134	14248
896.255	14210
896.376	14168
896.498	14084
896.619	14206
896.74	14240
896.861	14214
896.982	14541
897.103	14644
897.224	14412
897.345	14370
897.466	14328
897.587	14503
897.708	14648
897.828	14541
897.949	14389
898.07	14298
898.19	14412
898.311	14644
898.431	14476
898.552	14518
898.672	14590
898.792	14644
898.913	14571
899.033	14530
899.153	14423
899.273	14290
899.393	14343
899.513	14404
899.633	14446
899.753	14415
899.873	14389
899.993	14450
900.113	14336
900.232	14457
900.352	14434
900.472	14362
900.591	14199
900.711	14301
900.83	14267
900.95	14355
901.069	14324
901.189	14259
901.308	13978
901.427	13887
901.546	13860
901.665	13917
901.784	13959
901.904	13757
902.023	13685
902.141	13552
902.26	13483
902.379	13544
902.498	13445
902.617	13453
902.735	13487
902.854	13438
902.973	13419
903.091	13236
903.21	13206
903.328	13168
903.446	13209
903.565	13034
903.683	13088
903.801	12958
903.919	13072
904.038	13069
904.156	12890
904.274	13034
904.392	12920
904.51	12840
904.627	12913
904.745	12916
904.863	12932
904.981	12593
905.098	12559
905.216	12589
905.334	12692
905.451	12574
905.569	12536
905.686	12650
905.803	12597
905.921	12384
906.038	12517
906.155	12357
906.272	12323
906.389	12300
906.506	12216
906.623	12129
906.74	12148
906.857	12041
906.974	12133
907.091	12140
907.208	12338
907.324	12213
907.441	12079
907.557	11866
907.674	11942
907.79	11756
907.907	11942
908.023	11935
908.139	11923
908.256	11859
908.372	11832
908.488	11802
908.604	11566
908.72	11551
908.836	11688
908.952	11623
909.068	11649
909.184	11786
909.3	11627
909.415	11688
909.531	11718
909.647	11493
909.762	11379
909.878	11467
909.993	11448
910.108	11444
910.224	11345
910.339	11490
910.454	11254
910.57	11379
910.685	11269
910.8	11459
910.915	11448
911.03	11330
911.145	11140
911.259	11181
911.374	11178
911.489	11052
911.604	11041
911.718	10919
911.833	10911
911.947	10759
912.062	10641
912.176	10911
912.291	10911
912.405	10877
912.519	11113
912.633	11064
912.748	10987
912.862	10980
912.976	10763
913.09	10584
913.204	10679
913.318	10736
913.431	10847
913.545	10835
913.659	10946
913.772	10755
913.886	10740
914	10664
914.113	10763
914.226	10786
914.34	10702
914.453	10538
914.566	10694
914.68	10558
914.793	10603
914.906	10459
915.019	10398
915.132	10356
915.245	10299
915.358	10432
915.47	10417
915.583	10424
915.696	10451
915.809	10519
915.921	10565
916.034	10386
916.146	10379
916.259	10329
916.371	10470
916.483	10462
916.595	10348
916.708	10318
916.82	10363
916.932	10375
917.044	10314
917.156	10261
917.268	10211
917.38	10211
917.491	10280
917.603	10299
917.715	10382
917.826	10333
917.938	10211
918.049	10074
918.161	10295
918.272	10375
918.384	10394
918.495	10329
918.606	10131
918.717	10067
918.828	10181
918.939	10154
919.05	10025
919.161	10131
919.272	9918
919.383	10002
919.494	10109
919.604	10284
919.715	10120
919.826	10063
919.936	10044
920.047	10234
920.157	10204
920.267	10398
920.378	10272
920.488	10147
920.598	10325
920.708	10337
920.818	10352
920.928	10287
921.038	10455
921.148	10474
921.258	10101
921.368	10143
921.477	9953
921.587	9903
921.697	9785
921.806	10097
921.916	9903
922.025	9736
922.134	9698
922.244	9694
922.353	9732
922.462	9538
922.571	9504
922.68	9428
922.789	9431
922.898	9408
923.007	9336
923.116	9477
923.224	9408
923.333	9348
923.442	9332
923.55	9298
923.659	9348
923.767	9336
923.876	9313
923.984	9401
924.092	9180
924.201	9230
924.309	9256
924.417	9253
924.525	9150
924.633	9241
924.741	10112
924.849	9005
924.956	9207
925.064	9077
925.172	8982
925.279	9036
925.387	9055
925.494	9047
925.602	9211
925.709	9093
925.816	8952
925.924	9116
926.031	9150
926.138	9100
926.245	9138
926.352	9028
926.459	9085
926.566	9184
926.673	8986
926.779	8918
926.886	8941
926.993	8845
927.099	8712
927.206	8792
927.312	8743
927.419	8727
927.525	8796
927.631	8804
927.737	8712
927.843	8640
927.95	8473
928.056	8640
928.162	8716
928.267	8693
928.373	9268
928.479	8746
928.585	8564
928.69	8667
928.796	8731
928.901	8533
929.007	8484
929.112	8651
929.218	8537
929.323	8514
929.428	8503
929.533	8610
929.638	8377
929.743	8518
929.848	8545
929.953	8495
930.058	8434
930.163	8320
930.267	8275
930.372	8415
930.477	8301
930.581	8454
930.685	8362
930.79	8138
930.894	8206
930.998	8214
931.103	8362
931.207	7982
931.311	8001
931.415	7906
931.519	7662
931.623	7655
