Data from test_V78500241_3498.txt Node
Date: Fri Mar 25 14:58:04 CST 2022
User: usil
Spectrometer: V785-0024
Trigger mode: 0
Integration Time (sec): 4.000000E-1
Scans to average: 1
Nonlinearity correction enabled: false
Boxcar width: 0
Storing dark spectrum: false
XAxis mode: Wavelengths
Number of Pixels in Spectrum: 1024
>>>>>Begin Spectral Data<<<<<
801.071	21964
801.214	21907
801.356	21568
801.499	21561
801.641	21389
801.783	21306
801.926	21382
802.068	21192
802.211	21157
802.353	21104
802.496	20861
802.638	20830
802.78	20644
802.923	20583
803.065	20583
803.208	20579
803.35	20659
803.492	20785
803.635	20899
803.777	20663
803.919	20686
804.061	20914
804.204	20651
804.346	20541
804.488	20587
804.63	20629
804.773	20522
804.915	20568
805.057	20678
805.199	20427
805.341	20537
805.483	20602
805.626	20522
805.768	20461
805.91	20457
806.052	20682
806.194	20419
806.336	20727
806.478	20583
806.62	20385
806.762	20644
806.904	20743
807.046	20838
807.188	20842
807.33	20902
807.472	20963
807.614	20842
807.756	20663
807.898	20632
808.04	20533
808.182	20632
808.324	20583
808.465	20663
808.607	20830
808.749	20895
808.891	21020
809.033	21032
809.174	20762
809.316	20906
809.458	20815
809.6	20769
809.741	20929
809.883	20967
810.025	21138
810.166	21081
810.308	21062
810.45	21062
810.591	20876
810.733	20735
810.875	20594
811.016	20587
811.158	20594
811.299	20659
811.441	20769
811.582	20705
811.724	20587
811.865	20674
812.007	20575
812.148	20674
812.29	20773
812.431	20800
812.573	20963
812.714	21150
812.855	21108
812.997	21195
813.138	21466
813.279	21287
813.421	21161
813.562	20960
813.703	20861
813.845	20834
813.986	20522
814.127	20237
814.268	20237
814.41	20267
814.551	20161
814.692	20172
814.833	20145
814.974	20134
815.115	20191
815.256	20122
815.397	20046
815.539	20119
815.68	19902
815.821	19959
815.962	19849
816.103	19974
816.244	19632
816.385	19632
816.526	19575
816.666	19438
816.807	19285
816.948	19365
817.089	19510
817.23	19274
817.371	19270
817.512	19278
817.653	19179
817.793	19198
817.934	19312
818.075	19335
818.216	19304
818.356	19354
818.497	19110
818.638	19031
818.778	19065
818.919	18970
819.06	19027
819.2	19266
819.341	19091
819.481	19263
819.622	19403
819.762	19518
819.903	19506
820.043	19369
820.184	19335
820.324	19335
820.465	19388
820.605	19282
820.746	19232
820.886	19213
821.026	19213
821.167	19228
821.307	19263
821.447	19282
821.588	19084
821.728	18928
821.868	18829
822.008	18703
822.149	18654
822.289	18669
822.429	18471
822.569	18361
822.709	18353
822.849	18167
822.99	18213
823.13	18171
823.27	18072
823.41	18049
823.55	17878
823.69	17977
823.83	17999
823.97	17999
824.11	17756
824.25	17840
824.389	17866
824.529	17847
824.669	17794
824.809	17923
824.949	17882
825.089	17885
825.228	17752
825.368	17558
825.508	17524
825.648	17630
825.787	17589
825.927	17592
826.067	17501
826.206	17482
826.346	17634
826.485	17604
826.625	17516
826.765	17668
826.904	17566
827.044	17353
827.183	17330
827.323	17284
827.462	17303
827.601	17292
827.741	17159
827.88	17303
828.02	17045
828.159	17284
828.298	17330
828.437	17360
828.577	17185
828.716	17341
828.855	17258
828.994	17041
829.134	16995
829.273	16995
829.412	16949
829.551	16965
829.69	16976
829.829	17025
829.968	17086
830.107	17010
830.246	16965
830.385	16850
830.524	16976
830.663	16854
830.802	16733
830.941	16679
831.08	16607
831.219	16748
831.357	16717
831.496	16835
831.635	16637
831.774	16512
831.913	16527
832.051	16287
832.19	16394
832.329	16455
832.467	16333
832.606	16238
832.744	16249
832.883	16249
833.022	16287
833.16	16371
833.299	16386
833.437	16382
833.576	16390
833.714	16455
833.852	16451
833.991	16344
834.129	16504
834.267	16489
834.406	16348
834.544	16436
834.682	16512
834.821	16394
834.959	16558
835.097	16409
835.235	16455
835.373	16504
835.511	16398
835.65	16295
835.788	16303
835.926	16162
836.064	16086
836.202	16192
836.34	16276
836.478	16318
836.615	16352
836.753	16348
836.891	16371
837.029	16295
837.167	16344
837.305	16207
837.443	16181
837.58	16173
837.718	16295
837.856	16257
837.993	16226
838.131	16253
838.269	16032
838.406	16116
838.544	16097
838.681	15823
838.819	15827
838.956	15717
839.094	15724
839.231	15838
839.369	15975
839.506	16082
839.643	15972
839.781	15713
839.918	15732
840.055	15690
840.193	15717
840.33	15591
840.467	15686
840.604	15785
840.742	15975
840.879	15580
841.016	15622
841.153	15652
841.29	15835
841.427	15793
841.564	15759
841.701	15686
841.838	15739
841.975	15526
842.112	15591
842.249	15519
842.385	15523
842.522	15682
842.659	15492
842.796	15625
842.933	15576
843.069	15488
843.206	15447
843.343	15610
843.479	15447
843.616	15557
843.752	15351
843.889	15283
844.025	15450
844.162	15245
844.298	15393
844.435	15287
844.571	15222
844.708	15405
844.844	15428
844.98	15454
845.117	15420
845.253	15344
845.389	15146
845.525	15081
845.661	15108
845.798	15005
845.934	15237
846.07	15180
846.206	15108
846.342	15272
846.478	15119
846.614	14952
846.75	14811
846.886	14861
847.022	14990
847.158	14918
847.294	14960
847.429	14914
847.565	14804
847.701	15074
847.837	14659
847.972	14682
848.108	14716
848.244	14731
848.379	14465
848.515	14461
848.65	14492
848.786	14571
848.921	14575
849.057	14602
849.192	14571
849.328	14415
849.463	14473
849.598	14438
849.734	14370
849.869	14355
850.004	14229
850.14	14191
850.275	14237
850.41	14134
850.545	14240
850.68	14282
850.815	14286
850.95	14294
851.085	14495
851.22	14336
851.355	14263
851.49	14271
851.625	14164
851.76	14183
851.895	14138
852.03	14172
852.165	14142
852.299	14282
852.434	14370
852.569	14233
852.703	14248
852.838	14278
852.973	14377
853.107	14423
853.242	14206
853.376	14138
853.511	14050
853.645	14043
853.78	14214
853.914	14195
854.048	14157
854.183	14062
854.317	14164
854.451	14248
854.585	14145
854.72	14035
854.854	14206
854.988	14096
855.122	14168
855.256	13921
855.39	14084
855.524	14180
855.658	14183
855.792	14164
855.926	14157
856.06	14263
856.194	14267
856.327	14054
856.461	14130
856.595	14020
856.729	14096
856.862	14229
856.996	14126
857.13	14180
857.263	14282
857.397	14347
857.53	14069
857.664	14149
857.797	14180
857.931	14142
858.064	14161
858.197	14256
858.331	14157
858.464	14103
858.597	13982
858.731	14103
858.864	14119
858.997	14153
859.13	14229
859.263	14157
859.396	14218
859.529	14107
859.662	14100
859.795	14103
859.928	14126
860.061	14225
860.194	14339
860.327	14096
860.46	14115
860.592	14202
860.725	14199
860.858	14229
860.99	14233
861.123	14012
861.256	14126
861.388	14088
861.521	14834
861.653	14012
861.786	13993
861.918	14024
862.05	14054
862.183	14043
862.315	14012
862.447	14126
862.58	14058
862.712	13906
862.844	13898
862.976	14046
863.108	13940
863.24	14351
863.372	13795
863.504	13909
863.636	13970
863.768	14016
863.9	13837
864.032	13784
864.164	13928
864.296	13959
864.428	14016
864.559	14062
864.691	14035
864.823	13974
864.954	13902
865.086	13959
865.217	13887
865.349	13742
865.48	13883
865.612	13856
865.743	14046
865.875	13921
866.006	13932
866.137	13902
866.269	13883
866.4	13868
866.531	13807
866.662	13818
866.793	13898
866.924	13913
867.055	13963
867.186	13875
867.317	13784
867.448	13811
867.579	13845
867.71	13788
867.841	13742
867.972	13860
868.103	13871
868.233	13807
868.364	13974
868.495	13925
868.625	14111
868.756	14107
868.886	14062
869.017	14039
869.147	14221
869.278	14305
869.408	14100
869.539	14119
869.669	14180
869.799	14187
869.929	14320
870.06	14221
870.19	14400
870.32	14480
870.45	14526
870.58	14579
870.71	14579
870.84	14724
870.97	14564
871.1	14507
871.23	14735
871.36	14804
871.489	14686
871.619	14693
871.749	14716
871.879	14705
872.008	14811
872.138	14807
872.267	14796
872.397	14617
872.526	14587
872.656	14613
872.785	14636
872.915	14864
873.044	14750
873.173	14777
873.303	14815
873.432	14845
873.561	14929
873.69	14739
873.819	14689
873.948	14925
874.077	14826
874.206	14758
874.335	14792
874.464	14918
874.593	15070
874.722	15077
874.851	15184
874.979	15032
875.108	15184
875.237	15039
875.365	14960
875.494	15154
875.623	15241
875.751	15066
875.88	15032
876.008	15245
876.136	15386
876.265	15580
876.393	15652
876.521	15663
876.65	15614
876.778	15743
876.906	15557
877.034	15466
877.162	15462
877.29	15538
877.418	15526
877.546	15564
877.674	15530
877.802	15466
877.93	15443
878.058	15500
878.185	15500
878.313	15443
878.441	15606
878.568	15408
878.696	15469
878.824	15500
878.951	15622
879.079	15648
879.206	15873
879.333	15728
879.461	15542
879.588	15644
879.715	15713
879.842	15842
879.97	15675
880.097	15412
880.224	15374
880.351	15485
880.478	15408
880.605	15348
880.732	15245
880.859	15625
880.986	15351
881.112	15447
881.239	15252
881.366	15214
881.493	15074
881.619	15058
881.746	15116
881.872	15085
881.999	14990
882.125	15066
882.252	15085
882.378	15157
882.505	15222
882.631	15074
882.757	14861
882.883	14857
883.01	14929
883.136	14804
883.262	14758
883.388	14781
883.514	14933
883.64	14906
883.766	14834
883.892	14648
884.018	14648
884.143	14864
884.269	14910
884.395	14636
884.52	14484
884.646	14526
884.772	14492
884.897	14434
885.023	14594
885.148	14648
885.274	14693
885.399	14701
885.524	14568
885.65	14674
885.775	14678
885.9	14427
886.025	14727
886.15	14598
886.275	14537
886.4	14465
886.525	14568
886.65	14507
886.775	14533
886.9	14590
887.025	14777
887.149	14568
887.274	14431
887.399	14294
887.523	14389
887.648	14374
887.773	14362
887.897	14514
888.021	14454
888.146	14393
888.27	14499
888.395	14518
888.519	14476
888.643	14484
888.767	14476
888.891	14252
889.015	14195
889.139	14339
889.263	14240
889.387	14320
889.511	14454
889.635	14381
889.759	14286
889.883	14351
890.006	14282
890.13	14446
890.254	14172
890.377	14176
890.501	14130
890.624	13944
890.748	14195
890.871	14024
890.995	14035
891.118	13879
891.241	13963
891.364	13997
891.488	14088
891.611	14020
891.734	13906
891.857	14043
891.98	14062
892.103	14062
892.226	13993
892.349	13947
892.471	13830
892.594	13989
892.717	13849
892.839	13959
892.962	13970
893.085	13989
893.207	14043
893.33	13856
893.452	13898
893.575	14039
893.697	13993
893.819	14100
893.941	14164
894.064	14107
894.186	13856
894.308	13875
894.43	14039
894.552	14225
894.674	14111
894.796	13989
894.918	14016
895.04	13997
895.161	14157
895.283	14138
895.405	14008
895.526	14111
895.648	14054
895.769	14187
895.891	14107
896.012	14172
896.134	14088
896.255	14092
896.376	14164
896.498	14100
896.619	14256
896.74	14202
896.861	14233
896.982	14560
897.103	14632
897.224	14511
897.345	14415
897.466	14267
897.587	14355
897.708	14545
897.828	14522
897.949	14404
898.07	14362
898.19	14419
898.311	14499
898.431	14362
898.552	14560
898.672	14571
898.792	14594
898.913	14602
899.033	14415
899.153	14362
899.273	14355
899.393	14301
899.513	14263
899.633	14339
899.753	14499
899.873	14377
899.993	14377
900.113	14355
900.232	14442
900.352	14313
900.472	14294
900.591	14134
900.711	14210
900.83	14088
900.95	14294
901.069	14244
901.189	14130
901.308	13860
901.427	13890
901.546	13887
901.665	13913
901.784	13902
901.904	13860
902.023	13704
902.141	13472
902.26	13476
902.379	13624
902.498	13480
902.617	13369
902.735	13438
902.854	13426
902.973	13327
903.091	13259
903.21	13278
903.328	13190
903.446	13110
903.565	13069
903.683	13145
903.801	12935
903.919	12996
904.038	12981
904.156	12814
904.274	12829
904.392	12814
904.51	12867
904.627	12741
904.745	12905
904.863	12928
904.981	12768
905.098	12513
905.216	12608
905.334	12604
905.451	12555
905.569	12627
905.686	12547
905.803	12601
905.921	12357
906.038	12483
906.155	12285
906.272	12308
906.389	12350
906.506	12178
906.623	12106
906.74	12201
906.857	12079
906.974	12041
907.091	12228
907.208	12228
907.324	12197
907.441	12045
907.557	11813
907.674	11901
907.79	11893
907.907	11866
908.023	11870
908.139	11889
908.256	11863
908.372	11813
908.488	11783
908.604	11703
908.72	11619
908.836	11668
908.952	11646
909.068	11718
909.184	11691
909.3	11657
909.415	11733
909.531	11596
909.647	11520
909.762	11395
909.878	11353
909.993	11471
910.108	11474
910.224	11379
910.339	11334
910.454	11280
910.57	11269
910.685	11223
910.8	11570
910.915	11402
911.03	11220
911.145	11109
911.259	11178
911.374	11136
911.489	11052
911.604	11006
911.718	10869
911.833	10938
911.947	10801
912.062	10793
912.176	10873
912.291	10904
912.405	10881
912.519	11117
912.633	10984
912.748	11067
912.862	10801
912.976	10740
913.09	10634
913.204	10714
913.318	10736
913.431	10892
913.545	10881
913.659	10828
913.772	10809
913.886	10691
914	10592
914.113	10740
914.226	10805
914.34	10729
914.453	10630
914.566	10660
914.68	10569
914.793	10546
914.906	10451
915.019	10322
915.132	10337
915.245	10356
915.358	10348
915.47	10333
915.583	10386
915.696	10478
915.809	10538
915.921	10527
916.034	10360
916.146	10360
916.259	10413
916.371	10428
916.483	10390
916.595	10341
916.708	10333
916.82	10306
916.932	10322
917.044	10337
917.156	10295
917.268	10242
917.38	10223
917.491	10143
917.603	10227
917.715	10246
917.826	10375
917.938	10204
918.049	10093
918.161	10265
918.272	10409
918.384	10348
918.495	10249
918.606	10147
918.717	10044
918.828	10147
918.939	10063
919.05	10090
919.161	10128
919.272	9827
919.383	9960
919.494	10196
919.604	10398
919.715	10135
919.826	10067
919.936	10101
920.047	10169
920.157	10090
920.267	10303
920.378	10105
920.488	10185
920.598	10363
920.708	10466
920.818	10341
920.928	10341
921.038	10413
921.148	10478
921.258	10200
921.368	10059
921.477	10021
921.587	9956
921.697	9892
921.806	9975
921.916	9911
922.025	9755
922.134	9682
922.244	9648
922.353	9705
922.462	9542
922.571	9526
922.68	9401
922.789	9359
922.898	9355
923.007	9313
923.116	9397
923.224	9378
923.333	9424
923.442	9306
923.55	9340
923.659	9253
923.767	9344
923.876	9264
923.984	9332
924.092	9127
924.201	9291
924.309	9237
924.417	9222
924.525	9211
924.633	9222
924.741	9918
924.849	9093
924.956	9192
925.064	9074
925.172	9001
925.279	9009
925.387	9131
925.494	9108
925.602	9192
925.709	9089
925.816	8998
925.924	9093
926.031	9085
926.138	9047
926.245	9093
926.352	8979
926.459	9055
926.566	9203
926.673	9074
926.779	8979
926.886	8842
926.993	8766
927.099	8750
927.206	8735
927.312	8705
927.419	8811
927.525	8712
927.631	8800
927.737	8735
927.843	8651
927.95	8537
928.056	8651
928.162	8686
928.267	8724
928.373	9287
928.479	8754
928.585	8583
928.69	8594
928.796	8659
928.901	8549
929.007	8442
929.112	8560
929.218	8594
929.323	8488
929.428	8431
929.533	8594
929.638	8412
929.743	8442
929.848	8511
929.953	8522
930.058	8412
930.163	8183
930.267	8256
930.372	8393
930.477	8164
930.581	8473
930.685	8370
930.79	8233
930.894	8244
930.998	8164
931.103	8351
931.207	7978
931.311	7974
931.415	7841
931.519	7677
931.623	7731
