Data from test_V78500241_2643.txt Node
Date: Fri Mar 25 14:52:07 CST 2022
User: usil
Spectrometer: V785-0024
Trigger mode: 0
Integration Time (sec): 4.000000E-1
Scans to average: 1
Nonlinearity correction enabled: false
Boxcar width: 0
Storing dark spectrum: false
XAxis mode: Wavelengths
Number of Pixels in Spectrum: 1024
>>>>>Begin Spectral Data<<<<<
801.071	22017
801.214	21892
801.356	21698
801.499	21538
801.641	21458
801.783	21344
801.926	21443
802.068	21298
802.211	21264
802.353	21081
802.496	21001
802.638	20811
802.78	20788
802.923	20667
803.065	20682
803.208	20579
803.35	20788
803.492	20811
803.635	20876
803.777	20712
803.919	20777
804.061	21005
804.204	20826
804.346	20613
804.488	20518
804.63	20705
804.773	20571
804.915	20621
805.057	20693
805.199	20613
805.341	20609
805.483	20739
805.626	20708
805.768	20530
805.91	20655
806.052	20849
806.194	20461
806.336	20773
806.478	20564
806.62	20427
806.762	20590
806.904	20754
807.046	20921
807.188	20929
807.33	20986
807.472	21024
807.614	20925
807.756	20765
807.898	20724
808.04	20720
808.182	20693
808.324	20712
808.465	20697
808.607	20937
808.749	20990
808.891	21085
809.033	21127
809.174	20921
809.316	20891
809.458	20933
809.6	20880
809.741	21096
809.883	20994
810.025	21119
810.166	21043
810.308	21157
810.45	21039
810.591	20986
810.733	20925
810.875	20826
811.016	20579
811.158	20632
811.299	20743
811.441	20929
811.582	20872
811.724	20758
811.865	20693
812.007	20655
812.148	20705
812.29	20853
812.431	20857
812.573	21043
812.714	21184
812.855	21370
812.997	21408
813.138	21393
813.279	21230
813.421	21184
813.562	21135
813.703	20902
813.845	20826
813.986	20659
814.127	20419
814.268	20446
814.41	20457
814.551	20183
814.692	20275
814.833	20244
814.974	20244
815.115	20252
815.256	20221
815.397	20103
815.539	20153
815.68	20119
815.821	20027
815.962	20043
816.103	19898
816.244	19860
816.385	19788
816.526	19746
816.666	19594
816.807	19392
816.948	19525
817.089	19578
817.23	19582
817.371	19392
817.512	19407
817.653	19426
817.793	19396
817.934	19358
818.075	19369
818.216	19293
818.356	19365
818.497	19126
818.638	18996
818.778	19088
818.919	19221
819.06	19278
819.2	19225
819.341	19137
819.481	19278
819.622	19445
819.762	19525
819.903	19472
820.043	19426
820.184	19377
820.324	19293
820.465	19400
820.605	19331
820.746	19396
820.886	19327
821.026	19384
821.167	19426
821.307	19430
821.447	19335
821.588	19221
821.728	19110
821.868	18985
822.008	18738
822.149	18795
822.289	18806
822.429	18422
822.569	18429
822.709	18395
822.849	18422
822.99	18346
823.13	18391
823.27	18197
823.41	18117
823.55	18045
823.69	18117
823.83	18152
823.97	18068
824.11	17908
824.25	17901
824.389	17786
824.529	18011
824.669	17832
824.809	17893
824.949	17897
825.089	17965
825.228	17893
825.368	17687
825.508	17718
825.648	17722
825.787	17771
825.927	17687
826.067	17657
826.206	17611
826.346	17646
826.485	17623
826.625	17528
826.765	17786
826.904	17790
827.044	17398
827.183	17353
827.323	17318
827.462	17505
827.601	17315
827.741	17334
827.88	17372
828.02	17216
828.159	17330
828.298	17387
828.437	17315
828.577	17406
828.716	17516
828.855	17368
828.994	17121
829.134	17170
829.273	17060
829.412	17067
829.551	16991
829.69	17083
829.829	17109
829.968	17193
830.107	17132
830.246	17132
830.385	17041
830.524	17003
830.663	16942
830.802	16858
830.941	16767
831.08	16721
831.219	16679
831.357	16740
831.496	16965
831.635	16653
831.774	16702
831.913	16558
832.051	16554
832.19	16527
832.329	16516
832.467	16504
832.606	16398
832.744	16344
832.883	16386
833.022	16432
833.16	16440
833.299	16455
833.437	16481
833.576	16478
833.714	16500
833.852	16512
833.991	16519
834.129	16561
834.267	16550
834.406	16531
834.544	16512
834.682	16546
834.821	16394
834.959	16649
835.097	16558
835.235	16599
835.373	16478
835.511	16641
835.65	16306
835.788	16379
835.926	16318
836.064	16272
836.202	16215
836.34	16375
836.478	16489
836.615	16352
836.753	16436
836.891	16459
837.029	16428
837.167	16367
837.305	16352
837.443	16367
837.58	16284
837.718	16303
837.856	16261
837.993	16219
838.131	16337
838.269	16192
838.406	16226
838.544	16093
838.681	16032
838.819	15911
838.956	15884
839.094	15903
839.231	15785
839.369	15949
839.506	16265
839.643	16120
839.781	15865
839.918	15789
840.055	15808
840.193	15774
840.33	15766
840.467	15899
840.604	15895
840.742	16105
840.879	15713
841.016	15739
841.153	15736
841.29	15911
841.427	15865
841.564	15732
841.701	15838
841.838	15812
841.975	15766
842.112	15739
842.249	15675
842.385	15686
842.522	15736
842.659	15629
842.796	15591
842.933	15606
843.069	15595
843.206	15576
843.343	15751
843.479	15713
843.616	15606
843.752	15504
843.889	15454
844.025	15526
844.162	15389
844.298	15511
844.435	15329
844.571	15294
844.708	15526
844.844	15618
844.98	15568
845.117	15481
845.253	15332
845.389	15237
845.525	15435
845.661	15321
845.798	15173
845.934	15249
846.07	15207
846.206	15279
846.342	15302
846.478	15157
846.614	15112
846.75	14853
846.886	14937
847.022	15005
847.158	14986
847.294	14994
847.429	14998
847.565	15024
847.701	15222
847.837	14705
847.972	14655
848.108	14842
848.244	14769
848.379	14636
848.515	14465
848.65	14613
848.786	14617
848.921	14552
849.057	14686
849.192	14731
849.328	14621
849.463	14651
849.598	14552
849.734	14469
849.869	14469
850.004	14332
850.14	14370
850.275	14358
850.41	14298
850.545	14298
850.68	14313
850.815	14393
850.95	14305
851.085	14564
851.22	14473
851.355	14343
851.49	14278
851.625	14275
851.76	14214
851.895	14282
852.03	14267
852.165	14362
852.299	14408
852.434	14404
852.569	14221
852.703	14294
852.838	14381
852.973	14473
853.107	14526
853.242	14412
853.376	14195
853.511	14149
853.645	14065
853.78	14366
853.914	14252
854.048	14195
854.183	14172
854.317	14221
854.451	14336
854.585	14214
854.72	14142
854.854	14313
854.988	14199
855.122	14149
855.256	14050
855.39	14187
855.524	14309
855.658	14301
855.792	14221
855.926	14305
856.06	14351
856.194	14305
856.327	14168
856.461	14161
856.595	14172
856.729	14221
856.862	14298
856.996	14221
857.13	14172
857.263	14328
857.397	14374
857.53	14191
857.664	14309
857.797	14393
857.931	14336
858.064	14412
858.197	14313
858.331	14259
858.464	14077
858.597	14191
858.731	14164
858.864	14180
858.997	14229
859.13	14172
859.263	14176
859.396	14313
859.529	14252
859.662	14199
859.795	14218
859.928	14275
860.061	14393
860.194	14343
860.327	14298
860.46	14202
860.592	14305
860.725	14301
860.858	14347
860.99	14176
861.123	14149
861.256	14168
861.388	14225
861.521	14765
861.653	14107
861.786	14081
861.918	14054
862.05	14149
862.183	14214
862.315	14138
862.447	14187
862.58	14176
862.712	14027
862.844	13967
862.976	14187
863.108	14062
863.24	14370
863.372	14008
863.504	13955
863.636	13898
863.768	14096
863.9	13989
864.032	13913
864.164	13978
864.296	14073
864.428	14123
864.559	14149
864.691	14183
864.823	14016
864.954	14027
865.086	14024
865.217	13986
865.349	13925
865.48	13963
865.612	14043
865.743	14111
865.875	13982
866.006	13955
866.137	13989
866.269	14043
866.4	13936
866.531	13947
866.662	13890
866.793	13887
866.924	13928
867.055	14043
867.186	14005
867.317	13860
867.448	13928
867.579	13887
867.71	13883
867.841	13909
867.972	14043
868.103	13993
868.233	14005
868.364	14008
868.495	14069
868.625	14225
868.756	14263
868.886	14115
869.017	14256
869.147	14370
869.278	14336
869.408	14324
869.539	14157
869.669	14332
869.799	14267
869.929	14313
870.06	14385
870.19	14514
870.32	14530
870.45	14629
870.58	14644
870.71	14758
870.84	14781
870.97	14651
871.1	14674
871.23	14788
871.36	14796
871.489	14705
871.619	14815
871.749	14788
871.879	14971
872.008	14941
872.138	14796
872.267	14819
872.397	14705
872.526	14568
872.656	14617
872.785	14762
872.915	14849
873.044	14967
873.173	14925
873.303	14948
873.432	14883
873.561	14887
873.69	14902
873.819	14883
873.948	15077
874.077	14937
874.206	14781
874.335	14910
874.464	15077
874.593	15195
874.722	15108
874.851	15192
874.979	15264
875.108	15211
875.237	15138
875.365	15161
875.494	15180
875.623	15218
875.751	15146
875.88	15173
876.008	15359
876.136	15401
876.265	15701
876.393	15823
876.521	15732
876.65	15694
876.778	15549
876.906	15644
877.034	15599
877.162	15576
877.29	15671
877.418	15656
877.546	15610
877.674	15614
877.802	15606
877.93	15606
878.058	15618
878.185	15542
878.313	15553
878.441	15629
878.568	15485
878.696	15618
878.824	15618
878.951	15652
879.079	15797
879.206	15926
879.333	15682
879.461	15698
879.588	15770
879.715	15823
879.842	15854
879.97	15736
880.097	15439
880.224	15500
880.351	15496
880.478	15526
880.605	15393
880.732	15424
880.859	15724
880.986	15435
881.112	15485
881.239	15329
881.366	15176
881.493	15207
881.619	15192
881.746	15116
881.872	15161
881.999	15039
882.125	15047
882.252	15085
882.378	15028
882.505	15275
882.631	15108
882.757	14899
882.883	15138
883.01	14933
883.136	14819
883.262	14823
883.388	14815
883.514	14902
883.64	14948
883.766	14880
883.892	14807
884.018	14731
884.143	14804
884.269	15051
884.395	14735
884.52	14708
884.646	14651
884.772	14568
884.897	14602
885.023	14655
885.148	14712
885.274	14838
885.399	14769
885.524	14678
885.65	14697
885.775	14678
885.9	14686
886.025	14754
886.15	14682
886.275	14533
886.4	14537
886.525	14514
886.65	14587
886.775	14545
886.9	14796
887.025	14902
887.149	14644
887.274	14617
887.399	14415
887.523	14393
887.648	14336
887.773	14431
887.897	14556
888.021	14602
888.146	14457
888.27	14610
888.395	14655
888.519	14549
888.643	14655
888.767	14579
888.891	14423
889.015	14305
889.139	14400
889.263	14214
889.387	14545
889.511	14587
889.635	14484
889.759	14442
889.883	14362
890.006	14400
890.13	14488
890.254	14244
890.377	14332
890.501	14107
890.624	14138
890.748	14275
890.871	14115
890.995	14016
891.118	13944
891.241	14126
891.364	13989
891.488	14100
891.611	13993
891.734	14081
891.857	14111
891.98	14115
892.103	14145
892.226	14096
892.349	14008
892.471	13955
892.594	14069
892.717	14092
892.839	13936
892.962	14054
893.085	14130
893.207	13921
893.33	13830
893.452	14046
893.575	14119
893.697	14107
893.819	14123
893.941	14278
894.064	14248
894.186	14100
894.308	13951
894.43	14221
894.552	14233
894.674	14278
894.796	14035
894.918	14103
895.04	14130
895.161	14225
895.283	14130
895.405	14100
895.526	14202
895.648	14309
895.769	14183
895.891	14237
896.012	14202
896.134	14252
896.255	14202
896.376	14290
896.498	14305
896.619	14275
896.74	14286
896.861	14294
896.982	14549
897.103	14686
897.224	14571
897.345	14438
897.466	14499
897.587	14530
897.708	14606
897.828	14476
897.949	14446
898.07	14320
898.19	14457
898.311	14670
898.431	14389
898.552	14541
898.672	14602
898.792	14629
898.913	14590
899.033	14560
899.153	14438
899.273	14286
899.393	14336
899.513	14457
899.633	14507
899.753	14374
899.873	14343
899.993	14461
900.113	14469
900.232	14438
900.352	14370
900.472	14259
900.591	14286
900.711	14286
900.83	14237
900.95	14366
901.069	14355
901.189	14164
901.308	14043
901.427	13909
901.546	13944
901.665	13959
901.784	14046
901.904	13807
902.023	13803
902.141	13537
902.26	13491
902.379	13529
902.498	13578
902.617	13464
902.735	13559
902.854	13540
902.973	13480
903.091	13213
903.21	13209
903.328	13324
903.446	13247
903.565	13095
903.683	13194
903.801	13012
903.919	13084
904.038	13057
904.156	12894
904.274	13027
904.392	12935
904.51	12901
904.627	12897
904.745	12981
904.863	13012
904.981	12772
905.098	12646
905.216	12650
905.334	12669
905.451	12673
905.569	12677
905.686	12608
905.803	12570
905.921	12429
906.038	12441
906.155	12483
906.272	12277
906.389	12270
906.506	12186
906.623	12129
906.74	12205
906.857	12117
906.974	12098
907.091	12194
907.208	12311
907.324	12235
907.441	12171
907.557	12045
907.674	11912
907.79	11870
907.907	11870
908.023	12022
908.139	11912
908.256	11992
908.372	11828
908.488	11828
908.604	11786
908.72	11771
908.836	11741
908.952	11684
909.068	11691
909.184	11786
909.3	11684
909.415	11726
909.531	11649
909.647	11497
909.762	11448
909.878	11478
909.993	11512
910.108	11463
910.224	11493
910.339	11471
910.454	11387
910.57	11402
910.685	11181
910.8	11619
910.915	11509
911.03	11303
911.145	11189
911.259	11277
911.374	11159
911.489	11151
911.604	11045
911.718	10938
911.833	10972
911.947	10809
912.062	10824
912.176	10793
912.291	10991
912.405	11006
912.519	11159
912.633	11128
912.748	11006
912.862	10984
912.976	10805
913.09	10729
913.204	10782
913.318	10828
913.431	10923
913.545	10782
913.659	10991
913.772	10869
913.886	10691
914	10698
914.113	10809
914.226	10915
914.34	10797
914.453	10694
914.566	10771
914.68	10668
914.793	10691
914.906	10455
915.019	10413
915.132	10402
915.245	10405
915.358	10462
915.47	10489
915.583	10523
915.696	10569
915.809	10592
915.921	10656
916.034	10447
916.146	10386
916.259	10344
916.371	10493
916.483	10500
916.595	10459
916.708	10348
916.82	10367
916.932	10428
917.044	10329
917.156	10303
917.268	10299
917.38	10314
917.491	10227
917.603	10249
917.715	10306
917.826	10424
917.938	10268
918.049	10169
918.161	10295
918.272	10447
918.384	10424
918.495	10424
918.606	10223
918.717	10147
918.828	10219
918.939	10185
919.05	10131
919.161	10204
919.272	9964
919.383	10048
919.494	10207
919.604	10390
919.715	10204
919.826	10101
919.936	10143
920.047	10314
920.157	10219
920.267	10390
920.378	10173
920.488	10196
920.598	10344
920.708	10588
920.818	10382
920.928	10348
921.038	10584
921.148	10592
921.258	10227
921.368	10135
921.477	10055
921.587	10063
921.697	9884
921.806	10017
921.916	9956
922.025	9831
922.134	9778
922.244	9701
922.353	9766
922.462	9625
922.571	9580
922.68	9492
922.789	9428
922.898	9431
923.007	9351
923.116	9382
923.224	9473
923.333	9382
923.442	9321
923.55	9325
923.659	9405
923.767	9424
923.876	9313
923.984	9393
924.092	9260
924.201	9294
924.309	9230
924.417	9332
924.525	9249
924.633	9214
924.741	10006
924.849	9032
924.956	9256
925.064	9112
925.172	9047
925.279	9017
925.387	9070
925.494	9104
925.602	9317
925.709	9180
925.816	8994
925.924	9119
926.031	9192
926.138	9138
926.245	9161
926.352	9039
926.459	9169
926.566	9233
926.673	9020
926.779	8918
926.886	9020
926.993	8804
927.099	8845
927.206	8826
927.312	8766
927.419	8857
927.525	8834
927.631	8864
927.737	8762
927.843	8716
927.95	8560
928.056	8750
928.162	8689
928.267	8758
928.373	9344
928.479	8815
928.585	8552
928.69	8697
928.796	8720
928.901	8629
929.007	8537
929.112	8598
929.218	8587
929.323	8571
929.428	8526
929.533	8701
929.638	8434
929.743	8499
929.848	8530
929.953	8511
930.058	8396
930.163	8309
930.267	8267
930.372	8415
930.477	8221
930.581	8522
930.685	8415
930.79	8256
930.894	8279
930.998	8164
931.103	8343
931.207	8081
931.311	8024
931.415	7932
931.519	7757
931.623	7765
