Data from test_V78500241_1708.txt Node
Date: Fri Mar 25 14:45:36 CST 2022
User: usil
Spectrometer: V785-0024
Trigger mode: 0
Integration Time (sec): 4.000000E-1
Scans to average: 1
Nonlinearity correction enabled: false
Boxcar width: 0
Storing dark spectrum: false
XAxis mode: Wavelengths
Number of Pixels in Spectrum: 1024
>>>>>Begin Spectral Data<<<<<
801.071	22421
801.214	22181
801.356	21911
801.499	21800
801.641	21606
801.783	21515
801.926	21523
802.068	21466
802.211	21481
802.353	21367
802.496	21211
802.638	21237
802.78	21135
802.923	20990
803.065	20971
803.208	20944
803.35	20960
803.492	20975
803.635	21074
803.777	20899
803.919	21081
804.061	21325
804.204	21066
804.346	20842
804.488	20807
804.63	20849
804.773	20845
804.915	20899
805.057	21036
805.199	20891
805.341	21017
805.483	21009
805.626	20891
805.768	20910
805.91	20883
806.052	21001
806.194	20845
806.336	21089
806.478	20773
806.62	20914
806.762	20819
806.904	21100
807.046	21291
807.188	21279
807.33	21146
807.472	21275
807.614	21146
807.756	21180
807.898	21024
808.04	20994
808.182	21062
808.324	21066
808.465	21047
808.607	21237
808.749	21329
808.891	21351
809.033	21473
809.174	21519
809.316	21378
809.458	21393
809.6	21256
809.741	21355
809.883	21367
810.025	21458
810.166	21431
810.308	21553
810.45	21294
810.591	21230
810.733	21135
810.875	21020
811.016	20963
811.158	20921
811.299	21096
811.441	21249
811.582	21169
811.724	20998
811.865	20895
812.007	21070
812.148	20982
812.29	21085
812.431	21275
812.573	21435
812.714	21466
812.855	21511
812.997	21564
813.138	21762
813.279	21629
813.421	21572
813.562	21500
813.703	21218
813.845	21218
813.986	20910
814.127	20785
814.268	20545
814.41	20571
814.551	20640
814.692	20571
814.833	20457
814.974	20533
815.115	20590
815.256	20526
815.397	20552
815.539	20465
815.68	20362
815.821	20248
815.962	20507
816.103	20358
816.244	20149
816.385	20031
816.526	19940
816.666	19898
816.807	19769
816.948	19830
817.089	19811
817.23	19830
817.371	19700
817.512	19776
817.653	19826
817.793	19738
817.934	19769
818.075	19845
818.216	19803
818.356	19738
818.497	19521
818.638	19350
818.778	19362
818.919	19400
819.06	19434
819.2	19476
819.341	19609
819.481	19468
819.622	19791
819.762	19871
819.903	19898
820.043	19902
820.184	19757
820.324	19674
820.465	19715
820.605	19769
820.746	19689
820.886	19525
821.026	19719
821.167	19632
821.307	19719
821.447	19712
821.588	19460
821.728	19377
821.868	19255
822.008	19069
822.149	19160
822.289	19122
822.429	18825
822.569	18901
822.709	18905
822.849	18631
822.99	18627
823.13	18547
823.27	18528
823.41	18399
823.55	18304
823.69	18429
823.83	18418
823.97	18289
824.11	18304
824.25	18091
824.389	18159
824.529	18174
824.669	18178
824.809	18319
824.949	18182
825.089	18308
825.228	18171
825.368	18079
825.508	18060
825.648	18026
825.787	18079
825.927	18083
826.067	17840
826.206	18003
826.346	17874
826.485	17942
826.625	17961
826.765	18129
826.904	17923
827.044	17687
827.183	17703
827.323	17562
827.462	17661
827.601	17638
827.741	17600
827.88	17764
828.02	17551
828.159	17623
828.298	17634
828.437	17729
828.577	17638
828.716	17699
828.855	17600
828.994	17467
829.134	17410
829.273	17398
829.412	17356
829.551	17292
829.69	17467
829.829	17425
829.968	17402
830.107	17414
830.246	17353
830.385	17353
830.524	17376
830.663	17189
830.802	17170
830.941	16957
831.08	16999
831.219	17121
831.357	17045
831.496	17254
831.635	17014
831.774	16995
831.913	16858
832.051	16809
832.19	16835
832.329	16984
832.467	16694
832.606	16615
832.744	16740
832.883	16668
833.022	16672
833.16	16691
833.299	16774
833.437	16752
833.576	16801
833.714	16694
833.852	16771
833.991	16790
834.129	16900
834.267	16812
834.406	16759
834.544	16672
834.682	16782
834.821	16736
834.959	16919
835.097	16660
835.235	16809
835.373	16725
835.511	16759
835.65	16622
835.788	16660
835.926	16485
836.064	16421
836.202	16470
836.34	16698
836.478	16721
836.615	16702
836.753	16641
836.891	16812
837.029	16748
837.167	16603
837.305	16558
837.443	16588
837.58	16398
837.718	16649
837.856	16474
837.993	16455
838.131	16603
838.269	16367
838.406	16379
838.544	16348
838.681	16219
838.819	16219
838.956	16067
839.094	16044
839.231	16048
839.369	16188
839.506	16577
839.643	16284
839.781	16086
839.918	16051
840.055	16048
840.193	16086
840.33	15960
840.467	16131
840.604	16086
840.742	16322
840.879	15941
841.016	15926
841.153	16048
841.29	16112
841.427	16040
841.564	16097
841.701	16116
841.838	16021
841.975	15991
842.112	16017
842.249	15861
842.385	15873
842.522	16040
842.659	15762
842.796	15759
842.933	15831
843.069	15880
843.206	15751
843.343	15922
843.479	15838
843.616	15793
843.752	15675
843.889	15675
844.025	15816
844.162	15614
844.298	15781
844.435	15633
844.571	15542
844.708	15667
844.844	15743
844.98	15770
845.117	15660
845.253	15515
845.389	15606
845.525	15530
845.661	15584
845.798	15393
845.934	15557
846.07	15447
846.206	15507
846.342	15584
846.478	15450
846.614	15207
846.75	15226
846.886	15150
847.022	15252
847.158	15222
847.294	15218
847.429	15226
847.565	15207
847.701	15424
847.837	14967
847.972	14944
848.108	15028
848.244	14948
848.379	14754
848.515	14727
848.65	14731
848.786	14792
848.921	14838
849.057	14876
849.192	14876
849.328	14743
849.463	14777
849.598	14792
849.734	14720
849.869	14701
850.004	14590
850.14	14587
850.275	14689
850.41	14514
850.545	14484
850.68	14522
850.815	14568
850.95	14552
851.085	14765
851.22	14667
851.355	14533
851.49	14530
851.625	14594
851.76	14522
851.895	14564
852.03	14522
852.165	14571
852.299	14545
852.434	14670
852.569	14530
852.703	14629
852.838	14602
852.973	14758
853.107	14670
853.242	14598
853.376	14526
853.511	14240
853.645	14438
853.78	14564
853.914	14450
854.048	14415
854.183	14385
854.317	14473
854.451	14617
854.585	14396
854.72	14431
854.854	14503
854.988	14446
855.122	14343
855.256	14256
855.39	14438
855.524	14518
855.658	14552
855.792	14450
855.926	14446
856.06	14530
856.194	14522
856.327	14438
856.461	14362
856.595	14415
856.729	14412
856.862	14476
856.996	14537
857.13	14541
857.263	14640
857.397	14454
857.53	14408
857.664	14526
857.797	14514
857.931	14575
858.064	14568
858.197	14537
858.331	14412
858.464	14434
858.597	14370
858.731	14480
858.864	14381
858.997	14377
859.13	14374
859.263	14461
859.396	14469
859.529	14347
859.662	14343
859.795	14366
859.928	14450
860.061	14670
860.194	14632
860.327	14488
860.46	14385
860.592	14579
860.725	14541
860.858	14522
860.99	14362
861.123	14362
861.256	14446
861.388	14434
861.521	14975
861.653	14237
861.786	14161
861.918	14320
862.05	14442
862.183	14442
862.315	14275
862.447	14480
862.58	14309
862.712	14206
862.844	14282
862.976	14282
863.108	14294
863.24	14697
863.372	14142
863.504	14225
863.636	14172
863.768	14119
863.9	14218
864.032	14088
864.164	14237
864.296	14256
864.428	14313
864.559	14233
864.691	14301
864.823	14168
864.954	14176
865.086	14320
865.217	14164
865.349	14107
865.48	14164
865.612	14183
865.743	14259
865.875	14176
866.006	14157
866.137	14263
866.269	14187
866.4	14218
866.531	14176
866.662	14145
866.793	14145
866.924	14145
867.055	14237
867.186	14134
867.317	14096
867.448	14088
867.579	14145
867.71	14111
867.841	14054
867.972	14107
868.103	14164
868.233	14271
868.364	14195
868.495	14343
868.625	14332
868.756	14503
868.886	14301
869.017	14484
869.147	14549
869.278	14488
869.408	14511
869.539	14465
869.669	14552
869.799	14549
869.929	14530
870.06	14560
870.19	14823
870.32	14629
870.45	14804
870.58	14788
870.71	14929
870.84	14979
870.97	14792
871.1	14883
871.23	14982
871.36	14986
871.489	14960
871.619	15024
871.749	15135
871.879	15066
872.008	15066
872.138	15001
872.267	14979
872.397	14887
872.526	14838
872.656	14861
872.785	14899
872.915	15119
873.044	15013
873.173	15001
873.303	15077
873.432	15077
873.561	15180
873.69	15138
873.819	15036
873.948	15184
874.077	15036
874.206	15089
874.335	15127
874.464	15329
874.593	15348
874.722	15374
874.851	15469
874.979	15405
875.108	15389
875.237	15287
875.365	15302
875.494	15283
875.623	15431
875.751	15298
875.88	15454
876.008	15542
876.136	15557
876.265	15637
876.393	15972
876.521	15823
876.65	15827
876.778	15842
876.906	15770
877.034	15713
877.162	15743
877.29	15766
877.418	15804
877.546	15835
877.674	15755
877.802	15785
877.93	15785
878.058	15816
878.185	15675
878.313	15873
878.441	15911
878.568	15511
878.696	15728
878.824	15789
878.951	15956
879.079	16025
879.206	15979
879.333	16040
879.461	15907
879.588	15895
879.715	15899
879.842	16071
879.97	15876
880.097	15690
880.224	15542
880.351	15606
880.478	15679
880.605	15641
880.732	15587
880.859	15945
880.986	15751
881.112	15526
881.239	15534
881.366	15378
881.493	15355
881.619	15428
881.746	15233
881.872	15359
881.999	15207
882.125	15249
882.252	15329
882.378	15298
882.505	15545
882.631	15256
882.757	15150
882.883	15241
883.01	15112
883.136	15184
883.262	14967
883.388	14994
883.514	15218
883.64	15097
883.766	15074
883.892	14971
884.018	14963
884.143	15074
884.269	15169
884.395	14861
884.52	14895
884.646	14876
884.772	14727
884.897	14625
885.023	14823
885.148	15013
885.274	14963
885.399	14971
885.524	14849
885.65	14918
885.775	14887
885.9	14823
886.025	14967
886.15	14948
886.275	14861
886.4	14735
886.525	14648
886.65	14769
886.775	14769
886.9	14899
887.025	15097
887.149	14921
887.274	14735
887.399	14674
887.523	14693
887.648	14602
887.773	14484
887.897	14727
888.021	14739
888.146	14602
888.27	14895
888.395	14727
888.519	14667
888.643	14712
888.767	14743
888.891	14663
889.015	14590
889.139	14610
889.263	14522
889.387	14564
889.511	14705
889.635	14708
889.759	14499
889.883	14393
890.006	14537
890.13	14648
890.254	14503
890.377	14587
890.501	14385
890.624	14202
890.748	14385
890.871	14263
890.995	14233
891.118	14191
891.241	14183
891.364	14187
891.488	14317
891.611	14256
891.734	14202
891.857	14271
891.98	14218
892.103	14248
892.226	14362
892.349	14206
892.471	13993
892.594	14191
892.717	14225
892.839	14244
892.962	14206
893.085	14305
893.207	14210
893.33	14237
893.452	14134
893.575	14256
893.697	14187
893.819	14290
893.941	14393
894.064	14434
894.186	14263
894.308	14187
894.43	14244
894.552	14400
894.674	14362
894.796	14145
894.918	14263
895.04	14149
895.161	14427
895.283	14263
895.405	14275
895.526	14374
895.648	14347
895.769	14343
895.891	14389
896.012	14446
896.134	14454
896.255	14305
896.376	14347
896.498	14404
896.619	14503
896.74	14396
896.861	14396
896.982	14716
897.103	14842
897.224	14606
897.345	14621
897.466	14663
897.587	14575
897.708	14765
897.828	14625
897.949	14727
898.07	14473
898.19	14663
898.311	14811
898.431	14651
898.552	14800
898.672	14834
898.792	14777
898.913	14777
899.033	14697
899.153	14526
899.273	14492
899.393	14530
899.513	14689
899.633	14564
899.753	14598
899.873	14492
899.993	14579
900.113	14575
900.232	14590
900.352	14511
900.472	14518
900.591	14385
900.711	14514
900.83	14412
900.95	14476
901.069	14530
901.189	14309
901.308	14138
901.427	14062
901.546	14126
901.665	14123
901.784	14157
901.904	13993
902.023	13997
902.141	13738
902.26	13712
902.379	13727
902.498	13677
902.617	13620
902.735	13738
902.854	13696
902.973	13696
903.091	13426
903.21	13350
903.328	13396
903.446	13381
903.565	13293
903.683	13251
903.801	13152
903.919	13270
904.038	13270
904.156	13046
904.274	13099
904.392	13072
904.51	13012
904.627	13034
904.745	13050
904.863	13057
904.981	12951
905.098	12783
905.216	12795
905.334	12806
905.451	12681
905.569	12768
905.686	12791
905.803	12722
905.921	12506
906.038	12681
906.155	12555
906.272	12464
906.389	12502
906.506	12311
906.623	12296
906.74	12319
906.857	12213
906.974	12319
907.091	12414
907.208	12502
907.324	12502
907.441	12273
907.557	12106
907.674	12110
907.79	12076
907.907	12026
908.023	12072
908.139	12148
908.256	12022
908.372	12011
908.488	11942
908.604	11904
908.72	11790
908.836	11863
908.952	11794
909.068	11771
909.184	11999
909.3	11832
909.415	11889
909.531	11840
909.647	11722
909.762	11672
909.878	11611
909.993	11672
910.108	11668
910.224	11592
910.339	11520
910.454	11509
910.57	11448
910.685	11463
910.8	11729
910.915	11615
911.03	11551
911.145	11376
911.259	11349
911.374	11258
911.489	11231
911.604	11292
911.718	11086
911.833	11128
911.947	10953
912.062	10953
912.176	11094
912.291	11086
912.405	11041
912.519	11220
912.633	11258
912.748	11140
912.862	11067
912.976	10877
913.09	10873
913.204	10877
913.318	10930
913.431	11113
913.545	11075
913.659	11060
913.772	11018
913.886	10778
914	10820
914.113	10946
914.226	10976
914.34	10908
914.453	10717
914.566	10854
914.68	10790
914.793	10740
914.906	10622
915.019	10577
915.132	10519
915.245	10554
915.358	10554
915.47	10588
915.583	10542
915.696	10641
915.809	10725
915.921	10706
916.034	10535
916.146	10527
916.259	10542
916.371	10641
916.483	10618
916.595	10512
916.708	10592
916.82	10432
916.932	10523
917.044	10580
917.156	10455
917.268	10413
917.38	10371
917.491	10318
917.603	10417
917.715	10519
917.826	10455
917.938	10402
918.049	10314
918.161	10390
918.272	10573
918.384	10565
918.495	10436
918.606	10265
918.717	10196
918.828	10261
918.939	10234
919.05	10200
919.161	10306
919.272	10097
919.383	10109
919.494	10348
919.604	10527
919.715	10303
919.826	10181
919.936	10257
920.047	10382
920.157	10246
920.267	10527
920.378	10329
920.488	10257
920.598	10409
920.708	10588
920.818	10478
920.928	10474
921.038	10607
921.148	10649
921.258	10333
921.368	10322
921.477	10162
921.587	10173
921.697	10051
921.806	10181
921.916	10082
922.025	9854
922.134	9865
922.244	9842
922.353	9842
922.462	9766
922.571	9656
922.68	9530
922.789	9519
922.898	9542
923.007	9580
923.116	9610
923.224	9580
923.333	9473
923.442	9515
923.55	9431
923.659	9488
923.767	9473
923.876	9386
923.984	9568
924.092	9408
924.201	9389
924.309	9351
924.417	9477
924.525	9401
924.633	9313
924.741	10329
924.849	9089
924.956	9435
925.064	9161
925.172	9161
925.279	9138
925.387	9188
925.494	9192
925.602	9435
925.709	9287
925.816	9135
925.924	9184
926.031	9313
926.138	9199
926.245	9313
926.352	9127
926.459	9184
926.566	9355
926.673	9131
926.779	9104
926.886	9039
926.993	8921
927.099	8918
927.206	8876
927.312	8815
927.419	8963
927.525	8838
927.631	8986
927.737	8830
927.843	8819
927.95	8712
928.056	8804
928.162	8826
928.267	8868
928.373	9450
928.479	8872
928.585	8640
928.69	8781
928.796	8834
928.901	8716
929.007	8590
929.112	8708
929.218	8701
929.323	8636
929.428	8537
929.533	8720
929.638	8575
929.743	8522
929.848	8655
929.953	8693
930.058	8560
930.163	8351
930.267	8457
930.372	8549
930.477	8385
930.581	8594
930.685	8457
930.79	8351
930.894	8419
930.998	8343
931.103	8454
931.207	8130
931.311	8103
931.415	8027
931.519	7788
931.623	7879
