Data from test_V78500241_231.txt Node
Date: Fri Mar 25 14:35:19 CST 2022
User: usil
Spectrometer: V785-0024
Trigger mode: 0
Integration Time (sec): 4.000000E-1
Scans to average: 1
Nonlinearity correction enabled: false
Boxcar width: 0
Storing dark spectrum: false
XAxis mode: Wavelengths
Number of Pixels in Spectrum: 1024
>>>>>Begin Spectral Data<<<<<
801.071	27652
801.214	27496
801.356	27389
801.499	27272
801.641	27085
801.783	26979
801.926	27135
802.068	27005
802.211	26937
802.353	26933
802.496	26754
802.638	26750
802.78	26750
802.923	26492
803.065	26434
803.208	26492
803.35	26617
803.492	26670
803.635	26819
803.777	26731
803.919	26674
804.061	27058
804.204	26602
804.346	26686
804.488	26583
804.63	26579
804.773	26453
804.915	26514
805.057	26697
805.199	26674
805.341	26712
805.483	26823
805.626	26651
805.768	26575
805.91	26750
806.052	26754
806.194	26560
806.336	26887
806.478	26746
806.62	26701
806.762	26887
806.904	26906
807.046	27093
807.188	27028
807.33	27055
807.472	27214
807.614	27043
807.756	27051
807.898	26845
808.04	27100
808.182	26948
808.324	27051
808.465	26944
808.607	27287
808.749	27507
808.891	27466
809.033	27587
809.174	27481
809.316	27447
809.458	27393
809.6	27370
809.741	27378
809.883	27401
810.025	27393
810.166	27538
810.308	27454
810.45	27485
810.591	27427
810.733	27245
810.875	27062
811.016	27024
811.158	27116
811.299	27070
811.441	27146
811.582	27138
811.724	26979
811.865	27001
812.007	27142
812.148	26929
812.29	27005
812.431	27230
812.573	27302
812.714	27443
812.855	27603
812.997	27622
813.138	27675
813.279	27557
813.421	27523
813.562	27443
813.703	27245
813.845	27310
813.986	26891
814.127	26804
814.268	26697
814.41	26682
814.551	26724
814.692	26792
814.833	26697
814.974	26629
815.115	26651
815.256	26419
815.397	26526
815.539	26377
815.68	26374
815.821	26218
815.962	26195
816.103	26347
816.244	26214
816.385	26088
816.526	26115
816.666	25917
816.807	25681
816.948	25871
817.089	25795
817.23	25704
817.371	25738
817.512	25822
817.653	25780
817.793	25594
817.934	25620
818.075	25742
818.216	25696
818.356	25731
818.497	25567
818.638	25297
818.778	25445
818.919	25575
819.06	25521
819.2	25518
819.341	25719
819.481	25578
819.622	25803
819.762	25909
819.903	25849
820.043	25803
820.184	25742
820.324	25757
820.465	25761
820.605	25696
820.746	25712
820.886	25548
821.026	25563
821.167	25575
821.307	25708
821.447	25479
821.588	25411
821.728	25324
821.868	25175
822.008	24989
822.149	25053
822.289	25069
822.429	24840
822.569	24802
822.709	24787
822.849	24471
822.99	24589
823.13	24346
823.27	24429
823.41	24407
823.55	24182
823.69	24361
823.83	24239
823.97	24190
824.11	24102
824.25	23942
824.389	24102
824.529	24091
824.669	24110
824.809	24087
824.949	24159
825.089	24144
825.228	24087
825.368	24060
825.508	23954
825.648	23885
825.787	23954
825.927	23866
826.067	23855
826.206	23794
826.346	23821
826.485	23889
826.625	23840
826.765	24030
826.904	23851
827.044	23592
827.183	23619
827.323	23592
827.462	23600
827.601	23581
827.741	23649
827.88	23531
828.02	23455
828.159	23421
828.298	23474
828.437	23604
828.577	23467
828.716	23604
828.855	23395
828.994	23311
829.134	23185
829.273	23326
829.412	23189
829.551	23181
829.69	23250
829.829	23200
829.968	23353
830.107	23376
830.246	23181
830.385	23181
830.524	23079
830.663	22930
830.802	22957
830.941	22873
831.08	22782
831.219	22942
831.357	22892
831.496	23109
831.635	22797
831.774	22763
831.913	22626
832.051	22459
832.19	22527
832.329	22485
832.467	22531
832.606	22363
832.744	22360
832.883	22497
833.022	22424
833.16	22470
833.299	22489
833.437	22538
833.576	22554
833.714	22329
833.852	22561
833.991	22561
834.129	22462
834.267	22554
834.406	22413
834.544	22413
834.682	22375
834.821	22459
834.959	22508
835.097	22303
835.235	22436
835.373	22375
835.511	22333
835.65	22230
835.788	22253
835.926	22090
836.064	22158
836.202	22059
836.34	22280
836.478	22352
836.615	22238
836.753	22200
836.891	22436
837.029	22303
837.167	22162
837.305	22223
837.443	22112
837.58	22109
837.718	22230
837.856	22128
837.993	21983
838.131	22135
838.269	21895
838.406	21975
838.544	21911
838.681	21755
838.819	21781
838.956	21545
839.094	21641
839.231	21504
839.369	21701
839.506	21972
839.643	21766
839.781	21511
839.918	21416
840.055	21462
840.193	21538
840.33	21424
840.467	21496
840.604	21545
840.742	21675
840.879	21367
841.016	21336
841.153	21256
841.29	21454
841.427	21412
841.564	21473
841.701	21313
841.838	21351
841.975	21252
842.112	21348
842.249	21207
842.385	21165
842.522	21374
842.659	21218
842.796	21093
842.933	21207
843.069	21157
843.206	21127
843.343	21195
843.479	21085
843.616	21039
843.752	20891
843.889	20952
844.025	21077
844.162	20952
844.298	21036
844.435	20830
844.571	20887
844.708	20921
844.844	21047
844.98	20979
845.117	21047
845.253	20902
845.389	20857
845.525	20845
845.661	20971
845.798	20925
845.934	21081
846.07	20971
846.206	20975
846.342	20975
846.478	20857
846.614	20552
846.75	20351
846.886	20385
847.022	20484
847.158	20488
847.294	20343
847.429	20503
847.565	20355
847.701	20606
847.837	20229
847.972	19909
848.108	20214
848.244	20134
848.379	19944
848.515	19894
848.65	19864
848.786	19921
848.921	19902
849.057	19978
849.192	20077
849.328	19963
849.463	19852
849.598	19925
849.734	19887
849.869	19712
850.004	19784
850.14	19708
850.275	19651
850.41	19449
850.545	19647
850.68	19575
850.815	19594
850.95	19567
851.085	19757
851.22	19731
851.355	19628
851.49	19586
851.625	19628
851.76	19575
851.895	19472
852.03	19441
852.165	19594
852.299	19674
852.434	19734
852.569	19670
852.703	19521
852.838	19818
852.973	19696
853.107	19685
853.242	19567
853.376	19449
853.511	19240
853.645	19381
853.78	19510
853.914	19529
854.048	19407
854.183	19411
854.317	19480
854.451	19658
854.585	19415
854.72	19312
854.854	19400
854.988	19358
855.122	19430
855.256	19278
855.39	19487
855.524	19472
855.658	19426
855.792	19476
855.926	19491
856.06	19540
856.194	19426
856.327	19373
856.461	19354
856.595	19327
856.729	19407
856.862	19491
856.996	19540
857.13	19518
857.263	19502
857.397	19460
857.53	19377
857.664	19445
857.797	19400
857.931	19563
858.064	19297
858.197	19575
858.331	19457
858.464	19312
858.597	19316
858.731	19285
858.864	19407
858.997	19381
859.13	19411
859.263	19335
859.396	19438
859.529	19369
859.662	19259
859.795	19244
859.928	19308
860.061	19502
860.194	19510
860.327	19392
860.46	19346
860.592	19369
860.725	19419
860.858	19438
860.99	19403
861.123	19263
861.256	19247
861.388	19335
861.521	20024
861.653	19206
861.786	19164
861.918	19255
862.05	19373
862.183	19487
862.315	19369
862.447	19403
862.58	19354
862.712	19152
862.844	19110
862.976	19263
863.108	19129
863.24	19464
863.372	19000
863.504	19065
863.636	19110
863.768	19133
863.9	19069
864.032	18970
864.164	18905
864.296	19004
864.428	19232
864.559	19107
864.691	19000
864.823	18993
864.954	19099
865.086	18935
865.217	18977
865.349	18795
865.48	18932
865.612	19004
865.743	19126
865.875	19038
866.006	19004
866.137	18958
866.269	19008
866.4	18935
866.531	18886
866.662	18913
866.793	18837
866.924	18916
867.055	18821
867.186	18920
867.317	18821
867.448	18837
867.579	18791
867.71	18867
867.841	18825
867.972	18947
868.103	18897
868.233	18909
868.364	19050
868.495	19065
868.625	19057
868.756	19152
868.886	19080
869.017	19145
869.147	19225
869.278	19259
869.408	19183
869.539	19194
869.669	19129
869.799	19145
869.929	19251
870.06	19213
870.19	19491
870.32	19438
870.45	19502
870.58	19510
870.71	19655
870.84	19674
870.97	19441
871.1	19510
871.23	19723
871.36	19731
871.489	19704
871.619	19578
871.749	19719
871.879	19719
872.008	19807
872.138	19704
872.267	19651
872.397	19613
872.526	19495
872.656	19537
872.785	19521
872.915	19734
873.044	19746
873.173	19666
873.303	19856
873.432	19860
873.561	19784
873.69	19685
873.819	19837
873.948	19795
874.077	19799
874.206	19655
874.335	19795
874.464	19925
874.593	19898
874.722	20020
874.851	20054
874.979	20005
875.108	20107
875.237	19986
875.365	19947
875.494	20024
875.623	20172
875.751	19993
875.88	20073
876.008	20107
876.136	20313
876.265	20385
876.393	20629
876.521	20484
876.65	20507
876.778	20473
876.906	20389
877.034	20320
877.162	20286
877.29	20294
877.418	20389
877.546	20499
877.674	20381
877.802	20438
877.93	20339
878.058	20408
878.185	20438
878.313	20412
878.441	20465
878.568	20210
878.696	20328
878.824	20518
878.951	20495
879.079	20651
879.206	20746
879.333	20651
879.461	20583
879.588	20678
879.715	20769
879.842	20777
879.97	20689
880.097	20305
880.224	20328
880.351	20324
880.478	20301
880.605	20263
880.732	20221
880.859	20537
880.986	20210
881.112	20317
881.239	20149
881.366	20111
881.493	19997
881.619	19852
881.746	19959
881.872	19955
881.999	19818
882.125	19871
882.252	19936
882.378	19822
882.505	19993
882.631	19772
882.757	19578
882.883	19742
883.01	19757
883.136	19567
883.262	19506
883.388	19499
883.514	19635
883.64	19643
883.766	19495
883.892	19434
884.018	19426
884.143	19578
884.269	19666
884.395	19324
884.52	19354
884.646	19377
884.772	19217
884.897	19225
885.023	19304
885.148	19354
885.274	19304
885.399	19419
885.524	19156
885.65	19320
885.775	19263
885.9	19327
886.025	19365
886.15	19312
886.275	19206
886.4	19152
886.525	19126
886.65	19076
886.775	19133
886.9	19377
887.025	19438
887.149	19190
887.274	19065
887.399	18981
887.523	19088
887.648	18928
887.773	18947
887.897	19122
888.021	18901
888.146	18909
888.27	19213
888.395	19061
888.519	19019
888.643	19076
888.767	19137
888.891	19000
889.015	18753
889.139	18970
889.263	18829
889.387	18962
889.511	19046
889.635	18970
889.759	18783
889.883	18795
890.006	18768
890.13	18958
890.254	18684
890.377	18730
890.501	18547
890.624	18483
890.748	18661
890.871	18448
890.995	18338
891.118	18292
891.241	18395
891.364	18437
891.488	18429
891.611	18509
891.734	18395
891.857	18528
891.98	18296
892.103	18460
892.226	18361
892.349	18437
892.471	18167
892.594	18357
892.717	18475
892.839	18353
892.962	18376
893.085	18441
893.207	18460
893.33	18296
893.452	18315
893.575	18437
893.697	18273
893.819	18517
893.941	18509
894.064	18372
894.186	18300
894.308	18304
894.43	18365
894.552	18540
894.674	18414
894.796	18258
894.918	18182
895.04	18346
895.161	18384
895.283	18350
895.405	18273
895.526	18559
895.648	18380
895.769	18365
895.891	18262
896.012	18437
896.134	18498
896.255	18464
896.376	18361
896.498	18460
896.619	18426
896.74	18407
896.861	18513
896.982	18711
897.103	18863
897.224	18817
897.345	18582
897.466	18639
897.587	18658
897.708	18711
897.828	18631
897.949	18612
898.07	18517
898.19	18528
898.311	18696
898.431	18585
898.552	18669
898.672	18703
898.792	18681
898.913	18627
899.033	18525
899.153	18414
899.273	18315
899.393	18418
899.513	18532
899.633	18429
899.753	18456
899.873	18361
899.993	18353
900.113	18380
900.232	18399
900.352	18338
900.472	18228
900.591	18254
900.711	18201
900.83	18194
900.95	18376
901.069	18353
901.189	18129
901.308	17904
901.427	17901
901.546	17760
901.665	17786
901.784	17767
901.904	17687
902.023	17547
902.141	17334
902.26	17337
902.379	17520
902.498	17372
902.617	17311
902.735	17448
902.854	17395
902.973	17292
903.091	17083
903.21	17052
903.328	16923
903.446	16839
903.565	16873
903.683	16831
903.801	16721
903.919	16763
904.038	16858
904.156	16645
904.274	16717
904.392	16580
904.51	16535
904.627	16675
904.745	16603
904.863	16645
904.981	16379
905.098	16306
905.216	16276
905.334	16226
905.451	16375
905.569	16299
905.686	16257
905.803	16242
905.921	16071
906.038	16128
906.155	16063
906.272	15934
906.389	15861
906.506	15975
906.623	15781
906.74	15831
906.857	15690
906.974	15686
907.091	15812
907.208	15918
907.324	15808
907.441	15633
907.557	15538
907.674	15492
907.79	15405
907.907	15450
908.023	15526
908.139	15515
908.256	15431
908.372	15283
908.488	15310
908.604	15291
908.72	15268
908.836	15165
908.952	15222
909.068	15218
909.184	15211
909.3	15142
909.415	15180
909.531	15192
909.647	14883
909.762	14853
909.878	14842
909.993	14982
910.108	14819
910.224	14876
910.339	14868
910.454	14769
910.57	14773
910.685	14693
910.8	14800
910.915	14914
911.03	14716
911.145	14530
911.259	14568
911.374	14457
911.489	14431
911.604	14396
911.718	14324
911.833	14214
911.947	14206
912.062	14100
912.176	14218
912.291	14259
912.405	14256
912.519	14389
912.633	14355
912.748	14225
912.862	14275
912.976	14058
913.09	13951
913.204	14035
913.318	14062
913.431	14161
913.545	14054
913.659	14298
913.772	13978
913.886	13921
914	13940
914.113	13944
914.226	14077
914.34	14008
914.453	13830
914.566	14039
914.68	13750
914.793	13852
914.906	13571
915.019	13533
915.132	13537
915.245	13476
915.358	13597
915.47	13544
915.583	13567
915.696	13628
915.809	13719
915.921	13655
916.034	13521
916.146	13476
916.259	13434
916.371	13552
916.483	13544
916.595	13358
916.708	13468
916.82	13422
916.932	13411
917.044	13411
917.156	13297
917.268	13244
917.38	13274
917.491	13369
917.603	13324
917.715	13373
917.826	13362
917.938	13213
918.049	13133
918.161	13236
918.272	13362
918.384	13327
918.495	13270
918.606	13080
918.717	13019
918.828	13069
918.939	13091
919.05	12951
919.161	13000
919.272	12833
919.383	12928
919.494	13042
919.604	13247
919.715	13000
919.826	12981
919.936	13008
920.047	13069
920.157	12928
920.267	13160
920.378	13023
920.488	12890
920.598	13129
920.708	13202
920.818	13141
920.928	13114
921.038	13331
921.148	13259
921.258	12981
921.368	12848
921.477	12821
921.587	12772
921.697	12715
921.806	12734
921.916	12658
922.025	12559
922.134	12418
922.244	12464
922.353	12426
922.462	12289
922.571	12175
922.68	12152
922.789	12053
922.898	12110
923.007	11946
923.116	12114
923.224	12022
923.333	11977
923.442	11901
923.55	11843
923.659	11920
923.767	11977
923.876	11821
923.984	12034
924.092	11824
924.201	11809
924.309	11897
924.417	11927
924.525	11790
924.633	11767
924.741	12745
924.849	11562
924.956	11767
925.064	11596
925.172	11490
925.279	11562
925.387	11585
925.494	11619
925.602	11638
925.709	11600
925.816	11402
925.924	11592
926.031	11642
926.138	11551
926.245	11634
926.352	11482
926.459	11592
926.566	11566
926.673	11433
926.779	11406
926.886	11391
926.993	11250
927.099	11204
927.206	11143
927.312	11143
927.419	11250
927.525	11147
927.631	11235
927.737	11121
927.843	10984
927.95	10839
928.056	11056
928.162	11052
928.267	11071
928.373	11676
928.479	11155
928.585	10854
928.69	10991
928.796	11018
928.901	10942
929.007	10793
929.112	10938
929.218	10839
929.323	10828
929.428	10706
929.533	10892
929.638	10668
929.743	10767
929.848	10725
929.953	10816
930.058	10637
930.163	10512
930.267	10523
930.372	10577
930.477	10508
930.581	10668
930.685	10535
930.79	10360
930.894	10394
930.998	10379
931.103	10481
931.207	10143
931.311	10082
931.415	10002
931.519	9747
931.623	9762
