Data from test_V78500241_671.txt Node
Date: Fri Mar 25 14:38:23 CST 2022
User: usil
Spectrometer: V785-0024
Trigger mode: 0
Integration Time (sec): 4.000000E-1
Scans to average: 1
Nonlinearity correction enabled: false
Boxcar width: 0
Storing dark spectrum: false
XAxis mode: Wavelengths
Number of Pixels in Spectrum: 1024
>>>>>Begin Spectral Data<<<<<
801.071	28116
801.214	28090
801.356	27778
801.499	27583
801.641	27477
801.783	27526
801.926	27439
802.068	27420
802.211	27291
802.353	27310
802.496	27013
802.638	27028
802.78	27146
802.923	26986
803.065	26853
803.208	27001
803.35	27017
803.492	27150
803.635	27176
803.777	27062
803.919	27116
804.061	27637
804.204	27264
804.346	27165
804.488	27161
804.63	27252
804.773	27176
804.915	27386
805.057	27481
805.199	27443
805.341	27488
805.483	27675
805.626	27682
805.768	27580
805.91	27945
806.052	28013
806.194	28036
806.336	28428
806.478	28557
806.62	28481
806.762	28824
806.904	29284
807.046	29950
807.188	30015
807.33	30498
807.472	31133
807.614	31791
807.756	32777
807.898	33797
808.04	35334
808.182	37164
808.324	39698
808.465	42859
808.607	45949
808.749	48738
808.891	50705
809.033	50746
809.174	48977
809.316	46268
809.458	42825
809.6	39606
809.741	36798
809.883	34622
810.025	33431
810.166	32305
810.308	31365
810.45	30745
810.591	30152
810.733	29718
810.875	29311
811.016	29010
811.158	28675
811.299	28858
811.441	28713
811.582	28519
811.724	28261
811.865	28169
812.007	28139
812.148	27842
812.29	27994
812.431	27922
812.573	28036
812.714	28135
812.855	28177
812.997	28162
813.138	28158
813.279	28211
813.421	27911
813.562	27922
813.703	27732
813.845	27610
813.986	27184
814.127	27100
814.268	26975
814.41	26868
814.551	26830
814.692	26906
814.833	26655
814.974	26659
815.115	26667
815.256	26533
815.397	26393
815.539	26571
815.68	26351
815.821	26248
815.962	26590
816.103	26157
816.244	26122
816.385	26005
816.526	25909
816.666	25803
816.807	25715
816.948	25670
817.089	25624
817.23	25586
817.371	25632
817.512	25655
817.653	25502
817.793	25548
817.934	25491
818.075	25613
818.216	25479
818.356	25350
818.497	25362
818.638	25221
818.778	25183
818.919	25316
819.06	25255
819.2	25388
819.341	25487
819.481	25464
819.622	25567
819.762	25772
819.903	25670
820.043	25548
820.184	25415
820.324	25422
820.465	25479
820.605	25331
820.746	25225
820.886	25247
821.026	25236
821.167	25255
821.307	25365
821.447	25202
821.588	25114
821.728	24977
821.868	24817
822.008	24650
822.149	24646
822.289	24597
822.429	24342
822.569	24403
822.709	24239
822.849	24057
822.99	23969
823.13	23988
823.27	23939
823.41	23843
823.55	23691
823.69	23855
823.83	23821
823.97	23851
824.11	23676
824.25	23512
824.389	23668
824.529	23729
824.669	23566
824.809	23604
824.949	23710
825.089	23726
825.228	23596
825.368	23356
825.508	23467
825.648	23303
825.787	23452
825.927	23406
826.067	23383
826.206	23398
826.346	23649
826.485	23433
826.625	23452
826.765	23558
826.904	23459
827.044	23178
827.183	23044
827.323	23113
827.462	23185
827.601	22915
827.741	22984
827.88	23105
828.02	22866
828.159	22987
828.298	23056
828.437	23170
828.577	22961
828.716	23048
828.855	23010
828.994	22717
829.134	22725
829.273	22744
829.412	22481
829.551	22675
829.69	22573
829.829	22710
829.968	22771
830.107	22713
830.246	22713
830.385	22725
830.524	22535
830.663	22436
830.802	22443
830.941	22257
831.08	22230
831.219	22386
831.357	22443
831.496	22481
831.635	22344
831.774	22257
831.913	22223
832.051	22173
832.19	22177
832.329	22181
832.467	22185
832.606	21998
832.744	22063
832.883	22158
833.022	22173
833.16	22318
833.299	22402
833.437	22535
833.576	22656
833.714	22877
833.852	23052
833.991	23208
834.129	23288
834.267	23212
834.406	23147
834.544	23052
834.682	23052
834.821	22843
834.959	22873
835.097	22611
835.235	22649
835.373	22622
835.511	22470
835.65	22207
835.788	22093
835.926	21781
836.064	21736
836.202	21778
836.34	21941
836.478	21930
836.615	21838
836.753	21747
836.891	21994
837.029	21827
837.167	21648
837.305	21618
837.443	21656
837.58	21705
837.718	21618
837.856	21629
837.993	21530
838.131	21641
838.269	21610
838.406	21603
838.544	21370
838.681	21313
838.819	21245
838.956	21047
839.094	21085
839.231	21047
839.369	21157
839.506	21481
839.643	21317
839.781	21028
839.918	20933
840.055	21005
840.193	20899
840.33	20998
840.467	20933
840.604	21081
840.742	21268
840.879	20914
841.016	20925
841.153	20887
841.29	21142
841.427	21043
841.564	21070
841.701	21131
841.838	20979
841.975	20891
842.112	20895
842.249	20739
842.385	20804
842.522	20960
842.659	20899
842.796	20823
842.933	20849
843.069	20819
843.206	20823
843.343	20902
843.479	20849
843.616	20872
843.752	20826
843.889	20792
844.025	21142
844.162	20960
844.298	21161
844.435	21131
844.571	21447
844.708	21743
844.844	22154
844.98	22554
845.117	23265
845.253	24102
845.389	25955
845.525	29471
845.661	35387
845.798	41958
845.934	46938
846.07	48612
846.206	47337
846.342	42734
846.478	36106
846.614	30251
846.75	26480
846.886	24152
847.022	22843
847.158	22002
847.294	21416
847.429	21207
847.565	20880
847.701	21058
847.837	20320
847.972	20191
848.108	20202
848.244	20278
848.379	19936
848.515	19860
848.65	19807
848.786	19830
848.921	19841
849.057	19799
849.192	19997
849.328	19693
849.463	19757
849.598	19616
849.734	19575
849.869	19537
850.004	19483
850.14	19449
850.275	19514
850.41	19289
850.545	19297
850.68	19373
850.815	19373
850.95	19343
851.085	19499
851.22	19556
851.355	19468
851.49	19373
851.625	19335
851.76	19369
851.895	19354
852.03	19358
852.165	19324
852.299	19476
852.434	19468
852.569	19415
852.703	19460
852.838	19476
852.973	19605
853.107	19548
853.242	19464
853.376	19346
853.511	19198
853.645	19278
853.78	19586
853.914	19514
854.048	19514
854.183	19605
854.317	19590
854.451	19852
854.585	19582
854.72	19658
854.854	19616
854.988	19441
855.122	19514
855.256	19266
855.39	19510
855.524	19407
855.658	19403
855.792	19304
855.926	19327
856.06	19259
856.194	19434
856.327	19198
856.461	19266
856.595	19152
856.729	19072
856.862	19339
856.996	19240
857.13	19282
857.263	19251
857.397	19289
857.53	19190
857.664	19259
857.797	19198
857.931	19221
858.064	19145
858.197	19209
858.331	19088
858.464	19091
858.597	18985
858.731	19004
858.864	18951
858.997	19080
859.13	19065
859.263	19156
859.396	19175
859.529	18962
859.662	18935
859.795	19042
859.928	19088
860.061	19107
860.194	19122
860.327	19072
860.46	19012
860.592	19156
860.725	19110
860.858	19080
860.99	19065
861.123	18924
861.256	18951
861.388	18935
861.521	19643
861.653	18867
861.786	18787
861.918	18913
862.05	18989
862.183	19114
862.315	19038
862.447	19164
862.58	18875
862.712	18730
862.844	18673
862.976	18817
863.108	18642
863.24	19099
863.372	18627
863.504	18753
863.636	18772
863.768	18817
863.9	18760
864.032	18681
864.164	18658
864.296	18665
864.428	18798
864.559	18741
864.691	18791
864.823	18669
864.954	18768
865.086	18749
865.217	18760
865.349	18509
865.48	18604
865.612	18597
865.743	18745
865.875	18604
866.006	18612
866.137	18566
866.269	18654
866.4	18589
866.531	18612
866.662	18525
866.793	18589
866.924	18494
867.055	18506
867.186	18532
867.317	18563
867.448	18555
867.579	18525
867.71	18353
867.841	18403
867.972	18525
868.103	18506
868.233	18612
868.364	18563
868.495	18764
868.625	18776
868.756	18886
868.886	18783
869.017	18764
869.147	18958
869.278	18779
869.408	18787
869.539	18825
869.669	18962
869.799	18916
869.929	18962
870.06	19057
870.19	19175
870.32	19080
870.45	19251
870.58	19232
870.71	19381
870.84	19400
870.97	19190
871.1	19369
871.23	19537
871.36	19468
871.489	19377
871.619	19514
871.749	19468
871.879	19495
872.008	19628
872.138	19502
872.267	19571
872.397	19495
872.526	19483
872.656	19491
872.785	19483
872.915	19605
873.044	19826
873.173	19734
873.303	19731
873.432	19795
873.561	19719
873.69	19818
873.819	19841
873.948	19982
874.077	19894
874.206	19826
874.335	19883
874.464	20054
874.593	20130
874.722	20259
874.851	20278
874.979	20370
875.108	20400
875.237	20320
875.365	20298
875.494	20492
875.623	20514
875.751	20552
875.88	20514
876.008	20811
876.136	20876
876.265	21127
876.393	21294
876.521	21321
876.65	21344
876.778	21252
876.906	21447
877.034	21291
877.162	21507
877.29	21378
877.418	21591
877.546	21686
877.674	21816
877.802	21816
877.93	22006
878.058	22257
878.185	22348
878.313	22687
878.441	23022
878.568	23239
878.696	23908
878.824	24734
878.951	25883
879.079	27416
879.206	29387
879.333	31304
879.461	32998
879.588	34032
879.715	34185
879.842	33481
879.97	31426
880.097	29296
880.224	27682
880.351	26640
880.478	25738
880.605	25099
880.732	24821
880.859	24741
880.986	24304
881.112	24247
881.239	24057
881.366	23950
881.493	23805
881.619	23794
881.746	23916
881.872	23885
881.999	23935
882.125	23859
882.252	24034
882.378	24011
882.505	24148
882.631	24041
882.757	23863
882.883	23897
883.01	23748
883.136	23771
883.262	23695
883.388	23737
883.514	23798
883.64	23775
883.766	23764
883.892	23661
884.018	23634
884.143	23813
884.269	23870
884.395	23657
884.52	23592
884.646	23592
884.772	23558
884.897	23551
885.023	23562
885.148	23642
885.274	23570
885.399	23478
885.524	23288
885.65	23200
885.775	23044
885.9	22934
886.025	23022
886.15	22748
886.275	22428
886.4	22219
886.525	22139
886.65	22093
886.775	21953
886.9	22029
887.025	21869
887.149	21679
887.274	21443
887.399	21264
887.523	21237
887.648	21199
887.773	20967
887.897	21036
888.021	20967
888.146	20804
888.27	20902
888.395	20883
888.519	20731
888.643	20807
888.767	20739
888.891	20473
889.015	20473
889.139	20454
889.263	20252
889.387	20278
889.511	20389
889.635	20237
889.759	20202
889.883	20259
890.006	20100
890.13	20195
890.254	20001
890.377	19845
890.501	19742
890.624	19822
890.748	19871
890.871	19540
890.995	19499
891.118	19316
891.241	19343
891.364	19350
891.488	19495
891.611	19384
891.734	19312
891.857	19346
891.98	19270
892.103	19251
892.226	19217
892.349	19080
892.471	18977
892.594	19122
892.717	19114
892.839	19012
892.962	18989
893.085	19046
893.207	19038
893.33	18856
893.452	18791
893.575	18935
893.697	18814
893.819	18882
893.941	19015
894.064	18977
894.186	18608
894.308	18585
894.43	18875
894.552	18856
894.674	18684
894.796	18616
894.918	18498
895.04	18544
895.161	18642
895.283	18642
895.405	18483
895.526	18517
895.648	18494
895.769	18536
895.891	18498
896.012	18661
896.134	18612
896.255	18578
896.376	18498
896.498	18464
896.619	18479
896.74	18486
896.861	18471
896.982	18875
897.103	18901
897.224	18749
897.345	18681
897.466	18604
897.587	18703
897.708	18688
897.828	18654
897.949	18460
898.07	18407
898.19	18532
898.311	18719
898.431	18608
898.552	18608
898.672	18760
898.792	18711
898.913	18707
899.033	18604
899.153	18479
899.273	18544
899.393	18369
899.513	18460
899.633	18395
899.753	18429
899.873	18327
899.993	18414
900.113	18247
900.232	18334
900.352	18311
900.472	18190
900.591	18247
900.711	18201
900.83	17988
900.95	18281
901.069	18292
901.189	18228
901.308	17817
901.427	17718
901.546	17847
901.665	17783
901.784	17798
901.904	17592
902.023	17516
902.141	17269
902.26	17174
902.379	17330
902.498	17200
902.617	17235
902.735	17212
902.854	17132
902.973	17105
903.091	16934
903.21	16835
903.328	16869
903.446	16691
903.565	16668
903.683	16641
903.801	16519
903.919	16550
904.038	16489
904.156	16417
904.274	16432
904.392	16344
904.51	16211
904.627	16382
904.745	16375
904.863	16249
904.981	16143
905.098	16013
905.216	15941
905.334	16040
905.451	15934
905.569	15994
905.686	15922
905.803	15945
905.921	15892
906.038	15895
906.155	15797
906.272	15671
906.389	15701
906.506	15481
906.623	15557
906.74	15572
906.857	15389
906.974	15443
907.091	15515
907.208	15580
907.324	15511
907.441	15386
907.557	15214
907.674	15135
907.79	15085
907.907	15180
908.023	15230
908.139	15195
908.256	15207
908.372	15081
908.488	15108
908.604	15017
908.72	14956
908.836	14941
908.952	14857
909.068	15009
909.184	15116
909.3	14979
909.415	14895
909.531	14994
909.647	14625
909.762	14682
909.878	14575
909.993	14667
910.108	14568
910.224	14625
910.339	14701
910.454	14514
910.57	14431
910.685	14518
910.8	14705
910.915	14651
911.03	14355
911.145	14358
911.259	14320
911.374	14237
911.489	14191
911.604	14119
911.718	14092
911.833	14031
911.947	13894
912.062	13898
912.176	13993
912.291	13967
912.405	14035
912.519	14168
912.633	14130
912.748	14043
912.862	13974
912.976	13864
913.09	13674
913.204	13852
913.318	13887
913.431	13978
913.545	13898
913.659	13967
913.772	13898
913.886	13807
914	13639
914.113	13845
914.226	13860
914.34	13769
914.453	13636
914.566	13742
914.68	13586
914.793	13472
914.906	13415
915.019	13358
915.132	13362
915.245	13419
915.358	13445
915.47	13304
915.583	13445
915.696	13396
915.809	13548
915.921	13518
916.034	13324
916.146	13343
916.259	13331
916.371	13419
916.483	13476
916.595	13278
916.708	13339
916.82	13251
916.932	13350
917.044	13320
917.156	13297
917.268	13099
917.38	13160
917.491	13069
917.603	13118
917.715	13247
917.826	13209
917.938	13088
918.049	12916
918.161	12996
918.272	13133
918.384	13156
918.495	13088
918.606	12943
918.717	12802
918.828	12878
918.939	12859
919.05	12776
919.161	12916
919.272	12669
919.383	12772
919.494	12844
919.604	13240
919.715	12749
919.826	12791
919.936	12821
920.047	12897
920.157	12783
920.267	13038
920.378	12924
920.488	12745
920.598	12985
920.708	13145
920.818	12973
920.928	13019
921.038	13050
921.148	13095
921.258	12825
921.368	12753
921.477	12612
921.587	12528
921.697	12479
921.806	12627
921.916	12452
922.025	12361
922.134	12323
922.244	12155
922.353	12270
922.462	12152
922.571	12022
922.68	11946
922.789	11908
922.898	11939
923.007	11805
923.116	11912
923.224	11942
923.333	11794
923.442	11802
923.55	11745
923.659	11821
923.767	11870
923.876	11665
923.984	11783
924.092	11665
924.201	11714
924.309	11688
924.417	11653
924.525	11543
924.633	11646
924.741	12642
924.849	11414
924.956	11558
925.064	11410
925.172	11345
925.279	11398
925.387	11474
925.494	11398
925.602	11505
925.709	11467
925.816	11337
925.924	11360
926.031	11455
926.138	11459
926.245	11421
926.352	11242
926.459	11429
926.566	11452
926.673	11311
926.779	11223
926.886	11208
926.993	11121
927.099	11109
927.206	11022
927.312	11025
927.419	11094
927.525	11056
927.631	11060
927.737	10854
927.843	10923
927.95	10710
928.056	10911
928.162	10850
928.267	10976
928.373	11471
928.479	10980
928.585	10759
928.69	10881
928.796	10919
928.901	10763
929.007	10710
929.112	10771
929.218	10717
929.323	10618
929.428	10626
929.533	10793
929.638	10664
929.743	10626
929.848	10649
929.953	10645
930.058	10519
930.163	10417
930.267	10371
930.372	10527
930.477	10352
930.581	10599
930.685	10459
930.79	10253
930.894	10344
930.998	10291
931.103	10432
931.207	10109
931.311	9994
931.415	9915
931.519	9648
931.623	9732
