Data from test_V78500241_2501.txt Node
Date: Fri Mar 25 14:51:07 CST 2022
User: usil
Spectrometer: V785-0024
Trigger mode: 0
Integration Time (sec): 4.000000E-1
Scans to average: 1
Nonlinearity correction enabled: false
Boxcar width: 0
Storing dark spectrum: false
XAxis mode: Wavelengths
Number of Pixels in Spectrum: 1024
>>>>>Begin Spectral Data<<<<<
801.071	22044
801.214	22101
801.356	21660
801.499	21656
801.641	21485
801.783	21408
801.926	21580
802.068	21340
802.211	21256
802.353	21351
802.496	21058
802.638	21074
802.78	20986
802.923	20883
803.065	20636
803.208	20727
803.35	20724
803.492	20914
803.635	20979
803.777	20731
803.919	20910
804.061	21058
804.204	20724
804.346	20609
804.488	20693
804.63	20906
804.773	20678
804.915	20689
805.057	20777
805.199	20568
805.341	20674
805.483	20853
805.626	20823
805.768	20682
805.91	20621
806.052	20811
806.194	20689
806.336	20845
806.478	20571
806.62	20625
806.762	20682
806.904	20849
807.046	21028
807.188	20998
807.33	21100
807.472	21058
807.614	20861
807.756	20937
807.898	20807
808.04	20826
808.182	20712
808.324	20765
808.465	20739
808.607	20921
808.749	21131
808.891	21154
809.033	21245
809.174	21135
809.316	21005
809.458	21066
809.6	21047
809.741	21112
809.883	21135
810.025	21173
810.166	21131
810.308	21207
810.45	21393
810.591	21135
810.733	20861
810.875	20891
811.016	20762
811.158	20777
811.299	20918
811.441	20834
811.582	20918
811.724	20853
811.865	20807
812.007	20868
812.148	20750
812.29	20807
812.431	20998
812.573	21047
812.714	21252
812.855	21408
812.997	21439
813.138	21595
813.279	21393
813.421	21348
813.562	21287
813.703	21131
813.845	20929
813.986	20621
814.127	20549
814.268	20465
814.41	20339
814.551	20370
814.692	20450
814.833	20377
814.974	20320
815.115	20309
815.256	20294
815.397	20267
815.539	20244
815.68	20130
815.821	20027
815.962	20161
816.103	20043
816.244	19959
816.385	19871
816.526	19845
816.666	19624
816.807	19601
816.948	19556
817.089	19635
817.23	19616
817.371	19502
817.512	19480
817.653	19510
817.793	19529
817.934	19590
818.075	19499
818.216	19540
818.356	19499
818.497	19339
818.638	19247
818.778	19126
818.919	19156
819.06	19278
819.2	19244
819.341	19373
819.481	19411
819.622	19537
819.762	19616
819.903	19597
820.043	19540
820.184	19518
820.324	19464
820.465	19601
820.605	19426
820.746	19601
820.886	19419
821.026	19464
821.167	19464
821.307	19571
821.447	19434
821.588	19392
821.728	19206
821.868	19012
822.008	18966
822.149	18905
822.289	18795
822.429	18654
822.569	18547
822.709	18570
822.849	18467
822.99	18445
823.13	18338
823.27	18384
823.41	18220
823.55	18136
823.69	18239
823.83	18220
823.97	18163
824.11	17954
824.25	18034
824.389	17958
824.529	18057
824.669	17946
824.809	18034
824.949	18034
825.089	17897
825.228	17813
825.368	17882
825.508	17737
825.648	17764
825.787	17733
825.927	17824
826.067	17642
826.206	17707
826.346	17779
826.485	17798
826.625	17741
826.765	17779
826.904	17897
827.044	17554
827.183	17589
827.323	17467
827.462	17395
827.601	17532
827.741	17402
827.88	17444
828.02	17258
828.159	17368
828.298	17383
828.437	17463
828.577	17398
828.716	17497
828.855	17421
828.994	17220
829.134	17136
829.273	17227
829.412	17056
829.551	17220
829.69	17200
829.829	17181
829.968	17307
830.107	17242
830.246	17178
830.385	17200
830.524	17071
830.663	16999
830.802	16961
830.941	16763
831.08	16801
831.219	16858
831.357	16869
831.496	16980
831.635	16835
831.774	16733
831.913	16641
832.051	16584
832.19	16512
832.329	16592
832.467	16421
832.606	16519
832.744	16538
832.883	16489
833.022	16531
833.16	16512
833.299	16512
833.437	16443
833.576	16516
833.714	16489
833.852	16630
833.991	16527
834.129	16577
834.267	16683
834.406	16561
834.544	16634
834.682	16618
834.821	16550
834.959	16755
835.097	16550
835.235	16592
835.373	16569
835.511	16561
835.65	16337
835.788	16478
835.926	16341
836.064	16249
836.202	16375
836.34	16538
836.478	16481
836.615	16592
836.753	16405
836.891	16508
837.029	16569
837.167	16455
837.305	16440
837.443	16344
837.58	16211
837.718	16325
837.856	16295
837.993	16265
838.131	16306
838.269	16139
838.406	16409
838.544	16200
838.681	16040
838.819	16090
838.956	15842
839.094	15812
839.231	15876
839.369	16002
839.506	16246
839.643	16196
839.781	15884
839.918	15812
840.055	15926
840.193	15842
840.33	15869
840.467	15865
840.604	15922
840.742	16166
840.879	15778
841.016	15808
841.153	15827
841.29	15987
841.427	15930
841.564	15960
841.701	15869
841.838	15819
841.975	15781
842.112	15846
842.249	15584
842.385	15629
842.522	15770
842.659	15682
842.796	15698
842.933	15591
843.069	15652
843.206	15603
843.343	15762
843.479	15755
843.616	15656
843.752	15447
843.889	15416
844.025	15576
844.162	15428
844.298	15561
844.435	15386
844.571	15424
844.708	15466
844.844	15549
844.98	15580
845.117	15549
845.253	15405
845.389	15317
845.525	15412
845.661	15294
845.798	15062
845.934	15275
846.07	15222
846.206	15325
846.342	15348
846.478	15218
846.614	15070
846.75	14910
846.886	14929
847.022	15089
847.158	14975
847.294	15093
847.429	14986
847.565	14914
847.701	15218
847.837	14739
847.972	14670
848.108	14785
848.244	14887
848.379	14720
848.515	14610
848.65	14670
848.786	14617
848.921	14674
849.057	14758
849.192	14678
849.328	14571
849.463	14648
849.598	14602
849.734	14617
849.869	14419
850.004	14442
850.14	14317
850.275	14362
850.41	14271
850.545	14351
850.68	14336
850.815	14351
850.95	14351
851.085	14602
851.22	14400
851.355	14450
851.49	14377
851.625	14362
851.76	14309
851.895	14301
852.03	14244
852.165	14298
852.299	14404
852.434	14446
852.569	14343
852.703	14301
852.838	14450
852.973	14522
853.107	14415
853.242	14385
853.376	14290
853.511	14100
853.645	14233
853.78	14328
853.914	14309
854.048	14248
854.183	14191
854.317	14267
854.451	14469
854.585	14149
854.72	14214
854.854	14377
854.988	14214
855.122	14157
855.256	14100
855.39	14142
855.524	14404
855.658	14301
855.792	14358
855.926	14263
856.06	14408
856.194	14339
856.327	14309
856.461	14214
856.595	14187
856.729	14218
856.862	14370
856.996	14305
857.13	14267
857.263	14294
857.397	14355
857.53	14195
857.664	14248
857.797	14328
857.931	14473
858.064	14195
858.197	14336
858.331	14294
858.464	14240
858.597	14119
858.731	14267
858.864	14172
858.997	14225
859.13	14229
859.263	14320
859.396	14355
859.529	14138
859.662	14263
859.795	14157
859.928	14355
860.061	14393
860.194	14465
860.327	14271
860.46	14275
860.592	14374
860.725	14454
860.858	14313
860.99	14248
861.123	14168
861.256	14240
861.388	14191
861.521	14876
861.653	14195
861.786	14065
861.918	14031
862.05	14149
862.183	14248
862.315	14183
862.447	14244
862.58	14168
862.712	14145
862.844	13970
862.976	14164
863.108	14054
863.24	14408
863.372	13902
863.504	14035
863.636	13967
863.768	14069
863.9	14016
864.032	13909
864.164	13955
864.296	14050
864.428	14161
864.559	14172
864.691	14081
864.823	14054
864.954	14050
865.086	13986
865.217	14016
865.349	13879
865.48	14031
865.612	14054
865.743	14157
865.875	14046
866.006	13894
866.137	14024
866.269	14096
866.4	13989
866.531	13978
866.662	13925
866.793	13963
866.924	13947
867.055	13951
867.186	13978
867.317	14012
867.448	13947
867.579	13909
867.71	13940
867.841	13879
867.972	14103
868.103	13940
868.233	14005
868.364	14073
868.495	14153
868.625	14210
868.756	14328
868.886	14180
869.017	14161
869.147	14404
869.278	14271
869.408	14206
869.539	14271
869.669	14271
869.799	14313
869.929	14313
870.06	14400
870.19	14602
870.32	14541
870.45	14602
870.58	14674
870.71	14834
870.84	14815
870.97	14686
871.1	14575
871.23	14804
871.36	14902
871.489	14708
871.619	14823
871.749	14819
871.879	14830
872.008	14937
872.138	14834
872.267	14838
872.397	14739
872.526	14629
872.656	14655
872.785	14743
872.915	14868
873.044	14929
873.173	14826
873.303	14967
873.432	14948
873.561	14937
873.69	14929
873.819	14834
873.948	14975
874.077	14921
874.206	14853
874.335	14845
874.464	15020
874.593	15085
874.722	15036
874.851	15226
874.979	15233
875.108	15306
875.237	15169
875.365	15020
875.494	15291
875.623	15367
875.751	15123
875.88	15268
876.008	15389
876.136	15450
876.265	15660
876.393	15915
876.521	15732
876.65	15652
876.778	15671
876.906	15629
877.034	15568
877.162	15663
877.29	15603
877.418	15633
877.546	15682
877.674	15603
877.802	15736
877.93	15557
878.058	15618
878.185	15496
878.313	15614
878.441	15652
878.568	15515
878.696	15530
878.824	15644
878.951	15705
879.079	15857
879.206	15956
879.333	15785
879.461	15705
879.588	15633
879.715	15899
879.842	15861
879.97	15637
880.097	15424
880.224	15386
880.351	15511
880.478	15496
880.605	15405
880.732	15454
880.859	15701
880.986	15553
881.112	15584
881.239	15336
881.366	15184
881.493	15199
881.619	15176
881.746	15055
881.872	15199
881.999	15123
882.125	15112
882.252	15146
882.378	15188
882.505	15306
882.631	15138
882.757	14941
882.883	15097
883.01	14921
883.136	14948
883.262	14830
883.388	14765
883.514	15017
883.64	14998
883.766	14902
883.892	14705
884.018	14830
884.143	15009
884.269	14956
884.395	14724
884.52	14674
884.646	14686
884.772	14625
884.897	14476
885.023	14720
885.148	14743
885.274	14777
885.399	14800
885.524	14743
885.65	14686
885.775	14731
885.9	14663
886.025	14811
886.15	14693
886.275	14750
886.4	14560
886.525	14705
886.65	14568
886.775	14659
886.9	14887
887.025	14819
887.149	14606
887.274	14610
887.399	14438
887.523	14492
887.648	14412
887.773	14438
887.897	14560
888.021	14632
888.146	14492
888.27	14583
888.395	14655
888.519	14655
888.643	14579
888.767	14708
888.891	14404
889.015	14370
889.139	14457
889.263	14305
889.387	14499
889.511	14568
889.635	14503
889.759	14377
889.883	14328
890.006	14431
890.13	14503
890.254	14339
890.377	14351
890.501	14218
890.624	14168
890.748	14221
890.871	14126
890.995	14024
891.118	13898
891.241	14024
891.364	14035
891.488	14149
891.611	14069
891.734	14100
891.857	14130
891.98	14031
892.103	14088
892.226	14084
892.349	14012
892.471	13963
892.594	14115
892.717	14046
892.839	14027
892.962	14027
893.085	14107
893.207	14145
893.33	13982
893.452	13989
893.575	14096
893.697	14081
893.819	14313
893.941	14328
894.064	14259
894.186	14046
894.308	14035
894.43	14199
894.552	14294
894.674	14191
894.796	14073
894.918	14195
895.04	14130
895.161	14195
895.283	14244
895.405	14043
895.526	14195
895.648	14221
895.769	14229
895.891	14240
896.012	14313
896.134	14347
896.255	14195
896.376	14252
896.498	14324
896.619	14324
896.74	14210
896.861	14408
896.982	14552
897.103	14762
897.224	14571
897.345	14442
897.466	14423
897.587	14511
897.708	14651
897.828	14556
897.949	14465
898.07	14419
898.19	14549
898.311	14621
898.431	14556
898.552	14670
898.672	14682
898.792	14750
898.913	14632
899.033	14545
899.153	14434
899.273	14332
899.393	14450
899.513	14450
899.633	14492
899.753	14465
899.873	14408
899.993	14556
900.113	14431
900.232	14526
900.352	14404
900.472	14400
900.591	14229
900.711	14355
900.83	14180
900.95	14374
901.069	14419
901.189	14240
901.308	14020
901.427	13875
901.546	13936
901.665	14001
901.784	14020
901.904	13856
902.023	13811
902.141	13624
902.26	13571
902.379	13662
902.498	13666
902.617	13476
902.735	13586
902.854	13525
902.973	13457
903.091	13285
903.21	13266
903.328	13289
903.446	13213
903.565	13171
903.683	13206
903.801	13000
903.919	13084
904.038	13099
904.156	12920
904.274	12989
904.392	12901
904.51	12932
904.627	12882
904.745	12996
904.863	13019
904.981	12730
905.098	12673
905.216	12612
905.334	12582
905.451	12555
905.569	12662
905.686	12620
905.803	12578
905.921	12441
906.038	12593
906.155	12460
906.272	12369
906.389	12311
906.506	12201
906.623	12235
906.74	12190
906.857	12068
906.974	12140
907.091	12342
907.208	12330
907.324	12258
907.441	12087
907.557	11954
907.674	11988
907.79	11923
907.907	11954
908.023	11969
908.139	11901
908.256	11893
908.372	11901
908.488	11821
908.604	11870
908.72	11737
908.836	11779
908.952	11733
909.068	11737
909.184	11752
909.3	11665
909.415	11737
909.531	11760
909.647	11562
909.762	11497
909.878	11433
909.993	11520
910.108	11505
910.224	11478
910.339	11543
910.454	11497
910.57	11398
910.685	11288
910.8	11615
910.915	11455
911.03	11315
911.145	11299
911.259	11212
911.374	11216
911.489	11208
911.604	11098
911.718	10873
911.833	10957
911.947	10896
912.062	10812
912.176	10919
912.291	11018
912.405	10938
912.519	11094
912.633	11147
912.748	10965
912.862	10972
912.976	10809
913.09	10664
913.204	10717
913.318	10885
913.431	10961
913.545	10908
913.659	10915
913.772	10801
913.886	10664
914	10710
914.113	10828
914.226	10847
914.34	10843
914.453	10717
914.566	10759
914.68	10611
914.793	10660
914.906	10447
915.019	10367
915.132	10417
915.245	10470
915.358	10470
915.47	10489
915.583	10531
915.696	10558
915.809	10603
915.921	10580
916.034	10432
916.146	10451
916.259	10413
916.371	10485
916.483	10478
916.595	10440
916.708	10428
916.82	10409
916.932	10367
917.044	10310
917.156	10394
917.268	10310
917.38	10265
917.491	10322
917.603	10337
917.715	10390
917.826	10367
917.938	10230
918.049	10219
918.161	10341
918.272	10485
918.384	10459
918.495	10303
918.606	10249
918.717	10181
918.828	10192
918.939	10192
919.05	10074
919.161	10181
919.272	10010
919.383	10055
919.494	10238
919.604	10478
919.715	10162
919.826	10063
919.936	10135
920.047	10314
920.157	10188
920.267	10421
920.378	10268
920.488	10200
920.598	10398
920.708	10558
920.818	10386
920.928	10344
921.038	10512
921.148	10554
921.258	10268
921.368	10181
921.477	10074
921.587	10074
921.697	9903
921.806	10059
921.916	9960
922.025	9842
922.134	9793
922.244	9705
922.353	9797
922.462	9606
922.571	9614
922.68	9488
922.789	9439
922.898	9473
923.007	9355
923.116	9473
923.224	9473
923.333	9367
923.442	9344
923.55	9283
923.659	9279
923.767	9412
923.876	9249
923.984	9367
924.092	9192
924.201	9313
924.309	9256
924.417	9222
924.525	9260
924.633	9332
924.741	10284
924.849	9043
924.956	9294
925.064	9093
925.172	8971
925.279	9051
925.387	9161
925.494	9112
925.602	9226
925.709	9199
925.816	9093
925.924	9047
926.031	9157
926.138	9161
926.245	9180
926.352	9089
926.459	9176
926.566	9093
926.673	9104
926.779	9058
926.886	8971
926.993	8796
927.099	8807
927.206	8701
927.312	8705
927.419	8861
927.525	8838
927.631	8891
927.737	8655
927.843	8746
927.95	8655
928.056	8629
928.162	8705
928.267	8724
928.373	9332
928.479	8769
928.585	8564
928.69	8727
928.796	8807
928.901	8708
929.007	8503
929.112	8674
929.218	8621
929.323	8499
929.428	8590
929.533	8697
929.638	8427
929.743	8476
929.848	8560
929.953	8526
930.058	8473
930.163	8244
930.267	8355
930.372	8473
930.477	8267
930.581	8492
930.685	8358
930.79	8259
930.894	8290
930.998	8259
931.103	8415
931.207	8081
931.311	8043
931.415	7955
931.519	7788
931.623	7811
