Data from test_V78500241_1622.txt Node
Date: Fri Mar 25 14:45:00 CST 2022
User: usil
Spectrometer: V785-0024
Trigger mode: 0
Integration Time (sec): 4.000000E-1
Scans to average: 1
Nonlinearity correction enabled: false
Boxcar width: 0
Storing dark spectrum: false
XAxis mode: Wavelengths
Number of Pixels in Spectrum: 1024
>>>>>Begin Spectral Data<<<<<
801.071	22413
801.214	22211
801.356	21953
801.499	21895
801.641	21759
801.783	21667
801.926	21660
802.068	21663
802.211	21545
802.353	21515
802.496	21344
802.638	21245
802.78	21275
802.923	21055
803.065	20990
803.208	20971
803.35	21146
803.492	21074
803.635	21195
803.777	21013
803.919	21165
804.061	21317
804.204	21154
804.346	20960
804.488	20880
804.63	20906
804.773	20861
804.915	20872
805.057	21047
805.199	20979
805.341	21051
805.483	21150
805.626	21051
805.768	20963
805.91	20975
806.052	21005
806.194	20933
806.336	21154
806.478	20952
806.62	20990
806.762	21119
806.904	21298
807.046	21306
807.188	21233
807.33	21355
807.472	21443
807.614	21233
807.756	21367
807.898	21146
808.04	21024
808.182	21074
808.324	21127
808.465	21112
808.607	21325
808.749	21370
808.891	21557
809.033	21534
809.174	21473
809.316	21397
809.458	21408
809.6	21359
809.741	21428
809.883	21481
810.025	21583
810.166	21568
810.308	21580
810.45	21545
810.591	21325
810.733	21317
810.875	21138
811.016	20929
811.158	21066
811.299	21051
811.441	21245
811.582	21355
811.724	21096
811.865	21214
812.007	21161
812.148	21100
812.29	21112
812.431	21245
812.573	21488
812.714	21595
812.855	21739
812.997	21865
813.138	21880
813.279	21869
813.421	21667
813.562	21614
813.703	21450
813.845	21188
813.986	21017
814.127	20796
814.268	20659
814.41	20762
814.551	20629
814.692	20659
814.833	20727
814.974	20765
815.115	20667
815.256	20613
815.397	20541
815.539	20590
815.68	20480
815.821	20328
815.962	20408
816.103	20549
816.244	20317
816.385	20275
816.526	20206
816.666	19917
816.807	19883
816.948	19856
817.089	20027
817.23	19944
817.371	19765
817.512	19875
817.653	19833
817.793	19879
817.934	19765
818.075	19879
818.216	19860
818.356	19826
818.497	19632
818.638	19445
818.778	19518
818.919	19449
819.06	19514
819.2	19639
819.341	19666
819.481	19704
819.622	19807
819.762	20084
819.903	19967
820.043	19879
820.184	19890
820.324	19833
820.465	19814
820.605	19803
820.746	19757
820.886	19586
821.026	19738
821.167	19719
821.307	19879
821.447	19715
821.588	19567
821.728	19537
821.868	19369
822.008	19232
822.149	19209
822.289	19156
822.429	18943
822.569	18764
822.709	18863
822.849	18677
822.99	18703
823.13	18616
823.27	18646
823.41	18536
823.55	18483
823.69	18559
823.83	18547
823.97	18357
824.11	18388
824.25	18338
824.389	18235
824.529	18399
824.669	18311
824.809	18262
824.949	18448
825.089	18350
825.228	18426
825.368	18129
825.508	18201
825.648	18011
825.787	18095
825.927	18129
826.067	17969
826.206	17988
826.346	18106
826.485	18072
826.625	18026
826.765	18133
826.904	18030
827.044	17863
827.183	17714
827.323	17653
827.462	17756
827.601	17775
827.741	17657
827.88	17802
828.02	17741
828.159	17657
828.298	17745
828.437	17847
828.577	17691
828.716	17893
828.855	17627
828.994	17448
829.134	17455
829.273	17528
829.412	17444
829.551	17482
829.69	17277
829.829	17455
829.968	17608
830.107	17577
830.246	17524
830.385	17490
830.524	17318
830.663	17387
830.802	17216
830.941	17174
831.08	17113
831.219	17204
831.357	17056
831.496	17364
831.635	17064
831.774	17018
831.913	17056
832.051	16919
832.19	16831
832.329	16892
832.467	16809
832.606	16763
832.744	16706
832.883	16812
833.022	16717
833.16	16774
833.299	16835
833.437	16767
833.576	16896
833.714	16843
833.852	16949
833.991	16797
834.129	16843
834.267	16885
834.406	16835
834.544	16835
834.682	16759
834.821	16858
834.959	17006
835.097	16778
835.235	16892
835.373	16866
835.511	16835
835.65	16767
835.788	16713
835.926	16599
836.064	16660
836.202	16527
836.34	16744
836.478	16869
836.615	16664
836.753	16744
836.891	16782
837.029	16744
837.167	16634
837.305	16721
837.443	16573
837.58	16611
837.718	16584
837.856	16645
837.993	16538
838.131	16569
838.269	16535
838.406	16546
838.544	16478
838.681	16470
838.819	16150
838.956	16082
839.094	16143
839.231	16253
839.369	16405
839.506	16523
839.643	16421
839.781	16116
839.918	16135
840.055	16109
840.193	16097
840.33	16120
840.467	16059
840.604	16135
840.742	16322
840.879	15930
841.016	16021
841.153	16021
841.29	16211
841.427	16154
841.564	16097
841.701	16143
841.838	16044
841.975	16071
842.112	16006
842.249	15972
842.385	15850
842.522	16101
842.659	15972
842.796	15846
842.933	15926
843.069	15895
843.206	15854
843.343	15907
843.479	15880
843.616	15880
843.752	15694
843.889	15644
844.025	15857
844.162	15519
844.298	15838
844.435	15606
844.571	15641
844.708	15690
844.844	15797
844.98	15827
845.117	15827
845.253	15561
845.389	15774
845.525	15584
845.661	15694
845.798	15507
845.934	15618
846.07	15587
846.206	15652
846.342	15610
846.478	15439
846.614	15359
846.75	15199
846.886	15252
847.022	15283
847.158	15222
847.294	15310
847.429	15370
847.565	15218
847.701	15458
847.837	15017
847.972	14963
848.108	15051
848.244	15123
848.379	14933
848.515	14857
848.65	14895
848.786	14864
848.921	14883
849.057	14944
849.192	14880
849.328	14948
849.463	14910
849.598	14807
849.734	14842
849.869	14804
850.004	14594
850.14	14663
850.275	14636
850.41	14598
850.545	14549
850.68	14640
850.815	14663
850.95	14575
851.085	14902
851.22	14674
851.355	14670
851.49	14530
851.625	14533
851.76	14583
851.895	14587
852.03	14374
852.165	14640
852.299	14610
852.434	14617
852.569	14678
852.703	14667
852.838	14659
852.973	14743
853.107	14811
853.242	14621
853.376	14518
853.511	14396
853.645	14423
853.78	14617
853.914	14518
854.048	14480
854.183	14309
854.317	14503
854.451	14625
854.585	14415
854.72	14404
854.854	14495
854.988	14408
855.122	14408
855.256	14286
855.39	14442
855.524	14503
855.658	14419
855.792	14442
855.926	14571
856.06	14530
856.194	14541
856.327	14473
856.461	14442
856.595	14396
856.729	14389
856.862	14492
856.996	14552
857.13	14594
857.263	14564
857.397	14655
857.53	14507
857.664	14575
857.797	14644
857.931	14594
858.064	14590
858.197	14556
858.331	14488
858.464	14423
858.597	14377
858.731	14396
858.864	14469
858.997	14492
859.13	14594
859.263	14530
859.396	14518
859.529	14514
859.662	14427
859.795	14404
859.928	14408
860.061	14636
860.194	14678
860.327	14514
860.46	14575
860.592	14560
860.725	14651
860.858	14613
860.99	14526
861.123	14423
861.256	14434
861.388	14511
861.521	15264
861.653	14374
861.786	14225
861.918	14305
862.05	14461
862.183	14320
862.315	14408
862.447	14473
862.58	14442
862.712	14286
862.844	14142
862.976	14328
863.108	14324
863.24	14781
863.372	14210
863.504	14256
863.636	14267
863.768	14294
863.9	14298
864.032	14263
864.164	14320
864.296	14286
864.428	14317
864.559	14476
864.691	14294
864.823	14328
864.954	14233
865.086	14256
865.217	14225
865.349	14221
865.48	14309
865.612	14275
865.743	14366
865.875	14317
866.006	14237
866.137	14225
866.269	14187
866.4	14126
866.531	14206
866.662	14149
866.793	14240
866.924	14324
867.055	14271
867.186	14294
867.317	14225
867.448	14142
867.579	14252
867.71	14259
867.841	14206
867.972	14309
868.103	14336
868.233	14309
868.364	14343
868.495	14385
868.625	14434
868.756	14625
868.886	14495
869.017	14514
869.147	14625
869.278	14625
869.408	14571
869.539	14579
869.669	14735
869.799	14606
869.929	14663
870.06	14625
870.19	14800
870.32	14861
870.45	14929
870.58	15005
870.71	14979
870.84	15104
870.97	14941
871.1	14921
871.23	15093
871.36	15039
871.489	14948
871.619	15108
871.749	15104
871.879	15169
872.008	15188
872.138	15066
872.267	15119
872.397	14971
872.526	15032
872.656	14914
872.785	15001
872.915	15081
873.044	15211
873.173	15135
873.303	15245
873.432	15230
873.561	15279
873.69	15131
873.819	15058
873.948	15264
874.077	15211
874.206	15112
874.335	15192
874.464	15340
874.593	15500
874.722	15450
874.851	15504
874.979	15549
875.108	15595
875.237	15382
875.365	15378
875.494	15439
875.623	15504
875.751	15397
875.88	15519
876.008	15625
876.136	15667
876.265	15873
876.393	16051
876.521	16048
876.65	15903
876.778	15926
876.906	15812
877.034	15861
877.162	15865
877.29	15705
877.418	15911
877.546	15956
877.674	15793
877.802	15835
877.93	15869
878.058	15922
878.185	15835
878.313	15873
878.441	15869
878.568	15831
878.696	15895
878.824	15926
878.951	16029
879.079	16143
879.206	16192
879.333	16109
879.461	16006
879.588	16025
879.715	16124
879.842	16162
879.97	15983
880.097	15831
880.224	15724
880.351	15812
880.478	15831
880.605	15667
880.732	15751
880.859	15975
880.986	15915
881.112	15732
881.239	15698
881.366	15538
881.493	15382
881.619	15329
881.746	15492
881.872	15416
881.999	15405
882.125	15359
882.252	15378
882.378	15389
882.505	15564
882.631	15393
882.757	15203
882.883	15230
883.01	15287
883.136	15226
883.262	15116
883.388	15104
883.514	15230
883.64	15268
883.766	15135
883.892	15039
884.018	15173
884.143	15199
884.269	15313
884.395	14971
884.52	14880
884.646	14906
884.772	14804
884.897	14815
885.023	14971
885.148	15043
885.274	15058
885.399	14979
885.524	14948
885.65	14895
885.775	15036
885.9	14906
886.025	15089
886.15	15074
886.275	14883
886.4	14804
886.525	14853
886.65	14842
886.775	14842
886.9	15013
887.025	15233
887.149	14864
887.274	14689
887.399	14720
887.523	14781
887.648	14610
887.773	14693
887.897	14830
888.021	14823
888.146	14746
888.27	14887
888.395	14941
888.519	14815
888.643	14788
888.767	14830
888.891	14773
889.015	14560
889.139	14663
889.263	14644
889.387	14629
889.511	14796
889.635	14701
889.759	14617
889.883	14511
890.006	14667
890.13	14682
890.254	14610
890.377	14579
890.501	14473
890.624	14358
890.748	14503
890.871	14294
890.995	14309
891.118	14305
891.241	14294
891.364	14332
891.488	14434
891.611	14271
891.734	14343
891.857	14351
891.98	14385
892.103	14370
892.226	14298
892.349	14336
892.471	14092
892.594	14282
892.717	14290
892.839	14294
892.962	14389
893.085	14309
893.207	14320
893.33	14237
893.452	14240
893.575	14412
893.697	14278
893.819	14381
893.941	14522
894.064	14419
894.186	14183
894.308	14290
894.43	14362
894.552	14518
894.674	14450
894.796	14259
894.918	14332
895.04	14301
895.161	14419
895.283	14328
895.405	14412
895.526	14313
895.648	14320
895.769	14393
895.891	14473
896.012	14469
896.134	14514
896.255	14499
896.376	14370
896.498	14526
896.619	14568
896.74	14442
896.861	14564
896.982	14788
897.103	14963
897.224	14754
897.345	14769
897.466	14655
897.587	14743
897.708	14838
897.828	14731
897.949	14663
898.07	14590
898.19	14708
898.311	14910
898.431	14724
898.552	14746
898.672	14960
898.792	14830
898.913	14853
899.033	14823
899.153	14579
899.273	14667
899.393	14640
899.513	14773
899.633	14640
899.753	14594
899.873	14613
899.993	14689
900.113	14724
900.232	14701
900.352	14648
900.472	14484
900.591	14507
900.711	14518
900.83	14564
900.95	14655
901.069	14648
901.189	14442
901.308	14267
901.427	14237
901.546	14195
901.665	14244
901.784	14301
901.904	14084
902.023	14058
902.141	13845
902.26	13822
902.379	13849
902.498	13784
902.617	13772
902.735	13807
902.854	13723
902.973	13712
903.091	13582
903.21	13438
903.328	13487
903.446	13506
903.565	13308
903.683	13263
903.801	13274
903.919	13335
904.038	13247
904.156	13209
904.274	13183
904.392	13065
904.51	13053
904.627	13053
904.745	13190
904.863	13168
904.981	13008
905.098	12776
905.216	12867
905.334	12890
905.451	12825
905.569	12856
905.686	12837
905.803	12844
905.921	12684
906.038	12738
906.155	12726
906.272	12578
906.389	12544
906.506	12445
906.623	12372
906.74	12365
906.857	12232
906.974	12292
907.091	12479
907.208	12559
907.324	12525
907.441	12270
907.557	12262
907.674	12148
907.79	12079
907.907	12129
908.023	12289
908.139	12136
908.256	12136
908.372	12041
908.488	12034
908.604	11939
908.72	11908
908.836	11843
908.952	11931
909.068	11920
909.184	12034
909.3	11904
909.415	11950
909.531	11863
909.647	11733
909.762	11737
909.878	11627
909.993	11657
910.108	11710
910.224	11661
910.339	11653
910.454	11520
910.57	11532
910.685	11421
910.8	11821
910.915	11653
911.03	11543
911.145	11391
911.259	11345
911.374	11334
911.489	11242
911.604	11284
911.718	11151
911.833	11208
911.947	10984
912.062	11041
912.176	11128
912.291	11178
912.405	11174
912.519	11341
912.633	11322
912.748	11212
912.862	11121
912.976	11064
913.09	10915
913.204	10923
913.318	11067
913.431	11048
913.545	11121
913.659	11132
913.772	11045
913.886	10911
914	10858
914.113	10946
914.226	11071
914.34	10965
914.453	10843
914.566	11018
914.68	10889
914.793	10752
914.906	10733
915.019	10641
915.132	10592
915.245	10592
915.358	10637
915.47	10649
915.583	10645
915.696	10668
915.809	10771
915.921	10831
916.034	10641
916.146	10558
916.259	10577
916.371	10725
916.483	10630
916.595	10500
916.708	10554
916.82	10508
916.932	10588
917.044	10546
917.156	10542
917.268	10519
917.38	10459
917.491	10398
917.603	10546
917.715	10500
917.826	10611
917.938	10398
918.049	10356
918.161	10500
918.272	10645
918.384	10596
918.495	10493
918.606	10303
918.717	10318
918.828	10257
918.939	10337
919.05	10265
919.161	10363
919.272	10128
919.383	10284
919.494	10363
919.604	10561
919.715	10402
919.826	10314
919.936	10314
920.047	10470
920.157	10398
920.267	10569
920.378	10421
920.488	10337
920.598	10538
920.708	10698
920.818	10500
920.928	10478
921.038	10679
921.148	10611
921.258	10367
921.368	10299
921.477	10166
921.587	10158
921.697	10101
921.806	10211
921.916	10067
922.025	9945
922.134	9880
922.244	9892
922.353	9915
922.462	9797
922.571	9629
922.68	9572
922.789	9625
922.898	9641
923.007	9561
923.116	9629
923.224	9519
923.333	9629
923.442	9443
923.55	9481
923.659	9466
923.767	9515
923.876	9412
923.984	9545
924.092	9416
924.201	9450
924.309	9462
924.417	9382
924.525	9344
924.633	9378
924.741	10147
924.849	9237
924.956	9435
925.064	9256
925.172	9169
925.279	9192
925.387	9256
925.494	9188
925.602	9374
925.709	9275
925.816	9188
925.924	9180
926.031	9310
926.138	9241
926.245	9294
926.352	9214
926.459	9264
926.566	9382
926.673	9211
926.779	9097
926.886	9051
926.993	8960
927.099	8880
927.206	8979
927.312	8921
927.419	9013
927.525	8963
927.631	8986
927.737	8914
927.843	8868
927.95	8769
928.056	8861
928.162	8910
928.267	8876
928.373	9329
928.479	8963
928.585	8727
928.69	8804
928.796	8864
928.901	8754
929.007	8575
929.112	8735
929.218	8708
929.323	8689
929.428	8670
929.533	8830
929.638	8545
929.743	8689
929.848	8712
929.953	8621
930.058	8602
930.163	8374
930.267	8423
930.372	8613
930.477	8389
930.581	8659
930.685	8545
930.79	8396
930.894	8339
930.998	8381
931.103	8492
931.207	8164
931.311	8111
931.415	8016
931.519	7849
931.623	7902
