Data from test_V78500241_2599.txt Node
Date: Fri Mar 25 14:51:48 CST 2022
User: usil
Spectrometer: V785-0024
Trigger mode: 0
Integration Time (sec): 4.000000E-1
Scans to average: 1
Nonlinearity correction enabled: false
Boxcar width: 0
Storing dark spectrum: false
XAxis mode: Wavelengths
Number of Pixels in Spectrum: 1024
>>>>>Begin Spectral Data<<<<<
801.071	22067
801.214	21953
801.356	21724
801.499	21488
801.641	21420
801.783	21321
801.926	21420
802.068	21252
802.211	21237
802.353	21245
802.496	21020
802.638	20830
802.78	20887
802.923	20670
803.065	20754
803.208	20727
803.35	20686
803.492	20800
803.635	20815
803.777	20613
803.919	20708
804.061	21093
804.204	20811
804.346	20533
804.488	20708
804.63	20788
804.773	20461
804.915	20720
805.057	20724
805.199	20648
805.341	20644
805.483	20807
805.626	20617
805.768	20644
805.91	20651
806.052	20697
806.194	20564
806.336	20765
806.478	20705
806.62	20530
806.762	20659
806.904	20819
807.046	21077
807.188	20910
807.33	20925
807.472	21020
807.614	20887
807.756	20849
807.898	20834
808.04	20678
808.182	20678
808.324	20739
808.465	20826
808.607	20868
808.749	20910
808.891	21062
809.033	21135
809.174	21051
809.316	21013
809.458	20975
809.6	20925
809.741	20960
809.883	21055
810.025	21077
810.166	21249
810.308	21017
810.45	21070
810.591	21024
810.733	20963
810.875	20800
811.016	20655
811.158	20617
811.299	20853
811.441	20910
811.582	20906
811.724	20625
811.865	20750
812.007	20712
812.148	20743
812.29	20796
812.431	20967
812.573	21047
812.714	21093
812.855	21226
812.997	21336
813.138	21378
813.279	21370
813.421	21233
813.562	21089
813.703	21093
813.845	21024
813.986	20625
814.127	20541
814.268	20339
814.41	20438
814.551	20294
814.692	20465
814.833	20229
814.974	20301
815.115	20278
815.256	20122
815.397	20142
815.539	20134
815.68	20115
815.821	19993
815.962	20073
816.103	20024
816.244	19803
816.385	19772
816.526	19746
816.666	19605
816.807	19483
816.948	19445
817.089	19525
817.23	19594
817.371	19422
817.512	19552
817.653	19525
817.793	19358
817.934	19453
818.075	19445
818.216	19316
818.356	19411
818.497	19202
818.638	19095
818.778	19110
818.919	19137
819.06	19088
819.2	19388
819.341	19251
819.481	19308
819.622	19476
819.762	19670
819.903	19609
820.043	19422
820.184	19430
820.324	19396
820.465	19464
820.605	19362
820.746	19445
820.886	19316
821.026	19419
821.167	19354
821.307	19472
821.447	19483
821.588	19198
821.728	19088
821.868	19034
822.008	18901
822.149	18798
822.289	18817
822.429	18654
822.569	18467
822.709	18604
822.849	18346
822.99	18471
823.13	18281
823.27	18319
823.41	18106
823.55	18125
823.69	18224
823.83	18174
823.97	18049
824.11	17916
824.25	17794
824.389	17969
824.529	18072
824.669	17939
824.809	18045
824.949	17904
825.089	18007
825.228	17992
825.368	17794
825.508	17684
825.648	17840
825.787	17733
825.927	17748
826.067	17634
826.206	17665
826.346	17767
826.485	17691
826.625	17535
826.765	17828
826.904	17680
827.044	17547
827.183	17528
827.323	17307
827.462	17360
827.601	17410
827.741	17414
827.88	17505
828.02	17216
828.159	17353
828.298	17414
828.437	17376
828.577	17311
828.716	17444
828.855	17284
828.994	17197
829.134	17121
829.273	17181
829.412	17098
829.551	17094
829.69	17022
829.829	17143
829.968	17204
830.107	17193
830.246	17162
830.385	17056
830.524	17064
830.663	16953
830.802	16850
830.941	16736
831.08	16812
831.219	16820
831.357	16843
831.496	16930
831.635	16736
831.774	16618
831.913	16698
832.051	16516
832.19	16546
832.329	16580
832.467	16455
832.606	16402
832.744	16485
832.883	16455
833.022	16466
833.16	16478
833.299	16592
833.437	16447
833.576	16462
833.714	16542
833.852	16550
833.991	16504
834.129	16531
834.267	16550
834.406	16402
834.544	16565
834.682	16592
834.821	16565
834.959	16713
835.097	16478
835.235	16558
835.373	16481
835.511	16489
835.65	16443
835.788	16299
835.926	16242
836.064	16246
836.202	16215
836.34	16443
836.478	16500
836.615	16390
836.753	16417
836.891	16500
837.029	16413
837.167	16360
837.305	16386
837.443	16348
837.58	16207
837.718	16333
837.856	16303
837.993	16128
838.131	16428
838.269	16223
838.406	16276
838.544	16120
838.681	16109
838.819	15975
838.956	15789
839.094	15865
839.231	15857
839.369	16013
839.506	16185
839.643	16120
839.781	15876
839.918	15854
840.055	15762
840.193	15873
840.33	15797
840.467	15781
840.604	15884
840.742	16109
840.879	15717
841.016	15770
841.153	15789
841.29	15907
841.427	15857
841.564	15778
841.701	15903
841.838	15770
841.975	15808
842.112	15838
842.249	15622
842.385	15633
842.522	15812
842.659	15622
842.796	15492
842.933	15656
843.069	15504
843.206	15439
843.343	15690
843.479	15622
843.616	15656
843.752	15359
843.889	15340
844.025	15572
844.162	15420
844.298	15568
844.435	15477
844.571	15355
844.708	15447
844.844	15568
844.98	15637
845.117	15530
845.253	15428
845.389	15344
845.525	15302
845.661	15218
845.798	15306
845.934	15249
846.07	15241
846.206	15294
846.342	15321
846.478	15249
846.614	15001
846.75	14918
846.886	14887
847.022	14963
847.158	14914
847.294	14933
847.429	14963
847.565	15001
847.701	15294
847.837	14708
847.972	14705
848.108	14868
848.244	14819
848.379	14613
848.515	14492
848.65	14636
848.786	14613
848.921	14606
849.057	14663
849.192	14663
849.328	14610
849.463	14625
849.598	14594
849.734	14476
849.869	14473
850.004	14370
850.14	14374
850.275	14396
850.41	14256
850.545	14221
850.68	14328
850.815	14339
850.95	14332
851.085	14560
851.22	14473
851.355	14355
851.49	14305
851.625	14259
851.76	14305
851.895	14286
852.03	14294
852.165	14286
852.299	14385
852.434	14442
852.569	14400
852.703	14351
852.838	14442
852.973	14518
853.107	14499
853.242	14309
853.376	14225
853.511	14248
853.645	14096
853.78	14267
853.914	14180
854.048	14153
854.183	14103
854.317	14172
854.451	14404
854.585	14183
854.72	14153
854.854	14301
854.988	14142
855.122	14210
855.256	14050
855.39	14119
855.524	14210
855.658	14389
855.792	14202
855.926	14271
856.06	14309
856.194	14381
856.327	14301
856.461	14149
856.595	14176
856.729	14225
856.862	14343
856.996	14225
857.13	14172
857.263	14328
857.397	14434
857.53	14313
857.664	14298
857.797	14305
857.931	14294
858.064	14396
858.197	14358
858.331	14248
858.464	14153
858.597	14111
858.731	14252
858.864	14218
858.997	14164
859.13	14225
859.263	14202
859.396	14263
859.529	14206
859.662	14168
859.795	14176
859.928	14107
860.061	14294
860.194	14442
860.327	14119
860.46	14221
860.592	14400
860.725	14324
860.858	14351
860.99	14290
861.123	14202
861.256	14168
861.388	14313
861.521	14845
861.653	14081
861.786	14050
861.918	14138
862.05	14126
862.183	14153
862.315	14317
862.447	14275
862.58	14157
862.712	14046
862.844	13963
862.976	14157
863.108	13955
863.24	14408
863.372	13959
863.504	13963
863.636	14073
863.768	14050
863.9	14043
864.032	14005
864.164	14008
864.296	14084
864.428	14142
864.559	14115
864.691	14130
864.823	14062
864.954	14092
865.086	13928
865.217	13986
865.349	13982
865.48	13959
865.612	14046
865.743	14084
865.875	13974
866.006	13940
866.137	13932
866.269	13936
866.4	13997
866.531	13917
866.662	13936
866.793	13932
866.924	13944
867.055	14016
867.186	13947
867.317	14008
867.448	13955
867.579	14012
867.71	13887
867.841	13921
867.972	13955
868.103	14008
868.233	14016
868.364	13997
868.495	14142
868.625	14267
868.756	14339
868.886	14199
869.017	14199
869.147	14332
869.278	14404
869.408	14267
869.539	14252
869.669	14339
869.799	14328
869.929	14351
870.06	14347
870.19	14568
870.32	14511
870.45	14564
870.58	14549
870.71	14617
870.84	14758
870.97	14727
871.1	14610
871.23	14853
871.36	14857
871.489	14629
871.619	14674
871.749	14891
871.879	14948
872.008	14941
872.138	14823
872.267	14857
872.397	14773
872.526	14663
872.656	14629
872.785	14762
872.915	14849
873.044	14933
873.173	14796
873.303	14902
873.432	14960
873.561	14921
873.69	14902
873.819	14883
873.948	14963
874.077	14906
874.206	14998
874.335	14952
874.464	15058
874.593	15157
874.722	15093
874.851	15180
874.979	15230
875.108	15233
875.237	15142
875.365	15214
875.494	15195
875.623	15325
875.751	15195
875.88	15146
876.008	15370
876.136	15439
876.265	15622
876.393	15751
876.521	15667
876.65	15671
876.778	15629
876.906	15625
877.034	15458
877.162	15606
877.29	15481
877.418	15595
877.546	15622
877.674	15538
877.802	15751
877.93	15553
878.058	15660
878.185	15485
878.313	15572
878.441	15644
878.568	15496
878.696	15603
878.824	15637
878.951	15759
879.079	15736
879.206	15975
879.333	15835
879.461	15682
879.588	15751
879.715	15797
879.842	15808
879.97	15614
880.097	15401
880.224	15454
880.351	15511
880.478	15511
880.605	15481
880.732	15473
880.859	15667
880.986	15443
881.112	15431
881.239	15321
881.366	15146
881.493	15112
881.619	15169
881.746	15241
881.872	15081
881.999	15112
882.125	15119
882.252	15184
882.378	15119
882.505	15207
882.631	15116
882.757	14990
882.883	14982
883.01	14960
883.136	14880
883.262	14754
883.388	14708
883.514	14960
883.64	14986
883.766	14880
883.892	14785
884.018	14800
884.143	14952
884.269	15055
884.395	14655
884.52	14644
884.646	14693
884.772	14552
884.897	14541
885.023	14629
885.148	14716
885.274	14830
885.399	14708
885.524	14617
885.65	14667
885.775	14724
885.9	14716
886.025	14777
886.15	14724
886.275	14556
886.4	14556
886.525	14556
886.65	14545
886.775	14526
886.9	14731
887.025	14895
887.149	14773
887.274	14465
887.399	14484
887.523	14480
887.648	14473
887.773	14370
887.897	14533
888.021	14530
888.146	14461
888.27	14587
888.395	14579
888.519	14526
888.643	14518
888.767	14549
888.891	14377
889.015	14374
889.139	14385
889.263	14347
889.387	14450
889.511	14545
889.635	14492
889.759	14218
889.883	14339
890.006	14320
890.13	14613
890.254	14317
890.377	14301
890.501	14142
890.624	14081
890.748	14206
890.871	14180
890.995	14043
891.118	14073
891.241	14035
891.364	14031
891.488	14172
891.611	14035
891.734	13986
891.857	14100
891.98	14153
892.103	14111
892.226	14100
892.349	14027
892.471	13936
892.594	14088
892.717	14043
892.839	14069
892.962	14024
893.085	14054
893.207	14050
893.33	13940
893.452	13959
893.575	14103
893.697	14005
893.819	14180
893.941	14176
894.064	14271
894.186	14043
894.308	13974
894.43	14267
894.552	14206
894.674	14202
894.796	14054
894.918	14046
895.04	14168
895.161	14119
895.283	14084
895.405	14077
895.526	14149
895.648	14187
895.769	14221
895.891	14286
896.012	14237
896.134	14248
896.255	14206
896.376	14001
896.498	14210
896.619	14309
896.74	14271
896.861	14278
896.982	14606
897.103	14807
897.224	14545
897.345	14476
897.466	14492
897.587	14503
897.708	14644
897.828	14537
897.949	14480
898.07	14396
898.19	14423
898.311	14708
898.431	14598
898.552	14617
898.672	14644
898.792	14606
898.913	14640
899.033	14484
899.153	14503
899.273	14385
899.393	14427
899.513	14343
899.633	14476
899.753	14442
899.873	14377
899.993	14442
900.113	14473
900.232	14507
900.352	14358
900.472	14366
900.591	14199
900.711	14275
900.83	14278
900.95	14385
901.069	14362
901.189	14263
901.308	14111
901.427	13902
901.546	13947
901.665	13982
901.784	14027
901.904	13826
902.023	13746
902.141	13605
902.26	13491
902.379	13651
902.498	13495
902.617	13476
902.735	13586
902.854	13514
902.973	13396
903.091	13171
903.21	13232
903.328	13301
903.446	13198
903.565	13050
903.683	13103
903.801	13004
903.919	13072
904.038	13076
904.156	12989
904.274	12951
904.392	12985
904.51	12863
904.627	12886
904.745	12973
904.863	12958
904.981	12749
905.098	12677
905.216	12601
905.334	12642
905.451	12646
905.569	12635
905.686	12646
905.803	12642
905.921	12410
906.038	12608
906.155	12407
906.272	12445
906.389	12304
906.506	12266
906.623	12178
906.74	12182
906.857	12064
906.974	12140
907.091	12258
907.208	12365
907.324	12228
907.441	12133
907.557	11988
907.674	11980
907.79	11843
907.907	11958
908.023	11977
908.139	12041
908.256	11866
908.372	11885
908.488	11817
908.604	11863
908.72	11672
908.836	11733
908.952	11703
909.068	11794
909.184	11843
909.3	11775
909.415	11779
909.531	11737
909.647	11566
909.762	11493
909.878	11410
909.993	11543
910.108	11551
910.224	11474
910.339	11512
910.454	11444
910.57	11379
910.685	11235
910.8	11554
910.915	11493
911.03	11448
911.145	11201
911.259	11216
911.374	11121
911.489	11140
911.604	11083
911.718	10972
911.833	10919
911.947	10828
912.062	10824
912.176	10961
912.291	10900
912.405	10938
912.519	11159
912.633	11159
912.748	11025
912.862	10938
912.976	10862
913.09	10679
913.204	10793
913.318	10816
913.431	10835
913.545	10923
913.659	10953
913.772	10858
913.886	10668
914	10649
914.113	10801
914.226	10850
914.34	10733
914.453	10626
914.566	10717
914.68	10679
914.793	10580
914.906	10436
915.019	10390
915.132	10413
915.245	10443
915.358	10398
915.47	10497
915.583	10519
915.696	10527
915.809	10584
915.921	10584
916.034	10504
916.146	10386
916.259	10352
916.371	10512
916.483	10375
916.595	10341
916.708	10398
916.82	10386
916.932	10333
917.044	10413
917.156	10242
917.268	10284
917.38	10322
917.491	10272
917.603	10371
917.715	10356
917.826	10398
917.938	10280
918.049	10234
918.161	10284
918.272	10394
918.384	10447
918.495	10356
918.606	10173
918.717	10082
918.828	10192
918.939	10227
919.05	10090
919.161	10196
919.272	9945
919.383	9941
919.494	10230
919.604	10337
919.715	10166
919.826	10101
919.936	10192
920.047	10257
920.157	10207
920.267	10306
920.378	10215
920.488	10192
920.598	10341
920.708	10500
920.818	10276
920.928	10390
921.038	10504
921.148	10455
921.258	10219
921.368	10162
921.477	9998
921.587	9998
921.697	9911
921.806	10044
921.916	9911
922.025	9835
922.134	9724
922.244	9713
922.353	9793
922.462	9648
922.571	9496
922.68	9447
922.789	9439
922.898	9439
923.007	9348
923.116	9526
923.224	9439
923.333	9401
923.442	9317
923.55	9370
923.659	9321
923.767	9405
923.876	9291
923.984	9294
924.092	9207
924.201	9283
924.309	9287
924.417	9329
924.525	9233
924.633	9283
924.741	10010
924.849	9077
924.956	9214
925.064	9062
925.172	9047
925.279	9039
925.387	9146
925.494	9100
925.602	9226
925.709	9199
925.816	8979
925.924	9089
926.031	9218
926.138	9100
926.245	9165
926.352	9005
926.459	9165
926.566	9135
926.673	9043
926.779	8986
926.886	8948
926.993	8845
927.099	8819
927.206	8781
927.312	8766
927.419	8830
927.525	8811
927.631	8834
927.737	8686
927.843	8689
927.95	8560
928.056	8674
928.162	8667
928.267	8804
928.373	9332
928.479	8826
928.585	8594
928.69	8655
928.796	8727
928.901	8610
929.007	8446
929.112	8606
929.218	8560
929.323	8556
929.428	8492
929.533	8636
929.638	8503
929.743	8514
929.848	8522
929.953	8552
930.058	8476
930.163	8290
930.267	8286
930.372	8431
930.477	8252
930.581	8549
930.685	8450
930.79	8237
930.894	8229
930.998	8176
931.103	8400
931.207	8024
931.311	7909
931.415	7917
931.519	7750
931.623	7689
