Data from test_V78500241_2463.txt Node
Date: Fri Mar 25 14:50:51 CST 2022
User: usil
Spectrometer: V785-0024
Trigger mode: 0
Integration Time (sec): 4.000000E-1
Scans to average: 1
Nonlinearity correction enabled: false
Boxcar width: 0
Storing dark spectrum: false
XAxis mode: Wavelengths
Number of Pixels in Spectrum: 1024
>>>>>Begin Spectral Data<<<<<
801.071	22116
801.214	21930
801.356	21724
801.499	21606
801.641	21454
801.783	21606
801.926	21439
802.068	21291
802.211	21268
802.353	21233
802.496	21032
802.638	20960
802.78	20785
802.923	20849
803.065	20693
803.208	20788
803.35	20724
803.492	20876
803.635	20902
803.777	20701
803.919	20887
804.061	21195
804.204	20861
804.346	20720
804.488	20705
804.63	20762
804.773	20731
804.915	20712
805.057	20807
805.199	20693
805.341	20796
805.483	20819
805.626	20686
805.768	20602
805.91	20727
806.052	20796
806.194	20663
806.336	20834
806.478	20609
806.62	20625
806.762	20724
806.904	20902
807.046	21123
807.188	21093
807.33	21138
807.472	21013
807.614	20948
807.756	20967
807.898	20941
808.04	20720
808.182	20678
808.324	20804
808.465	20720
808.607	20952
808.749	21127
808.891	21138
809.033	21184
809.174	21218
809.316	21138
809.458	21154
809.6	20944
809.741	21112
809.883	21173
810.025	21405
810.166	21214
810.308	21264
810.45	21211
810.591	21051
810.733	20948
810.875	20834
811.016	20686
811.158	20895
811.299	20868
811.441	20967
811.582	20815
811.724	20823
811.865	20788
812.007	20823
812.148	20906
812.29	20861
812.431	20963
812.573	21214
812.714	21279
812.855	21306
812.997	21454
813.138	21473
813.279	21386
813.421	21321
813.562	21275
813.703	21112
813.845	21013
813.986	20739
814.127	20495
814.268	20526
814.41	20526
814.551	20488
814.692	20393
814.833	20362
814.974	20298
815.115	20343
815.256	20237
815.397	20343
815.539	20168
815.68	20229
815.821	20024
815.962	20054
816.103	20012
816.244	20008
816.385	19845
816.526	19772
816.666	19605
816.807	19540
816.948	19662
817.089	19753
817.23	19609
817.371	19552
817.512	19453
817.653	19464
817.793	19483
817.934	19460
818.075	19476
818.216	19552
818.356	19499
818.497	19365
818.638	19148
818.778	19297
818.919	19274
819.06	19240
819.2	19358
819.341	19480
819.481	19312
819.622	19548
819.762	19780
819.903	19731
820.043	19567
820.184	19582
820.324	19540
820.465	19506
820.605	19533
820.746	19514
820.886	19331
821.026	19438
821.167	19468
821.307	19533
821.447	19346
821.588	19236
821.728	19206
821.868	19099
822.008	18905
822.149	18817
822.289	19046
822.429	18661
822.569	18642
822.709	18551
822.849	18410
822.99	18467
823.13	18311
823.27	18384
823.41	18289
823.55	18182
823.69	18315
823.83	18289
823.97	18106
824.11	17946
824.25	18034
824.389	18015
824.529	18140
824.669	17988
824.809	18129
824.949	18121
825.089	17942
825.228	17961
825.368	17745
825.508	17836
825.648	17745
825.787	17783
825.927	17889
826.067	17817
826.206	17699
826.346	17863
826.485	17771
826.625	17733
826.765	17836
826.904	17756
827.044	17512
827.183	17543
827.323	17356
827.462	17554
827.601	17436
827.741	17395
827.88	17471
828.02	17311
828.159	17459
828.298	17440
828.437	17474
828.577	17459
828.716	17551
828.855	17440
828.994	17368
829.134	17288
829.273	17128
829.412	17181
829.551	17140
829.69	17185
829.829	17227
829.968	17231
830.107	17265
830.246	17208
830.385	17140
830.524	17086
830.663	17052
830.802	16896
830.941	16858
831.08	16755
831.219	16793
831.357	16953
831.496	17029
831.635	16824
831.774	16653
831.913	16653
832.051	16641
832.19	16607
832.329	16672
832.467	16459
832.606	16497
832.744	16459
832.883	16474
833.022	16360
833.16	16462
833.299	16531
833.437	16516
833.576	16554
833.714	16580
833.852	16599
833.991	16660
834.129	16622
834.267	16546
834.406	16599
834.544	16634
834.682	16679
834.821	16516
834.959	16649
835.097	16459
835.235	16771
835.373	16599
835.511	16424
835.65	16569
835.788	16489
835.926	16303
836.064	16268
836.202	16303
836.34	16580
836.478	16531
836.615	16413
836.753	16398
836.891	16489
837.029	16535
837.167	16466
837.305	16295
837.443	16337
837.58	16192
837.718	16386
837.856	16246
837.993	16299
838.131	16341
838.269	16265
838.406	16249
838.544	16310
838.681	16071
838.819	16025
838.956	15945
839.094	15949
839.231	15945
839.369	15991
839.506	16287
839.643	16204
839.781	15892
839.918	15835
840.055	15930
840.193	15857
840.33	15918
840.467	15781
840.604	15911
840.742	16116
840.879	15850
841.016	15766
841.153	15793
841.29	15960
841.427	15949
841.564	15907
841.701	15918
841.838	15762
841.975	15724
842.112	15819
842.249	15682
842.385	15576
842.522	15888
842.659	15686
842.796	15603
842.933	15603
843.069	15759
843.206	15629
843.343	15766
843.479	15648
843.616	15766
843.752	15504
843.889	15412
844.025	15633
844.162	15359
844.298	15561
844.435	15469
844.571	15473
844.708	15534
844.844	15679
844.98	15618
845.117	15488
845.253	15435
845.389	15260
845.525	15306
845.661	15382
845.798	15211
845.934	15275
846.07	15268
846.206	15393
846.342	15378
846.478	15165
846.614	14990
846.75	14994
846.886	15074
847.022	15036
847.158	14963
847.294	15062
847.429	15020
847.565	15013
847.701	15226
847.837	14834
847.972	14750
848.108	14929
848.244	14823
848.379	14693
848.515	14659
848.65	14549
848.786	14621
848.921	14708
849.057	14682
849.192	14689
849.328	14632
849.463	14583
849.598	14621
849.734	14568
849.869	14476
850.004	14374
850.14	14465
850.275	14404
850.41	14366
850.545	14263
850.68	14389
850.815	14404
850.95	14362
851.085	14606
851.22	14511
851.355	14381
851.49	14358
851.625	14313
851.76	14362
851.895	14271
852.03	14221
852.165	14427
852.299	14362
852.434	14503
852.569	14434
852.703	14442
852.838	14431
852.973	14518
853.107	14507
853.242	14393
853.376	14233
853.511	14088
853.645	14294
853.78	14385
853.914	14305
854.048	14168
854.183	14202
854.317	14336
854.451	14370
854.585	14153
854.72	14259
854.854	14237
854.988	14233
855.122	14183
855.256	14043
855.39	14259
855.524	14256
855.658	14317
855.792	14221
855.926	14267
856.06	14294
856.194	14419
856.327	14229
856.461	14206
856.595	14187
856.729	14244
856.862	14351
856.996	14313
857.13	14336
857.263	14290
857.397	14305
857.53	14221
857.664	14282
857.797	14358
857.931	14377
858.064	14275
858.197	14317
858.331	14259
858.464	14195
858.597	14119
858.731	14320
858.864	14183
858.997	14271
859.13	14282
859.263	14442
859.396	14347
859.529	14210
859.662	14130
859.795	14206
859.928	14305
860.061	14362
860.194	14366
860.327	14180
860.46	14263
860.592	14381
860.725	14377
860.858	14278
860.99	14206
861.123	14176
861.256	14180
861.388	14233
861.521	14845
861.653	14126
861.786	14172
861.918	14168
862.05	14218
862.183	14237
862.315	14343
862.447	14298
862.58	14218
862.712	14008
862.844	13974
862.976	14149
863.108	14058
863.24	14377
863.372	13974
863.504	14020
863.636	13959
863.768	14046
863.9	13993
864.032	14031
864.164	14024
864.296	14031
864.428	14206
864.559	14077
864.691	14126
864.823	14138
864.954	14062
865.086	14058
865.217	13959
865.349	13913
865.48	13944
865.612	14020
865.743	14176
865.875	14043
866.006	14016
866.137	14039
866.269	14031
866.4	13967
866.531	14043
866.662	13925
866.793	13951
866.924	13978
867.055	14126
867.186	14005
867.317	14016
867.448	13894
867.579	13871
867.71	13932
867.841	13925
867.972	13947
868.103	14024
868.233	13993
868.364	13936
868.495	14138
868.625	14221
868.756	14343
868.886	14103
869.017	14259
869.147	14336
869.278	14259
869.408	14332
869.539	14278
869.669	14381
869.799	14305
869.929	14259
870.06	14438
870.19	14640
870.32	14648
870.45	14575
870.58	14708
870.71	14785
870.84	14796
870.97	14758
871.1	14575
871.23	14845
871.36	14823
871.489	14876
871.619	14857
871.749	14807
871.879	14864
872.008	15005
872.138	14842
872.267	14826
872.397	14807
872.526	14724
872.656	14712
872.785	14678
872.915	14971
873.044	15039
873.173	14826
873.303	14933
873.432	14941
873.561	15013
873.69	14918
873.819	14921
873.948	14895
874.077	15062
874.206	14880
874.335	14876
874.464	15028
874.593	15226
874.722	15127
874.851	15256
874.979	15241
875.108	15207
875.237	15237
875.365	15116
875.494	15161
875.623	15268
875.751	15211
875.88	15321
876.008	15530
876.136	15462
876.265	15637
876.393	15778
876.521	15854
876.65	15713
876.778	15656
876.906	15595
877.034	15679
877.162	15580
877.29	15485
877.418	15724
877.546	15633
877.674	15641
877.802	15637
877.93	15679
878.058	15667
878.185	15447
878.313	15580
878.441	15667
878.568	15469
878.696	15564
878.824	15622
878.951	15690
879.079	15899
879.206	15850
879.333	15831
879.461	15709
879.588	15739
879.715	15869
879.842	15960
879.97	15675
880.097	15519
880.224	15408
880.351	15462
880.478	15500
880.605	15454
880.732	15534
880.859	15766
880.986	15526
881.112	15606
881.239	15439
881.366	15249
881.493	15214
881.619	15176
881.746	15207
881.872	15157
881.999	15199
882.125	15093
882.252	15146
882.378	15195
882.505	15275
882.631	15176
882.757	14986
882.883	15001
883.01	15020
883.136	14971
883.262	14781
883.388	14754
883.514	15024
883.64	15039
883.766	14941
883.892	14796
884.018	14792
884.143	15036
884.269	15173
884.395	14773
884.52	14674
884.646	14644
884.772	14590
884.897	14587
885.023	14636
885.148	14712
885.274	14838
885.399	14792
885.524	14724
885.65	14735
885.775	14697
885.9	14621
886.025	14819
886.15	14788
886.275	14720
886.4	14568
886.525	14587
886.65	14571
886.775	14598
886.9	14826
887.025	14891
887.149	14629
887.274	14549
887.399	14511
887.523	14473
887.648	14374
887.773	14465
887.897	14590
888.021	14549
888.146	14415
888.27	14587
888.395	14549
888.519	14499
888.643	14610
888.767	14560
888.891	14423
889.015	14317
889.139	14362
889.263	14336
889.387	14499
889.511	14602
889.635	14457
889.759	14351
889.883	14290
890.006	14427
890.13	14396
890.254	14370
890.377	14355
890.501	14134
890.624	14172
890.748	14252
890.871	14138
890.995	13978
891.118	13951
891.241	14164
891.364	14119
891.488	14275
891.611	14123
891.734	14126
891.857	14145
891.98	14138
892.103	14164
892.226	14058
892.349	14020
892.471	14046
892.594	14145
892.717	14058
892.839	13997
892.962	14134
893.085	14180
893.207	14111
893.33	13883
893.452	13986
893.575	14157
893.697	14039
893.819	14176
893.941	14355
894.064	14149
894.186	14005
894.308	14031
894.43	14153
894.552	14282
894.674	14142
894.796	13955
894.918	14107
895.04	14092
895.161	14199
895.283	14214
895.405	14115
895.526	14153
895.648	14214
895.769	14153
895.891	14218
896.012	14233
896.134	14278
896.255	14263
896.376	14191
896.498	14202
896.619	14225
896.74	14252
896.861	14351
896.982	14575
897.103	14750
897.224	14503
897.345	14438
897.466	14541
897.587	14518
897.708	14602
897.828	14564
897.949	14412
898.07	14469
898.19	14499
898.311	14541
898.431	14503
898.552	14606
898.672	14663
898.792	14644
898.913	14632
899.033	14533
899.153	14374
899.273	14339
899.393	14526
899.513	14355
899.633	14366
899.753	14484
899.873	14317
899.993	14571
900.113	14442
900.232	14552
900.352	14446
900.472	14374
900.591	14294
900.711	14210
900.83	14298
900.95	14419
901.069	14358
901.189	14320
901.308	14039
901.427	13928
901.546	13997
901.665	14100
901.784	14092
901.904	13902
902.023	13909
902.141	13586
902.26	13594
902.379	13632
902.498	13582
902.617	13578
902.735	13590
902.854	13480
902.973	13548
903.091	13422
903.21	13369
903.328	13316
903.446	13175
903.565	13171
903.683	13160
903.801	13031
903.919	13122
904.038	13103
904.156	12981
904.274	13015
904.392	12905
904.51	12897
904.627	12947
904.745	12951
904.863	13027
904.981	12791
905.098	12715
905.216	12662
905.334	12696
905.451	12635
905.569	12662
905.686	12604
905.803	12662
905.921	12380
906.038	12563
906.155	12494
906.272	12334
906.389	12357
906.506	12289
906.623	12140
906.74	12163
906.857	12064
906.974	12095
907.091	12330
907.208	12395
907.324	12247
907.441	12254
907.557	11996
907.674	12003
907.79	11935
907.907	11984
908.023	11977
908.139	11916
908.256	11920
908.372	11901
908.488	11866
908.604	11775
908.72	11657
908.836	11783
908.952	11794
909.068	11699
909.184	11798
909.3	11611
909.415	11783
909.531	11718
909.647	11562
909.762	11467
909.878	11417
909.993	11589
910.108	11379
910.224	11410
910.339	11448
910.454	11425
910.57	11364
910.685	11368
910.8	11570
910.915	11543
911.03	11425
911.145	11315
911.259	11212
911.374	11239
911.489	11181
911.604	11132
911.718	10938
911.833	11041
911.947	10828
912.062	10790
912.176	11018
912.291	10949
912.405	10949
912.519	11121
912.633	11216
912.748	11052
912.862	10991
912.976	10767
913.09	10782
913.204	10752
913.318	10828
913.431	10927
913.545	10900
913.659	10957
913.772	10839
913.886	10755
914	10691
914.113	10881
914.226	10877
914.34	10858
914.453	10683
914.566	10740
914.68	10615
914.793	10637
914.906	10466
915.019	10497
915.132	10303
915.245	10478
915.358	10519
915.47	10504
915.583	10443
915.696	10554
915.809	10675
915.921	10615
916.034	10451
916.146	10436
916.259	10436
916.371	10474
916.483	10481
916.595	10325
916.708	10440
916.82	10447
916.932	10363
917.044	10428
917.156	10367
917.268	10291
917.38	10314
917.491	10318
917.603	10276
917.715	10466
917.826	10413
917.938	10314
918.049	10158
918.161	10314
918.272	10508
918.384	10356
918.495	10303
918.606	10227
918.717	10169
918.828	10158
918.939	10215
919.05	10090
919.161	10139
919.272	9979
919.383	10093
919.494	10242
919.604	10398
919.715	10196
919.826	10211
919.936	10169
920.047	10249
920.157	10188
920.267	10344
920.378	10227
920.488	10147
920.598	10325
920.708	10512
920.818	10428
920.928	10390
921.038	10622
921.148	10588
921.258	10238
921.368	10143
921.477	10013
921.587	10067
921.697	9975
921.806	10082
921.916	9888
922.025	9770
922.134	9804
922.244	9808
922.353	9857
922.462	9644
922.571	9526
922.68	9511
922.789	9481
922.898	9420
923.007	9348
923.116	9469
923.224	9443
923.333	9473
923.442	9287
923.55	9253
923.659	9389
923.767	9370
923.876	9256
923.984	9393
924.092	9283
924.201	9298
924.309	9310
924.417	9363
924.525	9260
924.633	9218
924.741	10036
924.849	9043
924.956	9268
925.064	9070
925.172	9039
925.279	9024
925.387	9085
925.494	9077
925.602	9279
925.709	9222
925.816	8986
925.924	9150
926.031	9211
926.138	9176
926.245	9081
926.352	9047
926.459	9173
926.566	9226
926.673	9009
926.779	8921
926.886	8948
926.993	8868
927.099	8868
927.206	8815
927.312	8769
927.419	8887
927.525	8815
927.631	8861
927.737	8754
927.843	8701
927.95	8556
928.056	8697
928.162	8819
928.267	8788
928.373	9389
928.479	8807
928.585	8590
928.69	8731
928.796	8746
928.901	8682
929.007	8526
929.112	8625
929.218	8610
929.323	8541
929.428	8617
929.533	8655
929.638	8480
929.743	8552
929.848	8560
929.953	8530
930.058	8408
930.163	8309
930.267	8328
930.372	8518
930.477	8244
930.581	8579
930.685	8457
930.79	8195
930.894	8320
930.998	8237
931.103	8396
931.207	8054
931.311	8001
931.415	7951
931.519	7822
931.623	7792
