Data from test_V78500241_3115.txt Node
Date: Fri Mar 25 14:55:24 CST 2022
User: usil
Spectrometer: V785-0024
Trigger mode: 0
Integration Time (sec): 4.000000E-1
Scans to average: 1
Nonlinearity correction enabled: false
Boxcar width: 0
Storing dark spectrum: false
XAxis mode: Wavelengths
Number of Pixels in Spectrum: 1024
>>>>>Begin Spectral Data<<<<<
801.071	22078
801.214	21937
801.356	21728
801.499	21595
801.641	21367
801.783	21408
801.926	21363
802.068	21336
802.211	21477
802.353	21150
802.496	21020
802.638	20857
802.78	20834
802.923	20777
803.065	20781
803.208	20720
803.35	20769
803.492	20777
803.635	20830
803.777	20758
803.919	20758
804.061	21058
804.204	20720
804.346	20670
804.488	20712
804.63	20682
804.773	20625
804.915	20587
805.057	20765
805.199	20606
805.341	20720
805.483	20552
805.626	20678
805.768	20640
805.91	20663
806.052	20708
806.194	20575
806.336	20796
806.478	20507
806.62	20644
806.762	20693
806.904	20883
807.046	21104
807.188	21036
807.33	20933
807.472	21028
807.614	20895
807.756	20918
807.898	20727
808.04	20705
808.182	20640
808.324	20705
808.465	20845
808.607	20933
808.749	20891
808.891	21047
809.033	21192
809.174	20998
809.316	20986
809.458	21005
809.6	20937
809.741	21104
809.883	21085
810.025	21157
810.166	21074
810.308	21104
810.45	21096
810.591	21005
810.733	20914
810.875	20796
811.016	20693
811.158	20682
811.299	20876
811.441	20971
811.582	20910
811.724	20689
811.865	20750
812.007	20678
812.148	20720
812.29	20845
812.431	21005
812.573	21070
812.714	21055
812.855	21131
812.997	21332
813.138	21450
813.279	21386
813.421	21252
813.562	21237
813.703	20967
813.845	20857
813.986	20670
814.127	20533
814.268	20370
814.41	20332
814.551	20362
814.692	20408
814.833	20389
814.974	20168
815.115	20317
815.256	20180
815.397	20191
815.539	20233
815.68	20195
815.821	19993
815.962	20054
816.103	19993
816.244	19868
816.385	19807
816.526	19723
816.666	19567
816.807	19472
816.948	19597
817.089	19567
817.23	19521
817.371	19548
817.512	19491
817.653	19460
817.793	19343
817.934	19392
818.075	19438
818.216	19476
818.356	19403
818.497	19282
818.638	19171
818.778	19126
818.919	19164
819.06	19190
819.2	19206
819.341	19278
819.481	19419
819.622	19499
819.762	19677
819.903	19525
820.043	19537
820.184	19453
820.324	19430
820.465	19468
820.605	19449
820.746	19445
820.886	19236
821.026	19278
821.167	19426
821.307	19411
821.447	19343
821.588	19247
821.728	19069
821.868	18981
822.008	18901
822.149	18772
822.289	18859
822.429	18547
822.569	18589
822.709	18593
822.849	18388
822.99	18209
823.13	18319
823.27	18281
823.41	18155
823.55	18125
823.69	18140
823.83	18148
823.97	18041
824.11	17908
824.25	17935
824.389	17935
824.529	17973
824.669	17767
824.809	17999
824.949	18019
825.089	17946
825.228	17889
825.368	17687
825.508	17558
825.648	17714
825.787	17592
825.927	17668
826.067	17741
826.206	17615
826.346	17748
826.485	17722
826.625	17638
826.765	17722
826.904	17703
827.044	17398
827.183	17398
827.323	17372
827.462	17467
827.601	17459
827.741	17425
827.88	17421
828.02	17307
828.159	17330
828.298	17402
828.437	17387
828.577	17322
828.716	17482
828.855	17315
828.994	17071
829.134	17136
829.273	17132
829.412	17132
829.551	17045
829.69	17064
829.829	17067
829.968	17208
830.107	17109
830.246	17086
830.385	17086
830.524	16946
830.663	16980
830.802	16866
830.941	16607
831.08	16778
831.219	16748
831.357	16706
831.496	16946
831.635	16713
831.774	16615
831.913	16538
832.051	16550
832.19	16451
832.329	16558
832.467	16519
832.606	16402
832.744	16428
832.883	16421
833.022	16379
833.16	16443
833.299	16459
833.437	16409
833.576	16447
833.714	16569
833.852	16402
833.991	16466
834.129	16531
834.267	16462
834.406	16459
834.544	16558
834.682	16455
834.821	16421
834.959	16683
835.097	16402
835.235	16542
835.373	16497
835.511	16440
835.65	16455
835.788	16284
835.926	16226
836.064	16162
836.202	16249
836.34	16417
836.478	16485
836.615	16280
836.753	16352
836.891	16535
837.029	16489
837.167	16310
837.305	16253
837.443	16238
837.58	16215
837.718	16333
837.856	16223
837.993	16249
838.131	16341
838.269	16207
838.406	16166
838.544	16139
838.681	15949
838.819	15930
838.956	15812
839.094	15895
839.231	15812
839.369	15956
839.506	16120
839.643	15979
839.781	15899
839.918	15720
840.055	15823
840.193	15785
840.33	15766
840.467	15880
840.604	15850
840.742	15937
840.879	15587
841.016	15633
841.153	15591
841.29	15972
841.427	15774
841.564	15846
841.701	15850
841.838	15755
841.975	15766
842.112	15732
842.249	15591
842.385	15500
842.522	15728
842.659	15629
842.796	15477
842.933	15584
843.069	15561
843.206	15530
843.343	15549
843.479	15633
843.616	15614
843.752	15348
843.889	15287
844.025	15515
844.162	15485
844.298	15401
844.435	15302
844.571	15313
844.708	15374
844.844	15599
844.98	15507
845.117	15420
845.253	15256
845.389	15184
845.525	15268
845.661	15211
845.798	15161
845.934	15195
846.07	15055
846.206	15195
846.342	15283
846.478	15195
846.614	14883
846.75	14842
846.886	14944
847.022	15047
847.158	14941
847.294	14994
847.429	14910
847.565	14914
847.701	15188
847.837	14693
847.972	14629
848.108	14708
848.244	14625
848.379	14636
848.515	14522
848.65	14465
848.786	14522
848.921	14480
849.057	14598
849.192	14613
849.328	14556
849.463	14530
849.598	14564
849.734	14514
849.869	14400
850.004	14324
850.14	14377
850.275	14400
850.41	14298
850.545	14317
850.68	14267
850.815	14374
850.95	14271
851.085	14419
851.22	14377
851.355	14248
851.49	14237
851.625	14263
851.76	14275
851.895	14206
852.03	14210
852.165	14339
852.299	14370
852.434	14484
852.569	14336
852.703	14389
852.838	14343
852.973	14408
853.107	14427
853.242	14153
853.376	14199
853.511	14035
853.645	14164
853.78	14183
853.914	14275
854.048	14153
854.183	14191
854.317	14172
854.451	14355
854.585	14164
854.72	14115
854.854	14252
854.988	14062
855.122	14221
855.256	14062
855.39	14054
855.524	14244
855.658	14218
855.792	14210
855.926	14164
856.06	14180
856.194	14309
856.327	14191
856.461	14161
856.595	14176
856.729	14172
856.862	14233
856.996	14176
857.13	14263
857.263	14229
857.397	14362
857.53	14244
857.664	14157
857.797	14282
857.931	14259
858.064	14191
858.197	14301
858.331	14214
858.464	14138
858.597	14065
858.731	14145
858.864	14134
858.997	14180
859.13	14214
859.263	14229
859.396	14263
859.529	14187
859.662	14126
859.795	14103
859.928	14187
860.061	14278
860.194	14389
860.327	14115
860.46	14225
860.592	14259
860.725	14313
860.858	14237
860.99	14153
861.123	14065
861.256	14100
861.388	14035
861.521	14899
861.653	14027
861.786	14039
861.918	13993
862.05	14138
862.183	14199
862.315	14176
862.447	14301
862.58	14062
862.712	13936
862.844	13887
862.976	14077
863.108	14008
863.24	14362
863.372	13868
863.504	13955
863.636	14024
863.768	13947
863.9	14016
864.032	13963
864.164	13932
864.296	13890
864.428	14001
864.559	14012
864.691	13997
864.823	14024
864.954	14096
865.086	14016
865.217	14020
865.349	13871
865.48	14005
865.612	13906
865.743	14107
865.875	13913
866.006	13856
866.137	13982
866.269	13902
866.4	13909
866.531	13906
866.662	13887
866.793	13871
866.924	13898
867.055	13951
867.186	14020
867.317	13986
867.448	13849
867.579	13841
867.71	13936
867.841	13841
867.972	13921
868.103	13940
868.233	13883
868.364	13936
868.495	13959
868.625	14107
868.756	14218
868.886	14157
869.017	14233
869.147	14263
869.278	14358
869.408	14107
869.539	14191
869.669	14393
869.799	14286
869.929	14248
870.06	14256
870.19	14381
870.32	14499
870.45	14492
870.58	14708
870.71	14632
870.84	14674
870.97	14602
871.1	14571
871.23	14689
871.36	14811
871.489	14697
871.619	14758
871.749	14727
871.879	14765
872.008	14899
872.138	14826
872.267	14724
872.397	14598
872.526	14594
872.656	14629
872.785	14667
872.915	14777
873.044	14891
873.173	14895
873.303	14906
873.432	14830
873.561	14895
873.69	14777
873.819	14796
873.948	14986
874.077	14899
874.206	14746
874.335	14845
874.464	14906
874.593	15127
874.722	15036
874.851	15119
874.979	15043
875.108	15169
875.237	15192
875.365	15097
875.494	15138
875.623	15233
875.751	15089
875.88	15260
876.008	15306
876.136	15386
876.265	15526
876.393	15694
876.521	15652
876.65	15663
876.778	15622
876.906	15595
877.034	15545
877.162	15610
877.29	15492
877.418	15663
877.546	15561
877.674	15671
877.802	15534
877.93	15511
878.058	15428
878.185	15469
878.313	15595
878.441	15477
878.568	15370
878.696	15450
878.824	15587
878.951	15629
879.079	15747
879.206	15778
879.333	15732
879.461	15637
879.588	15675
879.715	15778
879.842	15857
879.97	15717
880.097	15416
880.224	15329
880.351	15504
880.478	15378
880.605	15363
880.732	15500
880.859	15572
880.986	15439
881.112	15530
881.239	15329
881.366	15279
881.493	15142
881.619	15062
881.746	15146
881.872	15074
881.999	14994
882.125	15001
882.252	15032
882.378	15074
882.505	15268
882.631	14960
882.757	14952
882.883	14921
883.01	14941
883.136	14845
883.262	14811
883.388	14659
883.514	14937
883.64	14986
883.766	14758
883.892	14701
884.018	14769
884.143	14811
884.269	14918
884.395	14678
884.52	14579
884.646	14625
884.772	14575
884.897	14450
885.023	14568
885.148	14735
885.274	14785
885.399	14625
885.524	14655
885.65	14655
885.775	14621
885.9	14606
886.025	14682
886.15	14644
886.275	14579
886.4	14499
886.525	14571
886.65	14454
886.775	14495
886.9	14815
887.025	14899
887.149	14583
887.274	14457
887.399	14305
887.523	14396
887.648	14328
887.773	14339
887.897	14434
888.021	14518
888.146	14358
888.27	14495
888.395	14549
888.519	14530
888.643	14590
888.767	14461
888.891	14393
889.015	14233
889.139	14339
889.263	14267
889.387	14427
889.511	14522
889.635	14446
889.759	14218
889.883	14221
890.006	14317
890.13	14396
890.254	14252
890.377	14305
890.501	14149
890.624	14084
890.748	14119
890.871	14081
890.995	13989
891.118	13849
891.241	13978
891.364	14046
891.488	14134
891.611	13970
891.734	14103
891.857	14081
891.98	13940
892.103	14081
892.226	14001
892.349	13936
892.471	13784
892.594	13917
892.717	13925
892.839	13894
892.962	13944
893.085	14081
893.207	14001
893.33	13871
893.452	13967
893.575	13982
893.697	13955
893.819	14191
893.941	14240
894.064	14153
894.186	14035
894.308	13833
894.43	14077
894.552	14206
894.674	14225
894.796	13890
894.918	14039
895.04	14123
895.161	14050
895.283	14088
895.405	14092
895.526	14027
895.648	14024
895.769	14199
895.891	14202
896.012	14259
896.134	14176
896.255	14092
896.376	14111
896.498	14100
896.619	14161
896.74	14225
896.861	14206
896.982	14533
897.103	14659
897.224	14507
897.345	14454
897.466	14290
897.587	14415
897.708	14579
897.828	14507
897.949	14370
898.07	14351
898.19	14355
898.311	14492
898.431	14427
898.552	14522
898.672	14640
898.792	14629
898.913	14541
899.033	14446
899.153	14431
899.273	14259
899.393	14339
899.513	14442
899.633	14404
899.753	14431
899.873	14328
899.993	14404
900.113	14351
900.232	14366
900.352	14374
900.472	14199
900.591	14225
900.711	14240
900.83	14153
900.95	14244
901.069	14309
901.189	14191
901.308	14001
901.427	13902
901.546	13959
901.665	13906
901.784	13997
901.904	13776
902.023	13776
902.141	13643
902.26	13518
902.379	13685
902.498	13472
902.617	13533
902.735	13567
902.854	13529
902.973	13480
903.091	13236
903.21	13152
903.328	13244
903.446	13126
903.565	13046
903.683	13080
903.801	12977
903.919	12989
904.038	13008
904.156	12814
904.274	12970
904.392	12821
904.51	12821
904.627	12856
904.745	13000
904.863	12958
904.981	12669
905.098	12631
905.216	12532
905.334	12616
905.451	12589
905.569	12597
905.686	12559
905.803	12521
905.921	12399
906.038	12483
906.155	12407
906.272	12315
906.389	12270
906.506	12228
906.623	12213
906.74	12098
906.857	12057
906.974	12011
907.091	12296
907.208	12281
907.324	12178
907.441	12034
907.557	11912
907.674	11897
907.79	11863
907.907	11863
908.023	11927
908.139	11977
908.256	11840
908.372	11840
908.488	11847
908.604	11733
908.72	11608
908.836	11615
908.952	11710
909.068	11688
909.184	11802
909.3	11642
909.415	11733
909.531	11710
909.647	11376
909.762	11490
909.878	11410
909.993	11417
910.108	11391
910.224	11490
910.339	11402
910.454	11391
910.57	11250
910.685	11143
910.8	11474
910.915	11554
911.03	11322
911.145	11170
911.259	11056
911.374	11143
911.489	11064
911.604	10934
911.718	10877
911.833	10869
911.947	10721
912.062	10694
912.176	10869
912.291	10824
912.405	10900
912.519	11124
912.633	11147
912.748	10930
912.862	10854
912.976	10797
913.09	10664
913.204	10714
913.318	10759
913.431	10889
913.545	10809
913.659	10972
913.772	10847
913.886	10691
914	10660
914.113	10748
914.226	10793
914.34	10778
914.453	10489
914.566	10782
914.68	10656
914.793	10611
914.906	10462
915.019	10417
915.132	10409
915.245	10379
915.358	10428
915.47	10398
915.583	10409
915.696	10451
915.809	10611
915.921	10512
916.034	10333
916.146	10371
916.259	10314
916.371	10474
916.483	10390
916.595	10356
916.708	10360
916.82	10402
916.932	10295
917.044	10253
917.156	10265
917.268	10265
917.38	10124
917.491	10211
917.603	10230
917.715	10261
917.826	10367
917.938	10192
918.049	10169
918.161	10295
918.272	10379
918.384	10424
918.495	10253
918.606	10154
918.717	10063
918.828	10169
918.939	10204
919.05	9983
919.161	10162
919.272	9941
919.383	9975
919.494	10154
919.604	10276
919.715	10131
919.826	10086
919.936	10067
920.047	10150
920.157	10143
920.267	10322
920.378	10150
920.488	10101
920.598	10375
920.708	10489
920.818	10322
920.928	10303
921.038	10519
921.148	10443
921.258	10211
921.368	10105
921.477	10021
921.587	10036
921.697	9892
921.806	10017
921.916	9926
922.025	9732
922.134	9728
922.244	9652
922.353	9804
922.462	9584
922.571	9603
922.68	9447
922.789	9367
922.898	9412
923.007	9279
923.116	9466
923.224	9367
923.333	9370
923.442	9298
923.55	9302
923.659	9245
923.767	9359
923.876	9253
923.984	9367
924.092	9188
924.201	9306
924.309	9256
924.417	9310
924.525	9176
924.633	9230
924.741	10158
924.849	8986
924.956	9157
925.064	9039
925.172	8998
925.279	9009
925.387	9093
925.494	9074
925.602	9142
925.709	9188
925.816	9009
925.924	9036
926.031	9131
926.138	9093
926.245	9089
926.352	8990
926.459	9093
926.566	9207
926.673	9093
926.779	8960
926.886	8921
926.993	8887
927.099	8807
927.206	8773
927.312	8785
927.419	8838
927.525	8735
927.631	8834
927.737	8705
927.843	8625
927.95	8541
928.056	8636
928.162	8663
928.267	8712
928.373	9237
928.479	8773
928.585	8568
928.69	8674
928.796	8743
928.901	8632
929.007	8431
929.112	8552
929.218	8560
929.323	8564
929.428	8484
929.533	8659
929.638	8419
929.743	8438
929.848	8556
929.953	8492
930.058	8408
930.163	8286
930.267	8279
930.372	8317
930.477	8286
930.581	8446
930.685	8259
930.79	8164
930.894	8244
930.998	8195
931.103	8336
931.207	8054
931.311	7993
931.415	7852
931.519	7772
931.623	7651
