Data from test_V78500241_1728.txt Node
Date: Fri Mar 25 14:45:44 CST 2022
User: usil
Spectrometer: V785-0024
Trigger mode: 0
Integration Time (sec): 4.000000E-1
Scans to average: 1
Nonlinearity correction enabled: false
Boxcar width: 0
Storing dark spectrum: false
XAxis mode: Wavelengths
Number of Pixels in Spectrum: 1024
>>>>>Begin Spectral Data<<<<<
801.071	22234
801.214	22192
801.356	21934
801.499	21705
801.641	21751
801.783	21614
801.926	21542
802.068	21450
802.211	21549
802.353	21344
802.496	21195
802.638	21077
802.78	21055
802.923	21089
803.065	20956
803.208	20853
803.35	20887
803.492	20956
803.635	21051
803.777	20967
803.919	20933
804.061	21325
804.204	20963
804.346	20925
804.488	20773
804.63	20880
804.773	20944
804.915	20849
805.057	20998
805.199	20845
805.341	20986
805.483	21096
805.626	20956
805.768	20895
805.91	20876
806.052	20910
806.194	20804
806.336	20998
806.478	20880
806.62	20872
806.762	20880
806.904	21096
807.046	21348
807.188	21249
807.33	21150
807.472	21355
807.614	21081
807.756	21123
807.898	20975
808.04	20857
808.182	20960
808.324	21036
808.465	21032
808.607	21066
808.749	21275
808.891	21420
809.033	21454
809.174	21428
809.316	21252
809.458	21344
809.6	21287
809.741	21310
809.883	21431
810.025	21416
810.166	21469
810.308	21424
810.45	21435
810.591	21325
810.733	21077
810.875	20960
811.016	21074
811.158	21051
811.299	20948
811.441	21104
811.582	21192
811.724	21104
811.865	21047
812.007	21070
812.148	20979
812.29	21085
812.431	21207
812.573	21260
812.714	21325
812.855	21542
812.997	21633
813.138	21641
813.279	21557
813.421	21454
813.562	21504
813.703	21268
813.845	21211
813.986	20823
814.127	20804
814.268	20606
814.41	20602
814.551	20583
814.692	20659
814.833	20374
814.974	20594
815.115	20667
815.256	20473
815.397	20533
815.539	20400
815.68	20313
815.821	20317
815.962	20294
816.103	20332
816.244	20126
816.385	20043
816.526	20111
816.666	19890
816.807	19746
816.948	19795
817.089	19757
817.23	19753
817.371	19746
817.512	19738
817.653	19738
817.793	19784
817.934	19727
818.075	19830
818.216	19769
818.356	19628
818.497	19434
818.638	19407
818.778	19362
818.919	19358
819.06	19373
819.2	19514
819.341	19544
819.481	19655
819.622	19788
819.762	19890
819.903	19898
820.043	19830
820.184	19643
820.324	19753
820.465	19757
820.605	19685
820.746	19700
820.886	19582
821.026	19533
821.167	19681
821.307	19814
821.447	19670
821.588	19567
821.728	19426
821.868	19137
822.008	19046
822.149	18993
822.289	19152
822.429	18840
822.569	18802
822.709	18867
822.849	18677
822.99	18639
823.13	18525
823.27	18540
823.41	18445
823.55	18342
823.69	18532
823.83	18471
823.97	18441
824.11	18239
824.25	18144
824.389	18140
824.529	18251
824.669	18072
824.809	18239
824.949	18262
825.089	18232
825.228	18213
825.368	18155
825.508	17935
825.648	18003
825.787	17969
825.927	17958
826.067	17741
826.206	17923
826.346	17996
826.485	17912
826.625	17897
826.765	18072
826.904	17908
827.044	17741
827.183	17687
827.323	17577
827.462	17737
827.601	17608
827.741	17619
827.88	17699
828.02	17562
828.159	17577
828.298	17722
828.437	17668
828.577	17532
828.716	17821
828.855	17661
828.994	17467
829.134	17406
829.273	17406
829.412	17474
829.551	17353
829.69	17379
829.829	17376
829.968	17490
830.107	17482
830.246	17433
830.385	17372
830.524	17303
830.663	17216
830.802	17109
830.941	17090
831.08	16984
831.219	17178
831.357	17071
831.496	17261
831.635	17064
831.774	16900
831.913	16927
832.051	16980
832.19	16919
832.329	16858
832.467	16660
832.606	16649
832.744	16710
832.883	16744
833.022	16706
833.16	16885
833.299	16786
833.437	16706
833.576	16782
833.714	16774
833.852	16881
833.991	16858
834.129	16717
834.267	16675
834.406	16748
834.544	16736
834.682	16771
834.821	16771
834.959	16866
835.097	16729
835.235	16991
835.373	16892
835.511	16850
835.65	16649
835.788	16653
835.926	16470
836.064	16424
836.202	16432
836.34	16679
836.478	16713
836.615	16672
836.753	16599
836.891	16854
837.029	16603
837.167	16683
837.305	16580
837.443	16569
837.58	16500
837.718	16554
837.856	16588
837.993	16459
838.131	16489
838.269	16493
838.406	16440
838.544	16451
838.681	16238
838.819	16299
838.956	16051
839.094	16086
839.231	16166
839.369	16207
839.506	16542
839.643	16268
839.781	16154
839.918	15998
840.055	16082
840.193	16063
840.33	15937
840.467	16116
840.604	16055
840.742	16276
840.879	15975
841.016	16029
841.153	15915
841.29	16215
841.427	16063
841.564	16090
841.701	16067
841.838	15964
841.975	16067
842.112	16059
842.249	15895
842.385	15804
842.522	15918
842.659	15907
842.796	15785
842.933	15808
843.069	15785
843.206	15819
843.343	15937
843.479	15949
843.616	15823
843.752	15701
843.889	15652
844.025	15808
844.162	15644
844.298	15876
844.435	15663
844.571	15625
844.708	15675
844.844	15717
844.98	15793
845.117	15682
845.253	15591
845.389	15504
845.525	15511
845.661	15496
845.798	15485
845.934	15580
846.07	15443
846.206	15447
846.342	15557
846.478	15428
846.614	15237
846.75	15184
846.886	15131
847.022	15310
847.158	15218
847.294	15135
847.429	15256
847.565	15142
847.701	15496
847.837	14944
847.972	14960
848.108	15009
848.244	15009
848.379	14861
848.515	14785
848.65	14796
848.786	14804
848.921	14857
849.057	14971
849.192	14861
849.328	14788
849.463	14758
849.598	14769
849.734	14659
849.869	14739
850.004	14648
850.14	14667
850.275	14655
850.41	14560
850.545	14575
850.68	14594
850.815	14575
850.95	14537
851.085	14792
851.22	14678
851.355	14583
851.49	14537
851.625	14537
851.76	14571
851.895	14374
852.03	14412
852.165	14514
852.299	14579
852.434	14594
852.569	14541
852.703	14610
852.838	14610
852.973	14712
853.107	14610
853.242	14530
853.376	14457
853.511	14370
853.645	14324
853.78	14465
853.914	14495
854.048	14434
854.183	14396
854.317	14457
854.451	14632
854.585	14431
854.72	14404
854.854	14545
854.988	14434
855.122	14396
855.256	14275
855.39	14427
855.524	14541
855.658	14476
855.792	14434
855.926	14533
856.06	14438
856.194	14522
856.327	14438
856.461	14427
856.595	14377
856.729	14473
856.862	14556
856.996	14408
857.13	14514
857.263	14564
857.397	14556
857.53	14545
857.664	14495
857.797	14549
857.931	14530
858.064	14526
858.197	14583
858.331	14454
858.464	14408
858.597	14309
858.731	14423
858.864	14423
858.997	14400
859.13	14499
859.263	14377
859.396	14564
859.529	14450
859.662	14434
859.795	14396
859.928	14511
860.061	14590
860.194	14659
860.327	14541
860.46	14324
860.592	14583
860.725	14522
860.858	14537
860.99	14404
861.123	14324
861.256	14187
861.388	14419
861.521	15066
861.653	14320
861.786	14259
861.918	14286
862.05	14298
862.183	14400
862.315	14419
862.447	14412
862.58	14454
862.712	14157
862.844	14149
862.976	14237
863.108	14305
863.24	14545
863.372	14138
863.504	14191
863.636	14218
863.768	14259
863.9	14180
864.032	14237
864.164	14172
864.296	14229
864.428	14336
864.559	14317
864.691	14351
864.823	14252
864.954	14282
865.086	14298
865.217	14278
865.349	14161
865.48	14168
865.612	14263
865.743	14290
865.875	14271
866.006	14187
866.137	14225
866.269	14161
866.4	14301
866.531	14020
866.662	14084
866.793	14012
866.924	14130
867.055	14252
867.186	14202
867.317	14149
867.448	14142
867.579	14081
867.71	14062
867.841	14016
867.972	14153
868.103	14286
868.233	14256
868.364	14206
868.495	14256
868.625	14377
868.756	14564
868.886	14366
869.017	14461
869.147	14495
869.278	14568
869.408	14480
869.539	14423
869.669	14495
869.799	14492
869.929	14556
870.06	14564
870.19	14826
870.32	14712
870.45	14800
870.58	14807
870.71	15039
870.84	14906
870.97	14804
871.1	14785
871.23	15093
871.36	15051
871.489	14971
871.619	15093
871.749	15020
871.879	15024
872.008	15135
872.138	14994
872.267	15051
872.397	14971
872.526	14811
872.656	14918
872.785	14956
872.915	15119
873.044	15176
873.173	15077
873.303	15207
873.432	15093
873.561	15230
873.69	15146
873.819	15154
873.948	15093
874.077	14990
874.206	15070
874.335	15100
874.464	15249
874.593	15260
874.722	15408
874.851	15488
874.979	15378
875.108	15473
875.237	15287
875.365	15294
875.494	15351
875.623	15507
875.751	15485
875.88	15397
876.008	15538
876.136	15648
876.265	15766
876.393	15949
876.521	15903
876.65	15972
876.778	15770
876.906	15797
877.034	15835
877.162	15861
877.29	15766
877.418	15797
877.546	15774
877.674	15915
877.802	15827
877.93	15842
878.058	15724
878.185	15663
878.313	15854
878.441	15869
878.568	15660
878.696	15717
878.824	15865
878.951	15918
879.079	15956
879.206	16055
879.333	16032
879.461	15968
879.588	15949
879.715	16021
879.842	16120
879.97	15869
880.097	15622
880.224	15652
880.351	15724
880.478	15622
880.605	15694
880.732	15656
880.859	15751
880.986	15690
881.112	15736
881.239	15568
881.366	15428
881.493	15325
881.619	15336
881.746	15252
881.872	15325
881.999	15237
882.125	15264
882.252	15283
882.378	15332
882.505	15523
882.631	15199
882.757	15207
882.883	15245
883.01	15157
883.136	15062
883.262	15058
883.388	14986
883.514	15154
883.64	15188
883.766	15036
883.892	14895
884.018	14963
884.143	15138
884.269	15184
884.395	14845
884.52	14792
884.646	14956
884.772	14746
884.897	14689
885.023	14815
885.148	14838
885.274	15005
885.399	14982
885.524	14720
885.65	14902
885.775	14876
885.9	14876
886.025	15017
886.15	14910
886.275	14849
886.4	14686
886.525	14826
886.65	14765
886.775	14750
886.9	14868
887.025	15017
887.149	14857
887.274	14815
887.399	14678
887.523	14621
887.648	14602
887.773	14495
887.897	14689
888.021	14754
888.146	14655
888.27	14686
888.395	14868
888.519	14739
888.643	14705
888.767	14815
888.891	14587
889.015	14549
889.139	14492
889.263	14533
889.387	14686
889.511	14716
889.635	14701
889.759	14438
889.883	14511
890.006	14636
890.13	14587
890.254	14415
890.377	14518
890.501	14351
890.624	14362
890.748	14454
890.871	14248
890.995	14206
891.118	14077
891.241	14214
891.364	14256
891.488	14301
891.611	14218
891.734	14218
891.857	14267
891.98	14233
892.103	14358
892.226	14229
892.349	14240
892.471	14046
892.594	14157
892.717	14298
892.839	14252
892.962	14191
893.085	14282
893.207	14256
893.33	14073
893.452	14183
893.575	14267
893.697	14267
893.819	14339
893.941	14480
894.064	14351
894.186	14138
894.308	14145
894.43	14377
894.552	14412
894.674	14317
894.796	14267
894.918	14195
895.04	14240
895.161	14320
895.283	14298
895.405	14286
895.526	14339
895.648	14248
895.769	14385
895.891	14374
896.012	14442
896.134	14442
896.255	14336
896.376	14305
896.498	14301
896.619	14446
896.74	14343
896.861	14362
896.982	14708
897.103	14902
897.224	14667
897.345	14568
897.466	14674
897.587	14689
897.708	14701
897.828	14678
897.949	14640
898.07	14541
898.19	14648
898.311	14708
898.431	14568
898.552	14731
898.672	14765
898.792	14899
898.913	14670
899.033	14590
899.153	14667
899.273	14450
899.393	14541
899.513	14583
899.633	14663
899.753	14682
899.873	14655
899.993	14640
900.113	14625
900.232	14644
900.352	14629
900.472	14545
900.591	14415
900.711	14461
900.83	14374
900.95	14541
901.069	14556
901.189	14431
901.308	14202
901.427	14123
901.546	14161
901.665	14180
901.784	14168
901.904	14012
902.023	13959
902.141	13757
902.26	13609
902.379	13734
902.498	13784
902.617	13674
902.735	13696
902.854	13731
902.973	13537
903.091	13430
903.21	13335
903.328	13449
903.446	13354
903.565	13255
903.683	13247
903.801	13221
903.919	13244
904.038	13198
904.156	13061
904.274	13164
904.392	12977
904.51	13027
904.627	13057
904.745	13080
904.863	13133
904.981	12897
905.098	12753
905.216	12711
905.334	12810
905.451	12700
905.569	12738
905.686	12825
905.803	12734
905.921	12566
906.038	12669
906.155	12528
906.272	12494
906.389	12551
906.506	12281
906.623	12464
906.74	12391
906.857	12270
906.974	12266
907.091	12471
907.208	12502
907.324	12426
907.441	12152
907.557	12121
907.674	12095
907.79	12019
907.907	12068
908.023	12076
908.139	12076
908.256	12064
908.372	12049
908.488	11931
908.604	11920
908.72	11703
908.836	11901
908.952	11809
909.068	11817
909.184	11885
909.3	11885
909.415	11863
909.531	11855
909.647	11699
909.762	11634
909.878	11657
909.993	11680
910.108	11695
910.224	11547
910.339	11676
910.454	11570
910.57	11471
910.685	11368
910.8	11718
910.915	11634
911.03	11558
911.145	11326
911.259	11250
911.374	11356
911.489	11246
911.604	11197
911.718	11151
911.833	11170
911.947	10965
912.062	10934
912.176	11022
912.291	11067
912.405	11079
912.519	11254
912.633	11303
912.748	11124
912.862	11117
912.976	11018
913.09	10862
913.204	10896
913.318	10942
913.431	11003
913.545	11033
913.659	11006
913.772	10995
913.886	10847
914	10854
914.113	10869
914.226	10968
914.34	10965
914.453	10691
914.566	10900
914.68	10816
914.793	10771
914.906	10622
915.019	10592
915.132	10497
915.245	10569
915.358	10592
915.47	10615
915.583	10672
915.696	10626
915.809	10702
915.921	10714
916.034	10546
916.146	10527
916.259	10523
916.371	10675
916.483	10607
916.595	10459
916.708	10512
916.82	10417
916.932	10455
917.044	10531
917.156	10497
917.268	10360
917.38	10500
917.491	10413
917.603	10386
917.715	10470
917.826	10565
917.938	10341
918.049	10318
918.161	10329
918.272	10500
918.384	10577
918.495	10470
918.606	10325
918.717	10139
918.828	10291
918.939	10287
919.05	10173
919.161	10299
919.272	10032
919.383	10135
919.494	10348
919.604	10519
919.715	10185
919.826	10238
919.936	10390
920.047	10329
920.157	10367
920.267	10481
920.378	10356
920.488	10344
920.598	10489
920.708	10615
920.818	10421
920.928	10470
921.038	10710
921.148	10603
921.258	10344
921.368	10200
921.477	10181
921.587	10124
921.697	10002
921.806	10188
921.916	10032
922.025	9903
922.134	9880
922.244	9781
922.353	9907
922.462	9808
922.571	9709
922.68	9542
922.789	9477
922.898	9549
923.007	9481
923.116	9622
923.224	9466
923.333	9599
923.442	9466
923.55	9450
923.659	9408
923.767	9534
923.876	9386
923.984	9408
924.092	9317
924.201	9412
924.309	9466
924.417	9466
924.525	9405
924.633	9348
924.741	10325
924.849	9161
924.956	9325
925.064	9230
925.172	9154
925.279	9199
925.387	9233
925.494	9188
925.602	9378
925.709	9264
925.816	9184
925.924	9154
926.031	9256
926.138	9222
926.245	9268
926.352	9070
926.459	9291
926.566	9291
926.673	9150
926.779	9013
926.886	9043
926.993	8971
927.099	8887
927.206	8845
927.312	8864
927.419	8918
927.525	8921
927.631	8986
927.737	8838
927.843	8811
927.95	8686
928.056	8720
928.162	8769
928.267	8845
928.373	9526
928.479	8921
928.585	8636
928.69	8800
928.796	8788
928.901	8727
929.007	8602
929.112	8823
929.218	8625
929.323	8606
929.428	8655
929.533	8773
929.638	8541
929.743	8590
929.848	8651
929.953	8667
930.058	8598
930.163	8366
930.267	8415
930.372	8518
930.477	8355
930.581	8484
930.685	8465
930.79	8374
930.894	8393
930.998	8263
931.103	8454
931.207	8084
931.311	8096
931.415	8027
931.519	7898
931.623	7811
