Data from test_V78500241_2637.txt Node
Date: Fri Mar 25 14:52:04 CST 2022
User: usil
Spectrometer: V785-0024
Trigger mode: 0
Integration Time (sec): 4.000000E-1
Scans to average: 1
Nonlinearity correction enabled: false
Boxcar width: 0
Storing dark spectrum: false
XAxis mode: Wavelengths
Number of Pixels in Spectrum: 1024
>>>>>Begin Spectral Data<<<<<
801.071	21968
801.214	21846
801.356	21530
801.499	21519
801.641	21405
801.783	21294
801.926	21386
802.068	21249
802.211	21233
802.353	21108
802.496	20925
802.638	20826
802.78	20777
802.923	20625
803.065	20655
803.208	20552
803.35	20609
803.492	20735
803.635	20686
803.777	20621
803.919	20746
804.061	21032
804.204	20785
804.346	20587
804.488	20457
804.63	20587
804.773	20552
804.915	20564
805.057	20617
805.199	20518
805.341	20556
805.483	20545
805.626	20571
805.768	20492
805.91	20640
806.052	20476
806.194	20488
806.336	20636
806.478	20556
806.62	20609
806.762	20549
806.904	20823
807.046	20880
807.188	20800
807.33	20921
807.472	20921
807.614	20708
807.756	20868
807.898	20670
808.04	20632
808.182	20708
808.324	20629
808.465	20758
808.607	20720
808.749	21024
808.891	21077
809.033	21108
809.174	21001
809.316	20853
809.458	20887
809.6	20838
809.741	20971
809.883	21020
810.025	20982
810.166	21070
810.308	21066
810.45	20982
810.591	20948
810.733	20807
810.875	20689
811.016	20469
811.158	20632
811.299	20788
811.441	20762
811.582	20823
811.724	20632
811.865	20670
812.007	20765
812.148	20644
812.29	20727
812.431	20910
812.573	21077
812.714	21142
812.855	21070
812.997	21283
813.138	21351
813.279	21389
813.421	21165
813.562	21093
813.703	20895
813.845	20701
813.986	20602
814.127	20404
814.268	20218
814.41	20305
814.551	20225
814.692	20275
814.833	20157
814.974	20218
815.115	20107
815.256	20020
815.397	20054
815.539	20088
815.68	20046
815.821	19913
815.962	20005
816.103	20016
816.244	19894
816.385	19818
816.526	19712
816.666	19514
816.807	19419
816.948	19480
817.089	19400
817.23	19381
817.371	19343
817.512	19403
817.653	19426
817.793	19274
817.934	19358
818.075	19289
818.216	19255
818.356	19327
818.497	19152
818.638	18977
818.778	19031
818.919	19053
819.06	19137
819.2	19160
819.341	19232
819.481	19175
819.622	19350
819.762	19487
819.903	19487
820.043	19487
820.184	19373
820.324	19430
820.465	19381
820.605	19263
820.746	19339
820.886	19251
821.026	19457
821.167	19285
821.307	19343
821.447	19247
821.588	19247
821.728	19057
821.868	18985
822.008	18837
822.149	18871
822.289	18753
822.429	18551
822.569	18513
822.709	18448
822.849	18254
822.99	18178
823.13	18243
823.27	18216
823.41	18083
823.55	18045
823.69	18235
823.83	18148
823.97	18064
824.11	17847
824.25	17813
824.389	17786
824.529	17908
824.669	17805
824.809	17897
824.949	17901
825.089	17843
825.228	17916
825.368	17638
825.508	17680
825.648	17638
825.787	17707
825.927	17615
826.067	17638
826.206	17573
826.346	17756
826.485	17710
826.625	17600
826.765	17764
826.904	17710
827.044	17360
827.183	17360
827.323	17277
827.462	17433
827.601	17261
827.741	17284
827.88	17364
828.02	17250
828.159	17307
828.298	17307
828.437	17398
828.577	17322
828.716	17436
828.855	17216
828.994	17178
829.134	17010
829.273	17067
829.412	17033
829.551	17018
829.69	17060
829.829	17067
829.968	17147
830.107	17083
830.246	17117
830.385	17018
830.524	16999
830.663	16953
830.802	16812
830.941	16721
831.08	16763
831.219	16763
831.357	16774
831.496	16881
831.635	16649
831.774	16554
831.913	16656
832.051	16497
832.19	16596
832.329	16531
832.467	16390
832.606	16451
832.744	16337
832.883	16390
833.022	16455
833.16	16432
833.299	16421
833.437	16413
833.576	16432
833.714	16352
833.852	16382
833.991	16455
834.129	16519
834.267	16607
834.406	16398
834.544	16436
834.682	16637
834.821	16447
834.959	16721
835.097	16417
835.235	16500
835.373	16512
835.511	16474
835.65	16299
835.788	16356
835.926	16150
836.064	16223
836.202	16230
836.34	16375
836.478	16436
836.615	16318
836.753	16466
836.891	16519
837.029	16413
837.167	16386
837.305	16188
837.443	16284
837.58	16253
837.718	16360
837.856	16234
837.993	16192
838.131	16234
838.269	16158
838.406	16188
838.544	16185
838.681	16021
838.819	15911
838.956	15808
839.094	15778
839.231	15854
839.369	16017
839.506	16234
839.643	16029
839.781	15823
839.918	15873
840.055	15793
840.193	15793
840.33	15827
840.467	15838
840.604	15842
840.742	16078
840.879	15675
841.016	15774
841.153	15694
841.29	15850
841.427	15804
841.564	15949
841.701	15846
841.838	15713
841.975	15698
842.112	15762
842.249	15568
842.385	15564
842.522	15819
842.659	15561
842.796	15584
842.933	15553
843.069	15599
843.206	15568
843.343	15629
843.479	15576
843.616	15538
843.752	15416
843.889	15370
844.025	15538
844.162	15355
844.298	15504
844.435	15359
844.571	15344
844.708	15454
844.844	15462
844.98	15549
845.117	15496
845.253	15412
845.389	15279
845.525	15348
845.661	15264
845.798	15165
845.934	15203
846.07	15195
846.206	15237
846.342	15294
846.478	15116
846.614	14933
846.75	14899
846.886	14925
847.022	15093
847.158	14979
847.294	15055
847.429	14967
847.565	14944
847.701	15222
847.837	14720
847.972	14731
848.108	14785
848.244	14788
848.379	14579
848.515	14590
848.65	14549
848.786	14606
848.921	14610
849.057	14754
849.192	14819
849.328	14575
849.463	14549
849.598	14484
849.734	14450
849.869	14423
850.004	14313
850.14	14438
850.275	14336
850.41	14305
850.545	14263
850.68	14332
850.815	14332
850.95	14393
851.085	14522
851.22	14370
851.355	14347
851.49	14282
851.625	14305
851.76	14248
851.895	14240
852.03	14172
852.165	14271
852.299	14355
852.434	14389
852.569	14305
852.703	14275
852.838	14385
852.973	14526
853.107	14400
853.242	14240
853.376	14214
853.511	14199
853.645	14092
853.78	14324
853.914	14180
854.048	14221
854.183	14153
854.317	14214
854.451	14431
854.585	14123
854.72	14214
854.854	14301
854.988	14278
855.122	14195
855.256	13967
855.39	14317
855.524	14305
855.658	14218
855.792	14225
855.926	14187
856.06	14252
856.194	14309
856.327	14271
856.461	14100
856.595	14123
856.729	14142
856.862	14313
856.996	14187
857.13	14278
857.263	14358
857.397	14328
857.53	14187
857.664	14248
857.797	14355
857.931	14358
858.064	14267
858.197	14343
858.331	14225
858.464	14233
858.597	14214
858.731	14199
858.864	14259
858.997	14107
859.13	14176
859.263	14225
859.396	14332
859.529	14267
859.662	14237
859.795	14187
859.928	14412
860.061	14419
860.194	14278
860.327	14263
860.46	14221
860.592	14355
860.725	14324
860.858	14358
860.99	14161
861.123	14161
861.256	14164
861.388	14271
861.521	14735
861.653	14111
861.786	14020
861.918	14103
862.05	14172
862.183	14107
862.315	14218
862.447	14263
862.58	14218
862.712	14065
862.844	14008
862.976	13986
863.108	14043
863.24	14404
863.372	13970
863.504	13932
863.636	14027
863.768	14096
863.9	14054
864.032	14024
864.164	14020
864.296	14046
864.428	14206
864.559	14050
864.691	14107
864.823	14172
864.954	14065
865.086	14107
865.217	13932
865.349	13974
865.48	13944
865.612	14065
865.743	14145
865.875	13959
866.006	13993
866.137	13974
866.269	14035
866.4	13963
866.531	13928
866.662	14046
866.793	13989
866.924	13989
867.055	14054
867.186	14073
867.317	13925
867.448	13883
867.579	13913
867.71	13951
867.841	13932
867.972	14016
868.103	14111
868.233	14062
868.364	14031
868.495	14107
868.625	14324
868.756	14339
868.886	14107
869.017	14237
869.147	14370
869.278	14244
869.408	14324
869.539	14256
869.669	14377
869.799	14233
869.929	14370
870.06	14393
870.19	14648
870.32	14568
870.45	14552
870.58	14583
870.71	14686
870.84	14769
870.97	14663
871.1	14659
871.23	14849
871.36	14853
871.489	14693
871.619	14830
871.749	14743
871.879	14800
872.008	14925
872.138	14910
872.267	14899
872.397	14708
872.526	14571
872.656	14686
872.785	14731
872.915	14944
873.044	14956
873.173	14838
873.303	14944
873.432	14948
873.561	14975
873.69	14902
873.819	14971
873.948	15020
874.077	14842
874.206	14861
874.335	14868
874.464	15051
874.593	15279
874.722	15081
874.851	15348
874.979	15218
875.108	15241
875.237	15146
875.365	15039
875.494	15226
875.623	15260
875.751	15176
875.88	15298
876.008	15424
876.136	15473
876.265	15656
876.393	15778
876.521	15717
876.65	15724
876.778	15648
876.906	15610
877.034	15603
877.162	15576
877.29	15542
877.418	15629
877.546	15526
877.674	15652
877.802	15599
877.93	15656
878.058	15599
878.185	15488
878.313	15660
878.441	15663
878.568	15507
878.696	15572
878.824	15720
878.951	15637
879.079	15823
879.206	15968
879.333	15827
879.461	15705
879.588	15793
879.715	15808
879.842	15937
879.97	15717
880.097	15492
880.224	15454
880.351	15545
880.478	15507
880.605	15363
880.732	15473
880.859	15755
880.986	15519
881.112	15545
881.239	15462
881.366	15283
881.493	15211
881.619	15199
881.746	15154
881.872	15100
881.999	15093
882.125	15108
882.252	15195
882.378	15089
882.505	15332
882.631	15074
882.757	15047
882.883	15081
883.01	15009
883.136	14914
883.262	14857
883.388	14834
883.514	15032
883.64	15081
883.766	14921
883.892	14773
884.018	14819
884.143	15032
884.269	15051
884.395	14788
884.52	14750
884.646	14765
884.772	14594
884.897	14602
885.023	14796
885.148	14815
885.274	14800
885.399	14651
885.524	14621
885.65	14701
885.775	14804
885.9	14594
886.025	14689
886.15	14758
886.275	14579
886.4	14549
886.525	14602
886.65	14617
886.775	14598
886.9	14739
887.025	14880
887.149	14705
887.274	14469
887.399	14396
887.523	14526
887.648	14457
887.773	14446
887.897	14587
888.021	14640
888.146	14469
888.27	14689
888.395	14632
888.519	14526
888.643	14480
888.767	14507
888.891	14324
889.015	14362
889.139	14427
889.263	14362
889.387	14442
889.511	14533
889.635	14434
889.759	14309
889.883	14267
890.006	14461
890.13	14518
890.254	14317
890.377	14317
890.501	14370
890.624	14168
890.748	14191
890.871	14077
890.995	14107
891.118	13978
891.241	14054
891.364	14069
891.488	14218
891.611	14081
891.734	14008
891.857	14229
891.98	14149
892.103	14183
892.226	14130
892.349	14031
892.471	13894
892.594	14043
892.717	14157
892.839	13963
892.962	14119
893.085	14134
893.207	14065
893.33	13906
893.452	13868
893.575	14100
893.697	13978
893.819	14237
893.941	14244
894.064	14103
894.186	13947
894.308	14008
894.43	14278
894.552	14309
894.674	14195
894.796	14046
894.918	14050
895.04	14062
895.161	14161
895.283	14252
895.405	14153
895.526	14237
895.648	14195
895.769	14187
895.891	14263
896.012	14218
896.134	14237
896.255	14199
896.376	14103
896.498	14267
896.619	14351
896.74	14195
896.861	14214
896.982	14530
897.103	14587
897.224	14579
897.345	14450
897.466	14347
897.587	14480
897.708	14469
897.828	14571
897.949	14446
898.07	14377
898.19	14522
898.311	14674
898.431	14446
898.552	14522
898.672	14678
898.792	14663
898.913	14541
899.033	14461
899.153	14492
899.273	14317
899.393	14412
899.513	14446
899.633	14419
899.753	14419
899.873	14381
899.993	14507
900.113	14438
900.232	14438
900.352	14465
900.472	14298
900.591	14240
900.711	14294
900.83	14248
900.95	14465
901.069	14328
901.189	14237
901.308	13974
901.427	13959
901.546	13830
901.665	13986
901.784	13993
901.904	13909
902.023	13822
902.141	13521
902.26	13548
902.379	13670
902.498	13521
902.617	13499
902.735	13540
902.854	13426
902.973	13514
903.091	13316
903.21	13244
903.328	13293
903.446	13266
903.565	13160
903.683	13156
903.801	13008
903.919	13110
904.038	12977
904.156	12935
904.274	12981
904.392	12981
904.51	12871
904.627	12943
904.745	12943
904.863	12973
904.981	12753
905.098	12711
905.216	12639
905.334	12681
905.451	12673
905.569	12608
905.686	12627
905.803	12639
905.921	12486
906.038	12559
906.155	12441
906.272	12365
906.389	12403
906.506	12235
906.623	12247
906.74	12159
906.857	12068
906.974	12152
907.091	12285
907.208	12346
907.324	12262
907.441	12148
907.557	12011
907.674	11965
907.79	11866
907.907	11901
908.023	11954
908.139	11980
908.256	11946
908.372	11893
908.488	11840
908.604	11790
908.72	11726
908.836	11878
908.952	11756
909.068	11771
909.184	11809
909.3	11703
909.415	11767
909.531	11699
909.647	11573
909.762	11649
909.878	11429
909.993	11539
910.108	11497
910.224	11387
910.339	11467
910.454	11433
910.57	11299
910.685	11303
910.8	11581
910.915	11512
911.03	11395
911.145	11254
911.259	11185
911.374	11208
911.489	11181
911.604	11132
911.718	10987
911.833	10938
911.947	10862
912.062	10774
912.176	10930
912.291	10980
912.405	10961
912.519	11143
912.633	11216
912.748	11086
912.862	10991
912.976	10919
913.09	10748
913.204	10774
913.318	10904
913.431	10892
913.545	10900
913.659	10908
913.772	10873
913.886	10752
914	10694
914.113	10843
914.226	10854
914.34	10839
914.453	10653
914.566	10850
914.68	10710
914.793	10641
914.906	10455
915.019	10481
915.132	10318
915.245	10394
915.358	10455
915.47	10535
915.583	10402
915.696	10542
915.809	10660
915.921	10527
916.034	10462
916.146	10390
916.259	10333
916.371	10519
916.483	10478
916.595	10447
916.708	10329
916.82	10375
916.932	10386
917.044	10398
917.156	10428
917.268	10234
917.38	10352
917.491	10314
917.603	10299
917.715	10356
917.826	10386
917.938	10265
918.049	10150
918.161	10280
918.272	10421
918.384	10413
918.495	10272
918.606	10131
918.717	10131
918.828	10234
918.939	10158
919.05	10082
919.161	10162
919.272	9930
919.383	10040
919.494	10318
919.604	10413
919.715	10234
919.826	10135
919.936	10169
920.047	10230
920.157	10185
920.267	10440
920.378	10188
920.488	10139
920.598	10322
920.708	10519
920.818	10371
920.928	10382
921.038	10538
921.148	10497
921.258	10154
921.368	10071
921.477	10006
921.587	9983
921.697	9926
921.806	10048
921.916	9945
922.025	9747
922.134	9736
922.244	9751
922.353	9789
922.462	9587
922.571	9591
922.68	9458
922.789	9401
922.898	9485
923.007	9450
923.116	9454
923.224	9458
923.333	9443
923.442	9302
923.55	9351
923.659	9401
923.767	9412
923.876	9332
923.984	9370
924.092	9237
924.201	9310
924.309	9363
924.417	9336
924.525	9313
924.633	9321
924.741	10051
924.849	9123
924.956	9226
925.064	9077
925.172	9070
925.279	9119
925.387	9195
925.494	9146
925.602	9264
925.709	9214
925.816	9081
925.924	9142
926.031	9249
926.138	9207
926.245	9222
926.352	9131
926.459	9131
926.566	9260
926.673	9058
926.779	9058
926.886	9005
926.993	8864
927.099	8861
927.206	8807
927.312	8785
927.419	8891
927.525	8883
927.631	8868
927.737	8773
927.843	8724
927.95	8629
928.056	8693
928.162	8739
928.267	8724
928.373	9428
928.479	8914
928.585	8598
928.69	8769
928.796	8826
928.901	8636
929.007	8499
929.112	8644
929.218	8602
929.323	8594
929.428	8571
929.533	8735
929.638	8507
929.743	8514
929.848	8629
929.953	8488
930.058	8484
930.163	8347
930.267	8366
930.372	8480
930.477	8328
930.581	8537
930.685	8393
930.79	8271
930.894	8332
930.998	8294
931.103	8400
931.207	8096
931.311	8062
931.415	7986
931.519	7841
931.623	7753
