Data from test_V78500241_2333.txt Node
Date: Fri Mar 25 14:49:57 CST 2022
User: usil
Spectrometer: V785-0024
Trigger mode: 0
Integration Time (sec): 4.000000E-1
Scans to average: 1
Nonlinearity correction enabled: false
Boxcar width: 0
Storing dark spectrum: false
XAxis mode: Wavelengths
Number of Pixels in Spectrum: 1024
>>>>>Begin Spectral Data<<<<<
801.071	22143
801.214	22074
801.356	21895
801.499	21652
801.641	21538
801.783	21481
801.926	21568
802.068	21481
802.211	21450
802.353	21374
802.496	21135
802.638	21089
802.78	21001
802.923	20941
803.065	20807
803.208	20773
803.35	20796
803.492	20948
803.635	20914
803.777	20842
803.919	21070
804.061	21321
804.204	20918
804.346	20872
804.488	20815
804.63	20731
804.773	20735
804.915	20838
805.057	20849
805.199	20632
805.341	20899
805.483	20902
805.626	20849
805.768	20693
805.91	20762
806.052	20686
806.194	20712
806.336	20887
806.478	20815
806.62	20769
806.762	20937
806.904	20807
807.046	21108
807.188	21157
807.33	21146
807.472	21252
807.614	21036
807.756	21074
807.898	20883
808.04	20868
808.182	20868
808.324	20902
808.465	20883
808.607	21100
808.749	21207
808.891	21207
809.033	21260
809.174	21214
809.316	21165
809.458	21135
809.6	21058
809.741	21249
809.883	21218
810.025	21287
810.166	21161
810.308	21249
810.45	21230
810.591	21184
810.733	21093
810.875	20952
811.016	20876
811.158	20838
811.299	20975
811.441	21108
811.582	21142
811.724	20914
811.865	20910
812.007	20845
812.148	20899
812.29	20899
812.431	21104
812.573	21150
812.714	21249
812.855	21416
812.997	21481
813.138	21751
813.279	21667
813.421	21477
813.562	21317
813.703	21081
813.845	21093
813.986	20788
814.127	20583
814.268	20552
814.41	20537
814.551	20632
814.692	20571
814.833	20427
814.974	20526
815.115	20564
815.256	20336
815.397	20442
815.539	20450
815.68	20317
815.821	20122
815.962	20153
816.103	20111
816.244	20020
816.385	19970
816.526	19936
816.666	19780
816.807	19635
816.948	19704
817.089	19776
817.23	19632
817.371	19518
817.512	19567
817.653	19510
817.793	19609
817.934	19548
818.075	19430
818.216	19544
818.356	19594
818.497	19434
818.638	19228
818.778	19327
818.919	19282
819.06	19407
819.2	19350
819.341	19502
819.481	19445
819.622	19655
819.762	19738
819.903	19624
820.043	19689
820.184	19655
820.324	19590
820.465	19655
820.605	19575
820.746	19453
820.886	19434
821.026	19518
821.167	19506
821.307	19647
821.447	19483
821.588	19426
821.728	19244
821.868	19221
822.008	18989
822.149	18863
822.289	18973
822.429	18787
822.569	18669
822.709	18616
822.849	18555
822.99	18475
823.13	18380
823.27	18464
823.41	18277
823.55	18197
823.69	18376
823.83	18235
823.97	18228
824.11	18038
824.25	18095
824.389	18110
824.529	18053
824.669	18022
824.809	18197
824.949	18163
825.089	18133
825.228	18068
825.368	17927
825.508	17832
825.648	17863
825.787	17824
825.927	17851
826.067	17802
826.206	17775
826.346	17828
826.485	17764
826.625	17870
826.765	17950
826.904	17931
827.044	17596
827.183	17459
827.323	17402
827.462	17524
827.601	17486
827.741	17497
827.88	17512
828.02	17436
828.159	17520
828.298	17627
828.437	17581
828.577	17474
828.716	17596
828.855	17528
828.994	17231
829.134	17307
829.273	17280
829.412	17200
829.551	17060
829.69	17231
829.829	17246
829.968	17379
830.107	17292
830.246	17277
830.385	17223
830.524	17200
830.663	17147
830.802	16930
830.941	16919
831.08	16854
831.219	16961
831.357	16915
831.496	17060
831.635	16778
831.774	16809
831.913	16725
832.051	16698
832.19	16607
832.329	16702
832.467	16603
832.606	16558
832.744	16596
832.883	16596
833.022	16424
833.16	16603
833.299	16596
833.437	16592
833.576	16519
833.714	16527
833.852	16577
833.991	16660
834.129	16702
834.267	16645
834.406	16607
834.544	16603
834.682	16637
834.821	16538
834.959	16717
835.097	16561
835.235	16717
835.373	16645
835.511	16607
835.65	16512
835.788	16504
835.926	16371
836.064	16344
836.202	16295
836.34	16580
836.478	16580
836.615	16481
836.753	16512
836.891	16497
837.029	16618
837.167	16382
837.305	16322
837.443	16337
837.58	16348
837.718	16417
837.856	16428
837.993	16284
838.131	16341
838.269	16181
838.406	16276
838.544	16253
838.681	16112
838.819	16207
838.956	15762
839.094	15888
839.231	15911
839.369	16048
839.506	16299
839.643	16059
839.781	15781
839.918	15884
840.055	15892
840.193	15804
840.33	15880
840.467	15880
840.604	15869
840.742	16200
840.879	15770
841.016	15831
841.153	15827
841.29	15953
841.427	15918
841.564	16002
841.701	15869
841.838	15800
841.975	15816
842.112	15823
842.249	15679
842.385	15690
842.522	15861
842.659	15701
842.796	15652
842.933	15618
843.069	15679
843.206	15652
843.343	15755
843.479	15713
843.616	15675
843.752	15492
843.889	15492
844.025	15644
844.162	15447
844.298	15595
844.435	15428
844.571	15412
844.708	15557
844.844	15660
844.98	15595
845.117	15557
845.253	15378
845.389	15424
845.525	15401
845.661	15507
845.798	15264
845.934	15249
846.07	15256
846.206	15386
846.342	15378
846.478	15214
846.614	14990
846.75	15017
846.886	15089
847.022	15203
847.158	15100
847.294	14971
847.429	15116
847.565	14952
847.701	15279
847.837	14823
847.972	14693
848.108	14906
848.244	14880
848.379	14735
848.515	14606
848.65	14651
848.786	14758
848.921	14560
849.057	14708
849.192	14754
849.328	14686
849.463	14686
849.598	14625
849.734	14636
849.869	14522
850.004	14465
850.14	14336
850.275	14465
850.41	14374
850.545	14374
850.68	14343
850.815	14419
850.95	14442
851.085	14564
851.22	14499
851.355	14495
851.49	14431
851.625	14454
851.76	14366
851.895	14214
852.03	14240
852.165	14355
852.299	14431
852.434	14492
852.569	14446
852.703	14400
852.838	14503
852.973	14518
853.107	14541
853.242	14415
853.376	14263
853.511	14100
853.645	14313
853.78	14339
853.914	14244
854.048	14240
854.183	14263
854.317	14294
854.451	14434
854.585	14233
854.72	14244
854.854	14271
854.988	14202
855.122	14142
855.256	14107
855.39	14142
855.524	14332
855.658	14404
855.792	14290
855.926	14237
856.06	14271
856.194	14351
856.327	14123
856.461	14229
856.595	14256
856.729	14218
856.862	14313
856.996	14305
857.13	14442
857.263	14366
857.397	14377
857.53	14336
857.664	14317
857.797	14370
857.931	14457
858.064	14271
858.197	14355
858.331	14237
858.464	14126
858.597	14210
858.731	14176
858.864	14225
858.997	14214
859.13	14305
859.263	14389
859.396	14400
859.529	14240
859.662	14282
859.795	14225
859.928	14275
860.061	14366
860.194	14457
860.327	14191
860.46	14298
860.592	14415
860.725	14442
860.858	14370
860.99	14332
861.123	14252
861.256	14252
861.388	14290
861.521	14746
861.653	14142
861.786	14130
861.918	14123
862.05	14149
862.183	14199
862.315	14240
862.447	14317
862.58	14172
862.712	13982
862.844	14001
862.976	14130
863.108	14126
863.24	14355
863.372	13982
863.504	14012
863.636	14119
863.768	14111
863.9	14020
864.032	13913
864.164	13852
864.296	14161
864.428	14214
864.559	14020
864.691	14183
864.823	14092
864.954	14100
865.086	14046
865.217	14050
865.349	14043
865.48	14065
865.612	14027
865.743	14191
865.875	14035
866.006	13955
866.137	14069
866.269	14043
866.4	14039
866.531	13993
866.662	13921
866.793	13940
866.924	13967
867.055	14065
867.186	13970
867.317	13986
867.448	13944
867.579	13993
867.71	13997
867.841	13982
867.972	14008
868.103	13944
868.233	13997
868.364	14043
868.495	14065
868.625	14187
868.756	14309
868.886	14202
869.017	14229
869.147	14339
869.278	14480
869.408	14343
869.539	14351
869.669	14305
869.799	14332
869.929	14366
870.06	14351
870.19	14571
870.32	14545
870.45	14655
870.58	14667
870.71	14705
870.84	14762
870.97	14678
871.1	14663
871.23	14960
871.36	14876
871.489	14727
871.619	14743
871.749	14937
871.879	14914
872.008	14986
872.138	14864
872.267	14845
872.397	14758
872.526	14708
872.656	14720
872.785	14777
872.915	14906
873.044	14994
873.173	14941
873.303	15024
873.432	14982
873.561	15017
873.69	14921
873.819	14910
873.948	14956
874.077	14933
874.206	14895
874.335	15017
874.464	15100
874.593	15154
874.722	15207
874.851	15218
874.979	15291
875.108	15287
875.237	15233
875.365	14982
875.494	15165
875.623	15363
875.751	15074
875.88	15332
876.008	15348
876.136	15511
876.265	15644
876.393	15816
876.521	15709
876.65	15713
876.778	15698
876.906	15652
877.034	15507
877.162	15641
877.29	15698
877.418	15728
877.546	15648
877.674	15610
877.802	15614
877.93	15568
878.058	15603
878.185	15458
878.313	15690
878.441	15648
878.568	15530
878.696	15538
878.824	15652
878.951	15644
879.079	15869
879.206	16097
879.333	15854
879.461	15751
879.588	15778
879.715	15888
879.842	15922
879.97	15759
880.097	15534
880.224	15458
880.351	15526
880.478	15519
880.605	15492
880.732	15568
880.859	15713
880.986	15439
881.112	15606
881.239	15393
881.366	15310
881.493	15214
881.619	15074
881.746	15252
881.872	15135
881.999	15169
882.125	15058
882.252	15207
882.378	15165
882.505	15275
882.631	15100
882.757	14967
882.883	15085
883.01	14979
883.136	14933
883.262	14906
883.388	14853
883.514	15104
883.64	15093
883.766	14929
883.892	14838
884.018	14849
884.143	14944
884.269	14994
884.395	14777
884.52	14705
884.646	14670
884.772	14598
884.897	14629
885.023	14686
885.148	14845
885.274	14769
885.399	14800
885.524	14720
885.65	14750
885.775	14750
885.9	14731
886.025	14758
886.15	14746
886.275	14659
886.4	14705
886.525	14598
886.65	14518
886.775	14564
886.9	14853
887.025	14925
887.149	14689
887.274	14613
887.399	14530
887.523	14514
887.648	14484
887.773	14431
887.897	14556
888.021	14575
888.146	14549
888.27	14575
888.395	14640
888.519	14522
888.643	14670
888.767	14568
888.891	14469
889.015	14358
889.139	14408
889.263	14336
889.387	14438
889.511	14651
889.635	14484
889.759	14347
889.883	14415
890.006	14454
890.13	14434
890.254	14263
890.377	14366
890.501	14240
890.624	14191
890.748	14343
890.871	14176
890.995	14050
891.118	14081
891.241	14062
891.364	14168
891.488	14176
891.611	14058
891.734	14088
891.857	14164
891.98	14077
892.103	14176
892.226	14081
892.349	14100
892.471	13963
892.594	14043
892.717	14088
892.839	14168
892.962	14031
893.085	14145
893.207	14176
893.33	13997
893.452	13955
893.575	14100
893.697	14134
893.819	14202
893.941	14187
894.064	14267
894.186	14115
894.308	14035
894.43	14191
894.552	14233
894.674	14244
894.796	14096
894.918	14153
895.04	14065
895.161	14145
895.283	14168
895.405	14103
895.526	14130
895.648	14168
895.769	14210
895.891	14282
896.012	14328
896.134	14240
896.255	14221
896.376	14229
896.498	14126
896.619	14244
896.74	14286
896.861	14320
896.982	14644
897.103	14701
897.224	14533
897.345	14511
897.466	14415
897.587	14640
897.708	14606
897.828	14636
897.949	14507
898.07	14465
898.19	14533
898.311	14682
898.431	14560
898.552	14579
898.672	14765
898.792	14708
898.913	14594
899.033	14469
899.153	14499
899.273	14442
899.393	14385
899.513	14503
899.633	14454
899.753	14446
899.873	14465
899.993	14629
900.113	14370
900.232	14579
900.352	14427
900.472	14469
900.591	14332
900.711	14332
900.83	14233
900.95	14301
901.069	14465
901.189	14240
901.308	14073
901.427	14008
901.546	13970
901.665	14020
901.784	14027
901.904	13856
902.023	13822
902.141	13609
902.26	13582
902.379	13693
902.498	13559
902.617	13514
902.735	13567
902.854	13563
902.973	13422
903.091	13285
903.21	13327
903.328	13312
903.446	13285
903.565	13213
903.683	13236
903.801	13065
903.919	13171
904.038	13164
904.156	12928
904.274	13046
904.392	13050
904.51	12947
904.627	12852
904.745	13023
904.863	12993
904.981	12707
905.098	12601
905.216	12559
905.334	12635
905.451	12642
905.569	12555
905.686	12703
905.803	12669
905.921	12532
906.038	12471
906.155	12513
906.272	12391
906.389	12338
906.506	12209
906.623	12266
906.74	12266
906.857	12121
906.974	12167
907.091	12300
907.208	12350
907.324	12281
907.441	12258
907.557	12034
907.674	11954
907.79	11992
907.907	12034
908.023	12019
908.139	11904
908.256	11946
908.372	11965
908.488	11870
908.604	11775
908.72	11798
908.836	11767
908.952	11630
909.068	11798
909.184	11851
909.3	11809
909.415	11893
909.531	11752
909.647	11493
909.762	11554
909.878	11452
909.993	11528
910.108	11535
910.224	11493
910.339	11486
910.454	11436
910.57	11353
910.685	11246
910.8	11577
910.915	11516
911.03	11433
911.145	11170
911.259	11212
911.374	11258
911.489	11124
911.604	11083
911.718	10953
911.833	10972
911.947	10828
912.062	10778
912.176	10991
912.291	10942
912.405	10904
912.519	11178
912.633	11185
912.748	10953
912.862	10869
912.976	10862
913.09	10714
913.204	10782
913.318	10904
913.431	10911
913.545	10915
913.659	10957
913.772	10767
913.886	10820
914	10668
914.113	10797
914.226	10797
914.34	10839
914.453	10592
914.566	10790
914.68	10653
914.793	10733
914.906	10497
915.019	10451
915.132	10402
915.245	10455
915.358	10466
915.47	10535
915.583	10512
915.696	10504
915.809	10580
915.921	10683
916.034	10443
916.146	10413
916.259	10348
916.371	10569
916.483	10542
916.595	10440
916.708	10489
916.82	10409
916.932	10428
917.044	10344
917.156	10352
917.268	10204
917.38	10265
917.491	10333
917.603	10382
917.715	10455
917.826	10417
917.938	10261
918.049	10181
918.161	10310
918.272	10428
918.384	10474
918.495	10428
918.606	10204
918.717	10078
918.828	10268
918.939	10158
919.05	10086
919.161	10147
919.272	9975
919.383	10006
919.494	10253
919.604	10360
919.715	10242
919.826	10135
919.936	10249
920.047	10219
920.157	10230
920.267	10428
920.378	10291
920.488	10128
920.598	10382
920.708	10523
920.818	10390
920.928	10428
921.038	10527
921.148	10554
921.258	10223
921.368	10181
921.477	10074
921.587	10051
921.697	9953
921.806	10067
921.916	9941
922.025	9861
922.134	9827
922.244	9618
922.353	9751
922.462	9599
922.571	9610
922.68	9439
922.789	9443
922.898	9454
923.007	9420
923.116	9530
923.224	9355
923.333	9408
923.442	9397
923.55	9260
923.659	9340
923.767	9408
923.876	9279
923.984	9389
924.092	9279
924.201	9359
924.309	9302
924.417	9321
924.525	9279
924.633	9256
924.741	10071
924.849	9097
924.956	9351
925.064	9135
925.172	9089
925.279	9062
925.387	9154
925.494	9119
925.602	9245
925.709	9222
925.816	9039
925.924	9127
926.031	9138
926.138	9169
926.245	9195
926.352	9081
926.459	9199
926.566	9218
926.673	9097
926.779	8990
926.886	8979
926.993	8807
927.099	8838
927.206	8800
927.312	8743
927.419	8895
927.525	8906
927.631	8849
927.737	8792
927.843	8731
927.95	8629
928.056	8697
928.162	8773
928.267	8773
928.373	9332
928.479	8834
928.585	8522
928.69	8769
928.796	8766
928.901	8632
929.007	8503
929.112	8689
929.218	8571
929.323	8503
929.428	8526
929.533	8697
929.638	8488
929.743	8571
929.848	8552
929.953	8533
930.058	8434
930.163	8271
930.267	8248
930.372	8419
930.477	8298
930.581	8507
930.685	8434
930.79	8252
930.894	8298
930.998	8298
931.103	8461
931.207	8126
931.311	7978
931.415	7921
931.519	7807
931.623	7742
