Data from test_V78500241_700.txt Node
Date: Fri Mar 25 14:38:35 CST 2022
User: usil
Spectrometer: V785-0024
Trigger mode: 0
Integration Time (sec): 4.000000E-1
Scans to average: 1
Nonlinearity correction enabled: false
Boxcar width: 0
Storing dark spectrum: false
XAxis mode: Wavelengths
Number of Pixels in Spectrum: 1024
>>>>>Begin Spectral Data<<<<<
801.071	27876
801.214	27648
801.356	27363
801.499	27466
801.641	27272
801.783	27207
801.926	27230
802.068	27211
802.211	27043
802.353	26853
802.496	26864
802.638	26746
802.78	26762
802.923	26625
803.065	26659
803.208	26716
803.35	26636
803.492	26781
803.635	26918
803.777	26765
803.919	26849
804.061	27245
804.204	26986
804.346	26883
804.488	26826
804.63	27108
804.773	26918
804.915	26998
805.057	27291
805.199	27214
805.341	27230
805.483	27466
805.626	27485
805.768	27492
805.91	27568
806.052	27793
806.194	27907
806.336	28120
806.478	28181
806.62	28413
806.762	28744
806.904	29102
807.046	29638
807.188	29874
807.33	30502
807.472	31088
807.614	31571
807.756	32514
807.898	33561
808.04	35200
808.182	37270
808.324	39758
808.465	42757
808.607	46139
808.749	48939
808.891	50663
809.033	51070
809.174	49362
809.316	46413
809.458	43080
809.6	39686
809.741	36863
809.883	34527
810.025	33180
810.166	31947
810.308	31129
810.45	30570
810.591	30007
810.733	29421
810.875	29048
811.016	28725
811.158	28542
811.299	28447
811.441	28478
811.582	28246
811.724	27854
811.865	27785
812.007	27781
812.148	27610
812.29	27717
812.431	27865
812.573	27907
812.714	27876
812.855	27831
812.997	27873
813.138	28017
813.279	27937
813.421	27736
813.562	27534
813.703	27431
813.845	27291
813.986	27017
814.127	26781
814.268	26617
814.41	26511
814.551	26533
814.692	26492
814.833	26495
814.974	26495
815.115	26374
815.256	26252
815.397	26164
815.539	26138
815.68	26043
815.821	26001
815.962	26077
816.103	26088
816.244	25986
816.385	25696
816.526	25742
816.666	25453
816.807	25384
816.948	25457
817.089	25453
817.23	25335
817.371	25350
817.512	25365
817.653	25198
817.793	25164
817.934	25209
818.075	25324
818.216	25293
818.356	25358
818.497	25107
818.638	24996
818.778	24954
818.919	25053
819.06	25031
819.2	25076
819.341	25285
819.481	25103
819.622	25304
819.762	25487
819.903	25285
820.043	25263
820.184	25206
820.324	25206
820.465	25168
820.605	25240
820.746	25148
820.886	24985
821.026	24886
821.167	25072
821.307	25179
821.447	25031
821.588	24817
821.728	24559
821.868	24479
822.008	24498
822.149	24277
822.289	24327
822.429	24197
822.569	23980
822.709	24087
822.849	23904
822.99	23748
823.13	23771
823.27	23767
823.41	23600
823.55	23558
823.69	23592
823.83	23615
823.97	23505
824.11	23341
824.25	23471
824.389	23402
824.529	23372
824.669	23311
824.809	23490
824.949	23452
825.089	23505
825.228	23349
825.368	23280
825.508	23250
825.648	23223
825.787	23288
825.927	23235
826.067	23193
826.206	23060
826.346	23204
826.485	23204
826.625	22961
826.765	23277
826.904	23098
827.044	22965
827.183	22987
827.323	22850
827.462	22919
827.601	22778
827.741	22797
827.88	22812
828.02	22626
828.159	22809
828.298	22797
828.437	22824
828.577	22645
828.716	23041
828.855	22755
828.994	22603
829.134	22485
829.273	22542
829.412	22508
829.551	22440
829.69	22379
829.829	22428
829.968	22599
830.107	22500
830.246	22531
830.385	22341
830.524	22333
830.663	22265
830.802	22177
830.941	22147
831.08	22044
831.219	22207
831.357	22112
831.496	22295
831.635	22128
831.774	22082
831.913	22112
832.051	21888
832.19	21934
832.329	21804
832.467	21945
832.606	21816
832.744	22051
832.883	22025
833.022	22044
833.16	22200
833.299	22280
833.437	22367
833.576	22508
833.714	22687
833.852	22900
833.991	22980
834.129	23151
834.267	23086
834.406	23079
834.544	23018
834.682	22881
834.821	22702
834.959	22752
835.097	22306
835.235	22325
835.373	22238
835.511	22128
835.65	21880
835.788	21755
835.926	21701
836.064	21660
836.202	21485
836.34	21717
836.478	21739
836.615	21610
836.753	21622
836.891	21751
837.029	21705
837.167	21599
837.305	21389
837.443	21412
837.58	21530
837.718	21515
837.856	21500
837.993	21420
838.131	21321
838.269	21382
838.406	21188
838.544	21218
838.681	21070
838.819	20998
838.956	20906
839.094	20918
839.231	20868
839.369	21051
839.506	21108
839.643	21093
839.781	20727
839.918	20743
840.055	20811
840.193	20826
840.33	20804
840.467	20830
840.604	20720
840.742	21047
840.879	20651
841.016	20819
841.153	20670
841.29	20849
841.427	20754
841.564	20906
841.701	20682
841.838	20678
841.975	20762
842.112	20625
842.249	20549
842.385	20518
842.522	20849
842.659	20724
842.796	20571
842.933	20674
843.069	20598
843.206	20708
843.343	20629
843.479	20758
843.616	20727
843.752	20743
843.889	20560
844.025	20872
844.162	20674
844.298	20979
844.435	20986
844.571	21207
844.708	21534
844.844	22063
844.98	22451
845.117	23288
845.253	23939
845.389	25856
845.525	29459
845.661	35379
845.798	42292
845.934	47353
846.07	49285
846.206	47691
846.342	42852
846.478	36152
846.614	30182
846.75	26419
846.886	24243
847.022	22793
847.158	21892
847.294	21275
847.429	20948
847.565	20701
847.701	20693
847.837	20210
847.972	20100
848.108	20008
848.244	19932
848.379	19898
848.515	19658
848.65	19582
848.786	19597
848.921	19639
849.057	19537
849.192	19685
849.328	19704
849.463	19453
849.598	19563
849.734	19362
849.869	19316
850.004	19255
850.14	19278
850.275	19327
850.41	19122
850.545	19190
850.68	19221
850.815	19209
850.95	19194
851.085	19365
851.22	19213
851.355	19202
851.49	19129
851.625	19148
851.76	19103
851.895	19091
852.03	19019
852.165	19110
852.299	19259
852.434	19381
852.569	19255
852.703	19259
852.838	19362
852.973	19400
853.107	19426
853.242	19164
853.376	19225
853.511	19122
853.645	19266
853.78	19502
853.914	19358
854.048	19350
854.183	19388
854.317	19430
854.451	19651
854.585	19407
854.72	19373
854.854	19365
854.988	19202
855.122	19259
855.256	19118
855.39	19194
855.524	19255
855.658	19236
855.792	19156
855.926	19209
856.06	19084
856.194	19126
856.327	19206
856.461	19023
856.595	19000
856.729	19004
856.862	19023
856.996	18901
857.13	19137
857.263	19110
857.397	19126
857.53	18996
857.664	19000
857.797	18970
857.931	19031
858.064	18951
858.197	19091
858.331	19027
858.464	18871
858.597	18734
858.731	18817
858.864	18779
858.997	18840
859.13	18894
859.263	18890
859.396	18909
859.529	18848
859.662	18776
859.795	18726
859.928	18909
860.061	19061
860.194	18958
860.327	18669
860.46	18798
860.592	18825
860.725	19065
860.858	18993
860.99	18894
861.123	18681
861.256	18810
861.388	18817
861.521	19597
861.653	18760
861.786	18532
861.918	18741
862.05	18829
862.183	18779
862.315	18776
862.447	18814
862.58	18760
862.712	18540
862.844	18456
862.976	18551
863.108	18555
863.24	18856
863.372	18494
863.504	18464
863.636	18593
863.768	18475
863.9	18407
864.032	18407
864.164	18445
864.296	18475
864.428	18525
864.559	18445
864.691	18486
864.823	18460
864.954	18376
865.086	18486
865.217	18384
865.349	18300
865.48	18395
865.612	18380
865.743	18589
865.875	18445
866.006	18414
866.137	18399
866.269	18418
866.4	18418
866.531	18266
866.662	18266
866.793	18258
866.924	18391
867.055	18388
867.186	18330
867.317	18327
867.448	18239
867.579	18273
867.71	18270
867.841	18289
867.972	18395
868.103	18327
868.233	18388
868.364	18372
868.495	18547
868.625	18597
868.756	18749
868.886	18597
869.017	18635
869.147	18654
869.278	18764
869.408	18665
869.539	18722
869.669	18684
869.799	18696
869.929	18665
870.06	18703
870.19	18928
870.32	18905
870.45	18947
870.58	18985
870.71	19023
870.84	19110
870.97	19091
871.1	18954
871.23	19308
871.36	19171
871.489	19259
871.619	19164
871.749	19293
871.879	19255
872.008	19434
872.138	19460
872.267	19396
872.397	19358
872.526	19183
872.656	19263
872.785	19285
872.915	19518
873.044	19563
873.173	19468
873.303	19613
873.432	19582
873.561	19643
873.69	19514
873.819	19495
873.948	19776
874.077	19708
874.206	19670
874.335	19742
874.464	19887
874.593	20012
874.722	19959
874.851	20065
874.979	20073
875.108	20149
875.237	20126
875.365	20107
875.494	20294
875.623	20324
875.751	20343
875.88	20412
876.008	20511
876.136	20583
876.265	20925
876.393	21032
876.521	21123
876.65	21058
876.778	21112
876.906	21203
877.034	21051
877.162	21283
877.29	21313
877.418	21359
877.546	21504
877.674	21587
877.802	21667
877.93	21789
878.058	22048
878.185	22090
878.313	22379
878.441	22934
878.568	23090
878.696	23771
878.824	24650
878.951	25734
879.079	27435
879.206	29398
879.333	31460
879.461	33089
879.588	34284
879.715	34234
879.842	33515
879.97	31479
880.097	29429
880.224	27663
880.351	26461
880.478	25594
880.605	25012
880.732	24715
880.859	24669
880.986	24232
881.112	24163
881.239	24003
881.366	23809
881.493	23824
881.619	23794
881.746	23783
881.872	23699
881.999	23695
882.125	23767
882.252	23851
882.378	23942
882.505	24060
882.631	23874
882.757	23798
882.883	23912
883.01	23813
883.136	23752
883.262	23585
883.388	23570
883.514	23748
883.64	23703
883.766	23577
883.892	23505
884.018	23497
884.143	23771
884.269	23821
884.395	23398
884.52	23444
884.646	23387
884.772	23372
884.897	23360
885.023	23493
885.148	23493
885.274	23592
885.399	23315
885.524	23147
885.65	23086
885.775	22900
885.9	22755
886.025	22786
886.15	22611
886.275	22386
886.4	22234
886.525	22112
886.65	21831
886.775	21800
886.9	21861
887.025	21838
887.149	21553
887.274	21310
887.399	21161
887.523	21005
887.648	20982
887.773	20845
887.897	20842
888.021	20872
888.146	20629
888.27	20765
888.395	20785
888.519	20511
888.643	20541
888.767	20480
888.891	20396
889.015	20214
889.139	20324
889.263	20092
889.387	20202
889.511	20191
889.635	20134
889.759	19871
889.883	19951
890.006	19993
890.13	19955
890.254	19753
890.377	19712
890.501	19514
890.624	19582
890.748	19499
890.871	19407
890.995	19354
891.118	19213
891.241	19255
891.364	19198
891.488	19179
891.611	19266
891.734	18993
891.857	19209
891.98	19114
892.103	19152
892.226	19114
892.349	18840
892.471	18734
892.594	18829
892.717	18856
892.839	18764
892.962	18772
893.085	18894
893.207	18810
893.33	18578
893.452	18528
893.575	18612
893.697	18635
893.819	18753
893.941	18814
894.064	18601
894.186	18448
894.308	18403
894.43	18700
894.552	18528
894.674	18517
894.796	18334
894.918	18414
895.04	18357
895.161	18479
895.283	18452
895.405	18258
895.526	18315
895.648	18220
895.769	18330
895.891	18296
896.012	18403
896.134	18426
896.255	18384
896.376	18346
896.498	18262
896.619	18296
896.74	18182
896.861	18342
896.982	18559
897.103	18639
897.224	18452
897.345	18342
897.466	18456
897.587	18418
897.708	18582
897.828	18540
897.949	18403
898.07	18235
898.19	18258
898.311	18456
898.431	18365
898.552	18445
898.672	18486
898.792	18490
898.913	18437
899.033	18391
899.153	18190
899.273	18155
899.393	18220
899.513	18251
899.633	18228
899.753	18178
899.873	18243
899.993	18247
900.113	18178
900.232	18197
900.352	18209
900.472	18026
900.591	18068
900.711	18083
900.83	17939
900.95	18030
901.069	18076
901.189	17840
901.308	17691
901.427	17509
901.546	17604
901.665	17570
901.784	17566
901.904	17391
902.023	17284
902.141	17075
902.26	16987
902.379	17155
902.498	17025
902.617	16938
902.735	17075
902.854	16995
902.973	16961
903.091	16725
903.21	16645
903.328	16759
903.446	16493
903.565	16493
903.683	16356
903.801	16344
903.919	16382
904.038	16367
904.156	16204
904.274	16371
904.392	16177
904.51	16090
904.627	16147
904.745	16154
904.863	16234
904.981	15987
905.098	15823
905.216	15770
905.334	15888
905.451	15812
905.569	15785
905.686	15892
905.803	15857
905.921	15595
906.038	15713
906.155	15671
906.272	15507
906.389	15477
906.506	15351
906.623	15382
906.74	15317
906.857	15245
906.974	15237
907.091	15397
907.208	15477
907.324	15393
907.441	15192
907.557	15188
907.674	15138
907.79	14971
907.907	15032
908.023	14975
908.139	14998
908.256	14899
908.372	14990
908.488	14986
908.604	14792
908.72	14720
908.836	14762
908.952	14758
909.068	14670
909.184	14891
909.3	14636
909.415	14861
909.531	14830
909.647	14434
909.762	14476
909.878	14434
909.993	14579
910.108	14389
910.224	14473
910.339	14389
910.454	14332
910.57	14339
910.685	14210
910.8	14473
910.915	14423
911.03	14290
911.145	14187
911.259	14100
911.374	14088
911.489	14103
911.604	14039
911.718	13803
911.833	13887
911.947	13780
912.062	13666
912.176	13845
912.291	13841
912.405	13879
912.519	14073
912.633	13974
912.748	13909
912.862	13883
912.976	13639
913.09	13658
913.204	13742
913.318	13818
913.431	13738
913.545	13765
913.659	13841
913.772	13700
913.886	13586
914	13506
914.113	13628
914.226	13674
914.34	13685
914.453	13422
914.566	13601
914.68	13567
914.793	13339
914.906	13244
915.019	13149
915.132	13141
915.245	13278
915.358	13187
915.47	13236
915.583	13259
915.696	13304
915.809	13331
915.921	13369
916.034	13304
916.146	13179
916.259	13221
916.371	13221
916.483	13217
916.595	13183
916.708	13152
916.82	13221
916.932	13175
917.044	13152
917.156	13133
917.268	12981
917.38	13031
917.491	12993
917.603	12924
917.715	13061
917.826	13099
917.938	13015
918.049	12795
918.161	12890
918.272	13084
918.384	12951
918.495	12943
918.606	12802
918.717	12703
918.828	12700
918.939	12741
919.05	12669
919.161	12703
919.272	12502
919.383	12601
919.494	12711
919.604	12867
919.715	12791
919.826	12673
919.936	12608
920.047	12726
920.157	12700
920.267	12840
920.378	12684
920.488	12677
920.598	12825
920.708	12973
920.818	12886
920.928	12882
921.038	13053
921.148	12894
921.258	12627
921.368	12597
921.477	12464
921.587	12410
921.697	12350
921.806	12376
921.916	12201
922.025	12159
922.134	12098
922.244	12106
922.353	12106
922.462	12114
922.571	12003
922.68	11836
922.789	11771
922.898	11771
923.007	11688
923.116	11832
923.224	11775
923.333	11752
923.442	11608
923.55	11608
923.659	11688
923.767	11642
923.876	11505
923.984	11630
924.092	11532
924.201	11657
924.309	11566
924.417	11577
924.525	11497
924.633	11482
924.741	12479
924.849	11376
924.956	11486
925.064	11330
925.172	11258
925.279	11208
925.387	11204
925.494	11326
925.602	11398
925.709	11356
925.816	11124
925.924	11227
926.031	11311
926.138	11280
926.245	11315
926.352	11155
926.459	11341
926.566	11242
926.673	11143
926.779	11056
926.886	11102
926.993	10923
927.099	10885
927.206	10877
927.312	10824
927.419	10938
927.525	10946
927.631	10934
927.737	10797
927.843	10820
927.95	10641
928.056	10759
928.162	10831
928.267	10828
928.373	11353
928.479	10911
928.585	10626
928.69	10755
928.796	10755
928.901	10664
929.007	10497
929.112	10656
929.218	10630
929.323	10561
929.428	10516
929.533	10691
929.638	10516
929.743	10516
929.848	10516
929.953	10535
930.058	10550
930.163	10261
930.267	10295
930.372	10459
930.477	10215
930.581	10421
930.685	10306
930.79	10207
930.894	10158
930.998	10150
931.103	10303
931.207	9911
931.311	9903
931.415	9838
931.519	9580
931.623	9564
