Data from test_V78500241_87.txt Node
Date: Fri Mar 25 14:34:19 CST 2022
User: usil
Spectrometer: V785-0024
Trigger mode: 0
Integration Time (sec): 4.000000E-1
Scans to average: 1
Nonlinearity correction enabled: false
Boxcar width: 0
Storing dark spectrum: false
XAxis mode: Wavelengths
Number of Pixels in Spectrum: 1024
>>>>>Begin Spectral Data<<<<<
801.071	28706
801.214	28847
801.356	28611
801.499	28519
801.641	28207
801.783	28284
801.926	28356
802.068	28261
802.211	28120
802.353	28112
802.496	27903
802.638	27945
802.78	27846
802.923	27755
803.065	27736
803.208	27793
803.35	27599
803.492	27964
803.635	27861
803.777	27861
803.919	27903
804.061	28124
804.204	28029
804.346	27743
804.488	27770
804.63	27888
804.773	27606
804.915	27930
805.057	27991
805.199	27838
805.341	27709
805.483	27888
805.626	28013
805.768	27717
805.91	27884
806.052	28090
806.194	27945
806.336	28154
806.478	27808
806.62	27956
806.762	28124
806.904	28048
807.046	28379
807.188	28257
807.33	28207
807.472	28173
807.614	28287
807.756	28322
807.898	28093
808.04	28166
808.182	28067
808.324	28169
808.465	28154
808.607	28333
808.749	28341
808.891	28432
809.033	28603
809.174	28485
809.316	28455
809.458	28466
809.6	28443
809.741	28599
809.883	28554
810.025	28641
810.166	28774
810.308	28835
810.45	28611
810.591	28618
810.733	28421
810.875	28481
811.016	28204
811.158	28303
811.299	28268
811.441	28428
811.582	28310
811.724	28348
811.865	28185
812.007	28310
812.148	28329
812.29	28375
812.431	28478
812.573	28725
812.714	28687
812.855	28755
812.997	28942
813.138	29094
813.279	28835
813.421	28881
813.562	28721
813.703	28645
813.845	28466
813.986	28109
814.127	28086
814.268	28059
814.41	27922
814.551	27861
814.692	27994
814.833	27880
814.974	27739
815.115	27812
815.256	27701
815.397	27778
815.539	27648
815.68	27587
815.821	27728
815.962	27595
816.103	27637
816.244	27519
816.385	27431
816.526	27447
816.666	27123
816.807	27055
816.948	27123
817.089	27184
817.23	27142
817.371	26960
817.512	27028
817.653	27047
817.793	26940
817.934	26899
818.075	26876
818.216	27188
818.356	27028
818.497	26944
818.638	26769
818.778	26674
818.919	26648
819.06	26765
819.2	26701
819.341	26918
819.481	26895
819.622	26998
819.762	27119
819.903	27173
820.043	27058
820.184	27165
820.324	26876
820.465	27043
820.605	26994
820.746	27135
820.886	26899
821.026	26944
821.167	26929
821.307	27161
821.447	26853
821.588	26697
821.728	26632
821.868	26374
822.008	26370
822.149	26210
822.289	26267
822.429	25978
822.569	25864
822.709	25849
822.849	25883
822.99	25700
823.13	25655
823.27	25753
823.41	25487
823.55	25400
823.69	25548
823.83	25704
823.97	25521
824.11	25343
824.25	25369
824.389	25225
824.529	25297
824.669	25285
824.809	25350
824.949	25327
825.089	25415
825.228	25266
825.368	25152
825.508	25160
825.648	25171
825.787	25069
825.927	25129
826.067	25061
826.206	25122
826.346	25118
826.485	25103
826.625	25057
826.765	25244
826.904	25141
827.044	24833
827.183	24821
827.323	24757
827.462	24935
827.601	24741
827.741	24585
827.88	24848
828.02	24635
828.159	24768
828.298	24779
828.437	24749
828.577	24639
828.716	24825
828.855	24646
828.994	24422
829.134	24536
829.273	24593
829.412	24365
829.551	24407
829.69	24426
829.829	24456
829.968	24464
830.107	24502
830.246	24502
830.385	24357
830.524	24277
830.663	24304
830.802	23931
830.941	23836
831.08	24095
831.219	24072
831.357	24106
831.496	24232
831.635	23824
831.774	23859
831.913	23897
832.051	23798
832.19	23668
832.329	23745
832.467	23672
832.606	23630
832.744	23566
832.883	23710
833.022	23592
833.16	23646
833.299	23585
833.437	23570
833.576	23630
833.714	23668
833.852	23592
833.991	23699
834.129	23695
834.267	23649
834.406	23672
834.544	23638
834.682	23646
834.821	23509
834.959	23855
835.097	23627
835.235	23585
835.373	23615
835.511	23676
835.65	23410
835.788	23551
835.926	23349
836.064	23353
836.202	23189
836.34	23474
836.478	23482
836.615	23341
836.753	23486
836.891	23512
837.029	23273
837.167	23356
837.305	23292
837.443	23292
837.58	23181
837.718	23425
837.856	23334
837.993	23235
838.131	23311
838.269	23136
838.406	23216
838.544	23113
838.681	22866
838.819	22908
838.956	22736
839.094	22740
839.231	22786
839.369	22911
839.506	22976
839.643	22919
839.781	22634
839.918	22687
840.055	22622
840.193	22580
840.33	22550
840.467	22607
840.604	22603
840.742	22744
840.879	22333
841.016	22466
841.153	22356
841.29	22550
841.427	22634
841.564	22535
841.701	22409
841.838	22379
841.975	22421
842.112	22481
842.249	22352
842.385	22238
842.522	22386
842.659	22249
842.796	22215
842.933	22230
843.069	22226
843.206	22169
843.343	22360
843.479	22112
843.616	22204
843.752	22044
843.889	22032
844.025	22116
844.162	21968
844.298	22044
844.435	21949
844.571	21926
844.708	22029
844.844	22116
844.98	22032
845.117	22017
845.253	21934
845.389	21717
845.525	21892
845.661	21846
845.798	21774
845.934	21739
846.07	21762
846.206	21724
846.342	21922
846.478	21679
846.614	21447
846.75	21431
846.886	21435
847.022	21466
847.158	21557
847.294	21317
847.429	21405
847.565	21294
847.701	21504
847.837	21119
847.972	21264
848.108	21218
848.244	21081
848.379	20975
848.515	20975
848.65	20914
848.786	20975
848.921	21051
849.057	21108
849.192	20956
849.328	20967
849.463	21028
849.598	20887
849.734	20914
849.869	20849
850.004	20678
850.14	20731
850.275	20705
850.41	20560
850.545	20670
850.68	20617
850.815	20701
850.95	20545
851.085	20842
851.22	20716
851.355	20606
851.49	20670
851.625	20594
851.76	20511
851.895	20594
852.03	20583
852.165	20564
852.299	20533
852.434	20674
852.569	20686
852.703	20667
852.838	20670
852.973	20689
853.107	20689
853.242	20659
853.376	20423
853.511	20484
853.645	20442
853.78	20537
853.914	20427
854.048	20347
854.183	20431
854.317	20587
854.451	20632
854.585	20362
854.72	20499
854.854	20499
854.988	20339
855.122	20423
855.256	20252
855.39	20434
855.524	20492
855.658	20484
855.792	20370
855.926	20484
856.06	20484
856.194	20473
856.327	20442
856.461	20450
856.595	20404
856.729	20423
856.862	20571
856.996	20438
857.13	20499
857.263	20644
857.397	20488
857.53	20476
857.664	20514
857.797	20511
857.931	20495
858.064	20457
858.197	20556
858.331	20438
858.464	20221
858.597	20229
858.731	20450
858.864	20385
858.997	20317
859.13	20370
859.263	20374
859.396	20385
859.529	20377
859.662	20355
859.795	20286
859.928	20454
860.061	20427
860.194	20537
860.327	20301
860.46	20317
860.592	20503
860.725	20412
860.858	20423
860.99	20377
861.123	20183
861.256	20305
861.388	20336
861.521	21020
861.653	20180
861.786	20119
861.918	20191
862.05	20298
862.183	20446
862.315	20385
862.447	20514
862.58	20347
862.712	20210
862.844	20119
862.976	20122
863.108	20145
863.24	20465
863.372	19963
863.504	20138
863.636	20031
863.768	20084
863.9	20020
864.032	20016
864.164	19982
864.296	20073
864.428	20187
864.559	20092
864.691	20043
864.823	20119
864.954	20153
865.086	20069
865.217	19986
865.349	19887
865.48	19955
865.612	19967
865.743	20024
865.875	20020
866.006	19925
866.137	19959
866.269	19947
866.4	20058
866.531	19917
866.662	19879
866.793	19830
866.924	19845
867.055	20005
867.186	19833
867.317	19913
867.448	19849
867.579	19978
867.71	19772
867.841	19780
867.972	19864
868.103	19902
868.233	19894
868.364	19890
868.495	19993
868.625	20176
868.756	20237
868.886	19944
869.017	20138
869.147	20157
869.278	20347
869.408	20065
869.539	20119
869.669	20202
869.799	20054
869.929	20183
870.06	20240
870.19	20427
870.32	20434
870.45	20484
870.58	20454
870.71	20629
870.84	20602
870.97	20469
871.1	20415
871.23	20739
871.36	20583
871.489	20606
871.619	20648
871.749	20644
871.879	20697
872.008	20762
872.138	20720
872.267	20800
872.397	20587
872.526	20579
872.656	20484
872.785	20499
872.915	20826
873.044	20765
873.173	20720
873.303	20708
873.432	20777
873.561	20785
873.69	20701
873.819	20640
873.948	20849
874.077	20678
874.206	20731
874.335	20743
874.464	20845
874.593	20861
874.722	20910
874.851	20963
874.979	20960
875.108	20967
875.237	20998
875.365	20785
875.494	20994
875.623	21062
875.751	20963
875.88	20925
876.008	21081
876.136	21233
876.265	21412
876.393	21557
876.521	21496
876.65	21568
876.778	21344
876.906	21260
877.034	21260
877.162	21321
877.29	21203
877.418	21378
877.546	21370
877.674	21249
877.802	21283
877.93	21348
878.058	21302
878.185	21176
878.313	21370
878.441	21313
878.568	21241
878.696	21157
878.824	21492
878.951	21374
879.079	21477
879.206	21720
879.333	21599
879.461	21492
879.588	21530
879.715	21656
879.842	21690
879.97	21424
880.097	21161
880.224	21119
880.351	21256
880.478	21112
880.605	21173
880.732	21249
880.859	21332
880.986	21230
881.112	21214
881.239	20971
881.366	21066
881.493	20838
881.619	20796
881.746	20769
881.872	20724
881.999	20750
882.125	20731
882.252	20838
882.378	20712
882.505	20842
882.631	20689
882.757	20484
882.883	20587
883.01	20499
883.136	20598
883.262	20396
883.388	20381
883.514	20564
883.64	20476
883.766	20370
883.892	20278
884.018	20374
884.143	20442
884.269	20530
884.395	20393
884.52	20183
884.646	20267
884.772	20142
884.897	20016
885.023	20195
885.148	20240
885.274	20309
885.399	20240
885.524	20183
885.65	20244
885.775	20221
885.9	20191
886.025	20298
886.15	20286
886.275	20039
886.4	20077
886.525	20065
886.65	20081
886.775	20024
886.9	20290
887.025	20309
887.149	20138
887.274	19970
887.399	19856
887.523	19841
887.648	19791
887.773	19738
887.897	19837
888.021	19883
888.146	19811
888.27	20050
888.395	20016
888.519	19769
888.643	19837
888.767	19944
888.891	19845
889.015	19776
889.139	19738
889.263	19613
889.387	19898
889.511	19887
889.635	19799
889.759	19700
889.883	19647
890.006	19814
890.13	19807
890.254	19495
890.377	19525
890.501	19422
890.624	19373
890.748	19426
890.871	19327
890.995	19247
891.118	19225
891.241	19240
891.364	19244
891.488	19388
891.611	19304
891.734	19308
891.857	19274
891.98	19320
892.103	19377
892.226	19339
892.349	19244
892.471	19133
892.594	19198
892.717	19289
892.839	19160
892.962	19213
893.085	19320
893.207	19141
893.33	19034
893.452	19080
893.575	19308
893.697	19103
893.819	19354
893.941	19430
894.064	19396
894.186	19065
894.308	19156
894.43	19301
894.552	19297
894.674	19221
894.796	19110
894.918	19221
895.04	18966
895.161	19354
895.283	19327
895.405	19164
895.526	19308
895.648	19274
895.769	19179
895.891	19240
896.012	19251
896.134	19274
896.255	19190
896.376	19266
896.498	19285
896.619	19293
896.74	19350
896.861	19308
896.982	19647
897.103	19814
897.224	19499
897.345	19457
897.466	19464
897.587	19457
897.708	19578
897.828	19476
897.949	19381
898.07	19415
898.19	19339
898.311	19521
898.431	19331
898.552	19445
898.672	19495
898.792	19521
898.913	19518
899.033	19343
899.153	19247
899.273	19221
899.393	19274
899.513	19209
899.633	19152
899.753	19293
899.873	19190
899.993	19266
900.113	19080
900.232	19084
900.352	19076
900.472	18985
900.591	18973
900.711	19031
900.83	18863
900.95	19046
901.069	19168
901.189	18962
901.308	18814
901.427	18589
901.546	18677
901.665	18593
901.784	18559
901.904	18528
902.023	18437
902.141	18235
902.26	18186
902.379	18163
902.498	18091
902.617	18022
902.735	18110
902.854	18057
902.973	18011
903.091	17714
903.21	17824
903.328	17748
903.446	17707
903.565	17577
903.683	17589
903.801	17520
903.919	17592
904.038	17497
904.156	17315
904.274	17482
904.392	17322
904.51	17246
904.627	17288
904.745	17395
904.863	17395
904.981	17128
905.098	17025
905.216	17083
905.334	17075
905.451	17064
905.569	16980
905.686	17014
905.803	16965
905.921	16710
906.038	16774
906.155	16790
906.272	16649
906.389	16698
906.506	16478
906.623	16462
906.74	16485
906.857	16443
906.974	16344
907.091	16675
907.208	16596
907.324	16569
907.441	16337
907.557	16246
907.674	16253
907.79	16223
907.907	16211
908.023	16276
908.139	16139
908.256	16124
908.372	16093
908.488	16051
908.604	15918
908.72	15865
908.836	15884
908.952	15819
909.068	15907
909.184	16002
909.3	15819
909.415	15949
909.531	15888
909.647	15587
909.762	15584
909.878	15648
909.993	15709
910.108	15618
910.224	15443
910.339	15538
910.454	15488
910.57	15420
910.685	15272
910.8	15538
910.915	15416
911.03	15351
911.145	15203
911.259	15313
911.374	15237
911.489	15161
911.604	14994
911.718	15017
911.833	14914
911.947	14785
912.062	14754
912.176	14842
912.291	14899
912.405	14811
912.519	15108
912.633	15043
912.748	14960
912.862	14883
912.976	14693
913.09	14564
913.204	14754
913.318	14769
913.431	14845
913.545	14864
913.659	14948
913.772	14712
913.886	14560
914	14465
914.113	14739
914.226	14560
914.34	14651
914.453	14415
914.566	14590
914.68	14381
914.793	14473
914.906	14206
915.019	14229
915.132	14145
915.245	14225
915.358	14248
915.47	14202
915.583	14103
915.696	14210
915.809	14343
915.921	14374
916.034	14046
916.146	14100
916.259	14088
916.371	14142
916.483	14149
916.595	14001
916.708	14130
916.82	13982
916.932	13989
917.044	13967
917.156	13936
917.268	13799
917.38	13932
917.491	13875
917.603	13898
917.715	13826
917.826	13997
917.938	13883
918.049	13700
918.161	13769
918.272	13974
918.384	13917
918.495	13807
918.606	13639
918.717	13590
918.828	13597
918.939	13666
919.05	13632
919.161	13575
919.272	13362
919.383	13495
919.494	13727
919.604	13715
919.715	13605
919.826	13480
919.936	13571
920.047	13677
920.157	13620
920.267	13791
920.378	13537
920.488	13491
920.598	13734
920.708	13757
920.818	13655
920.928	13677
921.038	13826
921.148	13693
921.258	13525
921.368	13430
921.477	13270
921.587	13358
921.697	13202
921.806	13324
921.916	13190
922.025	13072
922.134	12951
922.244	12928
922.353	12932
922.462	12894
922.571	12730
922.68	12658
922.789	12597
922.898	12585
923.007	12566
923.116	12566
923.224	12612
923.333	12623
923.442	12486
923.55	12414
923.659	12467
923.767	12418
923.876	12403
923.984	12486
924.092	12296
924.201	12357
924.309	12357
924.417	12308
924.525	12369
924.633	12277
924.741	13312
924.849	12205
924.956	12258
925.064	12106
925.172	12076
925.279	12060
925.387	12110
925.494	12114
925.602	12228
925.709	12163
925.816	12034
925.924	12053
926.031	12114
926.138	12019
926.245	12091
926.352	12045
926.459	12182
926.566	12079
926.673	11980
926.779	11863
926.886	11901
926.993	11676
927.099	11718
927.206	11665
927.312	11558
927.419	11779
927.525	11691
927.631	11680
927.737	11566
927.843	11482
927.95	11440
928.056	11562
928.162	11524
928.267	11570
928.373	12041
928.479	11627
928.585	11368
928.69	11547
928.796	11539
928.901	11459
929.007	11220
929.112	11326
929.218	11440
929.323	11250
929.428	11197
929.533	11326
929.638	11185
929.743	11208
929.848	11250
929.953	11197
930.058	11174
930.163	11003
930.267	10942
930.372	11102
930.477	10919
930.581	11094
930.685	10961
930.79	10847
930.894	10820
930.998	10816
931.103	10930
931.207	10603
931.311	10462
931.415	10390
931.519	10219
931.623	10257
