Data from test_V78500241_2162.txt Node
Date: Fri Mar 25 14:48:46 CST 2022
User: usil
Spectrometer: V785-0024
Trigger mode: 0
Integration Time (sec): 4.000000E-1
Scans to average: 1
Nonlinearity correction enabled: false
Boxcar width: 0
Storing dark spectrum: false
XAxis mode: Wavelengths
Number of Pixels in Spectrum: 1024
>>>>>Begin Spectral Data<<<<<
801.071	22135
801.214	22124
801.356	21778
801.499	21819
801.641	21580
801.783	21469
801.926	21606
802.068	21561
802.211	21435
802.353	21252
802.496	21089
802.638	21081
802.78	21028
802.923	20975
803.065	20868
803.208	20864
803.35	21001
803.492	20941
803.635	21043
803.777	20815
803.919	20929
804.061	21272
804.204	20967
804.346	20944
804.488	20861
804.63	20792
804.773	20800
804.915	20804
805.057	20910
805.199	20701
805.341	20849
805.483	20895
805.626	20941
805.768	20800
805.91	20857
806.052	20823
806.194	20613
806.336	20948
806.478	20750
806.62	20864
806.762	20902
806.904	21093
807.046	21199
807.188	21116
807.33	21074
807.472	21089
807.614	20956
807.756	21047
807.898	20941
808.04	20876
808.182	20845
808.324	20902
808.465	20948
808.607	21188
808.749	21169
808.891	21157
809.033	21397
809.174	21348
809.316	21173
809.458	21173
809.6	21268
809.741	21252
809.883	21291
810.025	21386
810.166	21405
810.308	21249
810.45	21291
810.591	21062
810.733	21081
810.875	21032
811.016	20906
811.158	20952
811.299	21104
811.441	21142
811.582	21123
811.724	21074
811.865	20967
812.007	20952
812.148	20971
812.29	21096
812.431	21081
812.573	21321
812.714	21348
812.855	21473
812.997	21599
813.138	21656
813.279	21557
813.421	21511
813.562	21401
813.703	21199
813.845	21039
813.986	20777
814.127	20754
814.268	20537
814.41	20541
814.551	20480
814.692	20594
814.833	20499
814.974	20415
815.115	20469
815.256	20362
815.397	20404
815.539	20393
815.68	20172
815.821	20088
815.962	20339
816.103	20248
816.244	20081
816.385	19944
816.526	19959
816.666	19814
816.807	19731
816.948	19788
817.089	19757
817.23	19727
817.371	19594
817.512	19677
817.653	19685
817.793	19586
817.934	19605
818.075	19613
818.216	19677
818.356	19674
818.497	19381
818.638	19350
818.778	19209
818.919	19308
819.06	19392
819.2	19346
819.341	19483
819.481	19552
819.622	19685
819.762	19818
819.903	19799
820.043	19715
820.184	19571
820.324	19658
820.465	19708
820.605	19563
820.746	19734
820.886	19480
821.026	19628
821.167	19582
821.307	19715
821.447	19533
821.588	19259
821.728	19365
821.868	19190
822.008	19103
822.149	19012
822.289	18947
822.429	18840
822.569	18719
822.709	18760
822.849	18494
822.99	18494
823.13	18467
823.27	18544
823.41	18330
823.55	18308
823.69	18266
823.83	18281
823.97	18152
824.11	18007
824.25	18106
824.389	18095
824.529	18083
824.669	18159
824.809	18213
824.949	18213
825.089	18136
825.228	18083
825.368	17935
825.508	17908
825.648	17855
825.787	18007
825.927	17973
826.067	17771
826.206	17923
826.346	17984
826.485	17935
826.625	17908
826.765	18022
826.904	17794
827.044	17573
827.183	17615
827.323	17592
827.462	17672
827.601	17406
827.741	17524
827.88	17585
828.02	17455
828.159	17474
828.298	17524
828.437	17600
828.577	17562
828.716	17646
828.855	17604
828.994	17345
829.134	17356
829.273	17360
829.412	17292
829.551	17258
829.69	17341
829.829	17231
829.968	17299
830.107	17448
830.246	17322
830.385	17242
830.524	17231
830.663	17197
830.802	17048
830.941	16881
831.08	16908
831.219	16938
831.357	17037
831.496	17102
831.635	16927
831.774	16755
831.913	16812
832.051	16752
832.19	16877
832.329	16778
832.467	16615
832.606	16603
832.744	16710
832.883	16649
833.022	16569
833.16	16577
833.299	16679
833.437	16782
833.576	16596
833.714	16656
833.852	16691
833.991	16668
834.129	16809
834.267	16702
834.406	16672
834.544	16596
834.682	16755
834.821	16668
834.959	16752
835.097	16694
835.235	16862
835.373	16668
835.511	16725
835.65	16462
835.788	16569
835.926	16440
836.064	16413
836.202	16417
836.34	16630
836.478	16615
836.615	16550
836.753	16535
836.891	16668
837.029	16558
837.167	16535
837.305	16493
837.443	16394
837.58	16344
837.718	16504
837.856	16398
837.993	16318
838.131	16394
838.269	16284
838.406	16322
838.544	16303
838.681	16139
838.819	16059
838.956	15998
839.094	15953
839.231	16010
839.369	16082
839.506	16413
839.643	16261
839.781	16029
839.918	15960
840.055	16082
840.193	16029
840.33	15911
840.467	15975
840.604	16025
840.742	16223
840.879	15842
841.016	15854
841.153	15850
841.29	16055
841.427	15998
841.564	15994
841.701	16029
841.838	15907
841.975	15895
842.112	15964
842.249	15766
842.385	15781
842.522	15998
842.659	15709
842.796	15831
842.933	15812
843.069	15686
843.206	15816
843.343	15766
843.479	15793
843.616	15747
843.752	15618
843.889	15618
844.025	15732
844.162	15405
844.298	15816
844.435	15504
844.571	15439
844.708	15572
844.844	15679
844.98	15717
845.117	15724
845.253	15561
845.389	15382
845.525	15447
845.661	15428
845.798	15348
845.934	15344
846.07	15336
846.206	15408
846.342	15492
846.478	15279
846.614	15161
846.75	15081
846.886	15093
847.022	15233
847.158	15138
847.294	15097
847.429	15051
847.565	15184
847.701	15325
847.837	14975
847.972	14743
848.108	14921
848.244	15001
848.379	14762
848.515	14670
848.65	14750
848.786	14811
848.921	14819
849.057	14781
849.192	14834
849.328	14781
849.463	14712
849.598	14594
849.734	14689
849.869	14629
850.004	14476
850.14	14473
850.275	14488
850.41	14332
850.545	14317
850.68	14431
850.815	14461
850.95	14476
851.085	14564
851.22	14564
851.355	14484
851.49	14434
851.625	14431
851.76	14434
851.895	14370
852.03	14320
852.165	14415
852.299	14484
852.434	14473
852.569	14400
852.703	14484
852.838	14674
852.973	14560
853.107	14640
853.242	14419
853.376	14374
853.511	14199
853.645	14259
853.78	14438
853.914	14351
854.048	14355
854.183	14290
854.317	14328
854.451	14484
854.585	14347
854.72	14377
854.854	14389
854.988	14275
855.122	14286
855.256	14244
855.39	14385
855.524	14530
855.658	14400
855.792	14313
855.926	14393
856.06	14385
856.194	14488
856.327	14358
856.461	14309
856.595	14317
856.729	14328
856.862	14377
856.996	14381
857.13	14351
857.263	14484
857.397	14564
857.53	14377
857.664	14366
857.797	14396
857.931	14434
858.064	14469
858.197	14454
858.331	14328
858.464	14259
858.597	14145
858.731	14343
858.864	14298
858.997	14328
859.13	14339
859.263	14389
859.396	14499
859.529	14343
859.662	14415
859.795	14343
859.928	14290
860.061	14469
860.194	14541
860.327	14389
860.46	14290
860.592	14499
860.725	14431
860.858	14381
860.99	14351
861.123	14320
861.256	14130
861.388	14328
861.521	14906
861.653	14248
861.786	14134
861.918	14130
862.05	14313
862.183	14229
862.315	14282
862.447	14381
862.58	14267
862.712	14157
862.844	14077
862.976	14206
863.108	14115
863.24	14488
863.372	14027
863.504	14138
863.636	14065
863.768	14180
863.9	14092
864.032	14031
864.164	14054
864.296	14103
864.428	14271
864.559	14252
864.691	14214
864.823	14183
864.954	14244
865.086	14259
865.217	14115
865.349	14043
865.48	14073
865.612	14088
865.743	14271
865.875	14123
866.006	14084
866.137	14153
866.269	14088
866.4	14126
866.531	14096
866.662	14020
866.793	14073
866.924	13989
867.055	14107
867.186	14096
867.317	14081
867.448	14096
867.579	14046
867.71	13993
867.841	13989
867.972	14107
868.103	14134
868.233	14153
868.364	14103
868.495	14088
868.625	14267
868.756	14404
868.886	14351
869.017	14328
869.147	14423
869.278	14442
869.408	14419
869.539	14343
869.669	14434
869.799	14324
869.929	14400
870.06	14541
870.19	14667
870.32	14670
870.45	14655
870.58	14781
870.71	14830
870.84	14883
870.97	14720
871.1	14765
871.23	14872
871.36	14994
871.489	14853
871.619	14883
871.749	14887
871.879	14883
872.008	15028
872.138	14880
872.267	14921
872.397	14902
872.526	14746
872.656	14769
872.785	14876
872.915	15043
873.044	15020
873.173	14990
873.303	15024
873.432	15070
873.561	14986
873.69	15017
873.819	14937
873.948	15108
874.077	15047
874.206	14990
874.335	15135
874.464	15138
874.593	15336
874.722	15173
874.851	15378
874.979	15321
875.108	15340
875.237	15252
875.365	15249
875.494	15291
875.623	15351
875.751	15374
875.88	15336
876.008	15374
876.136	15511
876.265	15743
876.393	15911
876.521	15747
876.65	15823
876.778	15728
876.906	15728
877.034	15580
877.162	15819
877.29	15644
877.418	15705
877.546	15797
877.674	15675
877.802	15701
877.93	15713
878.058	15808
878.185	15591
878.313	15576
878.441	15747
878.568	15515
878.696	15629
878.824	15797
878.951	15808
879.079	15903
879.206	16051
879.333	15911
879.461	15789
879.588	15911
879.715	15926
879.842	16010
879.97	15705
880.097	15500
880.224	15526
880.351	15545
880.478	15606
880.605	15637
880.732	15447
880.859	15739
880.986	15606
881.112	15648
881.239	15420
881.366	15302
881.493	15260
881.619	15279
881.746	15241
881.872	15252
881.999	15237
882.125	15222
882.252	15222
882.378	15268
882.505	15405
882.631	15188
882.757	15005
882.883	15074
883.01	15104
883.136	15070
883.262	14979
883.388	14883
883.514	15089
883.64	15131
883.766	15020
883.892	14864
884.018	14815
884.143	14937
884.269	15157
884.395	14811
884.52	14758
884.646	14804
884.772	14769
884.897	14724
885.023	14663
885.148	14834
885.274	14906
885.399	14864
885.524	14716
885.65	14777
885.775	14887
885.9	14823
886.025	14895
886.15	14807
886.275	14758
886.4	14648
886.525	14746
886.65	14720
886.775	14678
886.9	14948
887.025	15081
887.149	14811
887.274	14495
887.399	14537
887.523	14514
887.648	14503
887.773	14473
887.897	14648
888.021	14598
888.146	14495
888.27	14693
888.395	14701
888.519	14708
888.643	14621
888.767	14686
888.891	14450
889.015	14400
889.139	14473
889.263	14499
889.387	14594
889.511	14678
889.635	14537
889.759	14404
889.883	14385
890.006	14495
890.13	14549
890.254	14377
890.377	14389
890.501	14286
890.624	14240
890.748	14362
890.871	14206
890.995	14008
891.118	14077
891.241	14237
891.364	14134
891.488	14278
891.611	14073
891.734	14115
891.857	14176
891.98	14161
892.103	14221
892.226	14225
892.349	14164
892.471	14069
892.594	14145
892.717	14244
892.839	14077
892.962	14180
893.085	14233
893.207	14187
893.33	14062
893.452	14084
893.575	14229
893.697	14123
893.819	14233
893.941	14275
894.064	14301
894.186	14119
894.308	14103
894.43	14309
894.552	14393
894.674	14336
894.796	14130
894.918	14168
895.04	14134
895.161	14305
895.283	14225
895.405	14214
895.526	14206
895.648	14286
895.769	14351
895.891	14351
896.012	14370
896.134	14358
896.255	14218
896.376	14317
896.498	14298
896.619	14362
896.74	14294
896.861	14404
896.982	14659
897.103	14762
897.224	14541
897.345	14583
897.466	14503
897.587	14583
897.708	14777
897.828	14564
897.949	14469
898.07	14488
898.19	14457
898.311	14663
898.431	14670
898.552	14537
898.672	14735
898.792	14754
898.913	14640
899.033	14571
899.153	14484
899.273	14385
899.393	14476
899.513	14511
899.633	14492
899.753	14450
899.873	14545
899.993	14499
900.113	14450
900.232	14598
900.352	14446
900.472	14396
900.591	14343
900.711	14370
900.83	14351
900.95	14473
901.069	14541
901.189	14393
901.308	14119
901.427	14035
901.546	14035
901.665	14020
901.784	14073
901.904	13947
902.023	13772
902.141	13685
902.26	13624
902.379	13791
902.498	13636
902.617	13590
902.735	13712
902.854	13632
902.973	13563
903.091	13350
903.21	13339
903.328	13327
903.446	13293
903.565	13206
903.683	13202
903.801	13160
903.919	13255
904.038	13137
904.156	13034
904.274	13069
904.392	13027
904.51	13080
904.627	13042
904.745	13057
904.863	13129
904.981	12886
905.098	12665
905.216	12692
905.334	12715
905.451	12730
905.569	12673
905.686	12722
905.803	12817
905.921	12547
906.038	12608
906.155	12578
906.272	12521
906.389	12452
906.506	12315
906.623	12365
906.74	12346
906.857	12159
906.974	12235
907.091	12422
907.208	12460
907.324	12384
907.441	12232
907.557	12095
907.674	12060
907.79	11977
907.907	12076
908.023	12049
908.139	12064
908.256	12007
908.372	11950
908.488	11969
908.604	11821
908.72	11748
908.836	11893
908.952	11752
909.068	11802
909.184	11866
909.3	11855
909.415	11870
909.531	11821
909.647	11554
909.762	11539
909.878	11482
909.993	11718
910.108	11566
910.224	11634
910.339	11642
910.454	11478
910.57	11398
910.685	11391
910.8	11619
910.915	11623
911.03	11478
911.145	11254
911.259	11227
911.374	11292
911.489	11216
911.604	11113
911.718	11048
911.833	11052
911.947	10972
912.062	10904
912.176	11022
912.291	11105
912.405	10991
912.519	11220
912.633	11204
912.748	11102
912.862	11014
912.976	10908
913.09	10763
913.204	10793
913.318	10995
913.431	10999
913.545	11006
913.659	11060
913.772	10858
913.886	10812
914	10744
914.113	10843
914.226	10904
914.34	10934
914.453	10706
914.566	10824
914.68	10717
914.793	10683
914.906	10584
915.019	10485
915.132	10531
915.245	10421
915.358	10569
915.47	10577
915.583	10531
915.696	10637
915.809	10714
915.921	10668
916.034	10504
916.146	10432
916.259	10440
916.371	10668
916.483	10622
916.595	10500
916.708	10504
916.82	10451
916.932	10379
917.044	10413
917.156	10413
917.268	10329
917.38	10394
917.491	10348
917.603	10394
917.715	10478
917.826	10421
917.938	10341
918.049	10188
918.161	10329
918.272	10485
918.384	10504
918.495	10291
918.606	10158
918.717	10215
918.828	10246
918.939	10246
919.05	10181
919.161	10200
919.272	10101
919.383	10013
919.494	10337
919.604	10504
919.715	10280
919.826	10192
919.936	10200
920.047	10440
920.157	10287
920.267	10455
920.378	10322
920.488	10287
920.598	10417
920.708	10603
920.818	10440
920.928	10413
921.038	10554
921.148	10611
921.258	10287
921.368	10227
921.477	10147
921.587	10097
921.697	9964
921.806	10082
921.916	10010
922.025	9888
922.134	9770
922.244	9766
922.353	9819
922.462	9690
922.571	9648
922.68	9511
922.789	9485
922.898	9542
923.007	9466
923.116	9553
923.224	9504
923.333	9481
923.442	9443
923.55	9313
923.659	9306
923.767	9435
923.876	9416
923.984	9378
924.092	9283
924.201	9386
924.309	9310
924.417	9374
924.525	9348
924.633	9256
924.741	10154
924.849	9100
924.956	9325
925.064	9192
925.172	9093
925.279	9062
925.387	9169
925.494	9218
925.602	9279
925.709	9260
925.816	9081
925.924	9207
926.031	9241
926.138	9165
926.245	9150
926.352	9150
926.459	9211
926.566	9253
926.673	9104
926.779	9043
926.886	8975
926.993	8933
927.099	8857
927.206	8804
927.312	8941
927.419	8823
927.525	8899
927.631	8906
927.737	8781
927.843	8792
927.95	8697
928.056	8769
928.162	8811
928.267	8845
928.373	9359
928.479	8849
928.585	8648
928.69	8830
928.796	8838
928.901	8670
929.007	8533
929.112	8632
929.218	8686
929.323	8610
929.428	8579
929.533	8750
929.638	8587
929.743	8663
929.848	8613
929.953	8537
930.058	8511
930.163	8370
930.267	8336
930.372	8545
930.477	8351
930.581	8549
930.685	8488
930.79	8301
930.894	8305
930.998	8256
931.103	8469
931.207	8073
931.311	8039
931.415	8005
931.519	7788
931.623	7860
