Data from test_V78500241_710.txt Node
Date: Fri Mar 25 14:38:39 CST 2022
User: usil
Spectrometer: V785-0024
Trigger mode: 0
Integration Time (sec): 4.000000E-1
Scans to average: 1
Nonlinearity correction enabled: false
Boxcar width: 0
Storing dark spectrum: false
XAxis mode: Wavelengths
Number of Pixels in Spectrum: 1024
>>>>>Begin Spectral Data<<<<<
801.071	27675
801.214	27587
801.356	27389
801.499	27344
801.641	27138
801.783	27100
801.926	27085
802.068	26960
802.211	26861
802.353	26689
802.496	26697
802.638	26663
802.78	26552
802.923	26476
803.065	26560
803.208	26438
803.35	26564
803.492	26598
803.635	26785
803.777	26670
803.919	26777
804.061	27024
804.204	26781
804.346	26762
804.488	26773
804.63	26743
804.773	26724
804.915	26902
805.057	27055
805.199	26963
805.341	27218
805.483	27173
805.626	27268
805.768	27310
805.91	27545
806.052	27610
806.194	27713
806.336	27994
806.478	28139
806.62	28253
806.762	28527
806.904	28896
807.046	29482
807.188	29779
807.33	30205
807.472	30856
807.614	31567
807.756	32423
807.898	33496
808.04	35181
808.182	36954
808.324	39755
808.465	42620
808.607	46162
808.749	49141
808.891	50792
809.033	51089
809.174	49278
809.316	46413
809.458	42878
809.6	39443
809.741	36513
809.883	34519
810.025	32948
810.166	31795
810.308	31004
810.45	30388
810.591	29828
810.733	29079
810.875	28946
811.016	28596
811.158	28348
811.299	28352
811.441	28215
811.582	28059
811.724	27819
811.865	27599
812.007	27629
812.148	27583
812.29	27454
812.431	27523
812.573	27671
812.714	27523
812.855	27755
812.997	27766
813.138	27861
813.279	27633
813.421	27557
813.562	27408
813.703	27195
813.845	26963
813.986	26636
814.127	26457
814.268	26465
814.41	26453
814.551	26339
814.692	26358
814.833	26252
814.974	26252
815.115	26244
815.256	25978
815.397	26096
815.539	25944
815.68	25921
815.821	25689
815.962	25841
816.103	25814
816.244	25609
816.385	25518
816.526	25529
816.666	25266
816.807	25171
816.948	25240
817.089	25263
817.23	25069
817.371	25099
817.512	25015
817.653	25050
817.793	25000
817.934	25031
818.075	24951
818.216	25008
818.356	25103
818.497	24814
818.638	24555
818.778	24696
818.919	24776
819.06	24734
819.2	24734
819.341	24932
819.481	24916
819.622	24981
819.762	25266
819.903	25213
820.043	24928
820.184	24973
820.324	24970
820.465	24928
820.605	24970
820.746	24844
820.886	24703
821.026	24741
821.167	24768
821.307	24932
821.447	24658
821.588	24494
821.728	24422
821.868	24273
822.008	24129
822.149	24041
822.289	24057
822.429	23878
822.569	23718
822.709	23718
822.849	23699
822.99	23512
823.13	23554
823.27	23444
823.41	23349
823.55	23299
823.69	23341
823.83	23258
823.97	23364
824.11	23147
824.25	23117
824.389	23018
824.529	23090
824.669	23121
824.809	23239
824.949	23258
825.089	23200
825.228	22995
825.368	23086
825.508	22900
825.648	22946
825.787	22957
825.927	22961
826.067	22934
826.206	22915
826.346	22831
826.485	22927
826.625	22908
826.765	23037
826.904	23033
827.044	22630
827.183	22573
827.323	22580
827.462	22542
827.601	22630
827.741	22459
827.88	22550
828.02	22493
828.159	22565
828.298	22554
828.437	22466
828.577	22375
828.716	22679
828.855	22379
828.994	22226
829.134	22238
829.273	22329
829.412	22280
829.551	22135
829.69	22139
829.829	22192
829.968	22242
830.107	22181
830.246	22207
830.385	22101
830.524	21991
830.663	22055
830.802	21888
830.941	21915
831.08	21709
831.219	21922
831.357	21831
831.496	22128
831.635	21907
831.774	21641
831.913	21747
832.051	21587
832.19	21583
832.329	21686
832.467	21671
832.606	21603
832.744	21686
832.883	21755
833.022	21800
833.16	21945
833.299	22078
833.437	22158
833.576	22261
833.714	22360
833.852	22569
833.991	22683
834.129	22733
834.267	22850
834.406	22733
834.544	22687
834.682	22599
834.821	22443
834.959	22443
835.097	22272
835.235	22169
835.373	21972
835.511	21964
835.65	21793
835.788	21690
835.926	21317
836.064	21344
836.202	21321
836.34	21386
836.478	21401
836.615	21344
836.753	21359
836.891	21424
837.029	21279
837.167	21184
837.305	21222
837.443	21131
837.58	21131
837.718	21142
837.856	21077
837.993	21028
838.131	21211
838.269	21108
838.406	20929
838.544	20883
838.681	20906
838.819	20758
838.956	20571
839.094	20693
839.231	20667
839.369	20648
839.506	20986
839.643	20868
839.781	20560
839.918	20469
840.055	20511
840.193	20480
840.33	20473
840.467	20484
840.604	20640
840.742	20750
840.879	20267
841.016	20480
841.153	20488
841.29	20602
841.427	20693
841.564	20507
841.701	20560
841.838	20423
841.975	20450
842.112	20412
842.249	20396
842.385	20336
842.522	20514
842.659	20446
842.796	20324
842.933	20442
843.069	20423
843.206	20362
843.343	20499
843.479	20412
843.616	20549
843.752	20358
843.889	20358
844.025	20636
844.162	20579
844.298	20811
844.435	20712
844.571	20910
844.708	21389
844.844	21854
844.98	22192
845.117	22778
845.253	23824
845.389	25879
845.525	29372
845.661	35356
845.798	42327
845.934	47615
846.07	49537
846.206	47847
846.342	42985
846.478	36182
846.614	30076
846.75	26271
846.886	23878
847.022	22493
847.158	21785
847.294	21131
847.429	20731
847.565	20343
847.701	20522
847.837	19997
847.972	19753
848.108	19875
848.244	19696
848.379	19597
848.515	19396
848.65	19358
848.786	19346
848.921	19422
849.057	19441
849.192	19415
849.328	19373
849.463	19263
849.598	19228
849.734	19122
849.869	19061
850.004	19034
850.14	18981
850.275	18977
850.41	18989
850.545	18886
850.68	19027
850.815	18935
850.95	18802
851.085	19050
851.22	18951
851.355	18954
851.49	19004
851.625	18909
851.76	18844
851.895	18947
852.03	18848
852.165	18905
852.299	18993
852.434	19065
852.569	18989
852.703	19012
852.838	19103
852.973	19285
853.107	19217
853.242	18996
853.376	19038
853.511	18909
853.645	19027
853.78	19095
853.914	19236
854.048	19160
854.183	19183
854.317	19236
854.451	19415
854.585	19247
854.72	19076
854.854	19160
854.988	19061
855.122	19198
855.256	18844
855.39	18924
855.524	18935
855.658	18970
855.792	18848
855.926	18802
856.06	18909
856.194	18856
856.327	18852
856.461	18802
856.595	18715
856.729	18764
856.862	18787
856.996	18787
857.13	18795
857.263	18859
857.397	18958
857.53	18749
857.664	18791
857.797	18840
857.931	18810
858.064	18665
858.197	18806
858.331	18661
858.464	18608
858.597	18547
858.731	18582
858.864	18677
858.997	18631
859.13	18585
859.263	18631
859.396	18730
859.529	18688
859.662	18646
859.795	18597
859.928	18665
860.061	18840
860.194	18772
860.327	18536
860.46	18528
860.592	18692
860.725	18719
860.858	18665
860.99	18506
861.123	18506
861.256	18509
861.388	18490
861.521	19297
861.653	18353
861.786	18391
861.918	18460
862.05	18498
862.183	18532
862.315	18502
862.447	18627
862.58	18513
862.712	18338
862.844	18205
862.976	18308
863.108	18403
863.24	18673
863.372	18220
863.504	18289
863.636	18254
863.768	18289
863.9	18224
864.032	18098
864.164	18216
864.296	18201
864.428	18384
864.559	18296
864.691	18281
864.823	18194
864.954	18353
865.086	18144
865.217	18201
865.349	18064
865.48	18163
865.612	18144
865.743	18190
865.875	18178
866.006	18133
866.137	18117
866.269	18182
866.4	18178
866.531	18129
866.662	18041
866.793	18053
866.924	18053
867.055	18121
867.186	18064
867.317	18057
867.448	17954
867.579	18136
867.71	18030
867.841	17980
867.972	18216
868.103	18140
868.233	18095
868.364	18186
868.495	18232
868.625	18372
868.756	18456
868.886	18311
869.017	18391
869.147	18528
869.278	18502
869.408	18384
869.539	18372
869.669	18506
869.799	18308
869.929	18456
870.06	18585
870.19	18593
870.32	18730
870.45	18646
870.58	18920
870.71	18973
870.84	18954
870.97	18829
871.1	18817
871.23	19046
871.36	19141
871.489	18985
871.619	18981
871.749	19076
871.879	19107
872.008	19209
872.138	19259
872.267	19110
872.397	19091
872.526	18924
872.656	19031
872.785	19008
872.915	19232
873.044	19403
873.173	19240
873.303	19396
873.432	19403
873.561	19362
873.69	19407
873.819	19457
873.948	19472
874.077	19343
874.206	19388
874.335	19518
874.464	19586
874.593	19811
874.722	19784
874.851	19967
874.979	19925
875.108	19974
875.237	19902
875.365	19932
875.494	19989
875.623	20100
875.751	20016
875.88	20157
876.008	20290
876.136	20404
876.265	20781
876.393	20861
876.521	20910
876.65	20811
876.778	20876
876.906	20941
877.034	20868
877.162	21055
877.29	21066
877.418	21260
877.546	21374
877.674	21469
877.802	21572
877.93	21545
878.058	21854
878.185	22017
878.313	22333
878.441	22721
878.568	22953
878.696	23638
878.824	24559
878.951	25479
879.079	27184
879.206	29318
879.333	31445
879.461	33142
879.588	34143
879.715	34166
879.842	33401
879.97	31563
880.097	29258
880.224	27580
880.351	26320
880.478	25487
880.605	24894
880.732	24627
880.859	24475
880.986	24133
881.112	23969
881.239	23855
881.366	23657
881.493	23520
881.619	23535
881.746	23551
881.872	23543
881.999	23551
882.125	23608
882.252	23760
882.378	23779
882.505	23764
882.631	23592
882.757	23615
882.883	23543
883.01	23756
883.136	23421
883.262	23490
883.388	23402
883.514	23577
883.64	23562
883.766	23554
883.892	23261
884.018	23315
884.143	23505
884.269	23547
884.395	23246
884.52	23140
884.646	23318
884.772	23284
884.897	23246
885.023	23311
885.148	23330
885.274	23436
885.399	23250
885.524	23044
885.65	22923
885.775	22759
885.9	22778
886.025	22645
886.15	22375
886.275	22177
886.4	21873
886.525	21846
886.65	21850
886.775	21618
886.9	21804
887.025	21618
887.149	21336
887.274	21081
887.399	21055
887.523	21043
887.648	20815
887.773	20693
887.897	20754
888.021	20636
888.146	20450
888.27	20499
888.395	20499
888.519	20400
888.643	20317
888.767	20351
888.891	20210
889.015	19978
889.139	20058
889.263	20062
889.387	20001
889.511	20058
889.635	19879
889.759	19750
889.883	19715
890.006	19693
890.13	19750
890.254	19575
890.377	19575
890.501	19331
890.624	19354
890.748	19415
890.871	19228
890.995	19156
891.118	19031
891.241	19042
891.364	18993
891.488	19225
891.611	18916
891.734	18924
891.857	18954
891.98	18962
892.103	18886
892.226	18943
892.349	18779
892.471	18650
892.594	18745
892.717	18722
892.839	18688
892.962	18563
893.085	18669
893.207	18597
893.33	18338
893.452	18540
893.575	18517
893.697	18498
893.819	18563
893.941	18506
894.064	18540
894.186	18285
894.308	18178
894.43	18395
894.552	18521
894.674	18414
894.796	18140
894.918	18254
895.04	18178
895.161	18296
895.283	18209
895.405	18136
895.526	18243
895.648	18091
895.769	18136
895.891	18171
896.012	18190
896.134	18281
896.255	18083
896.376	18034
896.498	18174
896.619	18095
896.74	18163
896.861	18171
896.982	18490
897.103	18498
897.224	18372
897.345	18311
897.466	18182
897.587	18338
897.708	18323
897.828	18300
897.949	18319
898.07	18163
898.19	18220
898.311	18281
898.431	18121
898.552	18205
898.672	18315
898.792	18353
898.913	18330
899.033	18194
899.153	17996
899.273	17893
899.393	17920
899.513	18003
899.633	18019
899.753	18091
899.873	17988
899.993	18038
900.113	17980
900.232	18030
900.352	17954
900.472	17843
900.591	17878
900.711	17764
900.83	17836
900.95	17859
901.069	17946
901.189	17661
901.308	17535
901.427	17356
901.546	17364
901.665	17402
901.784	17315
901.904	17254
902.023	17143
902.141	16885
902.26	16927
902.379	16904
902.498	16930
902.617	16793
902.735	16892
902.854	16774
902.973	16641
903.091	16558
903.21	16500
903.328	16447
903.446	16405
903.565	16341
903.683	16272
903.801	16166
903.919	16265
904.038	16261
904.156	16040
904.274	16032
904.392	15937
904.51	15956
904.627	16006
904.745	16013
904.863	16025
904.981	15873
905.098	15732
905.216	15656
905.334	15717
905.451	15698
905.569	15656
905.686	15656
905.803	15686
905.921	15462
906.038	15481
906.155	15424
906.272	15321
906.389	15321
906.506	15249
906.623	15116
906.74	15142
906.857	15047
906.974	15013
907.091	15245
907.208	15233
907.324	15264
907.441	14998
907.557	14918
907.674	14842
907.79	14887
907.907	14819
908.023	14910
908.139	14880
908.256	14777
908.372	14807
908.488	14739
908.604	14651
908.72	14644
908.836	14651
908.952	14594
909.068	14583
909.184	14651
909.3	14625
909.415	14625
909.531	14640
909.647	14336
909.762	14374
909.878	14317
909.993	14393
910.108	14320
910.224	14290
910.339	14328
910.454	14282
910.57	14180
910.685	14062
910.8	14434
910.915	14328
911.03	14206
911.145	14016
911.259	13947
911.374	13967
911.489	13921
911.604	13784
911.718	13681
911.833	13715
911.947	13693
912.062	13556
912.176	13723
912.291	13689
912.405	13700
912.519	13811
912.633	13868
912.748	13772
912.862	13677
912.976	13586
913.09	13400
913.204	13514
913.318	13544
913.431	13700
913.545	13674
913.659	13636
913.772	13559
913.886	13419
914	13438
914.113	13388
914.226	13460
914.34	13499
914.453	13365
914.566	13495
914.68	13358
914.793	13293
914.906	13156
915.019	13091
915.132	13088
915.245	13099
915.358	13152
915.47	13076
915.583	13046
915.696	13099
915.809	13263
915.921	13225
916.034	13145
916.146	12993
916.259	12958
916.371	13209
916.483	13114
916.595	13000
916.708	13038
916.82	13004
916.932	13031
917.044	13019
917.156	12943
917.268	12867
917.38	12878
917.491	12738
917.603	12901
917.715	12962
917.826	12954
917.938	12810
918.049	12779
918.161	12719
918.272	12970
918.384	12863
918.495	12764
918.606	12665
918.717	12555
918.828	12646
918.939	12623
919.05	12547
919.161	12631
919.272	12285
919.383	12475
919.494	12601
919.604	12753
919.715	12612
919.826	12509
919.936	12479
920.047	12719
920.157	12532
920.267	12700
920.378	12551
920.488	12578
920.598	12692
920.708	12875
920.818	12749
920.928	12673
921.038	12867
921.148	12776
921.258	12532
921.368	12467
921.477	12327
921.587	12334
921.697	12251
921.806	12308
921.916	12270
922.025	12079
922.134	12007
922.244	11980
922.353	12007
922.462	11920
922.571	11840
922.68	11707
922.789	11642
922.898	11695
923.007	11585
923.116	11668
923.224	11733
923.333	11608
923.442	11501
923.55	11395
923.659	11509
923.767	11532
923.876	11410
923.984	11524
924.092	11509
924.201	11433
924.309	11356
924.417	11425
924.525	11360
924.633	11360
924.741	12319
924.849	11181
924.956	11337
925.064	11220
925.172	11132
925.279	11132
925.387	11242
925.494	11132
925.602	11254
925.709	11166
925.816	11140
925.924	11155
926.031	11258
926.138	11090
926.245	11235
926.352	11064
926.459	11212
926.566	11189
926.673	11124
926.779	10953
926.886	10972
926.993	10873
927.099	10736
927.206	10717
927.312	10771
927.419	10877
927.525	10812
927.631	10828
927.737	10649
927.843	10653
927.95	10618
928.056	10683
928.162	10744
928.267	10782
928.373	11269
928.479	10755
928.585	10508
928.69	10645
928.796	10675
928.901	10542
929.007	10386
929.112	10618
929.218	10489
929.323	10493
929.428	10451
929.533	10611
929.638	10356
929.743	10459
929.848	10489
929.953	10402
930.058	10249
930.163	10268
930.267	10166
930.372	10314
930.477	10112
930.581	10314
930.685	10219
930.79	10051
930.894	10124
930.998	10044
931.103	10173
931.207	9850
931.311	9774
931.415	9667
931.519	9530
931.623	9504
