Data from test_V78500241_1245.txt Node
Date: Fri Mar 25 14:42:23 CST 2022
User: usil
Spectrometer: V785-0024
Trigger mode: 0
Integration Time (sec): 4.000000E-1
Scans to average: 1
Nonlinearity correction enabled: false
Boxcar width: 0
Storing dark spectrum: false
XAxis mode: Wavelengths
Number of Pixels in Spectrum: 1024
>>>>>Begin Spectral Data<<<<<
801.071	22462
801.214	22348
801.356	22021
801.499	21941
801.641	21747
801.783	21747
801.926	21739
802.068	21625
802.211	21576
802.353	21492
802.496	21298
802.638	21279
802.78	21245
802.923	21154
803.065	21055
803.208	21085
803.35	21089
803.492	21127
803.635	21245
803.777	21024
803.919	20979
804.061	21332
804.204	21188
804.346	21032
804.488	20914
804.63	20975
804.773	21051
804.915	20967
805.057	21108
805.199	20956
805.341	21108
805.483	21085
805.626	20975
805.768	20914
805.91	20944
806.052	20906
806.194	20944
806.336	21195
806.478	20986
806.62	20925
806.762	21062
806.904	21180
807.046	21298
807.188	21279
807.33	21401
807.472	21389
807.614	21306
807.756	21329
807.898	21176
808.04	20979
808.182	21108
808.324	21192
808.465	21074
808.607	21348
808.749	21496
808.891	21519
809.033	21576
809.174	21408
809.316	21500
809.458	21431
809.6	21397
809.741	21416
809.883	21526
810.025	21595
810.166	21564
810.308	21481
810.45	21530
810.591	21519
810.733	21264
810.875	21268
811.016	21100
811.158	21112
811.299	21252
811.441	21405
811.582	21447
811.724	21226
811.865	21085
812.007	21256
812.148	21081
812.29	21188
812.431	21428
812.573	21382
812.714	21587
812.855	21644
812.997	21694
813.138	21956
813.279	21747
813.421	21606
813.562	21538
813.703	21310
813.845	21378
813.986	21028
814.127	20845
814.268	20800
814.41	20727
814.551	20750
814.692	20845
814.833	20689
814.974	20602
815.115	20693
815.256	20533
815.397	20556
815.539	20541
815.68	20579
815.821	20339
815.962	20514
816.103	20469
816.244	20381
816.385	20191
816.526	20180
816.666	20100
816.807	19890
816.948	19875
817.089	19970
817.23	19875
817.371	19871
817.512	19913
817.653	19875
817.793	19826
817.934	19879
818.075	19811
818.216	19898
818.356	19860
818.497	19719
818.638	19601
818.778	19548
818.919	19556
819.06	19594
819.2	19708
819.341	19674
819.481	19788
819.622	19951
819.762	20111
819.903	19997
820.043	19909
820.184	19944
820.324	19868
820.465	19925
820.605	19883
820.746	19917
820.886	19753
821.026	19814
821.167	19830
821.307	19917
821.447	19750
821.588	19803
821.728	19525
821.868	19449
822.008	19232
822.149	19221
822.289	19320
822.429	19076
822.569	18939
822.709	18951
822.849	18795
822.99	18798
823.13	18753
823.27	18745
823.41	18627
823.55	18540
823.69	18566
823.83	18631
823.97	18490
824.11	18258
824.25	18308
824.389	18361
824.529	18311
824.669	18319
824.809	18334
824.949	18467
825.089	18369
825.228	18216
825.368	18144
825.508	18068
825.648	18117
825.787	18228
825.927	18167
826.067	18022
826.206	18083
826.346	18159
826.485	18182
826.625	18041
826.765	18232
826.904	18178
827.044	17878
827.183	17912
827.323	17752
827.462	17828
827.601	17748
827.741	17691
827.88	17843
828.02	17687
828.159	17771
828.298	17904
828.437	17927
828.577	17783
828.716	17984
828.855	17691
828.994	17577
829.134	17543
829.273	17726
829.412	17433
829.551	17433
829.69	17608
829.829	17562
829.968	17600
830.107	17699
830.246	17619
830.385	17516
830.524	17493
830.663	17421
830.802	17334
830.941	17121
831.08	17227
831.219	17197
831.357	17174
831.496	17410
831.635	17223
831.774	17147
831.913	17136
832.051	16984
832.19	17018
832.329	17045
832.467	16946
832.606	16896
832.744	16980
832.883	16885
833.022	16854
833.16	17014
833.299	16957
833.437	16957
833.576	16927
833.714	17022
833.852	17018
833.991	17064
834.129	16965
834.267	16968
834.406	17025
834.544	17079
834.682	16980
834.821	17022
834.959	17151
835.097	16896
835.235	16999
835.373	16991
835.511	16938
835.65	17010
835.788	16881
835.926	16706
836.064	16725
836.202	16725
836.34	16843
836.478	16889
836.615	16885
836.753	16934
836.891	16949
837.029	16942
837.167	16953
837.305	16820
837.443	16885
837.58	16752
837.718	16839
837.856	16869
837.993	16759
838.131	16831
838.269	16683
838.406	16698
838.544	16664
838.681	16512
838.819	16478
838.956	16310
839.094	16303
839.231	16493
839.369	16462
839.506	16710
839.643	16519
839.781	16341
839.918	16306
840.055	16390
840.193	16299
840.33	16390
840.467	16314
840.604	16421
840.742	16573
840.879	16200
841.016	16287
841.153	16200
841.29	16436
841.427	16398
841.564	16363
841.701	16333
841.838	16211
841.975	16223
842.112	16185
842.249	16150
842.385	16078
842.522	16268
842.659	16086
842.796	16029
842.933	16147
843.069	16120
843.206	15987
843.343	16147
843.479	16162
843.616	16200
843.752	15941
843.889	15941
844.025	16017
844.162	15922
844.298	15895
844.435	15934
844.571	15835
844.708	15915
844.844	16055
844.98	16025
845.117	16063
845.253	15926
845.389	15766
845.525	15804
845.661	15808
845.798	15679
845.934	15747
846.07	15690
846.206	15953
846.342	15827
846.478	15694
846.614	15599
846.75	15477
846.886	15526
847.022	15572
847.158	15504
847.294	15397
847.429	15313
847.565	15469
847.701	15698
847.837	15192
847.972	15138
848.108	15211
848.244	15154
848.379	15070
848.515	15032
848.65	15066
848.786	15024
848.921	15119
849.057	15135
849.192	15165
849.328	15047
849.463	15066
849.598	15024
849.734	14990
849.869	14864
850.004	14842
850.14	14845
850.275	14788
850.41	14712
850.545	14754
850.68	14811
850.815	14838
850.95	14750
851.085	14990
851.22	14986
851.355	14781
851.49	14758
851.625	14826
851.76	14750
851.895	14754
852.03	14629
852.165	14845
852.299	14815
852.434	14921
852.569	14910
852.703	14864
852.838	14811
852.973	15051
853.107	15043
853.242	14807
853.376	14610
853.511	14522
853.645	14678
853.78	14883
853.914	14705
854.048	14636
854.183	14682
854.317	14648
854.451	14823
854.585	14765
854.72	14571
854.854	14754
854.988	14621
855.122	14659
855.256	14625
855.39	14648
855.524	14815
855.658	14674
855.792	14648
855.926	14686
856.06	14693
856.194	14868
856.327	14720
856.461	14689
856.595	14556
856.729	14625
856.862	14724
856.996	14674
857.13	14804
857.263	14769
857.397	14921
857.53	14648
857.664	14678
857.797	14811
857.931	14754
858.064	14724
858.197	14792
858.331	14739
858.464	14568
858.597	14636
858.731	14636
858.864	14659
858.997	14621
859.13	14674
859.263	14716
859.396	14743
859.529	14670
859.662	14648
859.795	14674
859.928	14655
860.061	14792
860.194	14815
860.327	14682
860.46	14541
860.592	14674
860.725	14830
860.858	14758
860.99	14750
861.123	14644
861.256	14610
861.388	14724
861.521	15401
861.653	14655
861.786	14408
861.918	14526
862.05	14598
862.183	14621
862.315	14587
862.447	14682
862.58	14629
862.712	14507
862.844	14362
862.976	14480
863.108	14511
863.24	14967
863.372	14377
863.504	14385
863.636	14393
863.768	14518
863.9	14328
864.032	14419
864.164	14484
864.296	14469
864.428	14552
864.559	14473
864.691	14621
864.823	14495
864.954	14518
865.086	14488
865.217	14469
865.349	14419
865.48	14473
865.612	14461
865.743	14488
865.875	14389
866.006	14408
866.137	14476
866.269	14476
866.4	14480
866.531	14408
866.662	14332
866.793	14347
866.924	14442
867.055	14507
867.186	14503
867.317	14298
867.448	14317
867.579	14427
867.71	14320
867.841	14317
867.972	14404
868.103	14465
868.233	14438
868.364	14499
868.495	14438
868.625	14598
868.756	14785
868.886	14575
869.017	14621
869.147	14941
869.278	14800
869.408	14716
869.539	14625
869.669	14689
869.799	14769
869.929	14788
870.06	14811
870.19	15047
870.32	14937
870.45	15036
870.58	15211
870.71	15135
870.84	15131
870.97	15020
871.1	15127
871.23	15188
871.36	15256
871.489	15169
871.619	15249
871.749	15268
871.879	15264
872.008	15359
872.138	15351
872.267	15199
872.397	15157
872.526	15047
872.656	15176
872.785	15150
872.915	15317
873.044	15317
873.173	15283
873.303	15306
873.432	15416
873.561	15378
873.69	15249
873.819	15272
873.948	15473
874.077	15405
874.206	15252
874.335	15344
874.464	15473
874.593	15538
874.722	15511
874.851	15652
874.979	15739
875.108	15610
875.237	15595
875.365	15553
875.494	15629
875.623	15633
875.751	15614
875.88	15663
876.008	15759
876.136	15800
876.265	15953
876.393	16166
876.521	16173
876.65	16139
876.778	16025
876.906	16002
877.034	15915
877.162	16074
877.29	16013
877.418	16032
877.546	16093
877.674	15964
877.802	16017
877.93	15968
878.058	15979
878.185	15941
878.313	15998
878.441	15968
878.568	15861
878.696	16063
878.824	16029
878.951	16150
879.079	16192
879.206	16356
879.333	16272
879.461	16215
879.588	16268
879.715	16291
879.842	16379
879.97	16139
880.097	15979
880.224	16017
880.351	15945
880.478	15979
880.605	15968
880.732	15808
880.859	16048
880.986	15903
881.112	15956
881.239	15861
881.366	15732
881.493	15530
881.619	15530
881.746	15496
881.872	15557
881.999	15526
882.125	15530
882.252	15614
882.378	15625
882.505	15762
882.631	15538
882.757	15355
882.883	15355
883.01	15313
883.136	15344
883.262	15150
883.388	15169
883.514	15500
883.64	15519
883.766	15275
883.892	15150
884.018	15218
884.143	15397
884.269	15469
884.395	15123
884.52	14948
884.646	15070
884.772	14914
884.897	14994
885.023	15100
885.148	15074
885.274	15317
885.399	15233
885.524	15005
885.65	15051
885.775	15157
885.9	14933
886.025	15112
886.15	15116
886.275	15089
886.4	14918
886.525	15138
886.65	14899
886.775	14921
886.9	15256
887.025	15298
887.149	15013
887.274	14921
887.399	14876
887.523	14811
887.648	14762
887.773	14788
887.897	14861
888.021	14967
888.146	14830
888.27	14918
888.395	15032
888.519	14944
888.643	14864
888.767	14963
888.891	14785
889.015	14743
889.139	14697
889.263	14758
889.387	14727
889.511	14906
889.635	14834
889.759	14746
889.883	14640
890.006	14826
890.13	14941
890.254	14682
890.377	14727
890.501	14473
890.624	14545
890.748	14495
890.871	14457
890.995	14450
891.118	14290
891.241	14488
891.364	14480
891.488	14454
891.611	14415
891.734	14499
891.857	14469
891.98	14587
892.103	14571
892.226	14579
892.349	14454
892.471	14339
892.594	14320
892.717	14454
892.839	14434
892.962	14400
893.085	14484
893.207	14358
893.33	14278
893.452	14339
893.575	14415
893.697	14370
893.819	14537
893.941	14693
894.064	14549
894.186	14415
894.308	14355
894.43	14507
894.552	14655
894.674	14427
894.796	14408
894.918	14396
895.04	14465
895.161	14545
895.283	14488
895.405	14381
895.526	14522
895.648	14606
895.769	14484
895.891	14587
896.012	14632
896.134	14602
896.255	14648
896.376	14514
896.498	14507
896.619	14682
896.74	14556
896.861	14644
896.982	14929
897.103	15051
897.224	14720
897.345	14868
897.466	14720
897.587	14849
897.708	15005
897.828	14883
897.949	14811
898.07	14670
898.19	14826
898.311	14918
898.431	14849
898.552	14895
898.672	14979
898.792	14994
898.913	14910
899.033	14944
899.153	14785
899.273	14655
899.393	14727
899.513	14849
899.633	14781
899.753	14727
899.873	14731
899.993	14792
900.113	14727
900.232	14743
900.352	14655
900.472	14629
900.591	14541
900.711	14625
900.83	14545
900.95	14788
901.069	14670
901.189	14454
901.308	14320
901.427	14256
901.546	14370
901.665	14328
901.784	14309
901.904	14187
902.023	14142
902.141	13928
902.26	13894
902.379	13951
902.498	13898
902.617	13791
902.735	13917
902.854	13811
902.973	13799
903.091	13548
903.21	13563
903.328	13594
903.446	13495
903.565	13502
903.683	13419
903.801	13278
903.919	13460
904.038	13324
904.156	13282
904.274	13244
904.392	13244
904.51	13274
904.627	13213
904.745	13327
904.863	13362
904.981	13084
905.098	12970
905.216	12875
905.334	13012
905.451	12920
905.569	12894
905.686	12962
905.803	12958
905.921	12798
906.038	12833
906.155	12711
906.272	12623
906.389	12711
906.506	12513
906.623	12623
906.74	12525
906.857	12486
906.974	12429
907.091	12658
907.208	12673
907.324	12597
907.441	12490
907.557	12281
907.674	12315
907.79	12315
907.907	12277
908.023	12319
908.139	12334
908.256	12224
908.372	12171
908.488	12186
908.604	12163
908.72	11984
908.836	12076
908.952	12038
909.068	12053
909.184	12182
909.3	12072
909.415	12083
909.531	12076
909.647	11942
909.762	11840
909.878	11843
909.993	11859
910.108	11786
910.224	11859
910.339	11836
910.454	11699
910.57	11630
910.685	11627
910.8	11908
910.915	11840
911.03	11672
911.145	11520
911.259	11478
911.374	11562
911.489	11467
911.604	11379
911.718	11315
911.833	11326
911.947	11181
912.062	11098
912.176	11299
912.291	11246
912.405	11349
912.519	11455
912.633	11482
912.748	11326
912.862	11280
912.976	11159
913.09	11041
913.204	11113
913.318	11147
913.431	11216
913.545	11193
913.659	11299
913.772	11132
913.886	11045
914	10991
914.113	11136
914.226	11132
914.34	11109
914.453	10934
914.566	11029
914.68	10930
914.793	10942
914.906	10782
915.019	10793
915.132	10687
915.245	10744
915.358	10809
915.47	10778
915.583	10831
915.696	10831
915.809	10889
915.921	10892
916.034	10797
916.146	10702
916.259	10733
916.371	10831
916.483	10755
916.595	10634
916.708	10729
916.82	10626
916.932	10675
917.044	10675
917.156	10683
917.268	10561
917.38	10592
917.491	10558
917.603	10615
917.715	10740
917.826	10672
917.938	10478
918.049	10462
918.161	10596
918.272	10733
918.384	10767
918.495	10596
918.606	10535
918.717	10386
918.828	10394
918.939	10485
919.05	10371
919.161	10443
919.272	10230
919.383	10360
919.494	10478
919.604	10645
919.715	10462
919.826	10341
919.936	10466
920.047	10558
920.157	10447
920.267	10634
920.378	10542
920.488	10493
920.598	10656
920.708	10831
920.818	10653
920.928	10641
921.038	10805
921.148	10744
921.258	10440
921.368	10481
921.477	10348
921.587	10322
921.697	10215
921.806	10280
921.916	10227
922.025	10025
922.134	10063
922.244	10032
922.353	10036
922.462	9846
922.571	9895
922.68	9660
922.789	9660
922.898	9694
923.007	9629
923.116	9797
923.224	9720
923.333	9698
923.442	9595
923.55	9572
923.659	9606
923.767	9641
923.876	9603
923.984	9572
924.092	9542
924.201	9557
924.309	9523
924.417	9584
924.525	9542
924.633	9481
924.741	10265
924.849	9317
924.956	9477
925.064	9389
925.172	9317
925.279	9325
925.387	9363
925.494	9336
925.602	9473
925.709	9408
925.816	9351
925.924	9348
926.031	9428
926.138	9424
926.245	9329
926.352	9222
926.459	9435
926.566	9412
926.673	9313
926.779	9214
926.886	9173
926.993	9123
927.099	9032
927.206	9081
927.312	8941
927.419	9032
927.525	8998
927.631	9138
927.737	8963
927.843	8933
927.95	8891
928.056	8933
928.162	8883
928.267	9036
928.373	9568
928.479	9070
928.585	8777
928.69	8929
928.796	8967
928.901	8811
929.007	8746
929.112	8883
929.218	8845
929.323	8785
929.428	8750
929.533	8788
929.638	8727
929.743	8773
929.848	8735
929.953	8712
930.058	8697
930.163	8541
930.267	8526
930.372	8625
930.477	8552
930.581	8689
930.685	8621
930.79	8484
930.894	8495
930.998	8396
931.103	8659
931.207	8252
931.311	8229
931.415	8145
931.519	7967
931.623	7947
