Data from test_V78500241_2938.txt Node
Date: Fri Mar 25 14:54:10 CST 2022
User: usil
Spectrometer: V785-0024
Trigger mode: 0
Integration Time (sec): 4.000000E-1
Scans to average: 1
Nonlinearity correction enabled: false
Boxcar width: 0
Storing dark spectrum: false
XAxis mode: Wavelengths
Number of Pixels in Spectrum: 1024
>>>>>Begin Spectral Data<<<<<
801.071	22090
801.214	21998
801.356	21667
801.499	21663
801.641	21610
801.783	21462
801.926	21420
802.068	21428
802.211	21370
802.353	21199
802.496	21195
802.638	21024
802.78	20910
802.923	20910
803.065	20701
803.208	20735
803.35	20739
803.492	20830
803.635	20826
803.777	20815
803.919	20826
804.061	21222
804.204	20853
804.346	20689
804.488	20689
804.63	20689
804.773	20632
804.915	20731
805.057	20765
805.199	20762
805.341	20758
805.483	20975
805.626	20838
805.768	20629
805.91	20708
806.052	20701
806.194	20670
806.336	20842
806.478	20746
806.62	20571
806.762	20777
806.904	20861
807.046	21070
807.188	21066
807.33	21017
807.472	21055
807.614	20857
807.756	20853
807.898	20921
808.04	20792
808.182	20785
808.324	20880
808.465	20876
808.607	20956
808.749	21146
808.891	21165
809.033	21256
809.174	21138
809.316	21074
809.458	21123
809.6	21013
809.741	21058
809.883	21146
810.025	21233
810.166	21188
810.308	21226
810.45	21180
810.591	21062
810.733	21005
810.875	20864
811.016	20686
811.158	20834
811.299	20906
811.441	20967
811.582	20880
811.724	20880
811.865	20853
812.007	20838
812.148	20887
812.29	20868
812.431	20895
812.573	21104
812.714	21176
812.855	21431
812.997	21454
813.138	21530
813.279	21458
813.421	21317
813.562	21249
813.703	21096
813.845	21074
813.986	20724
814.127	20670
814.268	20492
814.41	20503
814.551	20412
814.692	20568
814.833	20305
814.974	20434
815.115	20473
815.256	20164
815.397	20278
815.539	20176
815.68	20180
815.821	20077
815.962	20054
816.103	20058
816.244	20005
816.385	19959
816.526	19791
816.666	19620
816.807	19529
816.948	19655
817.089	19540
817.23	19639
817.371	19601
817.512	19438
817.653	19487
817.793	19453
817.934	19525
818.075	19609
818.216	19537
818.356	19457
818.497	19441
818.638	19156
818.778	19072
818.919	19236
819.06	19240
819.2	19324
819.341	19514
819.481	19308
819.622	19578
819.762	19632
819.903	19578
820.043	19601
820.184	19460
820.324	19434
820.465	19658
820.605	19339
820.746	19415
820.886	19350
821.026	19449
821.167	19339
821.307	19506
821.447	19426
821.588	19449
821.728	19247
821.868	19103
822.008	18829
822.149	18913
822.289	18802
822.429	18692
822.569	18559
822.709	18502
822.849	18422
822.99	18429
823.13	18414
823.27	18365
823.41	18190
823.55	18178
823.69	18266
823.83	18251
823.97	18095
824.11	17969
824.25	17992
824.389	17843
824.529	17935
824.669	18019
824.809	18038
824.949	18197
825.089	17984
825.228	17920
825.368	17805
825.508	17847
825.648	17764
825.787	17764
825.927	17771
826.067	17589
826.206	17703
826.346	17775
826.485	17684
826.625	17680
826.765	17893
826.904	17745
827.044	17596
827.183	17505
827.323	17379
827.462	17425
827.601	17356
827.741	17345
827.88	17490
828.02	17288
828.159	17402
828.298	17387
828.437	17478
828.577	17322
828.716	17459
828.855	17379
828.994	17204
829.134	17189
829.273	17280
829.412	17029
829.551	17136
829.69	17140
829.829	17273
829.968	17341
830.107	17250
830.246	17143
830.385	17155
830.524	17124
830.663	16965
830.802	16850
830.941	16736
831.08	16683
831.219	16892
831.357	16835
831.496	17025
831.635	16729
831.774	16725
831.913	16812
832.051	16656
832.19	16569
832.329	16622
832.467	16466
832.606	16459
832.744	16489
832.883	16462
833.022	16409
833.16	16485
833.299	16485
833.437	16504
833.576	16542
833.714	16516
833.852	16485
833.991	16527
834.129	16573
834.267	16512
834.406	16462
834.544	16531
834.682	16516
834.821	16542
834.959	16683
835.097	16440
835.235	16622
835.373	16558
835.511	16569
835.65	16470
835.788	16421
835.926	16360
836.064	16173
836.202	16226
836.34	16558
836.478	16500
836.615	16371
836.753	16481
836.891	16481
837.029	16424
837.167	16436
837.305	16337
837.443	16257
837.58	16219
837.718	16352
837.856	16246
837.993	16230
838.131	16284
838.269	16177
838.406	16238
838.544	16188
838.681	16032
838.819	16025
838.956	15854
839.094	15808
839.231	15861
839.369	15895
839.506	16295
839.643	16048
839.781	15804
839.918	15694
840.055	15892
840.193	15876
840.33	15812
840.467	15850
840.604	15827
840.742	16006
840.879	15648
841.016	15854
841.153	15701
841.29	15903
841.427	15850
841.564	15797
841.701	15827
841.838	15865
841.975	15816
842.112	15819
842.249	15690
842.385	15511
842.522	15739
842.659	15610
842.796	15576
842.933	15576
843.069	15545
843.206	15576
843.343	15603
843.479	15614
843.616	15584
843.752	15450
843.889	15405
844.025	15580
844.162	15389
844.298	15515
844.435	15348
844.571	15443
844.708	15485
844.844	15553
844.98	15507
845.117	15500
845.253	15279
845.389	15188
845.525	15302
845.661	15344
845.798	15100
845.934	15245
846.07	15150
846.206	15268
846.342	15363
846.478	15184
846.614	14986
846.75	15051
846.886	14956
847.022	15020
847.158	15062
847.294	15055
847.429	15028
847.565	14956
847.701	15249
847.837	14830
847.972	14777
848.108	14868
848.244	14640
848.379	14644
848.515	14499
848.65	14450
848.786	14492
848.921	14610
849.057	14640
849.192	14720
849.328	14590
849.463	14571
849.598	14537
849.734	14434
849.869	14434
850.004	14343
850.14	14362
850.275	14278
850.41	14214
850.545	14180
850.68	14256
850.815	14317
850.95	14313
851.085	14454
851.22	14427
851.355	14313
851.49	14275
851.625	14305
851.76	14263
851.895	14123
852.03	14237
852.165	14366
852.299	14324
852.434	14400
852.569	14389
852.703	14400
852.838	14385
852.973	14450
853.107	14438
853.242	14298
853.376	14240
853.511	14043
853.645	14210
853.78	14256
853.914	14168
854.048	14195
854.183	14221
854.317	14305
854.451	14427
854.585	14176
854.72	14149
854.854	14324
854.988	14119
855.122	14244
855.256	14012
855.39	14172
855.524	14210
855.658	14313
855.792	14134
855.926	14256
856.06	14278
856.194	14351
856.327	14187
856.461	14164
856.595	14130
856.729	14168
856.862	14248
856.996	14252
857.13	14214
857.263	14298
857.397	14374
857.53	14237
857.664	14263
857.797	14286
857.931	14385
858.064	14271
858.197	14271
858.331	14240
858.464	14180
858.597	14062
858.731	14206
858.864	14191
858.997	14107
859.13	14237
859.263	14214
859.396	14347
859.529	14111
859.662	14225
859.795	14176
859.928	14206
860.061	14267
860.194	14412
860.327	14180
860.46	14157
860.592	14328
860.725	14225
860.858	14244
860.99	14210
861.123	14168
861.256	14134
861.388	14168
861.521	14735
861.653	14103
861.786	13970
861.918	14039
862.05	14096
862.183	14206
862.315	14164
862.447	14275
862.58	14092
862.712	14069
862.844	13909
862.976	13951
863.108	14039
863.24	14298
863.372	13944
863.504	13928
863.636	14035
863.768	14050
863.9	13902
864.032	13947
864.164	13982
864.296	14069
864.428	14138
864.559	14096
864.691	14096
864.823	14138
864.954	13925
865.086	13955
865.217	13913
865.349	13856
865.48	13947
865.612	14046
865.743	14058
865.875	14027
866.006	13860
866.137	13951
866.269	13959
866.4	13997
866.531	13822
866.662	13974
866.793	13978
866.924	13993
867.055	13989
867.186	13898
867.317	13860
867.448	13932
867.579	13860
867.71	13959
867.841	13788
867.972	14031
868.103	13944
868.233	13959
868.364	13917
868.495	14084
868.625	14168
868.756	14259
868.886	14084
869.017	14176
869.147	14317
869.278	14351
869.408	14199
869.539	14259
869.669	14202
869.799	14298
869.929	14381
870.06	14404
870.19	14568
870.32	14488
870.45	14606
870.58	14663
870.71	14762
870.84	14682
870.97	14598
871.1	14636
871.23	14807
871.36	14830
871.489	14838
871.619	14842
871.749	14857
871.879	14792
872.008	14899
872.138	14887
872.267	14796
872.397	14724
872.526	14678
872.656	14556
872.785	14712
872.915	14857
873.044	15013
873.173	14830
873.303	14876
873.432	14883
873.561	14944
873.69	14910
873.819	14853
873.948	14941
874.077	14986
874.206	14868
874.335	14979
874.464	14971
874.593	15089
874.722	15112
874.851	15176
874.979	15218
875.108	15195
875.237	15043
875.365	15043
875.494	15123
875.623	15199
875.751	15173
875.88	15260
876.008	15332
876.136	15412
876.265	15542
876.393	15831
876.521	15698
876.65	15808
876.778	15618
876.906	15561
877.034	15629
877.162	15526
877.29	15424
877.418	15595
877.546	15595
877.674	15557
877.802	15587
877.93	15557
878.058	15576
878.185	15485
878.313	15542
878.441	15561
878.568	15370
878.696	15428
878.824	15644
878.951	15686
879.079	15831
879.206	15861
879.333	15774
879.461	15625
879.588	15682
879.715	15755
879.842	15892
879.97	15720
880.097	15488
880.224	15488
880.351	15519
880.478	15462
880.605	15340
880.732	15408
880.859	15709
880.986	15469
881.112	15584
881.239	15428
881.366	15256
881.493	15245
881.619	15142
881.746	15138
881.872	15123
881.999	15055
882.125	15104
882.252	15173
882.378	15123
882.505	15192
882.631	15055
882.757	14956
882.883	14967
883.01	14868
883.136	14792
883.262	14693
883.388	14674
883.514	14876
883.64	14982
883.766	14918
883.892	14743
884.018	14701
884.143	14891
884.269	14963
884.395	14674
884.52	14613
884.646	14693
884.772	14602
884.897	14476
885.023	14617
885.148	14712
885.274	14807
885.399	14708
885.524	14644
885.65	14693
885.775	14568
885.9	14575
886.025	14762
886.15	14598
886.275	14469
886.4	14484
886.525	14507
886.65	14518
886.775	14560
886.9	14743
887.025	14861
887.149	14579
887.274	14492
887.399	14484
887.523	14377
887.648	14404
887.773	14294
887.897	14503
888.021	14514
888.146	14412
888.27	14526
888.395	14602
888.519	14552
888.643	14446
888.767	14571
888.891	14347
889.015	14328
889.139	14332
889.263	14313
889.387	14465
889.511	14408
889.635	14476
889.759	14305
889.883	14248
890.006	14324
890.13	14438
890.254	14218
890.377	14218
890.501	14206
890.624	14058
890.748	14229
890.871	14020
890.995	14020
891.118	13986
891.241	14031
891.364	14062
891.488	14176
891.611	13921
891.734	13947
891.857	14107
891.98	14008
892.103	14138
892.226	14050
892.349	13967
892.471	13932
892.594	13947
892.717	14077
892.839	14016
892.962	14008
893.085	14100
893.207	14073
893.33	13887
893.452	13890
893.575	14020
893.697	13959
893.819	14145
893.941	14145
894.064	14138
894.186	14031
894.308	14031
894.43	14100
894.552	14214
894.674	14138
894.796	13989
894.918	14050
895.04	14119
895.161	14138
895.283	14138
895.405	14005
895.526	14142
895.648	14183
895.769	14157
895.891	14248
896.012	14225
896.134	14225
896.255	14168
896.376	14214
896.498	14168
896.619	14176
896.74	14111
896.861	14229
896.982	14590
897.103	14727
897.224	14511
897.345	14564
897.466	14442
897.587	14488
897.708	14541
897.828	14526
897.949	14431
898.07	14282
898.19	14488
898.311	14602
898.431	14480
898.552	14564
898.672	14594
898.792	14606
898.913	14617
899.033	14564
899.153	14469
899.273	14267
899.393	14313
899.513	14412
899.633	14336
899.753	14408
899.873	14469
899.993	14408
900.113	14488
900.232	14454
900.352	14400
900.472	14332
900.591	14214
900.711	14301
900.83	14263
900.95	14366
901.069	14480
901.189	14225
901.308	14096
901.427	14001
901.546	13940
901.665	14069
901.784	13959
901.904	13902
902.023	13772
902.141	13601
902.26	13521
902.379	13708
902.498	13525
902.617	13411
902.735	13582
902.854	13499
902.973	13476
903.091	13327
903.21	13270
903.328	13331
903.446	13190
903.565	13118
903.683	13122
903.801	13065
903.919	13118
904.038	13160
904.156	13019
904.274	12958
904.392	12993
904.51	12962
904.627	12897
904.745	12966
904.863	13118
904.981	12688
905.098	12654
905.216	12635
905.334	12646
905.451	12711
905.569	12616
905.686	12631
905.803	12642
905.921	12346
906.038	12582
906.155	12574
906.272	12342
906.389	12414
906.506	12277
906.623	12270
906.74	12277
906.857	12057
906.974	12178
907.091	12308
907.208	12376
907.324	12285
907.441	12194
907.557	12003
907.674	12022
907.79	11973
907.907	11942
908.023	12003
908.139	12068
908.256	11973
908.372	11927
908.488	11950
908.604	11767
908.72	11703
908.836	11684
908.952	11741
909.068	11790
909.184	11840
909.3	11733
909.415	11832
909.531	11722
909.647	11505
909.762	11421
909.878	11505
909.993	11417
910.108	11448
910.224	11459
910.339	11497
910.454	11444
910.57	11341
910.685	11322
910.8	11608
910.915	11573
911.03	11372
911.145	11189
911.259	11170
911.374	11197
911.489	11109
911.604	11098
911.718	10930
911.833	10965
911.947	10919
912.062	10736
912.176	10968
912.291	10908
912.405	11006
912.519	11162
912.633	11132
912.748	10991
912.862	10968
912.976	10927
913.09	10748
913.204	10790
913.318	10896
913.431	10991
913.545	10915
913.659	10930
913.772	10892
913.886	10774
914	10630
914.113	10790
914.226	10862
914.34	10797
914.453	10637
914.566	10771
914.68	10691
914.793	10691
914.906	10474
915.019	10432
915.132	10379
915.245	10474
915.358	10489
915.47	10512
915.583	10402
915.696	10569
915.809	10584
915.921	10637
916.034	10512
916.146	10398
916.259	10421
916.371	10489
916.483	10462
916.595	10367
916.708	10371
916.82	10375
916.932	10333
917.044	10405
917.156	10337
917.268	10227
917.38	10314
917.491	10299
917.603	10318
917.715	10409
917.826	10379
917.938	10306
918.049	10219
918.161	10329
918.272	10455
918.384	10470
918.495	10265
918.606	10196
918.717	10112
918.828	10257
918.939	10188
919.05	10059
919.161	10162
919.272	10006
919.383	10013
919.494	10204
919.604	10405
919.715	10234
919.826	10131
919.936	10128
920.047	10333
920.157	10257
920.267	10382
920.378	10211
920.488	10154
920.598	10436
920.708	10489
920.818	10402
920.928	10436
921.038	10546
921.148	10523
921.258	10230
921.368	10169
921.477	10067
921.587	10013
921.697	9892
921.806	10120
921.916	9880
922.025	9812
922.134	9778
922.244	9717
922.353	9819
922.462	9644
922.571	9599
922.68	9435
922.789	9428
922.898	9507
923.007	9401
923.116	9443
923.224	9431
923.333	9408
923.442	9344
923.55	9336
923.659	9397
923.767	9408
923.876	9351
923.984	9389
924.092	9241
924.201	9275
924.309	9336
924.417	9279
924.525	9329
924.633	9306
924.741	10227
924.849	9089
924.956	9291
925.064	9146
925.172	9047
925.279	9055
925.387	9127
925.494	9157
925.602	9245
925.709	9275
925.816	9089
925.924	9097
926.031	9222
926.138	9123
926.245	9097
926.352	9032
926.459	9199
926.566	9249
926.673	9104
926.779	9024
926.886	9043
926.993	8834
927.099	8781
927.206	8792
927.312	8754
927.419	8933
927.525	8777
927.631	8857
927.737	8739
927.843	8743
927.95	8655
928.056	8689
928.162	8739
928.267	8823
928.373	9408
928.479	8872
928.585	8571
928.69	8693
928.796	8712
928.901	8655
929.007	8484
929.112	8632
929.218	8621
929.323	8533
929.428	8587
929.533	8693
929.638	8522
929.743	8457
929.848	8610
929.953	8564
930.058	8442
930.163	8298
930.267	8339
930.372	8461
930.477	8313
930.581	8545
930.685	8370
930.79	8187
930.894	8305
930.998	8244
931.103	8374
931.207	8054
931.311	7955
931.415	7936
931.519	7746
931.623	7765
