Data from test_V78500241_3616.txt Node
Date: Fri Mar 25 14:58:53 CST 2022
User: usil
Spectrometer: V785-0024
Trigger mode: 0
Integration Time (sec): 4.000000E-1
Scans to average: 1
Nonlinearity correction enabled: false
Boxcar width: 0
Storing dark spectrum: false
XAxis mode: Wavelengths
Number of Pixels in Spectrum: 1024
>>>>>Begin Spectral Data<<<<<
801.071	21964
801.214	21854
801.356	21549
801.499	21450
801.641	21416
801.783	21138
801.926	21401
802.068	21203
802.211	21203
802.353	21074
802.496	20918
802.638	20792
802.78	20621
802.923	20579
803.065	20499
803.208	20518
803.35	20629
803.492	20701
803.635	20781
803.777	20583
803.919	20705
804.061	20956
804.204	20609
804.346	20541
804.488	20408
804.63	20629
804.773	20457
804.915	20507
805.057	20644
805.199	20488
805.341	20682
805.483	20583
805.626	20587
805.768	20438
805.91	20583
806.052	20594
806.194	20427
806.336	20636
806.478	20465
806.62	20396
806.762	20587
806.904	20796
807.046	20819
807.188	20902
807.33	21005
807.472	20902
807.614	20762
807.756	20670
807.898	20533
808.04	20522
808.182	20590
808.324	20533
808.465	20587
808.607	20807
808.749	20906
808.891	20944
809.033	21009
809.174	21005
809.316	20849
809.458	20918
809.6	20861
809.741	20845
809.883	20811
810.025	21074
810.166	21081
810.308	20914
810.45	20994
810.591	20982
810.733	20705
810.875	20834
811.016	20552
811.158	20503
811.299	20655
811.441	20807
811.582	20716
811.724	20590
811.865	20503
812.007	20655
812.148	20609
812.29	20716
812.431	20857
812.573	20960
812.714	20990
812.855	21127
812.997	21176
813.138	21344
813.279	21230
813.421	21203
813.562	21085
813.703	20838
813.845	20807
813.986	20492
814.127	20385
814.268	20237
814.41	20237
814.551	20111
814.692	20172
814.833	20168
814.974	20103
815.115	20046
815.256	19967
815.397	19989
815.539	20069
815.68	19849
815.821	19849
815.962	19947
816.103	19818
816.244	19791
816.385	19540
816.526	19597
816.666	19476
816.807	19221
816.948	19343
817.089	19518
817.23	19335
817.371	19331
817.512	19228
817.653	19354
817.793	19316
817.934	19228
818.075	19263
818.216	19259
818.356	19221
818.497	19160
818.638	18878
818.778	18973
818.919	18977
819.06	18951
819.2	19137
819.341	19206
819.481	19274
819.622	19350
819.762	19594
819.903	19464
820.043	19301
820.184	19434
820.324	19293
820.465	19274
820.605	19240
820.746	19339
820.886	19114
821.026	19228
821.167	19183
821.307	19228
821.447	19213
821.588	19000
821.728	18932
821.868	18806
822.008	18696
822.149	18757
822.289	18635
822.429	18429
822.569	18513
822.709	18395
822.849	18239
822.99	18205
823.13	18186
823.27	18140
823.41	18053
823.55	17973
823.69	18015
823.83	18102
823.97	17931
824.11	17783
824.25	17798
824.389	17707
824.529	17874
824.669	17722
824.809	17836
824.949	17851
825.089	17741
825.228	17653
825.368	17623
825.508	17471
825.648	17573
825.787	17653
825.927	17600
826.067	17528
826.206	17566
826.346	17634
826.485	17581
826.625	17425
826.765	17672
826.904	17524
827.044	17341
827.183	17261
827.323	17220
827.462	17223
827.601	17227
827.741	17185
827.88	17318
828.02	17109
828.159	17208
828.298	17261
828.437	17315
828.577	17273
828.716	17395
828.855	17128
828.994	17022
829.134	17014
829.273	17048
829.412	17025
829.551	16927
829.69	16991
829.829	17029
829.968	17048
830.107	17029
830.246	16995
830.385	16908
830.524	17022
830.663	16824
830.802	16672
830.941	16675
831.08	16611
831.219	16710
831.357	16744
831.496	16831
831.635	16660
831.774	16474
831.913	16466
832.051	16405
832.19	16390
832.329	16417
832.467	16276
832.606	16284
832.744	16318
832.883	16333
833.022	16375
833.16	16352
833.299	16398
833.437	16386
833.576	16344
833.714	16417
833.852	16390
833.991	16360
834.129	16409
834.267	16443
834.406	16337
834.544	16519
834.682	16485
834.821	16379
834.959	16497
835.097	16341
835.235	16481
835.373	16481
835.511	16337
835.65	16394
835.788	16303
835.926	16116
836.064	16093
836.202	16128
836.34	16284
836.478	16265
836.615	16230
836.753	16318
836.891	16390
837.029	16337
837.167	16268
837.305	16230
837.443	16192
837.58	16154
837.718	16219
837.856	16150
837.993	16040
838.131	16238
838.269	16162
838.406	16185
838.544	16128
838.681	15899
838.819	15911
838.956	15709
839.094	15698
839.231	15720
839.369	15895
839.506	16147
839.643	15926
839.781	15732
839.918	15694
840.055	15808
840.193	15663
840.33	15698
840.467	15717
840.604	15743
840.742	16013
840.879	15587
841.016	15545
841.153	15675
841.29	15835
841.427	15747
841.564	15728
841.701	15762
841.838	15701
841.975	15667
842.112	15641
842.249	15572
842.385	15519
842.522	15694
842.659	15538
842.796	15587
842.933	15523
843.069	15428
843.206	15488
843.343	15545
843.479	15618
843.616	15545
843.752	15279
843.889	15348
844.025	15386
844.162	15264
844.298	15382
844.435	15306
844.571	15283
844.708	15374
844.844	15416
844.98	15477
845.117	15458
845.253	15226
845.389	15112
845.525	15146
845.661	15222
845.798	15036
845.934	15138
846.07	15085
846.206	15195
846.342	15207
846.478	15157
846.614	14937
846.75	14811
846.886	14899
847.022	14910
847.158	14967
847.294	14807
847.429	14937
847.565	14891
847.701	15203
847.837	14648
847.972	14560
848.108	14712
848.244	14590
848.379	14598
848.515	14446
848.65	14518
848.786	14366
848.921	14526
849.057	14560
849.192	14625
849.328	14476
849.463	14533
849.598	14419
849.734	14415
849.869	14225
850.004	14320
850.14	14343
850.275	14267
850.41	14214
850.545	14119
850.68	14183
850.815	14278
850.95	14195
851.085	14389
851.22	14282
851.355	14176
851.49	14237
851.625	14191
851.76	14221
851.895	14202
852.03	14084
852.165	14199
852.299	14195
852.434	14259
852.569	14225
852.703	14229
852.838	14393
852.973	14374
853.107	14336
853.242	14252
853.376	14115
853.511	13944
853.645	14001
853.78	14221
853.914	14077
854.048	14130
854.183	14031
854.317	14084
854.451	14256
854.585	14077
854.72	14069
854.854	14107
854.988	14081
855.122	14088
855.256	13944
855.39	14126
855.524	14237
855.658	14123
855.792	14191
855.926	14176
856.06	14126
856.194	14142
856.327	14088
856.461	14031
856.595	14008
856.729	14115
856.862	14157
856.996	14187
857.13	14240
857.263	14161
857.397	14187
857.53	14027
857.664	14248
857.797	14218
857.931	14278
858.064	14138
858.197	14168
858.331	14096
858.464	14115
858.597	14043
858.731	14107
858.864	14142
858.997	14069
859.13	14210
859.263	14126
859.396	14210
859.529	14115
859.662	14107
859.795	13982
859.928	14180
860.061	14278
860.194	14305
860.327	14115
860.46	14016
860.592	14248
860.725	14252
860.858	14199
860.99	14134
861.123	13986
861.256	14084
861.388	14153
861.521	14918
861.653	14035
861.786	13947
861.918	13993
862.05	14100
862.183	14069
862.315	14240
862.447	14195
862.58	14012
862.712	13947
862.844	13818
862.976	13974
863.108	14054
863.24	14145
863.372	13868
863.504	14016
863.636	13837
863.768	14027
863.9	13917
864.032	13811
864.164	13883
864.296	13906
864.428	13940
864.559	13959
864.691	14035
864.823	13989
864.954	13986
865.086	14054
865.217	13868
865.349	13860
865.48	13799
865.612	13890
865.743	14027
865.875	13936
866.006	13852
866.137	13841
866.269	13879
866.4	13837
866.531	13875
866.662	13852
866.793	13871
866.924	13860
867.055	13879
867.186	13906
867.317	13833
867.448	13811
867.579	13795
867.71	13746
867.841	13807
867.972	13860
868.103	13917
868.233	13902
868.364	13925
868.495	13982
868.625	14138
868.756	14183
868.886	14046
869.017	14130
869.147	14237
869.278	14168
869.408	14130
869.539	14142
869.669	14256
869.799	14126
869.929	14225
870.06	14187
870.19	14495
870.32	14461
870.45	14438
870.58	14526
870.71	14648
870.84	14651
870.97	14530
871.1	14514
871.23	14659
871.36	14765
871.489	14594
871.619	14788
871.749	14727
871.879	14796
872.008	14895
872.138	14750
872.267	14750
872.397	14541
872.526	14701
872.656	14598
872.785	14545
872.915	14697
873.044	14811
873.173	14705
873.303	14765
873.432	14883
873.561	14887
873.69	14826
873.819	14697
873.948	14834
874.077	14785
874.206	14705
874.335	14864
874.464	14971
874.593	15123
874.722	15119
874.851	15085
874.979	15116
875.108	15085
875.237	15028
875.365	15074
875.494	15127
875.623	15104
875.751	15039
875.88	15138
876.008	15245
876.136	15424
876.265	15496
876.393	15720
876.521	15534
876.65	15488
876.778	15523
876.906	15507
877.034	15515
877.162	15511
877.29	15523
877.418	15416
877.546	15504
877.674	15549
877.802	15534
877.93	15469
878.058	15492
878.185	15534
878.313	15466
878.441	15519
878.568	15412
878.696	15435
878.824	15652
878.951	15610
879.079	15713
879.206	15679
879.333	15724
879.461	15557
879.588	15580
879.715	15595
879.842	15846
879.97	15572
880.097	15408
880.224	15405
880.351	15374
880.478	15359
880.605	15291
880.732	15382
880.859	15477
880.986	15370
881.112	15370
881.239	15317
881.366	15161
881.493	15077
881.619	15036
881.746	15062
881.872	15028
881.999	15005
882.125	14975
882.252	15024
882.378	14948
882.505	15173
882.631	14982
882.757	14861
882.883	14743
883.01	14876
883.136	14807
883.262	14648
883.388	14674
883.514	14861
883.64	14842
883.766	14887
883.892	14743
884.018	14727
884.143	14819
884.269	14941
884.395	14651
884.52	14533
884.646	14549
884.772	14484
884.897	14377
885.023	14651
885.148	14716
885.274	14746
885.399	14708
885.524	14632
885.65	14594
885.775	14739
885.9	14526
886.025	14724
886.15	14663
886.275	14473
886.4	14469
886.525	14442
886.65	14412
886.775	14450
886.9	14663
887.025	14796
887.149	14583
887.274	14351
887.399	14275
887.523	14343
887.648	14389
887.773	14313
887.897	14457
888.021	14343
888.146	14343
888.27	14541
888.395	14480
888.519	14355
888.643	14438
888.767	14450
888.891	14328
889.015	14259
889.139	14278
889.263	14221
889.387	14362
889.511	14431
889.635	14370
889.759	14248
889.883	14294
890.006	14271
890.13	14381
890.254	14195
890.377	14282
890.501	14180
890.624	13894
890.748	14229
890.871	13951
890.995	13871
891.118	13807
891.241	13993
891.364	13936
891.488	14008
891.611	13978
891.734	13909
891.857	13947
891.98	14016
892.103	14016
892.226	13955
892.349	13917
892.471	13799
892.594	13871
892.717	13936
892.839	14012
892.962	13909
893.085	13959
893.207	13978
893.33	13826
893.452	13852
893.575	14043
893.697	13959
893.819	14119
893.941	14168
894.064	14054
894.186	13845
894.308	13898
894.43	14107
894.552	14100
894.674	14111
894.796	13936
894.918	14031
895.04	14024
895.161	14111
895.283	14073
895.405	13925
895.526	14058
895.648	14062
895.769	14039
895.891	14130
896.012	14256
896.134	14103
896.255	14134
896.376	14039
896.498	14153
896.619	14134
896.74	14134
896.861	14221
896.982	14507
897.103	14530
897.224	14457
897.345	14351
897.466	14305
897.587	14434
897.708	14579
897.828	14450
897.949	14351
898.07	14229
898.19	14339
898.311	14610
898.431	14408
898.552	14530
898.672	14564
898.792	14537
898.913	14374
899.033	14381
899.153	14336
899.273	14210
899.393	14358
899.513	14328
899.633	14309
899.753	14370
899.873	14259
899.993	14324
900.113	14336
900.232	14362
900.352	14343
900.472	14210
900.591	14237
900.711	14202
900.83	14183
900.95	14282
901.069	14275
901.189	14119
901.308	13875
901.427	13879
901.546	13841
901.665	13925
901.784	13936
901.904	13666
902.023	13613
902.141	13476
902.26	13426
902.379	13445
902.498	13434
902.617	13430
902.735	13491
902.854	13514
902.973	13445
903.091	13160
903.21	13194
903.328	13232
903.446	13084
903.565	13069
903.683	13008
903.801	12924
903.919	13004
904.038	13038
904.156	12840
904.274	12924
904.392	12795
904.51	12787
904.627	12776
904.745	12920
904.863	12951
904.981	12597
905.098	12486
905.216	12513
905.334	12532
905.451	12528
905.569	12559
905.686	12612
905.803	12437
905.921	12399
906.038	12483
906.155	12433
906.272	12281
906.389	12372
906.506	12049
906.623	12136
906.74	12102
906.857	12034
906.974	12091
907.091	12201
907.208	12228
907.324	12159
907.441	12076
907.557	11863
907.674	11878
907.79	11878
907.907	11813
908.023	11859
908.139	11920
908.256	11798
908.372	11790
908.488	11729
908.604	11661
908.72	11611
908.836	11684
908.952	11634
909.068	11585
909.184	11783
909.3	11665
909.415	11707
909.531	11691
909.647	11387
909.762	11463
909.878	11406
909.993	11337
910.108	11318
910.224	11353
910.339	11402
910.454	11208
910.57	11201
910.685	11162
910.8	11490
910.915	11433
911.03	11368
911.145	11113
911.259	11143
911.374	11067
911.489	11029
911.604	10934
911.718	10930
911.833	10873
911.947	10729
912.062	10691
912.176	10930
912.291	10828
912.405	10805
912.519	11155
912.633	11071
912.748	10946
912.862	10915
912.976	10767
913.09	10668
913.204	10637
913.318	10706
913.431	10801
913.545	10839
913.659	10767
913.772	10767
913.886	10569
914	10626
914.113	10748
914.226	10729
914.34	10774
914.453	10603
914.566	10714
914.68	10577
914.793	10558
914.906	10417
915.019	10325
915.132	10261
915.245	10329
915.358	10447
915.47	10398
915.583	10341
915.696	10398
915.809	10615
915.921	10485
916.034	10432
916.146	10344
916.259	10329
916.371	10455
916.483	10363
916.595	10238
916.708	10318
916.82	10291
916.932	10341
917.044	10379
917.156	10314
917.268	10215
917.38	10303
917.491	10135
917.603	10223
917.715	10325
917.826	10341
917.938	10162
918.049	10071
918.161	10188
918.272	10322
918.384	10344
918.495	10200
918.606	10177
918.717	10013
918.828	10090
918.939	10173
919.05	10078
919.161	10048
919.272	9876
919.383	10051
919.494	10177
919.604	10276
919.715	10120
919.826	10063
919.936	10067
920.047	10135
920.157	10135
920.267	10325
920.378	10090
920.488	10120
920.598	10318
920.708	10485
920.818	10318
920.928	10280
921.038	10394
921.148	10363
921.258	10135
921.368	10131
921.477	10021
921.587	9975
921.697	9888
921.806	9998
921.916	9869
922.025	9633
922.134	9568
922.244	9637
922.353	9709
922.462	9591
922.571	9477
922.68	9462
922.789	9447
922.898	9412
923.007	9336
923.116	9370
923.224	9397
923.333	9412
923.442	9317
923.55	9226
923.659	9294
923.767	9359
923.876	9142
923.984	9325
924.092	9218
924.201	9192
924.309	9245
924.417	9329
924.525	9173
924.633	9253
924.741	9926
924.849	8963
924.956	9100
925.064	9047
925.172	8895
925.279	8986
925.387	9047
925.494	9024
925.602	9222
925.709	9093
925.816	8941
925.924	9051
926.031	9161
926.138	9009
926.245	9104
926.352	8944
926.459	9074
926.566	9123
926.673	8933
926.779	8937
926.886	8929
926.993	8823
927.099	8712
927.206	8716
927.312	8705
927.419	8830
927.525	8667
927.631	8766
927.737	8602
927.843	8686
927.95	8606
928.056	8636
928.162	8678
928.267	8743
928.373	9222
928.479	8800
928.585	8503
928.69	8587
928.796	8670
928.901	8511
929.007	8480
929.112	8606
929.218	8514
929.323	8442
929.428	8446
929.533	8583
929.638	8389
929.743	8396
929.848	8552
929.953	8484
930.058	8343
930.163	8183
930.267	8248
930.372	8374
930.477	8214
930.581	8503
930.685	8298
930.79	8199
930.894	8202
930.998	8138
931.103	8225
931.207	7909
931.311	7913
931.415	7841
931.519	7613
931.623	7677
