Data from test_V78500241_1256.txt Node
Date: Fri Mar 25 14:42:27 CST 2022
User: usil
Spectrometer: V785-0024
Trigger mode: 0
Integration Time (sec): 4.000000E-1
Scans to average: 1
Nonlinearity correction enabled: false
Boxcar width: 0
Storing dark spectrum: false
XAxis mode: Wavelengths
Number of Pixels in Spectrum: 1024
>>>>>Begin Spectral Data<<<<<
801.071	22447
801.214	22329
801.356	22162
801.499	21937
801.641	21842
801.783	21751
801.926	21869
802.068	21507
802.211	21523
802.353	21485
802.496	21268
802.638	21218
802.78	21325
802.923	21135
803.065	21161
803.208	21150
803.35	21039
803.492	21161
803.635	21176
803.777	21032
803.919	21188
804.061	21435
804.204	21165
804.346	21116
804.488	20979
804.63	21116
804.773	20933
804.915	21070
805.057	21268
805.199	20982
805.341	21028
805.483	21157
805.626	21047
805.768	20921
805.91	21024
806.052	20982
806.194	20880
806.336	21180
806.478	21051
806.62	21017
806.762	21142
806.904	21237
807.046	21447
807.188	21340
807.33	21302
807.472	21378
807.614	21287
807.756	21237
807.898	21317
808.04	20998
808.182	21207
808.324	21241
808.465	21218
808.607	21302
808.749	21359
808.891	21488
809.033	21804
809.174	21534
809.316	21526
809.458	21431
809.6	21401
809.741	21549
809.883	21450
810.025	21561
810.166	21595
810.308	21561
810.45	21488
810.591	21412
810.733	21264
810.875	21287
811.016	21173
811.158	21146
811.299	21291
811.441	21393
811.582	21351
811.724	21173
811.865	21138
812.007	21157
812.148	21154
812.29	21199
812.431	21416
812.573	21443
812.714	21488
812.855	21587
812.997	21743
813.138	21915
813.279	21679
813.421	21698
813.562	21667
813.703	21412
813.845	21264
813.986	21013
814.127	20876
814.268	20800
814.41	20910
814.551	20743
814.692	20762
814.833	20708
814.974	20648
815.115	20625
815.256	20492
815.397	20602
815.539	20648
815.68	20423
815.821	20495
815.962	20533
816.103	20442
816.244	20317
816.385	20252
816.526	20202
816.666	20046
816.807	19849
816.948	19887
817.089	20069
817.23	19951
817.371	19951
817.512	19856
817.653	19845
817.793	19822
817.934	19799
818.075	19887
818.216	19928
818.356	19784
818.497	19696
818.638	19506
818.778	19658
818.919	19632
819.06	19597
819.2	19681
819.341	19666
819.481	19830
819.622	19917
819.762	20035
819.903	20016
820.043	19902
820.184	19852
820.324	19776
820.465	19997
820.605	19944
820.746	19898
820.886	19639
821.026	19780
821.167	19864
821.307	19913
821.447	19928
821.588	19552
821.728	19495
821.868	19365
822.008	19247
822.149	19301
822.289	19065
822.429	19122
822.569	18970
822.709	18989
822.849	18833
822.99	18772
823.13	18703
823.27	18787
823.41	18593
823.55	18448
823.69	18608
823.83	18631
823.97	18441
824.11	18437
824.25	18308
824.389	18403
824.529	18376
824.669	18338
824.809	18456
824.949	18361
825.089	18372
825.228	18304
825.368	18197
825.508	18140
825.648	18064
825.787	18296
825.927	18235
826.067	18114
826.206	18038
826.346	18186
826.485	18152
826.625	18174
826.765	18144
826.904	18144
827.044	17912
827.183	18007
827.323	17752
827.462	17859
827.601	17935
827.741	17741
827.88	17958
828.02	17760
828.159	17828
828.298	17840
828.437	17885
828.577	17771
828.716	17859
828.855	17745
828.994	17573
829.134	17714
829.273	17554
829.412	17585
829.551	17573
829.69	17478
829.829	17589
829.968	17589
830.107	17608
830.246	17615
830.385	17497
830.524	17581
830.663	17406
830.802	17280
830.941	17155
831.08	17189
831.219	17288
831.357	17334
831.496	17410
831.635	17273
831.774	17136
831.913	17258
832.051	17121
832.19	17033
832.329	16995
832.467	16965
832.606	16797
832.744	16908
832.883	16858
833.022	16911
833.16	16972
833.299	17025
833.437	16919
833.576	16961
833.714	16957
833.852	17128
833.991	16934
834.129	16991
834.267	17136
834.406	16896
834.544	17025
834.682	16965
834.821	16885
834.959	17037
835.097	16984
835.235	17029
835.373	16961
835.511	16850
835.65	16934
835.788	16801
835.926	16752
836.064	16675
836.202	16740
836.34	16889
836.478	16927
836.615	16828
836.753	16869
836.891	16965
837.029	17033
837.167	16748
837.305	16752
837.443	16755
837.58	16672
837.718	16850
837.856	16782
837.993	16850
838.131	16725
838.269	16702
838.406	16660
838.544	16535
838.681	16382
838.819	16417
838.956	16322
839.094	16268
839.231	16417
839.369	16440
839.506	16672
839.643	16500
839.781	16299
839.918	16242
840.055	16272
840.193	16341
840.33	16230
840.467	16291
840.604	16322
840.742	16508
840.879	16173
841.016	16230
841.153	16150
841.29	16451
841.427	16310
841.564	16246
841.701	16375
841.838	16177
841.975	16211
842.112	16268
842.249	16078
842.385	16044
842.522	16284
842.659	16051
842.796	16021
842.933	16017
843.069	15983
843.206	16017
843.343	16067
843.479	16078
843.616	16048
843.752	15789
843.889	15812
844.025	15945
844.162	15835
844.298	15915
844.435	15823
844.571	15778
844.708	15945
844.844	16074
844.98	16013
845.117	15968
845.253	15869
845.389	15865
845.525	15808
845.661	15785
845.798	15762
845.934	15888
846.07	15759
846.206	15762
846.342	15876
846.478	15785
846.614	15477
846.75	15340
846.886	15367
847.022	15568
847.158	15431
847.294	15523
847.429	15450
847.565	15389
847.701	15633
847.837	15154
847.972	15070
848.108	15146
848.244	15169
848.379	15032
848.515	15077
848.65	15001
848.786	14982
848.921	14994
849.057	15180
849.192	15093
849.328	15055
849.463	15089
849.598	14910
849.734	14883
849.869	14815
850.004	14796
850.14	14750
850.275	14895
850.41	14663
850.545	14689
850.68	14804
850.815	14735
850.95	14765
851.085	14971
851.22	14956
851.355	14823
851.49	14781
851.625	14788
851.76	14765
851.895	14731
852.03	14754
852.165	14777
852.299	14823
852.434	14971
852.569	14796
852.703	14796
852.838	14868
852.973	14883
853.107	14868
853.242	14758
853.376	14746
853.511	14507
853.645	14575
853.78	14777
853.914	14644
854.048	14621
854.183	14613
854.317	14701
854.451	14845
854.585	14590
854.72	14564
854.854	14769
854.988	14590
855.122	14632
855.256	14469
855.39	14613
855.524	14693
855.658	14670
855.792	14727
855.926	14686
856.06	14724
856.194	14769
856.327	14575
856.461	14571
856.595	14610
856.729	14560
856.862	14689
856.996	14708
857.13	14697
857.263	14746
857.397	14804
857.53	14712
857.664	14651
857.797	14804
857.931	14773
858.064	14640
858.197	14807
858.331	14678
858.464	14640
858.597	14549
858.731	14636
858.864	14590
858.997	14689
859.13	14705
859.263	14697
859.396	14701
859.529	14708
859.662	14636
859.795	14598
859.928	14602
860.061	14891
860.194	14838
860.327	14663
860.46	14644
860.592	14758
860.725	14845
860.858	14750
860.99	14560
861.123	14682
861.256	14583
861.388	14621
861.521	15348
861.653	14598
861.786	14427
861.918	14606
862.05	14598
862.183	14632
862.315	14560
862.447	14674
862.58	14617
862.712	14427
862.844	14309
862.976	14518
863.108	14484
863.24	14849
863.372	14271
863.504	14446
863.636	14370
863.768	14438
863.9	14362
864.032	14278
864.164	14408
864.296	14495
864.428	14594
864.559	14621
864.691	14503
864.823	14579
864.954	14393
865.086	14480
865.217	14492
865.349	14377
865.48	14450
865.612	14450
865.743	14556
865.875	14427
866.006	14183
866.137	14396
866.269	14412
866.4	14419
866.531	14400
866.662	14415
866.793	14324
866.924	14358
867.055	14488
867.186	14389
867.317	14339
867.448	14370
867.579	14301
867.71	14332
867.841	14347
867.972	14423
868.103	14408
868.233	14495
868.364	14381
868.495	14541
868.625	14655
868.756	14670
868.886	14644
869.017	14697
869.147	14807
869.278	14864
869.408	14648
869.539	14602
869.669	14663
869.799	14606
869.929	14857
870.06	14804
870.19	14948
870.32	14960
870.45	14880
870.58	15028
870.71	15123
870.84	15100
870.97	15127
871.1	14925
871.23	15165
871.36	15188
871.489	15081
871.619	15211
871.749	15165
871.879	15260
872.008	15393
872.138	15233
872.267	15211
872.397	14979
872.526	15028
872.656	14986
872.785	15066
872.915	15279
873.044	15370
873.173	15355
873.303	15344
873.432	15344
873.561	15450
873.69	15291
873.819	15382
873.948	15283
874.077	15302
874.206	15332
874.335	15359
874.464	15477
874.593	15545
874.722	15439
874.851	15629
874.979	15534
875.108	15599
875.237	15561
875.365	15637
875.494	15614
875.623	15568
875.751	15473
875.88	15572
876.008	15648
876.136	15857
876.265	15918
876.393	16185
876.521	16131
876.65	15998
876.778	15975
876.906	15998
877.034	15945
877.162	16029
877.29	15964
877.418	16040
877.546	15983
877.674	16032
877.802	16006
877.93	16029
878.058	15991
878.185	16021
878.313	15983
878.441	15987
878.568	15857
878.696	15994
878.824	16074
878.951	16124
879.079	16188
879.206	16405
879.333	16253
879.461	16078
879.588	16139
879.715	16230
879.842	16394
879.97	16169
880.097	15827
880.224	15797
880.351	15998
880.478	15854
880.605	15804
880.732	15854
880.859	16078
880.986	15899
881.112	15937
881.239	15873
881.366	15625
881.493	15599
881.619	15553
881.746	15542
881.872	15549
881.999	15591
882.125	15519
882.252	15568
882.378	15507
882.505	15656
882.631	15443
882.757	15355
882.883	15496
883.01	15428
883.136	15291
883.262	15207
883.388	15241
883.514	15382
883.64	15523
883.766	15351
883.892	15180
884.018	15283
884.143	15363
884.269	15447
884.395	15123
884.52	14975
884.646	15123
884.772	15043
884.897	14902
885.023	15131
885.148	15127
885.274	15131
885.399	15119
885.524	15131
885.65	15058
885.775	15150
885.9	15085
886.025	15184
886.15	15135
886.275	15104
886.4	14921
886.525	15077
886.65	14902
886.775	14956
886.9	15127
887.025	15260
887.149	15032
887.274	14876
887.399	14861
887.523	14876
887.648	14792
887.773	14826
887.897	14910
888.021	14952
888.146	14777
888.27	14891
888.395	14948
888.519	14861
888.643	14929
888.767	14853
888.891	14781
889.015	14716
889.139	14872
889.263	14724
889.387	14838
889.511	14883
889.635	14876
889.759	14720
889.883	14632
890.006	14769
890.13	14876
890.254	14598
890.377	14708
890.501	14537
890.624	14503
890.748	14678
890.871	14374
890.995	14385
891.118	14355
891.241	14408
891.364	14446
891.488	14552
891.611	14370
891.734	14450
891.857	14427
891.98	14374
892.103	14571
892.226	14465
892.349	14465
892.471	14290
892.594	14415
892.717	14404
892.839	14347
892.962	14408
893.085	14495
893.207	14412
893.33	14339
893.452	14404
893.575	14530
893.697	14427
893.819	14522
893.941	14629
894.064	14568
894.186	14366
894.308	14332
894.43	14583
894.552	14629
894.674	14552
894.796	14419
894.918	14530
895.04	14370
895.161	14610
895.283	14507
895.405	14488
895.526	14461
895.648	14545
895.769	14541
895.891	14556
896.012	14549
896.134	14602
896.255	14632
896.376	14518
896.498	14552
896.619	14655
896.74	14495
896.861	14594
896.982	14960
897.103	15005
897.224	14925
897.345	14731
897.466	14819
897.587	14883
897.708	14956
897.828	14887
897.949	14731
898.07	14701
898.19	14758
898.311	14918
898.431	14815
898.552	14925
898.672	14986
898.792	15036
898.913	15039
899.033	14849
899.153	14785
899.273	14735
899.393	14762
899.513	14716
899.633	14845
899.753	14800
899.873	14705
899.993	14800
900.113	14754
900.232	14815
900.352	14716
900.472	14648
900.591	14560
900.711	14640
900.83	14579
900.95	14632
901.069	14716
901.189	14495
901.308	14347
901.427	14221
901.546	14275
901.665	14252
901.784	14423
901.904	14229
902.023	13993
902.141	13856
902.26	13883
902.379	14024
902.498	13818
902.617	13795
902.735	13967
902.854	13887
902.973	13791
903.091	13594
903.21	13582
903.328	13605
903.446	13548
903.565	13430
903.683	13499
903.801	13274
903.919	13415
904.038	13422
904.156	13282
904.274	13308
904.392	13263
904.51	13240
904.627	13274
904.745	13308
904.863	13251
904.981	13057
905.098	12932
905.216	12859
905.334	12932
905.451	12932
905.569	12905
905.686	12951
905.803	12928
905.921	12753
906.038	12856
906.155	12776
906.272	12703
906.389	12662
906.506	12593
906.623	12490
906.74	12407
906.857	12433
906.974	12448
907.091	12684
907.208	12570
907.324	12559
907.441	12506
907.557	12330
907.674	12281
907.79	12171
907.907	12186
908.023	12243
908.139	12239
908.256	12209
908.372	12159
908.488	12117
908.604	11984
908.72	11893
908.836	12015
908.952	11961
909.068	11954
909.184	12159
909.3	12076
909.415	12030
909.531	12034
909.647	11805
909.762	11729
909.878	11794
909.993	11832
910.108	11897
910.224	11688
910.339	11779
910.454	11737
910.57	11615
910.685	11615
910.8	11870
910.915	11874
911.03	11726
911.145	11482
911.259	11444
911.374	11410
911.489	11463
911.604	11360
911.718	11117
911.833	11261
911.947	11121
912.062	11109
912.176	11227
912.291	11185
912.405	11277
912.519	11429
912.633	11406
912.748	11303
912.862	11303
912.976	11094
913.09	10991
913.204	11018
913.318	11140
913.431	11258
913.545	11208
913.659	11181
913.772	11060
913.886	10987
914	10885
914.113	11029
914.226	11140
914.34	11098
914.453	10850
914.566	11052
914.68	10938
914.793	10991
914.906	10748
915.019	10691
915.132	10664
915.245	10691
915.358	10763
915.47	10660
915.583	10752
915.696	10759
915.809	10911
915.921	10869
916.034	10645
916.146	10599
916.259	10672
916.371	10755
916.483	10668
916.595	10565
916.708	10725
916.82	10691
916.932	10584
917.044	10675
917.156	10588
917.268	10535
917.38	10565
917.491	10527
917.603	10519
917.715	10588
917.826	10588
917.938	10546
918.049	10497
918.161	10489
918.272	10702
918.384	10702
918.495	10573
918.606	10405
918.717	10360
918.828	10402
918.939	10424
919.05	10306
919.161	10325
919.272	10200
919.383	10314
919.494	10485
919.604	10634
919.715	10421
919.826	10322
919.936	10394
920.047	10489
920.157	10440
920.267	10645
920.378	10466
920.488	10421
920.598	10618
920.708	10771
920.818	10637
920.928	10634
921.038	10831
921.148	10702
921.258	10451
921.368	10394
921.477	10284
921.587	10257
921.697	10219
921.806	10238
921.916	10181
922.025	9968
922.134	9945
922.244	10025
922.353	10010
922.462	9945
922.571	9876
922.68	9694
922.789	9568
922.898	9671
923.007	9686
923.116	9732
923.224	9675
923.333	9549
923.442	9538
923.55	9587
923.659	9576
923.767	9618
923.876	9473
923.984	9622
924.092	9576
924.201	9644
924.309	9515
924.417	9542
924.525	9492
924.633	9485
924.741	10314
924.849	9256
924.956	9428
925.064	9302
925.172	9222
925.279	9317
925.387	9313
925.494	9313
925.602	9424
925.709	9317
925.816	9176
925.924	9348
926.031	9355
926.138	9359
926.245	9321
926.352	9298
926.459	9344
926.566	9416
926.673	9287
926.779	9192
926.886	9161
926.993	9055
927.099	9085
927.206	8986
927.312	8937
927.419	9081
927.525	9036
927.631	9085
927.737	8918
927.843	8895
927.95	8830
928.056	8899
928.162	8861
928.267	8960
928.373	9595
928.479	8914
928.585	8788
928.69	8891
928.796	8979
928.901	8792
929.007	8621
929.112	8838
929.218	8788
929.323	8731
929.428	8762
929.533	8876
929.638	8655
929.743	8651
929.848	8750
929.953	8682
930.058	8716
930.163	8446
930.267	8495
930.372	8678
930.477	8404
930.581	8731
930.685	8568
930.79	8427
930.894	8454
930.998	8469
931.103	8571
931.207	8229
931.311	8195
931.415	8081
931.519	7913
931.623	7837
