Data from test_V78500241_1955.txt Node
Date: Fri Mar 25 14:47:19 CST 2022
User: usil
Spectrometer: V785-0024
Trigger mode: 0
Integration Time (sec): 4.000000E-1
Scans to average: 1
Nonlinearity correction enabled: false
Boxcar width: 0
Storing dark spectrum: false
XAxis mode: Wavelengths
Number of Pixels in Spectrum: 1024
>>>>>Begin Spectral Data<<<<<
801.071	22093
801.214	21857
801.356	21675
801.499	21526
801.641	21485
801.783	21431
801.926	21401
802.068	21313
802.211	21374
802.353	21279
802.496	21066
802.638	20872
802.78	20937
802.923	20731
803.065	20804
803.208	20788
803.35	20754
803.492	20948
803.635	20845
803.777	20731
803.919	20937
804.061	21127
804.204	20944
804.346	20655
804.488	20716
804.63	20876
804.773	20606
804.915	20670
805.057	20826
805.199	20602
805.341	20689
805.483	20777
805.626	20792
805.768	20632
805.91	20765
806.052	20682
806.194	20629
806.336	20826
806.478	20754
806.62	20541
806.762	20701
806.904	20762
807.046	21024
807.188	21051
807.33	21074
807.472	20979
807.614	20891
807.756	21001
807.898	20834
808.04	20769
808.182	20754
808.324	20769
808.465	20750
808.607	21013
808.749	20982
808.891	21157
809.033	21302
809.174	21150
809.316	20998
809.458	20979
809.6	21096
809.741	21058
809.883	21207
810.025	21260
810.166	21207
810.308	21237
810.45	21116
810.591	21112
810.733	20952
810.875	20925
811.016	20678
811.158	20743
811.299	20857
811.441	20967
811.582	20971
811.724	20842
811.865	20762
812.007	20849
812.148	20727
812.29	20754
812.431	20990
812.573	21081
812.714	21180
812.855	21268
812.997	21431
813.138	21614
813.279	21443
813.421	21389
813.562	21207
813.703	21116
813.845	20956
813.986	20735
814.127	20450
814.268	20442
814.41	20457
814.551	20381
814.692	20518
814.833	20301
814.974	20286
815.115	20305
815.256	20187
815.397	20229
815.539	20119
815.68	20081
815.821	20115
815.962	20103
816.103	20054
816.244	19841
816.385	19818
816.526	19906
816.666	19826
816.807	19525
816.948	19635
817.089	19620
817.23	19449
817.371	19552
817.512	19533
817.653	19407
817.793	19483
817.934	19483
818.075	19609
818.216	19586
818.356	19460
818.497	19388
818.638	19175
818.778	19240
818.919	19122
819.06	19164
819.2	19270
819.341	19422
819.481	19400
819.622	19529
819.762	19731
819.903	19681
820.043	19472
820.184	19525
820.324	19472
820.465	19567
820.605	19540
820.746	19518
820.886	19422
821.026	19422
821.167	19556
821.307	19434
821.447	19430
821.588	19377
821.728	19171
821.868	18996
822.008	18833
822.149	18894
822.289	18882
822.429	18654
822.569	18612
822.709	18559
822.849	18407
822.99	18273
823.13	18414
823.27	18391
823.41	18258
823.55	18110
823.69	18083
823.83	18186
823.97	18114
824.11	18041
824.25	18007
824.389	18011
824.529	18057
824.669	17916
824.809	18041
824.949	18007
825.089	17980
825.228	18060
825.368	17836
825.508	17703
825.648	17748
825.787	17882
825.927	17752
826.067	17668
826.206	17760
826.346	17794
826.485	17764
826.625	17729
826.765	17847
826.904	17840
827.044	17501
827.183	17630
827.323	17349
827.462	17589
827.601	17406
827.741	17410
827.88	17330
828.02	17265
828.159	17383
828.298	17414
828.437	17497
828.577	17417
828.716	17532
828.855	17493
828.994	17231
829.134	17136
829.273	17258
829.412	17220
829.551	17109
829.69	17200
829.829	17288
829.968	17383
830.107	17303
830.246	17216
830.385	17185
830.524	17216
830.663	17132
830.802	16881
830.941	16812
831.08	16797
831.219	16991
831.357	16957
831.496	17132
831.635	16942
831.774	16801
831.913	16702
832.051	16611
832.19	16527
832.329	16660
832.467	16523
832.606	16504
832.744	16508
832.883	16523
833.022	16489
833.16	16508
833.299	16577
833.437	16531
833.576	16470
833.714	16550
833.852	16561
833.991	16523
834.129	16740
834.267	16554
834.406	16542
834.544	16550
834.682	16691
834.821	16577
834.959	16896
835.097	16588
835.235	16573
835.373	16637
835.511	16596
835.65	16432
835.788	16436
835.926	16314
836.064	16314
836.202	16337
836.34	16596
836.478	16561
836.615	16497
836.753	16447
836.891	16630
837.029	16504
837.167	16489
837.305	16428
837.443	16363
837.58	16337
837.718	16394
837.856	16447
837.993	16314
838.131	16284
838.269	16249
838.406	16390
838.544	16291
838.681	16086
838.819	16025
838.956	15922
839.094	15915
839.231	15934
839.369	16109
839.506	16261
839.643	16173
839.781	15956
839.918	15926
840.055	15972
840.193	15865
840.33	15918
840.467	15972
840.604	15869
840.742	16204
840.879	15827
841.016	15812
841.153	15876
841.29	16059
841.427	15827
841.564	15911
841.701	15964
841.838	15842
841.975	15823
842.112	15770
842.249	15762
842.385	15717
842.522	15842
842.659	15755
842.796	15743
842.933	15690
843.069	15694
843.206	15629
843.343	15724
843.479	15717
843.616	15778
843.752	15526
843.889	15492
844.025	15591
844.162	15450
844.298	15618
844.435	15443
844.571	15466
844.708	15595
844.844	15736
844.98	15641
845.117	15648
845.253	15523
845.389	15378
845.525	15382
845.661	15386
845.798	15336
845.934	15332
846.07	15268
846.206	15340
846.342	15469
846.478	15329
846.614	15097
846.75	15036
846.886	15127
847.022	15127
847.158	15070
847.294	15100
847.429	15077
847.565	15085
847.701	15275
847.837	14861
847.972	14739
848.108	14891
848.244	14872
848.379	14765
848.515	14644
848.65	14648
848.786	14693
848.921	14697
849.057	14754
849.192	14792
849.328	14621
849.463	14674
849.598	14541
849.734	14583
849.869	14564
850.004	14476
850.14	14545
850.275	14503
850.41	14454
850.545	14298
850.68	14370
850.815	14476
850.95	14370
851.085	14621
851.22	14590
851.355	14442
851.49	14415
851.625	14427
851.76	14461
851.895	14317
852.03	14396
852.165	14362
852.299	14412
852.434	14446
852.569	14442
852.703	14438
852.838	14564
852.973	14629
853.107	14739
853.242	14400
853.376	14389
853.511	14248
853.645	14259
853.78	14484
853.914	14328
854.048	14240
854.183	14320
854.317	14370
854.451	14568
854.585	14343
854.72	14286
854.854	14309
854.988	14240
855.122	14313
855.256	14145
855.39	14347
855.524	14396
855.658	14370
855.792	14305
855.926	14317
856.06	14431
856.194	14434
856.327	14309
856.461	14187
856.595	14210
856.729	14313
856.862	14347
856.996	14351
857.13	14389
857.263	14454
857.397	14400
857.53	14286
857.664	14381
857.797	14374
857.931	14438
858.064	14389
858.197	14396
858.331	14237
858.464	14134
858.597	14164
858.731	14339
858.864	14259
858.997	14206
859.13	14320
859.263	14214
859.396	14377
859.529	14294
859.662	14206
859.795	14301
859.928	14313
860.061	14484
860.194	14541
860.327	14225
860.46	14263
860.592	14427
860.725	14495
860.858	14492
860.99	14305
861.123	14218
861.256	14252
861.388	14339
861.521	14990
861.653	14252
861.786	14084
861.918	14134
862.05	14218
862.183	14347
862.315	14317
862.447	14465
862.58	14202
862.712	14134
862.844	14020
862.976	14180
863.108	14088
863.24	14404
863.372	14005
863.504	14046
863.636	14100
863.768	14088
863.9	14084
864.032	14077
864.164	14005
864.296	14100
864.428	14176
864.559	14149
864.691	14248
864.823	14153
864.954	14161
865.086	14142
865.217	14039
865.349	14111
865.48	14043
865.612	14012
865.743	14290
865.875	14081
866.006	13970
866.137	14035
866.269	14092
866.4	14065
866.531	14016
866.662	14001
866.793	14088
866.924	14183
867.055	14031
867.186	14107
867.317	13963
867.448	13928
867.579	13928
867.71	13989
867.841	14016
867.972	14164
868.103	14016
868.233	14077
868.364	14149
868.495	14130
868.625	14305
868.756	14461
868.886	14214
869.017	14362
869.147	14484
869.278	14408
869.408	14328
869.539	14286
869.669	14457
869.799	14317
869.929	14450
870.06	14495
870.19	14731
870.32	14621
870.45	14613
870.58	14693
870.71	14861
870.84	14777
870.97	14727
871.1	14674
871.23	14891
871.36	14826
871.489	14727
871.619	14861
871.749	14838
871.879	14952
872.008	15009
872.138	14944
872.267	14952
872.397	14788
872.526	14716
872.656	14686
872.785	14800
872.915	14944
873.044	15047
873.173	14948
873.303	14971
873.432	15123
873.561	15005
873.69	14937
873.819	14883
873.948	15039
874.077	14925
874.206	14998
874.335	14906
874.464	15180
874.593	15260
874.722	15207
874.851	15222
874.979	15359
875.108	15321
875.237	15340
875.365	15245
875.494	15252
875.623	15344
875.751	15249
875.88	15306
876.008	15458
876.136	15580
876.265	15751
876.393	15869
876.521	15766
876.65	15717
876.778	15789
876.906	15618
877.034	15663
877.162	15747
877.29	15618
877.418	15739
877.546	15686
877.674	15732
877.802	15739
877.93	15667
878.058	15652
878.185	15564
878.313	15652
878.441	15701
878.568	15618
878.696	15663
878.824	15663
878.951	15717
879.079	15873
879.206	16040
879.333	15861
879.461	15728
879.588	15804
879.715	15930
879.842	16006
879.97	15778
880.097	15564
880.224	15515
880.351	15568
880.478	15580
880.605	15584
880.732	15591
880.859	15701
880.986	15629
881.112	15644
881.239	15428
881.366	15332
881.493	15332
881.619	15214
881.746	15154
881.872	15233
881.999	15161
882.125	15112
882.252	15317
882.378	15260
882.505	15348
882.631	15123
882.757	15047
882.883	15058
883.01	15043
883.136	14956
883.262	14918
883.388	14845
883.514	15017
883.64	15032
883.766	14933
883.892	14826
884.018	14857
884.143	14982
884.269	15077
884.395	14811
884.52	14598
884.646	14697
884.772	14731
884.897	14651
885.023	14807
885.148	14785
885.274	14872
885.399	14876
885.524	14765
885.65	14792
885.775	14739
885.9	14667
886.025	14868
886.15	14758
886.275	14705
886.4	14617
886.525	14826
886.65	14629
886.775	14583
886.9	14849
887.025	14906
887.149	14781
887.274	14552
887.399	14507
887.523	14511
887.648	14393
887.773	14484
887.897	14556
888.021	14644
888.146	14514
888.27	14678
888.395	14663
888.519	14602
888.643	14648
888.767	14678
888.891	14530
889.015	14377
889.139	14476
889.263	14503
889.387	14511
889.511	14590
889.635	14476
889.759	14317
889.883	14450
890.006	14438
890.13	14541
890.254	14381
890.377	14385
890.501	14183
890.624	14191
890.748	14286
890.871	14130
890.995	14100
891.118	13959
891.241	14103
891.364	14168
891.488	14301
891.611	14119
891.734	14195
891.857	14214
891.98	14103
892.103	14084
892.226	14126
892.349	14081
892.471	14012
892.594	14111
892.717	14073
892.839	14058
892.962	14164
893.085	14111
893.207	14142
893.33	13989
893.452	14123
893.575	14172
893.697	14149
893.819	14240
893.941	14370
894.064	14153
894.186	14046
894.308	14119
894.43	14259
894.552	14328
894.674	14339
894.796	14054
894.918	14176
895.04	14062
895.161	14218
895.283	14244
895.405	14195
895.526	14244
895.648	14263
895.769	14286
895.891	14298
896.012	14404
896.134	14290
896.255	14355
896.376	14248
896.498	14278
896.619	14320
896.74	14172
896.861	14317
896.982	14613
897.103	14807
897.224	14549
897.345	14442
897.466	14488
897.587	14480
897.708	14697
897.828	14522
897.949	14530
898.07	14465
898.19	14495
898.311	14651
898.431	14530
898.552	14606
898.672	14781
898.792	14708
898.913	14655
899.033	14583
899.153	14450
899.273	14419
899.393	14480
899.513	14415
899.633	14446
899.753	14488
899.873	14431
899.993	14556
900.113	14446
900.232	14560
900.352	14507
900.472	14404
900.591	14145
900.711	14434
900.83	14256
900.95	14370
901.069	14332
901.189	14278
901.308	14107
901.427	13986
901.546	13970
901.665	13997
901.784	14084
901.904	13887
902.023	13864
902.141	13674
902.26	13590
902.379	13670
902.498	13548
902.617	13567
902.735	13655
902.854	13639
902.973	13388
903.091	13244
903.21	13354
903.328	13388
903.446	13232
903.565	13183
903.683	13152
903.801	12962
903.919	13152
904.038	13141
904.156	12989
904.274	12951
904.392	12962
904.51	12985
904.627	12848
904.745	13042
904.863	13012
904.981	12814
905.098	12601
905.216	12578
905.334	12707
905.451	12681
905.569	12650
905.686	12734
905.803	12692
905.921	12528
906.038	12570
906.155	12528
906.272	12448
906.389	12410
906.506	12281
906.623	12285
906.74	12262
906.857	12129
906.974	12251
907.091	12391
907.208	12395
907.324	12330
907.441	12171
907.557	12064
907.674	11999
907.79	12003
907.907	11958
908.023	12034
908.139	12034
908.256	11992
908.372	11908
908.488	11931
908.604	11783
908.72	11707
908.836	11665
908.952	11802
909.068	11741
909.184	11916
909.3	11737
909.415	11767
909.531	11798
909.647	11619
909.762	11554
909.878	11493
909.993	11589
910.108	11646
910.224	11596
910.339	11516
910.454	11433
910.57	11398
910.685	11254
910.8	11600
910.915	11509
911.03	11490
911.145	11201
911.259	11102
911.374	11201
911.489	11246
911.604	11094
911.718	10995
911.833	11045
911.947	10934
912.062	10759
912.176	10995
912.291	10980
912.405	10927
912.519	11128
912.633	11155
912.748	11155
912.862	11033
912.976	10889
913.09	10706
913.204	10782
913.318	10919
913.431	10961
913.545	11006
913.659	11048
913.772	10881
913.886	10752
914	10763
914.113	10812
914.226	10858
914.34	10877
914.453	10698
914.566	10915
914.68	10683
914.793	10653
914.906	10523
915.019	10516
915.132	10382
915.245	10508
915.358	10573
915.47	10500
915.583	10466
915.696	10599
915.809	10675
915.921	10683
916.034	10497
916.146	10474
916.259	10508
916.371	10565
916.483	10504
916.595	10451
916.708	10417
916.82	10440
916.932	10329
917.044	10421
917.156	10348
917.268	10265
917.38	10371
917.491	10337
917.603	10314
917.715	10413
917.826	10436
917.938	10253
918.049	10207
918.161	10367
918.272	10455
918.384	10497
918.495	10360
918.606	10261
918.717	10074
918.828	10207
918.939	10272
919.05	10097
919.161	10192
919.272	10055
919.383	10086
919.494	10230
919.604	10371
919.715	10227
919.826	10192
919.936	10249
920.047	10238
920.157	10188
920.267	10432
920.378	10257
920.488	10253
920.598	10398
920.708	10554
920.818	10459
920.928	10405
921.038	10592
921.148	10573
921.258	10211
921.368	10207
921.477	10192
921.587	10032
921.697	9972
921.806	10124
921.916	10010
922.025	9827
922.134	9762
922.244	9800
922.353	9778
922.462	9629
922.571	9660
922.68	9519
922.789	9450
922.898	9488
923.007	9481
923.116	9553
923.224	9515
923.333	9481
923.442	9393
923.55	9386
923.659	9408
923.767	9523
923.876	9336
923.984	9435
924.092	9329
924.201	9477
924.309	9397
924.417	9428
924.525	9310
924.633	9336
924.741	10268
924.849	9199
924.956	9317
925.064	9218
925.172	9135
925.279	9176
925.387	9169
925.494	9264
925.602	9283
925.709	9218
925.816	9104
925.924	9184
926.031	9249
926.138	9192
926.245	9245
926.352	9154
926.459	9214
926.566	9287
926.673	9176
926.779	9013
926.886	9062
926.993	8952
927.099	8883
927.206	8807
927.312	8849
927.419	8895
927.525	8895
927.631	8952
927.737	8796
927.843	8819
927.95	8731
928.056	8800
928.162	8785
928.267	8800
928.373	9462
928.479	8849
928.585	8686
928.69	8819
928.796	8838
928.901	8667
929.007	8533
929.112	8712
929.218	8689
929.323	8670
929.428	8610
929.533	8686
929.638	8518
929.743	8549
929.848	8579
929.953	8568
930.058	8488
930.163	8393
930.267	8427
930.372	8473
930.477	8332
930.581	8587
930.685	8454
930.79	8301
930.894	8328
930.998	8290
931.103	8457
931.207	8054
931.311	8092
931.415	7963
931.519	7811
931.623	7856
