Data from test_V78500241_1973.txt Node
Date: Fri Mar 25 14:47:27 CST 2022
User: usil
Spectrometer: V785-0024
Trigger mode: 0
Integration Time (sec): 4.000000E-1
Scans to average: 1
Nonlinearity correction enabled: false
Boxcar width: 0
Storing dark spectrum: false
XAxis mode: Wavelengths
Number of Pixels in Spectrum: 1024
>>>>>Begin Spectral Data<<<<<
801.071	22219
801.214	21968
801.356	21732
801.499	21694
801.641	21492
801.783	21378
801.926	21504
802.068	21447
802.211	21321
802.353	21272
802.496	21005
802.638	20941
802.78	20895
802.923	20765
803.065	20682
803.208	20796
803.35	20754
803.492	20861
803.635	21032
803.777	20773
803.919	20857
804.061	21154
804.204	20762
804.346	20842
804.488	20705
804.63	20697
804.773	20598
804.915	20682
805.057	20834
805.199	20651
805.341	20762
805.483	20823
805.626	20739
805.768	20674
805.91	20727
806.052	20682
806.194	20598
806.336	20899
806.478	20648
806.62	20617
806.762	20838
806.904	20933
807.046	21039
807.188	21081
807.33	21001
807.472	21039
807.614	20971
807.756	21024
807.898	20804
808.04	20716
808.182	20750
808.324	20838
808.465	20826
808.607	20986
808.749	20971
808.891	21203
809.033	21313
809.174	21119
809.316	21161
809.458	21055
809.6	20998
809.741	21070
809.883	21150
810.025	21157
810.166	21268
810.308	21226
810.45	21161
810.591	21211
810.733	20891
810.875	20807
811.016	20773
811.158	20746
811.299	20979
811.441	20864
811.582	20910
811.724	20834
811.865	20826
812.007	20834
812.148	20838
812.29	20883
812.431	21135
812.573	21157
812.714	21268
812.855	21310
812.997	21481
813.138	21603
813.279	21310
813.421	21416
813.562	21313
813.703	21020
813.845	20963
813.986	20716
814.127	20602
814.268	20434
814.41	20400
814.551	20427
814.692	20419
814.833	20237
814.974	20229
815.115	20377
815.256	20301
815.397	20172
815.539	20225
815.68	20058
815.821	20073
815.962	20134
816.103	20016
816.244	20001
816.385	19860
816.526	19894
816.666	19807
816.807	19582
816.948	19620
817.089	19750
817.23	19483
817.371	19495
817.512	19578
817.653	19441
817.793	19407
817.934	19506
818.075	19491
818.216	19616
818.356	19495
818.497	19270
818.638	19012
818.778	19244
818.919	19202
819.06	19217
819.2	19350
819.341	19499
819.481	19533
819.622	19635
819.762	19662
819.903	19586
820.043	19677
820.184	19571
820.324	19571
820.465	19651
820.605	19400
820.746	19373
820.886	19362
821.026	19468
821.167	19362
821.307	19544
821.447	19411
821.588	19400
821.728	19156
821.868	19065
822.008	18966
822.149	18932
822.289	18844
822.429	18726
822.569	18585
822.709	18608
822.849	18483
822.99	18346
823.13	18338
823.27	18388
823.41	18243
823.55	18095
823.69	18205
823.83	18270
823.97	18148
824.11	17878
824.25	17977
824.389	17988
824.529	18072
824.669	17973
824.809	18045
824.949	17984
825.089	18133
825.228	18068
825.368	17756
825.508	17809
825.648	17836
825.787	17722
825.927	17771
826.067	17707
826.206	17703
826.346	17798
826.485	17752
826.625	17741
826.765	17863
826.904	17798
827.044	17566
827.183	17459
827.323	17455
827.462	17463
827.601	17467
827.741	17486
827.88	17532
828.02	17349
828.159	17406
828.298	17497
828.437	17524
828.577	17330
828.716	17558
828.855	17429
828.994	17292
829.134	17303
829.273	17345
829.412	17212
829.551	17174
829.69	17151
829.829	17356
829.968	17402
830.107	17269
830.246	17288
830.385	17140
830.524	17159
830.663	17056
830.802	16915
830.941	16850
831.08	16850
831.219	17003
831.357	16911
831.496	17033
831.635	16934
831.774	16702
831.913	16698
832.051	16664
832.19	16637
832.329	16626
832.467	16538
832.606	16466
832.744	16455
832.883	16565
833.022	16481
833.16	16516
833.299	16599
833.437	16584
833.576	16558
833.714	16519
833.852	16660
833.991	16618
834.129	16626
834.267	16679
834.406	16546
834.544	16721
834.682	16558
834.821	16584
834.959	16721
835.097	16618
835.235	16713
835.373	16577
835.511	16664
835.65	16512
835.788	16500
835.926	16344
836.064	16333
836.202	16280
836.34	16440
836.478	16481
836.615	16382
836.753	16447
836.891	16599
837.029	16409
837.167	16379
837.305	16398
837.443	16470
837.58	16432
837.718	16428
837.856	16329
837.993	16382
838.131	16363
838.269	16215
838.406	16325
838.544	16219
838.681	16051
838.819	15979
838.956	15907
839.094	15998
839.231	15968
839.369	16059
839.506	16344
839.643	16223
839.781	15994
839.918	15850
840.055	15903
840.193	15987
840.33	15899
840.467	15918
840.604	16006
840.742	16219
840.879	15656
841.016	15819
841.153	15861
841.29	16086
841.427	15994
841.564	15907
841.701	15949
841.838	15915
841.975	15857
842.112	15911
842.249	15709
842.385	15705
842.522	15918
842.659	15789
842.796	15644
842.933	15728
843.069	15671
843.206	15614
843.343	15785
843.479	15720
843.616	15736
843.752	15481
843.889	15488
844.025	15610
844.162	15443
844.298	15671
844.435	15515
844.571	15424
844.708	15534
844.844	15709
844.98	15705
845.117	15568
845.253	15355
845.389	15458
845.525	15485
845.661	15428
845.798	15340
845.934	15291
846.07	15272
846.206	15363
846.342	15477
846.478	15283
846.614	15108
846.75	15020
846.886	14967
847.022	15199
847.158	15039
847.294	15074
847.429	15039
847.565	14952
847.701	15313
847.837	14815
847.972	14765
848.108	14895
848.244	14861
848.379	14663
848.515	14651
848.65	14640
848.786	14708
848.921	14739
849.057	14621
849.192	14857
849.328	14712
849.463	14655
849.598	14769
849.734	14568
849.869	14499
850.004	14385
850.14	14507
850.275	14533
850.41	14396
850.545	14511
850.68	14446
850.815	14366
850.95	14454
851.085	14560
851.22	14549
851.355	14522
851.49	14415
851.625	14492
851.76	14442
851.895	14324
852.03	14355
852.165	14434
852.299	14442
852.434	14454
852.569	14434
852.703	14450
852.838	14526
852.973	14659
853.107	14598
853.242	14450
853.376	14347
853.511	14362
853.645	14301
853.78	14461
853.914	14423
854.048	14290
854.183	14278
854.317	14366
854.451	14507
854.585	14355
854.72	14305
854.854	14313
854.988	14347
855.122	14267
855.256	14278
855.39	14381
855.524	14415
855.658	14408
855.792	14355
855.926	14377
856.06	14446
856.194	14454
856.327	14370
856.461	14336
856.595	14256
856.729	14332
856.862	14434
856.996	14404
857.13	14446
857.263	14495
857.397	14442
857.53	14317
857.664	14358
857.797	14408
857.931	14507
858.064	14396
858.197	14526
858.331	14377
858.464	14278
858.597	14336
858.731	14396
858.864	14336
858.997	14313
859.13	14305
859.263	14393
859.396	14396
859.529	14370
859.662	14362
859.795	14328
859.928	14370
860.061	14465
860.194	14537
860.327	14351
860.46	14351
860.592	14514
860.725	14560
860.858	14465
860.99	14263
861.123	14332
861.256	14320
861.388	14400
861.521	15028
861.653	14138
861.786	14233
861.918	14191
862.05	14237
862.183	14294
862.315	14317
862.447	14423
862.58	14263
862.712	14183
862.844	14035
862.976	14199
863.108	14202
863.24	14503
863.372	14069
863.504	14199
863.636	14077
863.768	14229
863.9	14191
864.032	13982
864.164	14183
864.296	14134
864.428	14206
864.559	14290
864.691	14210
864.823	14164
864.954	14191
865.086	14172
865.217	14084
865.349	13989
865.48	14161
865.612	14164
865.743	14195
865.875	14123
866.006	14043
866.137	14176
866.269	14119
866.4	14043
866.531	14100
866.662	14142
866.793	14043
866.924	14031
867.055	14164
867.186	14164
867.317	14084
867.448	13894
867.579	14100
867.71	13974
867.841	14058
867.972	14107
868.103	14123
868.233	14172
868.364	14115
868.495	14187
868.625	14294
868.756	14347
868.886	14294
869.017	14351
869.147	14594
869.278	14339
869.408	14358
869.539	14377
869.669	14473
869.799	14351
869.929	14530
870.06	14526
870.19	14674
870.32	14705
870.45	14716
870.58	14758
870.71	14815
870.84	14830
870.97	14762
871.1	14712
871.23	14868
871.36	14876
871.489	14944
871.619	14975
871.749	14872
871.879	14929
872.008	15024
872.138	14944
872.267	14971
872.397	14792
872.526	14796
872.656	14712
872.785	14811
872.915	14918
873.044	15093
873.173	14952
873.303	15039
873.432	15066
873.561	15009
873.69	14982
873.819	15017
873.948	15085
874.077	14979
874.206	15001
874.335	15032
874.464	15199
874.593	15287
874.722	15230
874.851	15306
874.979	15344
875.108	15355
875.237	15203
875.365	15329
875.494	15336
875.623	15439
875.751	15351
875.88	15370
876.008	15466
876.136	15519
876.265	15888
876.393	15899
876.521	15789
876.65	15804
876.778	15766
876.906	15709
877.034	15701
877.162	15690
877.29	15667
877.418	15709
877.546	15663
877.674	15720
877.802	15819
877.93	15709
878.058	15694
878.185	15618
878.313	15808
878.441	15667
878.568	15614
878.696	15671
878.824	15766
878.951	15751
879.079	15953
879.206	16010
879.333	15934
879.461	15785
879.588	15827
879.715	15895
879.842	16067
879.97	15884
880.097	15622
880.224	15530
880.351	15553
880.478	15614
880.605	15507
880.732	15534
880.859	15854
880.986	15747
881.112	15553
881.239	15504
881.366	15405
881.493	15287
881.619	15188
881.746	15272
881.872	15233
881.999	15211
882.125	15226
882.252	15325
882.378	15226
882.505	15420
882.631	15176
882.757	15116
882.883	15108
883.01	15089
883.136	15070
883.262	14910
883.388	14918
883.514	15081
883.64	15081
883.766	14986
883.892	14887
884.018	14883
884.143	15150
884.269	15131
884.395	14861
884.52	14815
884.646	14739
884.772	14727
884.897	14579
885.023	14804
885.148	14777
885.274	14925
885.399	14811
885.524	14708
885.65	14693
885.775	14815
885.9	14815
886.025	14952
886.15	14861
886.275	14724
886.4	14674
886.525	14724
886.65	14712
886.775	14705
886.9	14914
887.025	14929
887.149	14861
887.274	14522
887.399	14602
887.523	14541
887.648	14514
887.773	14533
887.897	14556
888.021	14587
888.146	14590
888.27	14667
888.395	14792
888.519	14598
888.643	14590
888.767	14708
888.891	14552
889.015	14389
889.139	14488
889.263	14313
889.387	14556
889.511	14625
889.635	14522
889.759	14385
889.883	14499
890.006	14457
890.13	14602
890.254	14431
890.377	14366
890.501	14358
890.624	14256
890.748	14298
890.871	14218
890.995	14191
891.118	14024
891.241	14142
891.364	14126
891.488	14214
891.611	14176
891.734	14138
891.857	14298
891.98	14183
892.103	14252
892.226	14164
892.349	14107
892.471	13955
892.594	14164
892.717	14191
892.839	14199
892.962	14149
893.085	14180
893.207	14237
893.33	13993
893.452	14119
893.575	14145
893.697	14195
893.819	14336
893.941	14298
894.064	14347
894.186	14180
894.308	14176
894.43	14271
894.552	14377
894.674	14324
894.796	14149
894.918	14153
895.04	14164
895.161	14248
895.283	14298
895.405	14214
895.526	14259
895.648	14240
895.769	14286
895.891	14347
896.012	14343
896.134	14396
896.255	14221
896.376	14263
896.498	14385
896.619	14278
896.74	14301
896.861	14324
896.982	14674
897.103	14724
897.224	14705
897.345	14522
897.466	14476
897.587	14530
897.708	14727
897.828	14667
897.949	14579
898.07	14446
898.19	14526
898.311	14758
898.431	14556
898.552	14670
898.672	14826
898.792	14765
898.913	14686
899.033	14610
899.153	14575
899.273	14427
899.393	14533
899.513	14484
899.633	14606
899.753	14518
899.873	14511
899.993	14473
900.113	14549
900.232	14568
900.352	14526
900.472	14415
900.591	14431
900.711	14408
900.83	14404
900.95	14476
901.069	14438
901.189	14328
901.308	14183
901.427	13921
901.546	14008
901.665	14096
901.784	14050
901.904	13917
902.023	13788
902.141	13647
902.26	13662
902.379	13712
902.498	13639
902.617	13480
902.735	13590
902.854	13605
902.973	13472
903.091	13324
903.21	13350
903.328	13369
903.446	13274
903.565	13244
903.683	13236
903.801	13080
903.919	13202
904.038	13099
904.156	13015
904.274	13095
904.392	13034
904.51	13023
904.627	12947
904.745	13050
904.863	13072
904.981	12871
905.098	12700
905.216	12726
905.334	12764
905.451	12616
905.569	12654
905.686	12673
905.803	12722
905.921	12551
906.038	12627
906.155	12623
906.272	12422
906.389	12517
906.506	12399
906.623	12281
906.74	12365
906.857	12205
906.974	12167
907.091	12353
907.208	12380
907.324	12350
907.441	12220
907.557	12045
907.674	12022
907.79	11942
907.907	12019
908.023	12049
908.139	12106
908.256	11931
908.372	11977
908.488	11920
908.604	11794
908.72	11821
908.836	11760
908.952	11843
909.068	11855
909.184	11847
909.3	11805
909.415	11882
909.531	11836
909.647	11623
909.762	11501
909.878	11551
909.993	11592
910.108	11490
910.224	11516
910.339	11600
910.454	11402
910.57	11478
910.685	11421
910.8	11638
910.915	11623
911.03	11414
911.145	11303
911.259	11273
911.374	11254
911.489	11239
911.604	11159
911.718	11105
911.833	11052
911.947	10949
912.062	10835
912.176	10999
912.291	10999
912.405	11022
912.519	11280
912.633	11235
912.748	11117
912.862	11033
912.976	10957
913.09	10729
913.204	10908
913.318	10930
913.431	11022
913.545	11033
913.659	10972
913.772	10957
913.886	10725
914	10771
914.113	10869
914.226	10949
914.34	10824
914.453	10664
914.566	10919
914.68	10755
914.793	10725
914.906	10634
915.019	10462
915.132	10466
915.245	10512
915.358	10523
915.47	10504
915.583	10500
915.696	10561
915.809	10561
915.921	10599
916.034	10542
916.146	10459
916.259	10436
916.371	10588
916.483	10478
916.595	10413
916.708	10474
916.82	10424
916.932	10466
917.044	10451
917.156	10363
917.268	10325
917.38	10284
917.491	10299
917.603	10238
917.715	10413
917.826	10462
917.938	10348
918.049	10318
918.161	10344
918.272	10500
918.384	10440
918.495	10386
918.606	10287
918.717	10185
918.828	10299
918.939	10280
919.05	10139
919.161	10227
919.272	10078
919.383	10051
919.494	10280
919.604	10470
919.715	10257
919.826	10177
919.936	10246
920.047	10394
920.157	10280
920.267	10379
920.378	10249
920.488	10284
920.598	10455
920.708	10580
920.818	10550
920.928	10443
921.038	10558
921.148	10599
921.258	10268
921.368	10215
921.477	10109
921.587	10169
921.697	10044
921.806	10112
921.916	10021
922.025	9922
922.134	9781
922.244	9785
922.353	9861
922.462	9743
922.571	9614
922.68	9538
922.789	9507
922.898	9473
923.007	9500
923.116	9606
923.224	9530
923.333	9507
923.442	9424
923.55	9447
923.659	9431
923.767	9526
923.876	9405
923.984	9458
924.092	9332
924.201	9359
924.309	9359
924.417	9416
924.525	9313
924.633	9424
924.741	10291
924.849	9157
924.956	9272
925.064	9100
925.172	9093
925.279	9108
925.387	9211
925.494	9203
925.602	9294
925.709	9199
925.816	9169
925.924	9203
926.031	9310
926.138	9222
926.245	9294
926.352	9138
926.459	9245
926.566	9256
926.673	9055
926.779	9108
926.886	9032
926.993	8975
927.099	8857
927.206	8750
927.312	8876
927.419	8948
927.525	8929
927.631	8971
927.737	8880
927.843	8785
927.95	8716
928.056	8800
928.162	8746
928.267	8899
928.373	9561
928.479	8864
928.585	8648
928.69	8796
928.796	8743
928.901	8746
929.007	8552
929.112	8750
929.218	8712
929.323	8659
929.428	8636
929.533	8762
929.638	8590
929.743	8541
929.848	8636
929.953	8640
930.058	8476
930.163	8305
930.267	8370
930.372	8537
930.477	8343
930.581	8636
930.685	8434
930.79	8336
930.894	8305
930.998	8328
931.103	8511
931.207	8103
931.311	8088
931.415	7955
931.519	7830
931.623	7826
