Data from test_V78500241_889.txt Node
Date: Fri Mar 25 14:39:54 CST 2022
User: usil
Spectrometer: V785-0024
Trigger mode: 0
Integration Time (sec): 4.000000E-1
Scans to average: 1
Nonlinearity correction enabled: false
Boxcar width: 0
Storing dark spectrum: false
XAxis mode: Wavelengths
Number of Pixels in Spectrum: 1024
>>>>>Begin Spectral Data<<<<<
801.071	25419
801.214	25384
801.356	25004
801.499	24871
801.641	24802
801.783	24711
801.926	24635
802.068	24620
802.211	24578
802.353	24471
802.496	24308
802.638	24308
802.78	24224
802.923	24155
803.065	24079
803.208	23973
803.35	24064
803.492	24129
803.635	24190
803.777	24167
803.919	24251
804.061	24361
804.204	24136
804.346	24064
804.488	23996
804.63	24030
804.773	24053
804.915	24114
805.057	24262
805.199	24155
805.341	24133
805.483	24342
805.626	24190
805.768	24125
805.91	24254
806.052	24361
806.194	24361
806.336	24456
806.478	24452
806.62	24513
806.762	24646
806.904	24825
807.046	25103
807.188	25179
807.33	25209
807.472	25613
807.614	25464
807.756	25955
807.898	26008
808.04	26408
808.182	27039
808.324	27648
808.465	28554
808.607	29558
808.749	30410
808.891	30916
809.033	30932
809.174	30369
809.316	29326
809.458	28531
809.6	27766
809.741	26952
809.883	26503
810.025	26172
810.166	25875
810.308	25559
810.45	25453
810.591	25358
810.733	24973
810.875	24878
811.016	24715
811.158	24528
811.299	24749
811.441	24665
811.582	24677
811.724	24502
811.865	24441
812.007	24464
812.148	24452
812.29	24426
812.431	24509
812.573	24753
812.714	24681
812.855	24882
812.997	25046
813.138	25012
813.279	25019
813.421	24886
813.562	24719
813.703	24593
813.845	24528
813.986	24171
814.127	24038
814.268	23969
814.41	23935
814.551	23760
814.692	23946
814.833	23794
814.974	23790
815.115	23745
815.256	23623
815.397	23642
815.539	23722
815.68	23509
815.821	23562
815.962	23558
816.103	23509
816.244	23273
816.385	23140
816.526	23155
816.666	23102
816.807	22896
816.948	23128
817.089	23083
817.23	22942
817.371	22797
817.512	22816
817.653	22812
817.793	22839
817.934	22854
818.075	22786
818.216	22881
818.356	22904
818.497	22637
818.638	22489
818.778	22455
818.919	22535
819.06	22645
819.2	22630
819.341	22812
819.481	22786
819.622	22812
819.762	23025
819.903	23071
820.043	22869
820.184	22862
820.324	22862
820.465	23003
820.605	22812
820.746	22862
820.886	22656
821.026	22653
821.167	22599
821.307	22809
821.447	22626
821.588	22531
821.728	22436
821.868	22268
822.008	22032
822.149	22158
822.289	22169
822.429	21766
822.569	21808
822.709	21823
822.849	21701
822.99	21663
823.13	21515
823.27	21576
823.41	21382
823.55	21306
823.69	21351
823.83	21264
823.97	21279
824.11	21192
824.25	21028
824.389	21192
824.529	21325
824.669	21116
824.809	21264
824.949	21275
825.089	21237
825.228	21203
825.368	20880
825.508	20937
825.648	21036
825.787	20967
825.927	20960
826.067	20849
826.206	20876
826.346	20880
826.485	21150
826.625	20838
826.765	20918
826.904	20944
827.044	20659
827.183	20648
827.323	20488
827.462	20686
827.601	20587
827.741	20568
827.88	20655
828.02	20419
828.159	20598
828.298	20648
828.437	20419
828.577	20495
828.716	20632
828.855	20514
828.994	20305
829.134	20286
829.273	20396
829.412	20202
829.551	20210
829.69	20225
829.829	20240
829.968	20381
830.107	20358
830.246	20313
830.385	20084
830.524	20195
830.663	20161
830.802	20005
830.941	19875
831.08	19860
831.219	19883
831.357	19814
831.496	20005
831.635	19860
831.774	19723
831.913	19772
832.051	19594
832.19	19731
832.329	19837
832.467	19521
832.606	19510
832.744	19582
832.883	19552
833.022	19525
833.16	19609
833.299	19685
833.437	19723
833.576	19769
833.714	19841
833.852	19909
833.991	19845
834.129	19974
834.267	20031
834.406	19883
834.544	19864
834.682	19753
834.821	19746
834.959	19830
835.097	19597
835.235	19666
835.373	19723
835.511	19674
835.65	19556
835.788	19449
835.926	19324
836.064	19228
836.202	19301
836.34	19430
836.478	19438
836.615	19346
836.753	19529
836.891	19415
837.029	19407
837.167	19232
837.305	19293
837.443	19247
837.58	19194
837.718	19225
837.856	19194
837.993	19133
838.131	19175
838.269	19084
838.406	19137
838.544	19053
838.681	18863
838.819	18878
838.956	18654
839.094	18707
839.231	18760
839.369	18844
839.506	18943
839.643	19015
839.781	18821
839.918	18597
840.055	18658
840.193	18654
840.33	18681
840.467	18734
840.604	18650
840.742	18996
840.879	18479
841.016	18589
841.153	18650
841.29	18810
841.427	18650
841.564	18604
841.701	18681
841.838	18604
841.975	18486
842.112	18551
842.249	18437
842.385	18300
842.522	18582
842.659	18334
842.796	18452
842.933	18441
843.069	18403
843.206	18369
843.343	18422
843.479	18464
843.616	18407
843.752	18125
843.889	18201
844.025	18433
844.162	18159
844.298	18334
844.435	18357
844.571	18251
844.708	18486
844.844	18749
844.98	18802
845.117	18882
845.253	19114
845.389	19419
845.525	20336
845.661	21709
845.798	23490
845.934	24966
846.07	25689
846.206	25384
846.342	24456
846.478	22417
846.614	20743
846.75	19472
846.886	18897
847.022	18585
847.158	18266
847.294	18102
847.429	18068
847.565	17813
847.701	18125
847.837	17566
847.972	17406
848.108	17615
848.244	17600
848.379	17376
848.515	17395
848.65	17265
848.786	17299
848.921	17318
849.057	17471
849.192	17433
849.328	17379
849.463	17273
849.598	17231
849.734	17124
849.869	17212
850.004	17083
850.14	17010
850.275	17025
850.41	16896
850.545	16949
850.68	17018
850.815	17045
850.95	16984
851.085	17128
851.22	17109
851.355	16927
851.49	16999
851.625	16805
851.76	16946
851.895	16942
852.03	16915
852.165	16957
852.299	17064
852.434	17098
852.569	17010
852.703	17003
852.838	17124
852.973	17235
853.107	17159
853.242	17090
853.376	17018
853.511	16782
853.645	16843
853.78	17029
853.914	16987
854.048	16892
854.183	16961
854.317	16949
854.451	17086
854.585	16915
854.72	16927
854.854	16927
854.988	16873
855.122	16862
855.256	16763
855.39	16873
855.524	16991
855.658	16942
855.792	16976
855.926	16885
856.06	16934
856.194	16976
856.327	16801
856.461	16847
856.595	16771
856.729	16786
856.862	16938
856.996	16767
857.13	16892
857.263	16942
857.397	16900
857.53	16847
857.664	16805
857.797	16938
857.931	16927
858.064	16831
858.197	16858
858.331	16862
858.464	16717
858.597	16694
858.731	16675
858.864	16805
858.997	16824
859.13	16740
859.263	16763
859.396	16820
859.529	16733
859.662	16778
859.795	16725
859.928	16824
860.061	16930
860.194	16930
860.327	16782
860.46	16755
860.592	16858
860.725	16972
860.858	16873
860.99	16740
861.123	16702
861.256	16687
861.388	16767
861.521	17448
861.653	16645
861.786	16615
861.918	16653
862.05	16679
862.183	16725
862.315	16713
862.447	16767
862.58	16592
862.712	16440
862.844	16409
862.976	16656
863.108	16508
863.24	16984
863.372	16455
863.504	16424
863.636	16405
863.768	16516
863.9	16538
864.032	16493
864.164	16455
864.296	16546
864.428	16546
864.559	16675
864.691	16569
864.823	16508
864.954	16577
865.086	16447
865.217	16508
865.349	16352
865.48	16451
865.612	16424
865.743	16542
865.875	16584
866.006	16409
866.137	16470
866.269	16405
866.4	16497
866.531	16413
866.662	16379
866.793	16318
866.924	16405
867.055	16573
867.186	16451
867.317	16188
867.448	16310
867.579	16299
867.71	16402
867.841	16211
867.972	16459
868.103	16413
868.233	16421
868.364	16306
868.495	16455
868.625	16497
868.756	16702
868.886	16637
869.017	16668
869.147	16702
869.278	16706
869.408	16759
869.539	16759
869.669	16653
869.799	16675
869.929	16850
870.06	16828
870.19	16976
870.32	16961
870.45	17094
870.58	17037
870.71	17200
870.84	17128
870.97	17090
871.1	17121
871.23	17132
871.36	17239
871.489	17147
871.619	17231
871.749	17242
871.879	17231
872.008	17345
872.138	17284
872.267	17231
872.397	17200
872.526	17147
872.656	17159
872.785	17181
872.915	17406
873.044	17364
873.173	17296
873.303	17376
873.432	17398
873.561	17486
873.69	17360
873.819	17398
873.948	17516
874.077	17436
874.206	17459
874.335	17467
874.464	17516
874.593	17745
874.722	17646
874.851	17710
874.979	17737
875.108	17741
875.237	17680
875.365	17619
875.494	17756
875.623	17783
875.751	17695
875.88	17767
876.008	18045
876.136	17973
876.265	18216
876.393	18296
876.521	18346
876.65	18407
876.778	18289
876.906	18308
877.034	18235
877.162	18452
877.29	18281
877.418	18410
877.546	18464
877.674	18338
877.802	18486
877.93	18471
878.058	18334
878.185	18498
878.313	18563
878.441	18757
878.568	18719
878.696	18928
878.824	19168
878.951	19613
879.079	20081
879.206	20602
879.333	21173
879.461	21580
879.588	21945
879.715	22021
879.842	21861
879.97	21252
880.097	20320
880.224	19997
880.351	19624
880.478	19350
880.605	19263
880.732	19027
880.859	19141
880.986	18977
881.112	18973
881.239	18837
881.366	18768
881.493	18635
881.619	18555
881.746	18570
881.872	18654
881.999	18639
882.125	18623
882.252	18703
882.378	18665
882.505	18768
882.631	18536
882.757	18407
882.883	18555
883.01	18399
883.136	18391
883.262	18311
883.388	18262
883.514	18593
883.64	18506
883.766	18292
883.892	18220
884.018	18285
884.143	18357
884.269	18486
884.395	18281
884.52	18015
884.646	18186
884.772	18045
884.897	18022
885.023	18167
885.148	18247
885.274	18296
885.399	18163
885.524	18030
885.65	18030
885.775	18038
885.9	17980
886.025	18003
886.15	17889
886.275	17847
886.4	17592
886.525	17813
886.65	17691
886.775	17665
886.9	17802
887.025	17920
887.149	17657
887.274	17547
887.399	17383
887.523	17376
887.648	17265
887.773	17155
887.897	17452
888.021	17341
888.146	17284
888.27	17292
888.395	17334
888.519	17246
888.643	17204
888.767	17235
888.891	17258
889.015	17086
889.139	17079
889.263	17014
889.387	17181
889.511	17189
889.635	17178
889.759	16904
889.883	16984
890.006	16919
890.13	17056
890.254	16934
890.377	16896
890.501	16687
890.624	16660
890.748	16702
890.871	16634
890.995	16588
891.118	16504
891.241	16584
891.364	16459
891.488	16702
891.611	16538
891.734	16443
891.857	16596
891.98	16611
892.103	16596
892.226	16573
892.349	16421
892.471	16268
892.594	16394
892.717	16470
892.839	16337
892.962	16489
893.085	16466
893.207	16436
893.33	16253
893.452	16333
893.575	16363
893.697	16261
893.819	16599
893.941	16558
894.064	16386
894.186	16371
894.308	16276
894.43	16432
894.552	16489
894.674	16462
894.796	16341
894.918	16402
895.04	16348
895.161	16394
895.283	16428
895.405	16295
895.526	16424
895.648	16394
895.769	16333
895.891	16386
896.012	16413
896.134	16417
896.255	16424
896.376	16363
896.498	16440
896.619	16508
896.74	16344
896.861	16428
896.982	16717
897.103	16873
897.224	16801
897.345	16668
897.466	16641
897.587	16634
897.708	16759
897.828	16592
897.949	16744
898.07	16504
898.19	16603
898.311	16862
898.431	16668
898.552	16706
898.672	16862
898.792	16805
898.913	16763
899.033	16645
899.153	16664
899.273	16466
899.393	16603
899.513	16584
899.633	16512
899.753	16565
899.873	16565
899.993	16615
900.113	16550
900.232	16523
900.352	16573
900.472	16470
900.591	16421
900.711	16531
900.83	16280
900.95	16493
901.069	16451
901.189	16234
901.308	16025
901.427	16078
901.546	16074
901.665	16131
901.784	16036
901.904	15888
902.023	15785
902.141	15671
902.26	15660
902.379	15720
902.498	15469
902.617	15428
902.735	15553
902.854	15530
902.973	15443
903.091	15336
903.21	15211
903.328	15165
903.446	15150
903.565	15024
903.683	15074
903.801	14914
903.919	14921
904.038	15062
904.156	14792
904.274	14880
904.392	14807
904.51	14788
904.627	14701
904.745	14853
904.863	14792
904.981	14590
905.098	14339
905.216	14526
905.334	14488
905.451	14457
905.569	14408
905.686	14495
905.803	14431
905.921	14275
906.038	14385
906.155	14240
906.272	14100
906.389	14153
906.506	14062
906.623	14024
906.74	14012
906.857	13814
906.974	13936
907.091	14016
907.208	14096
907.324	13974
907.441	13974
907.557	13666
907.674	13715
907.79	13677
907.907	13575
908.023	13605
908.139	13689
908.256	13647
908.372	13658
908.488	13540
908.604	13419
908.72	13449
908.836	13499
908.952	13392
909.068	13392
909.184	13590
909.3	13396
909.415	13453
909.531	13438
909.647	13221
909.762	13304
909.878	13103
909.993	13133
910.108	13213
910.224	13168
910.339	13164
910.454	13023
910.57	12993
910.685	12954
910.8	13251
910.915	13122
911.03	13046
911.145	12909
911.259	12840
911.374	12757
911.489	12859
911.604	12646
911.718	12635
911.833	12563
911.947	12517
912.062	12429
912.176	12494
912.291	12601
912.405	12528
912.519	12658
912.633	12700
912.748	12582
912.862	12566
912.976	12486
913.09	12350
913.204	12308
913.318	12372
913.431	12452
913.545	12464
913.659	12494
913.772	12441
913.886	12239
914	12209
914.113	12433
914.226	12391
914.34	12490
914.453	12159
914.566	12311
914.68	12266
914.793	12155
914.906	12068
915.019	12019
915.132	11840
915.245	11980
915.358	11980
915.47	11977
915.583	11961
915.696	12098
915.809	12011
915.921	12098
916.034	12011
916.146	11939
916.259	11874
916.371	11984
916.483	11942
916.595	11901
916.708	11946
916.82	11946
916.932	11889
917.044	11821
917.156	11748
917.268	11760
917.38	11828
917.491	11794
917.603	11764
917.715	11802
917.826	11870
917.938	11798
918.049	11688
918.161	11790
918.272	11840
918.384	11874
918.495	11695
918.606	11634
918.717	11471
918.828	11581
918.939	11638
919.05	11512
919.161	11592
919.272	11410
919.383	11448
919.494	11592
919.604	11813
919.715	11604
919.826	11539
919.936	11509
920.047	11623
920.157	11532
920.267	11748
920.378	11600
920.488	11558
920.598	11691
920.708	11840
920.818	11764
920.928	11783
921.038	11893
921.148	11935
921.258	11684
921.368	11501
921.477	11387
921.587	11322
921.697	11273
921.806	11364
921.916	11326
922.025	11064
922.134	11052
922.244	11037
922.353	11075
922.462	10984
922.571	10900
922.68	10763
922.789	10672
922.898	10649
923.007	10645
923.116	10774
923.224	10717
923.333	10736
923.442	10607
923.55	10588
923.659	10626
923.767	10615
923.876	10497
923.984	10717
924.092	10512
924.201	10523
924.309	10561
924.417	10588
924.525	10462
924.633	10481
924.741	11303
924.849	10306
924.956	10497
925.064	10310
925.172	10196
925.279	10261
925.387	10341
925.494	10265
925.602	10500
925.709	10379
925.816	10238
925.924	10249
926.031	10398
926.138	10291
926.245	10333
926.352	10204
926.459	10363
926.566	10402
926.673	10287
926.779	10139
926.886	10086
926.993	10021
927.099	9987
927.206	9903
927.312	9888
927.419	9983
927.525	9975
927.631	10010
927.737	9865
927.843	9907
927.95	9732
928.056	9835
928.162	9873
928.267	9960
928.373	10424
928.479	10002
928.585	9759
928.69	9770
928.796	9892
928.901	9797
929.007	9576
929.112	9736
929.218	9698
929.323	9698
929.428	9595
929.533	9823
929.638	9618
929.743	9492
929.848	9667
929.953	9644
930.058	9515
930.163	9378
930.267	9393
930.372	9549
930.477	9355
930.581	9542
930.685	9557
930.79	9325
930.894	9420
930.998	9222
931.103	9466
931.207	9093
931.311	9032
931.415	8952
931.519	8781
931.623	8766
