Data from test_V78500241_1024.txt Node
Date: Fri Mar 25 14:40:50 CST 2022
User: usil
Spectrometer: V785-0024
Trigger mode: 0
Integration Time (sec): 4.000000E-1
Scans to average: 1
Nonlinearity correction enabled: false
Boxcar width: 0
Storing dark spectrum: false
XAxis mode: Wavelengths
Number of Pixels in Spectrum: 1024
>>>>>Begin Spectral Data<<<<<
801.071	22904
801.214	22824
801.356	22603
801.499	22569
801.641	22325
801.783	22367
801.926	22299
802.068	22287
802.211	22181
802.353	22048
802.496	21827
802.638	21842
802.78	21781
802.923	21846
803.065	21709
803.208	21679
803.35	21652
803.492	21770
803.635	21808
803.777	21781
803.919	21751
804.061	21937
804.204	21873
804.346	21568
804.488	21553
804.63	21713
804.773	21549
804.915	21705
805.057	21679
805.199	21679
805.341	21690
805.483	21705
805.626	21785
805.768	21458
805.91	21485
806.052	21644
806.194	21500
806.336	21903
806.478	21652
806.62	21698
806.762	21743
806.904	21785
807.046	22082
807.188	22162
807.33	22086
807.472	22143
807.614	22044
807.756	22109
807.898	22109
808.04	22010
808.182	22109
808.324	22215
808.465	22337
808.607	22538
808.749	23010
808.891	22919
809.033	23090
809.174	22885
809.316	22774
809.458	22645
809.6	22481
809.741	22500
809.883	22405
810.025	22481
810.166	22455
810.308	22291
810.45	22333
810.591	22249
810.733	22074
810.875	21918
811.016	21888
811.158	21964
811.299	21922
811.441	22124
811.582	21880
811.724	21892
811.865	21827
812.007	21926
812.148	21736
812.29	21774
812.431	22082
812.573	22181
812.714	22291
812.855	22265
812.997	22542
813.138	22599
813.279	22634
813.421	22375
813.562	22238
813.703	22192
813.845	21937
813.986	21770
814.127	21523
814.268	21496
814.41	21492
814.551	21416
814.692	21393
814.833	21287
814.974	21408
815.115	21424
815.256	21173
815.397	21207
815.539	21241
815.68	21112
815.821	21032
815.962	21062
816.103	21043
816.244	20998
816.385	20902
816.526	20933
816.666	20788
816.807	20571
816.948	20621
817.089	20689
817.23	20476
817.371	20541
817.512	20530
817.653	20434
817.793	20568
817.934	20583
818.075	20549
818.216	20469
818.356	20488
818.497	20336
818.638	20115
818.778	20317
818.919	20286
819.06	20343
819.2	20358
819.341	20343
819.481	20313
819.622	20609
819.762	20727
819.903	20788
820.043	20609
820.184	20590
820.324	20507
820.465	20473
820.605	20537
820.746	20492
820.886	20339
821.026	20476
821.167	20366
821.307	20446
821.447	20514
821.588	20259
821.728	20172
821.868	19959
822.008	19925
822.149	20027
822.289	19753
822.429	19670
822.569	19552
822.709	19552
822.849	19495
822.99	19472
823.13	19327
823.27	19411
823.41	19251
823.55	19164
823.69	19110
823.83	19179
823.97	19050
824.11	19053
824.25	18840
824.389	19057
824.529	18970
824.669	19050
824.809	19080
824.949	19004
825.089	18985
825.228	18878
825.368	18829
825.508	18802
825.648	18753
825.787	18863
825.927	18886
826.067	18623
826.206	18745
826.346	18642
826.485	18806
826.625	18700
826.765	18806
826.904	18734
827.044	18506
827.183	18559
827.323	18475
827.462	18494
827.601	18426
827.741	18361
827.88	18422
828.02	18353
828.159	18426
828.298	18467
828.437	18395
828.577	18445
828.716	18498
828.855	18315
828.994	18338
829.134	18247
829.273	18213
829.412	18083
829.551	18125
829.69	18144
829.829	18254
829.968	18277
830.107	18224
830.246	18106
830.385	18110
830.524	18155
830.663	18041
830.802	17946
830.941	17783
831.08	17733
831.219	17779
831.357	17904
831.496	18034
831.635	17733
831.774	17687
831.913	17657
832.051	17592
832.19	17638
832.329	17573
832.467	17543
832.606	17543
832.744	17516
832.883	17440
833.022	17425
833.16	17535
833.299	17585
833.437	17573
833.576	17596
833.714	17668
833.852	17680
833.991	17627
834.129	17672
834.267	17551
834.406	17611
834.544	17596
834.682	17642
834.821	17554
834.959	17703
835.097	17444
835.235	17623
835.373	17657
835.511	17558
835.65	17505
835.788	17322
835.926	17368
836.064	17242
836.202	17303
836.34	17459
836.478	17471
836.615	17414
836.753	17433
836.891	17596
837.029	17440
837.167	17421
837.305	17353
837.443	17288
837.58	17322
837.718	17273
837.856	17345
837.993	17303
838.131	17296
838.269	17162
838.406	17216
838.544	17216
838.681	16930
838.819	16991
838.956	16812
839.094	16858
839.231	16862
839.369	16869
839.506	17284
839.643	17014
839.781	16866
839.918	16698
840.055	16889
840.193	16786
840.33	16850
840.467	16854
840.604	16778
840.742	17098
840.879	16771
841.016	16702
841.153	16729
841.29	16968
841.427	16801
841.564	16866
841.701	16767
841.838	16755
841.975	16702
842.112	16691
842.249	16603
842.385	16592
842.522	16767
842.659	16615
842.796	16569
842.933	16615
843.069	16565
843.206	16523
843.343	16634
843.479	16630
843.616	16634
843.752	16371
843.889	16363
844.025	16451
844.162	16261
844.298	16596
844.435	16413
844.571	16318
844.708	16538
844.844	16603
844.98	16565
845.117	16443
845.253	16500
845.389	16402
845.525	16596
845.661	16698
845.798	16915
845.934	17208
846.07	17185
846.206	17185
846.342	17204
846.478	16805
846.614	16489
846.75	16093
846.886	16013
847.022	16074
847.158	16040
847.294	15937
847.429	15876
847.565	15895
847.701	16135
847.837	15656
847.972	15656
848.108	15720
848.244	15778
848.379	15686
848.515	15576
848.65	15523
848.786	15428
848.921	15466
849.057	15648
849.192	15610
849.328	15492
849.463	15671
849.598	15450
849.734	15329
849.869	15435
850.004	15374
850.14	15412
850.275	15207
850.41	15192
850.545	15203
850.68	15203
850.815	15321
850.95	15291
851.085	15530
851.22	15420
851.355	15313
851.49	15241
851.625	15355
851.76	15268
851.895	15226
852.03	15119
852.165	15226
852.299	15272
852.434	15294
852.569	15302
852.703	15401
852.838	15408
852.973	15405
853.107	15443
853.242	15336
853.376	15230
853.511	15089
853.645	15176
853.78	15348
853.914	15138
854.048	15165
854.183	15249
854.317	15199
854.451	15310
854.585	15123
854.72	15218
854.854	15287
854.988	15188
855.122	15207
855.256	15123
855.39	15097
855.524	15222
855.658	15154
855.792	15207
855.926	15184
856.06	15199
856.194	15325
856.327	15169
856.461	15009
856.595	15127
856.729	15173
856.862	15298
856.996	15184
857.13	15272
857.263	15275
857.397	15317
857.53	15116
857.664	15146
857.797	15222
857.931	15298
858.064	15218
858.197	15275
858.331	15176
858.464	15169
858.597	15070
858.731	15176
858.864	15142
858.997	15093
859.13	15135
859.263	15116
859.396	15249
859.529	15150
859.662	15161
859.795	15157
859.928	15146
860.061	15291
860.194	15389
860.327	15180
860.46	15127
860.592	15310
860.725	15332
860.858	15249
860.99	15119
861.123	15070
861.256	15199
861.388	15188
861.521	15804
861.653	15135
861.786	15028
861.918	14975
862.05	15077
862.183	15112
862.315	15081
862.447	15146
862.58	15036
862.712	14887
862.844	14887
862.976	15005
863.108	14994
863.24	15287
863.372	14883
863.504	14880
863.636	14933
863.768	14921
863.9	14910
864.032	14861
864.164	14967
864.296	14921
864.428	15043
864.559	15001
864.691	14929
864.823	14921
864.954	14963
865.086	14956
865.217	15005
865.349	14845
865.48	14853
865.612	14815
865.743	15055
865.875	14876
866.006	14952
866.137	14853
866.269	14986
866.4	14944
866.531	14891
866.662	14838
866.793	14708
866.924	14697
867.055	14895
867.186	14861
867.317	14830
867.448	14811
867.579	14883
867.71	14804
867.841	14842
867.972	14925
868.103	14887
868.233	14952
868.364	14925
868.495	14960
868.625	15104
868.756	15142
868.886	14956
869.017	15070
869.147	15195
869.278	15222
869.408	15093
869.539	15070
869.669	15226
869.799	15150
869.929	15245
870.06	15252
870.19	15428
870.32	15367
870.45	15481
870.58	15526
870.71	15648
870.84	15622
870.97	15469
871.1	15538
871.23	15625
871.36	15724
871.489	15648
871.619	15778
871.749	15751
871.879	15724
872.008	15831
872.138	15785
872.267	15736
872.397	15568
872.526	15538
872.656	15599
872.785	15606
872.915	15762
873.044	15816
873.173	15808
873.303	15759
873.432	15899
873.561	15827
873.69	15869
873.819	15812
873.948	15770
874.077	15778
874.206	15755
874.335	15800
874.464	15915
874.593	16093
874.722	16010
874.851	16124
874.979	16090
875.108	16143
875.237	15972
875.365	15987
875.494	15953
875.623	16162
875.751	16071
875.88	16135
876.008	16249
876.136	16310
876.265	16474
876.393	16569
876.521	16584
876.65	16580
876.778	16519
876.906	16466
877.034	16432
877.162	16462
877.29	16531
877.418	16424
877.546	16580
877.674	16561
877.802	16428
877.93	16523
878.058	16561
878.185	16443
878.313	16535
878.441	16489
878.568	16451
878.696	16618
878.824	16618
878.951	16824
879.079	16927
879.206	17128
879.333	17075
879.461	17045
879.588	17170
879.715	17277
879.842	17318
879.97	17037
880.097	16710
880.224	16596
880.351	16523
880.478	16470
880.605	16630
880.732	16550
880.859	16740
880.986	16542
881.112	16481
881.239	16310
881.366	16344
881.493	16143
881.619	16272
881.746	16162
881.872	16154
881.999	16048
882.125	16082
882.252	16226
882.378	16207
882.505	16299
882.631	16025
882.757	15991
882.883	15998
883.01	16010
883.136	16006
883.262	15846
883.388	15888
883.514	15960
883.64	15953
883.766	15846
883.892	15755
884.018	15751
884.143	15949
884.269	15915
884.395	15751
884.52	15591
884.646	15561
884.772	15580
884.897	15591
885.023	15584
885.148	15633
885.274	15705
885.399	15644
885.524	15717
885.65	15587
885.775	15690
885.9	15606
886.025	15690
886.15	15736
886.275	15580
886.4	15496
886.525	15572
886.65	15511
886.775	15545
886.9	15652
887.025	15846
887.149	15466
887.274	15477
887.399	15336
887.523	15298
887.648	15336
887.773	15249
887.897	15420
888.021	15378
888.146	15378
888.27	15412
888.395	15454
888.519	15367
888.643	15443
888.767	15488
888.891	15306
889.015	15211
889.139	15233
889.263	15222
889.387	15374
889.511	15294
889.635	15321
889.759	15173
889.883	15203
890.006	15313
890.13	15306
890.254	15089
890.377	15226
890.501	14941
890.624	14902
890.748	15081
890.871	14918
890.995	14895
891.118	14906
891.241	14906
891.364	14910
891.488	14944
891.611	14918
891.734	14929
891.857	14914
891.98	14880
892.103	14872
892.226	14849
892.349	14811
892.471	14629
892.594	14921
892.717	14941
892.839	14872
892.962	14838
893.085	14948
893.207	14777
893.33	14739
893.452	14727
893.575	14944
893.697	14815
893.819	14994
893.941	15017
894.064	15005
894.186	14739
894.308	14754
894.43	14963
894.552	15024
894.674	14998
894.796	14838
894.918	14902
895.04	14758
895.161	15036
895.283	14963
895.405	14845
895.526	14910
895.648	14929
895.769	15051
895.891	14914
896.012	15017
896.134	15055
896.255	15020
896.376	15036
896.498	14952
896.619	14990
896.74	14941
896.861	15062
896.982	15264
897.103	15473
897.224	15291
897.345	15226
897.466	15287
897.587	15294
897.708	15374
897.828	15317
897.949	15218
898.07	15127
898.19	15344
898.311	15370
898.431	15237
898.552	15291
898.672	15477
898.792	15447
898.913	15291
899.033	15313
899.153	15214
899.273	15173
899.393	15157
899.513	15226
899.633	15146
899.753	15146
899.873	15237
899.993	15222
900.113	15135
900.232	15291
900.352	15154
900.472	15047
900.591	14880
900.711	15047
900.83	14906
900.95	15203
901.069	15173
901.189	14887
901.308	14834
901.427	14667
901.546	14678
901.665	14792
901.784	14735
901.904	14571
902.023	14552
902.141	14309
902.26	14339
902.379	14370
902.498	14183
902.617	14202
902.735	14176
902.854	14119
902.973	14183
903.091	13928
903.21	13951
903.328	13951
903.446	13925
903.565	13712
903.683	13864
903.801	13693
903.919	13822
904.038	13765
904.156	13620
904.274	13799
904.392	13556
904.51	13548
904.627	13601
904.745	13750
904.863	13715
904.981	13422
905.098	13190
905.216	13240
905.334	13350
905.451	13297
905.569	13266
905.686	13270
905.803	13335
905.921	13168
906.038	13164
906.155	13164
906.272	12993
906.389	13034
906.506	12852
906.623	12913
906.74	12875
906.857	12791
906.974	12779
907.091	12943
907.208	13004
907.324	12901
907.441	12741
907.557	12597
907.674	12620
907.79	12547
907.907	12547
908.023	12639
908.139	12635
908.256	12555
908.372	12521
908.488	12479
908.604	12391
908.72	12251
908.836	12369
908.952	12380
909.068	12399
909.184	12486
909.3	12391
909.415	12433
909.531	12403
909.647	12220
909.762	12121
909.878	12003
909.993	12125
910.108	12121
910.224	12125
910.339	12110
910.454	12030
910.57	11923
910.685	11927
910.8	12095
910.915	12114
911.03	11980
911.145	11764
911.259	11764
911.374	11824
911.489	11775
911.604	11688
911.718	11570
911.833	11505
911.947	11505
912.062	11402
912.176	11474
912.291	11566
912.405	11547
912.519	11726
912.633	11752
912.748	11642
912.862	11535
912.976	11410
913.09	11376
913.204	11387
913.318	11417
913.431	11581
913.545	11509
913.659	11524
913.772	11490
913.886	11273
914	11220
914.113	11379
914.226	11421
914.34	11406
914.453	11117
914.566	11429
914.68	11189
914.793	11246
914.906	11025
915.019	10915
915.132	10930
915.245	10995
915.358	11140
915.47	11075
915.583	11048
915.696	11025
915.809	11166
915.921	11231
916.034	11056
916.146	11006
916.259	11041
916.371	11067
916.483	11124
916.595	10946
916.708	10919
916.82	10915
916.932	10953
917.044	10927
917.156	10961
917.268	10877
917.38	10740
917.491	10824
917.603	10866
917.715	10892
917.826	10900
917.938	10862
918.049	10744
918.161	10797
918.272	10991
918.384	10957
918.495	10839
918.606	10698
918.717	10599
918.828	10786
918.939	10694
919.05	10653
919.161	10698
919.272	10523
919.383	10637
919.494	10824
919.604	10965
919.715	10656
919.826	10687
919.936	10710
920.047	10714
920.157	10717
920.267	10869
920.378	10683
920.488	10645
920.598	10923
920.708	11056
920.818	10858
920.928	10892
921.038	11045
921.148	11003
921.258	10714
921.368	10634
921.477	10565
921.587	10512
921.697	10504
921.806	10558
921.916	10424
922.025	10276
922.134	10287
922.244	10192
922.353	10223
922.462	10154
922.571	10048
922.68	9892
922.789	9903
922.898	9937
923.007	9964
923.116	10040
923.224	9941
923.333	9819
923.442	9789
923.55	9728
923.659	9800
923.767	9880
923.876	9785
923.984	9827
924.092	9713
924.201	9816
924.309	9797
924.417	9793
924.525	9789
924.633	9705
924.741	10611
924.849	9610
924.956	9713
925.064	9519
925.172	9443
925.279	9549
925.387	9530
925.494	9523
925.602	9778
925.709	9587
925.816	9477
925.924	9526
926.031	9644
926.138	9572
926.245	9568
926.352	9466
926.459	9595
926.566	9629
926.673	9561
926.779	9454
926.886	9363
926.993	9291
927.099	9302
927.206	9272
927.312	9195
927.419	9329
927.525	9260
927.631	9344
927.737	9161
927.843	9169
927.95	9009
928.056	9135
928.162	9150
928.267	9173
928.373	9698
928.479	9287
928.585	8956
928.69	9119
928.796	9150
928.901	9100
929.007	8941
929.112	8994
929.218	9058
929.323	9051
929.428	8857
929.533	9100
929.638	8963
929.743	8918
929.848	9005
929.953	8929
930.058	8834
930.163	8735
930.267	8766
930.372	8845
930.477	8720
930.581	8944
930.685	8796
930.79	8674
930.894	8674
930.998	8686
931.103	8731
931.207	8427
931.311	8415
931.415	8381
931.519	8164
931.623	8130
