Data from test_V78500241_884.txt Node
Date: Fri Mar 25 14:39:52 CST 2022
User: usil
Spectrometer: V785-0024
Trigger mode: 0
Integration Time (sec): 4.000000E-1
Scans to average: 1
Nonlinearity correction enabled: false
Boxcar width: 0
Storing dark spectrum: false
XAxis mode: Wavelengths
Number of Pixels in Spectrum: 1024
>>>>>Begin Spectral Data<<<<<
801.071	25506
801.214	25228
801.356	25031
801.499	24992
801.641	24897
801.783	24715
801.926	24738
802.068	24673
802.211	24559
802.353	24559
802.496	24235
802.638	24266
802.78	24034
802.923	24152
803.065	24102
803.208	24022
803.35	24003
803.492	24232
803.635	24243
803.777	24072
803.919	24205
804.061	24528
804.204	24163
804.346	24213
804.488	23969
804.63	24186
804.773	24140
804.915	24159
805.057	24270
805.199	24140
805.341	24133
805.483	24281
805.626	24315
805.768	24201
805.91	24418
806.052	24460
806.194	24315
806.336	24608
806.478	24418
806.62	24509
806.762	24719
806.904	24878
807.046	25297
807.188	25331
807.33	25381
807.472	25635
807.614	25693
807.756	26050
807.898	26366
808.04	26655
808.182	27370
808.324	28158
808.465	28991
808.607	30155
808.749	31095
808.891	31719
809.033	31578
809.174	30939
809.316	29939
809.458	29052
809.6	28147
809.741	27249
809.883	26724
810.025	26339
810.166	26138
810.308	25757
810.45	25506
810.591	25464
810.733	25209
810.875	25050
811.016	24757
811.158	24741
811.299	24810
811.441	24939
811.582	24684
811.724	24627
811.865	24563
812.007	24544
812.148	24483
812.29	24403
812.431	24677
812.573	24776
812.714	24859
812.855	25034
812.997	25000
813.138	25183
813.279	25164
813.421	24992
813.562	24772
813.703	24677
813.845	24475
813.986	24266
814.127	24049
814.268	23950
814.41	23874
814.551	23847
814.692	23931
814.833	23665
814.974	23817
815.115	23790
815.256	23756
815.397	23703
815.539	23729
815.68	23657
815.821	23482
815.962	23611
816.103	23524
816.244	23299
816.385	23246
816.526	23277
816.666	22965
816.807	23022
816.948	22995
817.089	23041
817.23	22949
817.371	22900
817.512	22957
817.653	22828
817.793	22805
817.934	22885
818.075	22953
818.216	22873
818.356	22797
818.497	22645
818.638	22592
818.778	22569
818.919	22607
819.06	22615
819.2	22713
819.341	22759
819.481	22748
819.622	22774
819.762	23250
819.903	23060
820.043	22934
820.184	22733
820.324	22790
820.465	22896
820.605	22862
820.746	22778
820.886	22687
821.026	22778
821.167	22645
821.307	22809
821.447	22656
821.588	22679
821.728	22451
821.868	22303
822.008	22280
822.149	22150
822.289	22067
822.429	21842
822.569	21880
822.709	21869
822.849	21690
822.99	21572
823.13	21561
823.27	21511
823.41	21553
823.55	21336
823.69	21344
823.83	21317
823.97	21313
824.11	21222
824.25	21207
824.389	21173
824.529	21283
824.669	21203
824.809	21226
824.949	21268
825.089	21252
825.228	21184
825.368	21051
825.508	20990
825.648	21051
825.787	20979
825.927	20982
826.067	20933
826.206	20937
826.346	20906
826.485	20948
826.625	20883
826.765	21020
826.904	21005
827.044	20686
827.183	20659
827.323	20659
827.462	20594
827.601	20617
827.741	20537
827.88	20663
828.02	20617
828.159	20530
828.298	20484
828.437	20564
828.577	20503
828.716	20674
828.855	20511
828.994	20400
829.134	20336
829.273	20408
829.412	20336
829.551	20195
829.69	20202
829.829	20320
829.968	20374
830.107	20393
830.246	20336
830.385	20214
830.524	20218
830.663	20183
830.802	20065
830.941	19818
831.08	19951
831.219	19932
831.357	19986
831.496	20187
831.635	19822
831.774	19780
831.913	19765
832.051	19708
832.19	19651
832.329	19803
832.467	19655
832.606	19521
832.744	19556
832.883	19708
833.022	19521
833.16	19715
833.299	19738
833.437	19738
833.576	19947
833.714	19791
833.852	19936
833.991	19978
834.129	19963
834.267	19993
834.406	20027
834.544	20012
834.682	19936
834.821	19830
834.959	19917
835.097	19738
835.235	19795
835.373	19655
835.511	19750
835.65	19632
835.788	19533
835.926	19339
836.064	19339
836.202	19308
836.34	19540
836.478	19643
836.615	19377
836.753	19426
836.891	19384
837.029	19476
837.167	19396
837.305	19415
837.443	19247
837.58	19419
837.718	19320
837.856	19301
837.993	19278
838.131	19308
838.269	19232
838.406	19221
838.544	19091
838.681	18973
838.819	18810
838.956	18833
839.094	18711
839.231	18715
839.369	18894
839.506	19107
839.643	18821
839.781	18753
839.918	18700
840.055	18738
840.193	18658
840.33	18631
840.467	18620
840.604	18658
840.742	19038
840.879	18585
841.016	18654
841.153	18646
841.29	18798
841.427	18726
841.564	18745
841.701	18639
841.838	18593
841.975	18627
842.112	18635
842.249	18452
842.385	18418
842.522	18585
842.659	18399
842.796	18369
842.933	18460
843.069	18384
843.206	18410
843.343	18536
843.479	18513
843.616	18506
843.752	18232
843.889	18380
844.025	18403
844.162	18350
844.298	18460
844.435	18422
844.571	18452
844.708	18490
844.844	18760
844.98	18985
845.117	19072
845.253	19259
845.389	19487
845.525	20530
845.661	22025
845.798	24060
845.934	25769
846.07	26476
846.206	26191
846.342	25114
846.478	22961
846.614	21093
846.75	19712
846.886	19118
847.022	18722
847.158	18407
847.294	18171
847.429	18049
847.565	17832
847.701	18087
847.837	17539
847.972	17539
848.108	17722
848.244	17535
848.379	17478
848.515	17292
848.65	17379
848.786	17303
848.921	17417
849.057	17436
849.192	17368
849.328	17501
849.463	17387
849.598	17296
849.734	17200
849.869	17178
850.004	17037
850.14	17041
850.275	17018
850.41	17033
850.545	17025
850.68	16995
850.815	17014
850.95	17075
851.085	17174
851.22	17193
851.355	17018
851.49	17018
851.625	17083
851.76	17037
851.895	16869
852.03	16949
852.165	17124
852.299	17041
852.434	17181
852.569	17159
852.703	17071
852.838	17124
852.973	17128
853.107	17174
853.242	17056
853.376	17083
853.511	16881
853.645	16896
853.78	17064
853.914	17083
854.048	16904
854.183	16900
854.317	17041
854.451	17174
854.585	16987
854.72	17029
854.854	17003
854.988	16938
855.122	17045
855.256	16786
855.39	16828
855.524	17018
855.658	16984
855.792	16908
855.926	16927
856.06	17018
856.194	16892
856.327	16885
856.461	16763
856.595	16797
856.729	16824
856.862	17071
856.996	16968
857.13	16949
857.263	17052
857.397	16980
857.53	16858
857.664	16984
857.797	16991
857.931	16980
858.064	16805
858.197	16885
858.331	16820
858.464	16790
858.597	16675
858.731	16797
858.864	16725
858.997	16877
859.13	16915
859.263	16911
859.396	16919
859.529	16683
859.662	16752
859.795	16816
859.928	16828
860.061	16919
860.194	16987
860.327	16858
860.46	16816
860.592	16896
860.725	16915
860.858	16900
860.99	16725
861.123	16733
861.256	16698
861.388	16805
861.521	17478
861.653	16733
861.786	16573
861.918	16618
862.05	16702
862.183	16816
862.315	16824
862.447	16839
862.58	16850
862.712	16588
862.844	16516
862.976	16660
863.108	16615
863.24	16881
863.372	16421
863.504	16584
863.636	16489
863.768	16554
863.9	16561
864.032	16474
864.164	16615
864.296	16618
864.428	16706
864.559	16664
864.691	16649
864.823	16554
864.954	16535
865.086	16554
865.217	16546
865.349	16386
865.48	16432
865.612	16497
865.743	16607
865.875	16523
866.006	16382
866.137	16440
866.269	16451
866.4	16440
866.531	16462
866.662	16341
866.793	16500
866.924	16443
867.055	16497
867.186	16489
867.317	16360
867.448	16310
867.579	16386
867.71	16333
867.841	16329
867.972	16550
868.103	16485
868.233	16443
868.364	16512
868.495	16508
868.625	16615
868.756	16820
868.886	16565
869.017	16694
869.147	16831
869.278	16706
869.408	16759
869.539	16786
869.669	16710
869.799	16801
869.929	16885
870.06	16805
870.19	17025
870.32	17010
870.45	17029
870.58	17170
870.71	17227
870.84	17071
870.97	17197
871.1	17075
871.23	17273
871.36	17341
871.489	17166
871.619	17212
871.749	17360
871.879	17345
872.008	17360
872.138	17391
872.267	17277
872.397	17178
872.526	17200
872.656	17170
872.785	17212
872.915	17440
873.044	17471
873.173	17387
873.303	17512
873.432	17467
873.561	17676
873.69	17406
873.819	17368
873.948	17539
874.077	17551
874.206	17421
874.335	17459
874.464	17554
874.593	17714
874.722	17745
874.851	17718
874.979	17832
875.108	17809
875.237	17737
875.365	17733
875.494	17840
875.623	17923
875.751	17832
875.88	17866
876.008	17935
876.136	18057
876.265	18384
876.393	18376
876.521	18338
876.65	18513
876.778	18433
876.906	18399
877.034	18353
877.162	18456
877.29	18410
877.418	18467
877.546	18563
877.674	18521
877.802	18601
877.93	18639
878.058	18620
878.185	18642
878.313	18745
878.441	18817
878.568	18886
878.696	19156
878.824	19464
878.951	19651
879.079	20294
879.206	20933
879.333	21576
879.461	21956
879.588	22268
879.715	22394
879.842	22219
879.97	21397
880.097	20579
880.224	20259
880.351	19917
880.478	19605
880.605	19381
880.732	19270
880.859	19320
880.986	19221
881.112	19198
881.239	19107
881.366	18806
881.493	18722
881.619	18681
881.746	18817
881.872	18627
881.999	18627
882.125	18719
882.252	18878
882.378	18867
882.505	18932
882.631	18681
882.757	18681
882.883	18692
883.01	18509
883.136	18506
883.262	18429
883.388	18407
883.514	18559
883.64	18757
883.766	18551
883.892	18384
884.018	18509
884.143	18589
884.269	18555
884.395	18467
884.52	18380
884.646	18220
884.772	18239
884.897	18342
885.023	18330
885.148	18357
885.274	18414
885.399	18327
885.524	18277
885.65	18190
885.775	18197
885.9	18091
886.025	18178
886.15	18095
886.275	17988
886.4	17866
886.525	17859
886.65	17878
886.775	17745
886.9	18034
887.025	17969
887.149	17737
887.274	17615
887.399	17509
887.523	17558
887.648	17414
887.773	17410
887.897	17516
888.021	17433
888.146	17387
888.27	17398
888.395	17372
888.519	17303
888.643	17440
888.767	17482
888.891	17216
889.015	17113
889.139	17292
889.263	17155
889.387	17105
889.511	17307
889.635	17353
889.759	17094
889.883	17045
890.006	17018
890.13	17155
890.254	16889
890.377	16961
890.501	16835
890.624	16767
890.748	16778
890.871	16713
890.995	16683
891.118	16459
891.241	16588
891.364	16694
891.488	16649
891.611	16622
891.734	16519
891.857	16626
891.98	16542
892.103	16679
892.226	16558
892.349	16637
892.471	16371
892.594	16565
892.717	16573
892.839	16409
892.962	16497
893.085	16527
893.207	16382
893.33	16459
893.452	16390
893.575	16443
893.697	16413
893.819	16558
893.941	16725
894.064	16596
894.186	16398
894.308	16310
894.43	16504
894.552	16618
894.674	16527
894.796	16386
894.918	16409
895.04	16382
895.161	16508
895.283	16436
895.405	16360
895.526	16379
895.648	16398
895.769	16409
895.891	16478
896.012	16508
896.134	16500
896.255	16508
896.376	16500
896.498	16432
896.619	16554
896.74	16485
896.861	16527
896.982	16752
897.103	16873
897.224	16694
897.345	16683
897.466	16607
897.587	16725
897.708	16847
897.828	16778
897.949	16664
898.07	16668
898.19	16645
898.311	16828
898.431	16599
898.552	16782
898.672	16767
898.792	16862
898.913	16752
899.033	16641
899.153	16538
899.273	16478
899.393	16592
899.513	16637
899.633	16588
899.753	16679
899.873	16447
899.993	16706
900.113	16573
900.232	16565
900.352	16569
900.472	16455
900.591	16409
900.711	16493
900.83	16386
900.95	16584
901.069	16470
901.189	16440
901.308	16181
901.427	16097
901.546	16006
901.665	16105
901.784	16082
901.904	15895
902.023	15785
902.141	15667
902.26	15580
902.379	15705
902.498	15591
902.617	15523
902.735	15492
902.854	15553
902.973	15530
903.091	15306
903.21	15165
903.328	15241
903.446	15176
903.565	15070
903.683	15020
903.801	15024
903.919	15047
904.038	14941
904.156	14902
904.274	14937
904.392	14785
904.51	14773
904.627	14819
904.745	14925
904.863	14834
904.981	14693
905.098	14526
905.216	14484
905.334	14518
905.451	14533
905.569	14495
905.686	14434
905.803	14446
905.921	14301
906.038	14366
906.155	14301
906.272	14183
906.389	14244
906.506	14062
906.623	14069
906.74	14050
906.857	13864
906.974	14005
907.091	14077
907.208	14088
907.324	14058
907.441	13894
907.557	13738
907.674	13814
907.79	13693
907.907	13731
908.023	13761
908.139	13799
908.256	13597
908.372	13674
908.488	13643
908.604	13487
908.72	13434
908.836	13578
908.952	13487
909.068	13476
909.184	13613
909.3	13518
909.415	13533
909.531	13514
909.647	13240
909.762	13221
909.878	13069
909.993	13312
910.108	13232
910.224	13228
910.339	13297
910.454	13164
910.57	13046
910.685	12951
910.8	13297
910.915	13255
911.03	13069
911.145	12981
911.259	12890
911.374	12878
911.489	12875
911.604	12840
911.718	12662
911.833	12612
911.947	12536
912.062	12502
912.176	12627
912.291	12616
912.405	12551
912.519	12760
912.633	12875
912.748	12734
912.862	12612
912.976	12467
913.09	12410
913.204	12483
913.318	12418
913.431	12563
913.545	12532
913.659	12570
913.772	12452
913.886	12429
914	12369
914.113	12517
914.226	12513
914.34	12422
914.453	12338
914.566	12414
914.68	12266
914.793	12194
914.906	12117
915.019	12053
915.132	12007
915.245	12060
915.358	12079
915.47	12011
915.583	12095
915.696	12133
915.809	12182
915.921	12182
916.034	12034
916.146	11973
916.259	12011
916.371	12159
916.483	12087
916.595	11984
916.708	11908
916.82	12022
916.932	11878
917.044	11992
917.156	11954
917.268	11745
917.38	11809
917.491	11847
917.603	11859
917.715	11980
917.826	11874
917.938	11836
918.049	11760
918.161	11863
918.272	11889
918.384	12003
918.495	11878
918.606	11714
918.717	11691
918.828	11634
918.939	11657
919.05	11543
919.161	11649
919.272	11402
919.383	11524
919.494	11642
919.604	11817
919.715	11600
919.826	11512
919.936	11604
920.047	11729
920.157	11680
920.267	11843
920.378	11726
920.488	11684
920.598	11809
920.708	12038
920.818	11824
920.928	11786
921.038	11961
921.148	11999
921.258	11668
921.368	11581
921.477	11452
921.587	11501
921.697	11322
921.806	11490
921.916	11246
922.025	11151
922.134	11147
922.244	11079
922.353	11113
922.462	11006
922.571	10991
922.68	10858
922.789	10793
922.898	10721
923.007	10744
923.116	10786
923.224	10850
923.333	10729
923.442	10584
923.55	10653
923.659	10725
923.767	10820
923.876	10546
923.984	10660
924.092	10622
924.201	10596
924.309	10656
924.417	10615
924.525	10577
924.633	10531
924.741	11334
924.849	10318
924.956	10519
925.064	10504
925.172	10303
925.279	10341
925.387	10402
925.494	10325
925.602	10542
925.709	10474
925.816	10238
925.924	10386
926.031	10504
926.138	10356
926.245	10398
926.352	10257
926.459	10493
926.566	10382
926.673	10299
926.779	10162
926.886	10192
926.993	10097
927.099	10112
927.206	10029
927.312	10021
927.419	10063
927.525	10021
927.631	10051
927.737	10017
927.843	9895
927.95	9778
928.056	9907
928.162	9926
928.267	9937
928.373	10603
928.479	9964
928.585	9701
928.69	9823
928.796	9915
928.901	9850
929.007	9682
929.112	9789
929.218	9808
929.323	9812
929.428	9701
929.533	9960
929.638	9705
929.743	9625
929.848	9724
929.953	9793
930.058	9595
930.163	9500
930.267	9507
930.372	9705
930.477	9450
930.581	9652
930.685	9549
930.79	9351
930.894	9386
930.998	9428
931.103	9507
931.207	9218
931.311	9154
931.415	9093
931.519	8891
931.623	8826
