Data from test_V78500241_957.txt Node
Date: Fri Mar 25 14:40:22 CST 2022
User: usil
Spectrometer: V785-0024
Trigger mode: 0
Integration Time (sec): 4.000000E-1
Scans to average: 1
Nonlinearity correction enabled: false
Boxcar width: 0
Storing dark spectrum: false
XAxis mode: Wavelengths
Number of Pixels in Spectrum: 1024
>>>>>Begin Spectral Data<<<<<
801.071	23585
801.214	23436
801.356	23265
801.499	23048
801.641	22782
801.783	22835
801.926	22881
802.068	22771
802.211	22668
802.353	22603
802.496	22337
802.638	22417
802.78	22382
802.923	22169
803.065	22306
803.208	22188
803.35	22303
803.492	22284
803.635	22371
803.777	22337
803.919	22272
804.061	22531
804.204	22310
804.346	22211
804.488	22166
804.63	22154
804.773	22032
804.915	22090
805.057	22325
805.199	22166
805.341	22280
805.483	22238
805.626	22246
805.768	22154
805.91	22215
806.052	22223
806.194	22215
806.336	22451
806.478	22341
806.62	22352
806.762	22268
806.904	22470
807.046	22778
807.188	22725
807.33	22759
807.472	22900
807.614	22896
807.756	22957
807.898	22957
808.04	22976
808.182	23296
808.324	23410
808.465	23824
808.607	24155
808.749	24635
808.891	24776
809.033	24814
809.174	24604
809.316	24216
809.458	23984
809.6	23490
809.741	23684
809.883	23288
810.025	23307
810.166	23299
810.308	22892
810.45	23067
810.591	22999
810.733	22790
810.875	22569
811.016	22402
811.158	22500
811.299	22557
811.441	22683
811.582	22634
811.724	22493
811.865	22538
812.007	22459
812.148	22436
812.29	22451
812.431	22580
812.573	22782
812.714	22816
812.855	22961
812.997	23064
813.138	23075
813.279	23170
813.421	22889
813.562	22976
813.703	22778
813.845	22668
813.986	22375
814.127	22150
814.268	21960
814.41	22101
814.551	22017
814.692	22025
814.833	21854
814.974	21854
815.115	21911
815.256	21709
815.397	21766
815.539	21797
815.68	21694
815.821	21603
815.962	21660
816.103	21583
816.244	21641
816.385	21458
816.526	21431
816.666	21169
816.807	21074
816.948	21119
817.089	21154
817.23	21127
817.371	21081
817.512	20998
817.653	21055
817.793	20941
817.934	21100
818.075	21055
818.216	21096
818.356	21074
818.497	20956
818.638	20739
818.778	20815
818.919	20781
819.06	20781
819.2	20826
819.341	20986
819.481	20883
819.622	21020
819.762	21207
819.903	21207
820.043	21009
820.184	21017
820.324	21104
820.465	21108
820.605	20982
820.746	21005
820.886	20880
821.026	20925
821.167	20979
821.307	20960
821.447	20956
821.588	20785
821.728	20796
821.868	20518
822.008	20328
822.149	20324
822.289	20427
822.429	20142
822.569	20069
822.709	20046
822.849	19860
822.99	19879
823.13	19845
823.27	19822
823.41	19613
823.55	19563
823.69	19696
823.83	19552
823.97	19586
824.11	19590
824.25	19453
824.389	19525
824.529	19480
824.669	19502
824.809	19506
824.949	19499
825.089	19616
825.228	19525
825.368	19263
825.508	19259
825.648	19426
825.787	19304
825.927	19346
826.067	19183
826.206	19244
826.346	19240
826.485	19278
826.625	19266
826.765	19377
826.904	19236
827.044	19148
827.183	19046
827.323	19000
827.462	19053
827.601	18916
827.741	18954
827.88	18863
828.02	18837
828.159	18901
828.298	18977
828.437	19019
828.577	18894
828.716	18993
828.855	18867
828.994	18726
829.134	18722
829.273	18768
829.412	18734
829.551	18639
829.69	18696
829.829	18620
829.968	18791
830.107	18741
830.246	18665
830.385	18574
830.524	18616
830.663	18471
830.802	18410
830.941	18475
831.08	18254
831.219	18262
831.357	18311
831.496	18547
831.635	18380
831.774	18213
831.913	18209
832.051	18064
832.19	18083
832.329	18190
832.467	18083
832.606	18007
832.744	18030
832.883	18068
833.022	17965
833.16	18064
833.299	18121
833.437	18098
833.576	18068
833.714	18083
833.852	18106
833.991	18239
834.129	18292
834.267	18201
834.406	18072
834.544	18148
834.682	18022
834.821	18049
834.959	18213
835.097	18045
835.235	18106
835.373	18076
835.511	18091
835.65	17885
835.788	17992
835.926	17756
836.064	17646
836.202	17680
836.34	17878
836.478	18030
836.615	17942
836.753	17901
836.891	17935
837.029	17946
837.167	17790
837.305	17733
837.443	17775
837.58	17745
837.718	17935
837.856	17745
837.993	17764
838.131	17695
838.269	17687
838.406	17767
838.544	17589
838.681	17429
838.819	17471
838.956	17284
839.094	17296
839.231	17402
839.369	17421
839.506	17649
839.643	17535
839.781	17307
839.918	17155
840.055	17261
840.193	17318
840.33	17200
840.467	17277
840.604	17231
840.742	17463
840.879	17223
841.016	17200
841.153	17140
841.29	17330
841.427	17239
841.564	17254
841.701	17277
841.838	17071
841.975	17109
842.112	17185
842.249	16995
842.385	17060
842.522	17170
842.659	17143
842.796	16999
842.933	17079
843.069	17018
843.206	17010
843.343	17162
843.479	17003
843.616	17098
843.752	16835
843.889	16763
844.025	16915
844.162	16816
844.298	16923
844.435	16793
844.571	16900
844.708	16946
844.844	17003
844.98	17250
845.117	17075
845.253	17140
845.389	17155
845.525	17474
845.661	17859
845.798	18395
845.934	18871
846.07	19133
846.206	19129
846.342	18779
846.478	18186
846.614	17433
846.75	16930
846.886	16786
847.022	16649
847.158	16466
847.294	16573
847.429	16519
847.565	16291
847.701	16706
847.837	16162
847.972	16036
848.108	16196
848.244	16196
848.379	15991
848.515	15892
848.65	15930
848.786	15937
848.921	15922
849.057	16044
849.192	15998
849.328	15892
849.463	15861
849.598	15968
849.734	15846
849.869	15808
850.004	15743
850.14	15774
850.275	15774
850.41	15717
850.545	15675
850.68	15736
850.815	15766
850.95	15743
851.085	15812
851.22	15766
851.355	15717
851.49	15675
851.625	15618
851.76	15656
851.895	15587
852.03	15637
852.165	15694
852.299	15675
852.434	15762
852.569	15648
852.703	15686
852.838	15743
852.973	15865
853.107	15785
853.242	15675
853.376	15504
853.511	15526
853.645	15603
853.78	15614
853.914	15625
854.048	15595
854.183	15477
854.317	15587
854.451	15705
854.585	15553
854.72	15530
854.854	15622
854.988	15488
855.122	15572
855.256	15454
855.39	15545
855.524	15641
855.658	15629
855.792	15625
855.926	15663
856.06	15648
856.194	15648
856.327	15515
856.461	15557
856.595	15492
856.729	15576
856.862	15641
856.996	15523
857.13	15587
857.263	15629
857.397	15606
857.53	15504
857.664	15545
857.797	15679
857.931	15660
858.064	15538
858.197	15545
858.331	15519
858.464	15443
858.597	15367
858.731	15466
858.864	15587
858.997	15485
859.13	15580
859.263	15553
859.396	15584
859.529	15595
859.662	15485
859.795	15424
859.928	15492
860.061	15713
860.194	15705
860.327	15496
860.46	15466
860.592	15633
860.725	15679
860.858	15633
860.99	15439
861.123	15477
861.256	15450
861.388	15458
861.521	16188
861.653	15363
861.786	15439
861.918	15382
862.05	15416
862.183	15378
862.315	15538
862.447	15629
862.58	15374
862.712	15310
862.844	15203
862.976	15416
863.108	15306
863.24	15823
863.372	15123
863.504	15245
863.636	15150
863.768	15260
863.9	15207
864.032	15157
864.164	15291
864.296	15313
864.428	15386
864.559	15374
864.691	15416
864.823	15340
864.954	15306
865.086	15348
865.217	15211
865.349	15237
865.48	15233
865.612	15195
865.743	15359
865.875	15283
866.006	15169
866.137	15256
866.269	15165
866.4	15279
866.531	15093
866.662	15150
866.793	15165
866.924	15241
867.055	15222
867.186	15207
867.317	15214
867.448	15112
867.579	15036
867.71	15154
867.841	15173
867.972	15169
868.103	15154
868.233	15256
868.364	15214
868.495	15222
868.625	15477
868.756	15477
868.886	15450
869.017	15492
869.147	15625
869.278	15485
869.408	15485
869.539	15515
869.669	15485
869.799	15553
869.929	15572
870.06	15428
870.19	15739
870.32	15774
870.45	15789
870.58	15865
870.71	16071
870.84	15903
870.97	15781
871.1	15831
871.23	16055
871.36	15968
871.489	16086
871.619	15979
871.749	16109
871.879	16124
872.008	16192
872.138	16051
872.267	15979
872.397	15930
872.526	15857
872.656	15873
872.785	15953
872.915	16192
873.044	16166
873.173	16029
873.303	16181
873.432	16223
873.561	16207
873.69	16131
873.819	16185
873.948	16181
874.077	16124
874.206	16143
874.335	16166
874.464	16276
874.593	16424
874.722	16249
874.851	16436
874.979	16440
875.108	16550
875.237	16405
875.365	16455
875.494	16451
875.623	16554
875.751	16531
875.88	16519
876.008	16607
876.136	16691
876.265	16824
876.393	17041
876.521	16953
876.65	16908
876.778	16908
876.906	16858
877.034	16869
877.162	16927
877.29	16934
877.418	16866
877.546	16908
877.674	17025
877.802	16904
877.93	17025
878.058	17018
878.185	16858
878.313	17041
878.441	17064
878.568	17048
878.696	17094
878.824	17246
878.951	17334
879.079	17661
879.206	17908
879.333	17893
879.461	18026
879.588	18171
879.715	18277
879.842	18319
879.97	17904
880.097	17433
880.224	17200
880.351	17220
880.478	17212
880.605	17067
880.732	17124
880.859	17124
880.986	17086
881.112	16965
881.239	16820
881.366	16809
881.493	16774
881.619	16675
881.746	16653
881.872	16752
881.999	16531
882.125	16675
882.252	16786
882.378	16683
882.505	16843
882.631	16664
882.757	16462
882.883	16481
883.01	16519
883.136	16424
883.262	16379
883.388	16436
883.514	16538
883.64	16447
883.766	16447
883.892	16405
884.018	16276
884.143	16451
884.269	16561
884.395	16280
884.52	16200
884.646	16150
884.772	16071
884.897	16135
885.023	16226
885.148	16318
885.274	16280
885.399	16291
885.524	16112
885.65	16226
885.775	16128
885.9	16112
886.025	16394
886.15	16169
886.275	16059
886.4	15975
886.525	16071
886.65	15979
886.775	16025
886.9	16158
887.025	16284
887.149	16147
887.274	15812
887.399	15762
887.523	15888
887.648	15743
887.773	15759
887.897	15915
888.021	15949
888.146	15739
888.27	15899
888.395	15964
888.519	15850
888.643	15823
888.767	15869
888.891	15656
889.015	15580
889.139	15690
889.263	15606
889.387	15690
889.511	15747
889.635	15717
889.759	15599
889.883	15641
890.006	15595
890.13	15652
890.254	15576
890.377	15538
890.501	15325
890.624	15340
890.748	15336
890.871	15344
890.995	15211
891.118	15165
891.241	15249
891.364	15157
891.488	15302
891.611	15207
891.734	15313
891.857	15226
891.98	15161
892.103	15389
892.226	15245
892.349	15116
892.471	15150
892.594	15226
892.717	15230
892.839	15218
892.962	15283
893.085	15245
893.207	15157
893.33	15161
893.452	15116
893.575	15207
893.697	15074
893.819	15363
893.941	15325
894.064	15348
894.186	15085
894.308	15097
894.43	15279
894.552	15401
894.674	15302
894.796	15211
894.918	15279
895.04	15157
895.161	15279
895.283	15226
895.405	15256
895.526	15252
895.648	15272
895.769	15298
895.891	15302
896.012	15351
896.134	15310
896.255	15359
896.376	15218
896.498	15287
896.619	15283
896.74	15340
896.861	15458
896.982	15724
897.103	15861
897.224	15679
897.345	15580
897.466	15519
897.587	15504
897.708	15633
897.828	15648
897.949	15568
898.07	15469
898.19	15458
898.311	15701
898.431	15610
898.552	15682
898.672	15717
898.792	15720
898.913	15667
899.033	15629
899.153	15492
899.273	15485
899.393	15428
899.513	15450
899.633	15557
899.753	15557
899.873	15473
899.993	15477
900.113	15488
900.232	15515
900.352	15477
900.472	15447
900.591	15291
900.711	15431
900.83	15283
900.95	15439
901.069	15496
901.189	15294
901.308	14975
901.427	15032
901.546	15119
901.665	15154
901.784	15009
901.904	14891
902.023	14796
902.141	14655
902.26	14583
902.379	14663
902.498	14541
902.617	14518
902.735	14590
902.854	14583
902.973	14480
903.091	14374
903.21	14336
903.328	14385
903.446	14218
903.565	14145
903.683	14054
903.801	14043
903.919	14115
904.038	14039
904.156	13898
904.274	13959
904.392	13909
904.51	13864
904.627	13879
904.745	13974
904.863	13902
904.981	13655
905.098	13445
905.216	13578
905.334	13601
905.451	13647
905.569	13540
905.686	13655
905.803	13548
905.921	13228
906.038	13457
906.155	13422
906.272	13247
906.389	13343
906.506	13240
906.623	13183
906.74	13209
906.857	12966
906.974	13084
907.091	13129
907.208	13285
907.324	13050
907.441	12985
907.557	12837
907.674	12814
907.79	12795
907.907	12859
908.023	12932
908.139	12894
908.256	12852
908.372	12757
908.488	12779
908.604	12692
908.72	12589
908.836	12532
908.952	12536
909.068	12570
909.184	12692
909.3	12582
909.415	12608
909.531	12654
909.647	12311
909.762	12334
909.878	12300
909.993	12319
910.108	12327
910.224	12323
910.339	12350
910.454	12289
910.57	12194
910.685	12148
910.8	12441
910.915	12308
911.03	12232
911.145	12102
911.259	11950
911.374	12079
911.489	12007
911.604	11847
911.718	11813
911.833	11832
911.947	11718
912.062	11532
912.176	11760
912.291	11790
912.405	11733
912.519	11961
912.633	11923
912.748	11748
912.862	11733
912.976	11577
913.09	11554
913.204	11573
913.318	11604
913.431	11684
913.545	11805
913.659	11794
913.772	11741
913.886	11562
914	11497
914.113	11627
914.226	11649
914.34	11619
914.453	11471
914.566	11535
914.68	11448
914.793	11490
914.906	11235
915.019	11242
915.132	11212
915.245	11235
915.358	11258
915.47	11254
915.583	11277
915.696	11261
915.809	11360
915.921	11368
916.034	11216
916.146	11265
916.259	11121
916.371	11223
916.483	11334
916.595	11193
916.708	11166
916.82	11208
916.932	11140
917.044	11159
917.156	11052
917.268	11029
917.38	11064
917.491	11003
917.603	11006
917.715	11128
917.826	11136
917.938	11041
918.049	10946
918.161	11025
918.272	11246
918.384	11208
918.495	11060
918.606	10946
918.717	10843
918.828	10892
918.939	10923
919.05	10801
919.161	10862
919.272	10717
919.383	10782
919.494	10968
919.604	11109
919.715	10995
919.826	10828
919.936	10889
920.047	10934
920.157	10923
920.267	11140
920.378	10843
920.488	10991
920.598	11079
920.708	11208
920.818	11113
920.928	11132
921.038	11292
921.148	11227
921.258	10900
921.368	10816
921.477	10717
921.587	10725
921.697	10588
921.806	10721
921.916	10603
922.025	10489
922.134	10447
922.244	10348
922.353	10523
922.462	10394
922.571	10257
922.68	10158
922.789	10131
922.898	10192
923.007	10097
923.116	10128
923.224	10067
923.333	10063
923.442	9934
923.55	10032
923.659	9991
923.767	10029
923.876	9975
923.984	9983
924.092	9869
924.201	9975
924.309	9926
924.417	9991
924.525	9934
924.633	9922
924.741	10717
924.849	9778
924.956	9884
925.064	9705
925.172	9637
925.279	9797
925.387	9720
925.494	9720
925.602	9880
925.709	9861
925.816	9663
925.924	9812
926.031	9873
926.138	9755
926.245	9774
926.352	9606
926.459	9831
926.566	9873
926.673	9686
926.779	9580
926.886	9572
926.993	9397
927.099	9416
927.206	9317
927.312	9408
927.419	9599
927.525	9462
927.631	9496
927.737	9397
927.843	9302
927.95	9332
928.056	9302
928.162	9386
928.267	9351
928.373	9873
928.479	9355
928.585	9127
928.69	9359
928.796	9302
928.901	9176
929.007	9062
929.112	9245
929.218	9157
929.323	9112
929.428	9081
929.533	9222
929.638	9047
929.743	9116
929.848	9104
929.953	9039
930.058	8960
930.163	8815
930.267	8876
930.372	9013
930.477	8750
930.581	9097
930.685	8910
930.79	8769
930.894	8876
930.998	8792
931.103	8929
931.207	8629
931.311	8579
931.415	8537
931.519	8374
931.623	8320
