Data from test_V78500241_2779.txt Node
Date: Fri Mar 25 14:53:03 CST 2022
User: usil
Spectrometer: V785-0024
Trigger mode: 0
Integration Time (sec): 4.000000E-1
Scans to average: 1
Nonlinearity correction enabled: false
Boxcar width: 0
Storing dark spectrum: false
XAxis mode: Wavelengths
Number of Pixels in Spectrum: 1024
>>>>>Begin Spectral Data<<<<<
801.071	22070
801.214	21751
801.356	21622
801.499	21580
801.641	21469
801.783	21485
801.926	21435
802.068	21416
802.211	21188
802.353	21192
802.496	21062
802.638	21028
802.78	20796
802.923	20792
803.065	20720
803.208	20735
803.35	20720
803.492	20853
803.635	20880
803.777	20750
803.919	20842
804.061	21024
804.204	20765
804.346	20743
804.488	20579
804.63	20659
804.773	20526
804.915	20777
805.057	20815
805.199	20545
805.341	20659
805.483	20765
805.626	20708
805.768	20568
805.91	20667
806.052	20667
806.194	20492
806.336	20777
806.478	20632
806.62	20541
806.762	20773
806.904	20796
807.046	21077
807.188	20872
807.33	21066
807.472	21036
807.614	20838
807.756	20960
807.898	20853
808.04	20663
808.182	20705
808.324	20758
808.465	20796
808.607	20899
808.749	20906
808.891	21096
809.033	21184
809.174	20960
809.316	20887
809.458	20960
809.6	21028
809.741	21142
809.883	21024
810.025	21192
810.166	21116
810.308	21123
810.45	21017
810.591	21161
810.733	20819
810.875	20781
811.016	20693
811.158	20697
811.299	20880
811.441	20842
811.582	20857
811.724	20777
811.865	20663
812.007	20632
812.148	20682
812.29	20849
812.431	20956
812.573	21093
812.714	21203
812.855	21218
812.997	21336
813.138	21519
813.279	21447
813.421	21306
813.562	21203
813.703	21047
813.845	20944
813.986	20640
814.127	20499
814.268	20358
814.41	20290
814.551	20393
814.692	20355
814.833	20362
814.974	20256
815.115	20263
815.256	20142
815.397	20195
815.539	20115
815.68	20062
815.821	19928
815.962	20092
816.103	19989
816.244	19936
816.385	19674
816.526	19807
816.666	19559
816.807	19403
816.948	19506
817.089	19544
817.23	19537
817.371	19430
817.512	19460
817.653	19525
817.793	19411
817.934	19324
818.075	19476
818.216	19518
818.356	19358
818.497	19339
818.638	19042
818.778	19148
818.919	19225
819.06	19228
819.2	19251
819.341	19327
819.481	19449
819.622	19460
819.762	19613
819.903	19567
820.043	19468
820.184	19426
820.324	19396
820.465	19499
820.605	19472
820.746	19438
820.886	19244
821.026	19396
821.167	19354
821.307	19289
821.447	19445
821.588	19327
821.728	19126
821.868	18932
822.008	18802
822.149	18897
822.289	18677
822.429	18517
822.569	18433
822.709	18601
822.849	18285
822.99	18277
823.13	18338
823.27	18319
823.41	18057
823.55	18098
823.69	18178
823.83	18136
823.97	18083
824.11	17935
824.25	17855
824.389	17786
824.529	17958
824.669	17958
824.809	18121
824.949	17965
825.089	17942
825.228	17946
825.368	17756
825.508	17600
825.648	17733
825.787	17737
825.927	17657
826.067	17638
826.206	17520
826.346	17665
826.485	17729
826.625	17642
826.765	17741
826.904	17764
827.044	17505
827.183	17433
827.323	17269
827.462	17436
827.601	17372
827.741	17364
827.88	17345
828.02	17284
828.159	17349
828.298	17440
828.437	17490
828.577	17307
828.716	17406
828.855	17307
828.994	17083
829.134	17098
829.273	17189
829.412	17117
829.551	16942
829.69	17117
829.829	17128
829.968	17299
830.107	17151
830.246	17075
830.385	17003
830.524	16987
830.663	16911
830.802	16911
830.941	16782
831.08	16694
831.219	16778
831.357	16778
831.496	17029
831.635	16672
831.774	16679
831.913	16577
832.051	16519
832.19	16478
832.329	16497
832.467	16470
832.606	16379
832.744	16508
832.883	16417
833.022	16519
833.16	16470
833.299	16440
833.437	16508
833.576	16535
833.714	16436
833.852	16504
833.991	16523
834.129	16535
834.267	16615
834.406	16409
834.544	16611
834.682	16459
834.821	16459
834.959	16618
835.097	16485
835.235	16580
835.373	16554
835.511	16443
835.65	16322
835.788	16405
835.926	16280
836.064	16192
836.202	16234
836.34	16329
836.478	16504
836.615	16405
836.753	16447
836.891	16508
837.029	16443
837.167	16363
837.305	16314
837.443	16287
837.58	16268
837.718	16314
837.856	16375
837.993	16223
838.131	16234
838.269	16185
838.406	16219
838.544	16162
838.681	15964
838.819	15968
838.956	15743
839.094	15888
839.231	15835
839.369	15873
839.506	16211
839.643	16063
839.781	15895
839.918	15800
840.055	15865
840.193	15759
840.33	15770
840.467	15888
840.604	15823
840.742	16029
840.879	15800
841.016	15698
841.153	15705
841.29	15930
841.427	15873
841.564	15922
841.701	15743
841.838	15766
841.975	15732
842.112	15945
842.249	15633
842.385	15622
842.522	15892
842.659	15663
842.796	15595
842.933	15652
843.069	15595
843.206	15580
843.343	15618
843.479	15576
843.616	15519
843.752	15393
843.889	15397
844.025	15572
844.162	15443
844.298	15496
844.435	15462
844.571	15397
844.708	15458
844.844	15568
844.98	15587
845.117	15477
845.253	15401
845.389	15264
845.525	15348
845.661	15256
845.798	15241
845.934	15245
846.07	15138
846.206	15230
846.342	15393
846.478	15252
846.614	15138
846.75	14952
846.886	14868
847.022	15051
847.158	15005
847.294	14990
847.429	14986
847.565	14979
847.701	15260
847.837	14750
847.972	14674
848.108	14811
848.244	14758
848.379	14602
848.515	14610
848.65	14499
848.786	14545
848.921	14590
849.057	14686
849.192	14735
849.328	14617
849.463	14629
849.598	14556
849.734	14511
849.869	14431
850.004	14358
850.14	14385
850.275	14412
850.41	14267
850.545	14278
850.68	14358
850.815	14366
850.95	14370
851.085	14442
851.22	14408
851.355	14294
851.49	14290
851.625	14286
851.76	14358
851.895	14339
852.03	14237
852.165	14313
852.299	14351
852.434	14461
852.569	14313
852.703	14317
852.838	14404
852.973	14514
853.107	14438
853.242	14332
853.376	14271
853.511	14145
853.645	14153
853.78	14263
853.914	14221
854.048	14294
854.183	14115
854.317	14229
854.451	14286
854.585	14145
854.72	14142
854.854	14263
854.988	14111
855.122	14225
855.256	14043
855.39	14164
855.524	14328
855.658	14191
855.792	14157
855.926	14187
856.06	14221
856.194	14187
856.327	14149
856.461	14149
856.595	14218
856.729	14142
856.862	14294
856.996	14259
857.13	14275
857.263	14370
857.397	14347
857.53	14206
857.664	14282
857.797	14355
857.931	14366
858.064	14244
858.197	14336
858.331	14168
858.464	14195
858.597	14096
858.731	14126
858.864	14229
858.997	14138
859.13	14244
859.263	14225
859.396	14351
859.529	14180
859.662	14176
859.795	14168
859.928	14244
860.061	14423
860.194	14301
860.327	14259
860.46	14187
860.592	14351
860.725	14400
860.858	14278
860.99	14164
861.123	14115
861.256	14168
861.388	14180
861.521	14857
861.653	14054
861.786	14008
861.918	14096
862.05	14202
862.183	14187
862.315	14100
862.447	14252
862.58	14202
862.712	13947
862.844	13932
862.976	14077
863.108	14005
863.24	14499
863.372	13959
863.504	14008
863.636	13951
863.768	13982
863.9	14005
864.032	13921
864.164	14001
864.296	13890
864.428	14031
864.559	14176
864.691	14183
864.823	14050
864.954	14031
865.086	14039
865.217	14001
865.349	13925
865.48	13989
865.612	13974
865.743	14191
865.875	13974
866.006	14035
866.137	14012
866.269	13970
866.4	13913
866.531	13875
866.662	13868
866.793	13936
866.924	13913
867.055	14077
867.186	13925
867.317	13959
867.448	13902
867.579	13864
867.71	13944
867.841	13852
867.972	14054
868.103	13951
868.233	14084
868.364	13993
868.495	14027
868.625	14176
868.756	14336
868.886	14027
869.017	14161
869.147	14256
869.278	14278
869.408	14263
869.539	14244
869.669	14389
869.799	14286
869.929	14351
870.06	14298
870.19	14514
870.32	14450
870.45	14564
870.58	14602
870.71	14667
870.84	14716
870.97	14579
871.1	14663
871.23	14834
871.36	14853
871.489	14670
871.619	14811
871.749	14800
871.879	14834
872.008	14864
872.138	14788
872.267	14830
872.397	14754
872.526	14625
872.656	14701
872.785	14663
872.915	14864
873.044	14994
873.173	14880
873.303	14982
873.432	14902
873.561	14872
873.69	14819
873.819	14929
873.948	14944
874.077	14842
874.206	14902
874.335	14876
874.464	15013
874.593	15142
874.722	15100
874.851	15188
874.979	15214
875.108	15237
875.237	15119
875.365	15119
875.494	15230
875.623	15306
875.751	15127
875.88	15264
876.008	15325
876.136	15428
876.265	15637
876.393	15682
876.521	15694
876.65	15625
876.778	15705
876.906	15671
877.034	15534
877.162	15557
877.29	15568
877.418	15591
877.546	15580
877.674	15625
877.802	15614
877.93	15576
878.058	15637
878.185	15454
878.313	15614
878.441	15614
878.568	15389
878.696	15545
878.824	15633
878.951	15599
879.079	15880
879.206	15892
879.333	15766
879.461	15629
879.588	15724
879.715	15907
879.842	15846
879.97	15747
880.097	15397
880.224	15340
880.351	15488
880.478	15477
880.605	15298
880.732	15439
880.859	15614
880.986	15534
881.112	15500
881.239	15389
881.366	15260
881.493	15154
881.619	15024
881.746	15127
881.872	15108
881.999	15058
882.125	15013
882.252	15180
882.378	15093
882.505	15321
882.631	15100
882.757	14994
882.883	15039
883.01	14971
883.136	14914
883.262	14823
883.388	14697
883.514	14963
883.64	15009
883.766	14853
883.892	14663
884.018	14823
884.143	14891
884.269	15036
884.395	14716
884.52	14606
884.646	14636
884.772	14598
884.897	14507
885.023	14606
885.148	14735
885.274	14636
885.399	14769
885.524	14701
885.65	14640
885.775	14746
885.9	14632
886.025	14826
886.15	14731
886.275	14617
886.4	14537
886.525	14697
886.65	14507
886.775	14530
886.9	14686
887.025	14902
887.149	14556
887.274	14431
887.399	14415
887.523	14374
887.648	14385
887.773	14309
887.897	14564
888.021	14522
888.146	14480
888.27	14598
888.395	14606
888.519	14541
888.643	14495
888.767	14507
888.891	14469
889.015	14282
889.139	14461
889.263	14256
889.387	14438
889.511	14492
889.635	14484
889.759	14309
889.883	14328
890.006	14415
890.13	14442
890.254	14336
890.377	14324
890.501	14077
890.624	14180
890.748	14183
890.871	14153
890.995	14050
891.118	13921
891.241	14050
891.364	14058
891.488	14123
891.611	13947
891.734	13978
891.857	14142
891.98	14001
892.103	14161
892.226	14031
892.349	14008
892.471	13928
892.594	13982
892.717	14001
892.839	14035
892.962	14035
893.085	14077
893.207	14035
893.33	13932
893.452	13993
893.575	14153
893.697	14031
893.819	14130
893.941	14256
894.064	14157
894.186	14069
894.308	14050
894.43	14092
894.552	14286
894.674	14206
894.796	14012
894.918	14130
895.04	14096
895.161	14244
895.283	14153
895.405	14073
895.526	14088
895.648	14073
895.769	14115
895.891	14187
896.012	14263
896.134	14210
896.255	14229
896.376	14259
896.498	14199
896.619	14275
896.74	14237
896.861	14218
896.982	14571
897.103	14621
897.224	14484
897.345	14465
897.466	14377
897.587	14358
897.708	14575
897.828	14499
897.949	14450
898.07	14301
898.19	14358
898.311	14629
898.431	14499
898.552	14606
898.672	14571
898.792	14636
898.913	14549
899.033	14438
899.153	14332
899.273	14263
899.393	14393
899.513	14374
899.633	14393
899.753	14473
899.873	14305
899.993	14484
900.113	14431
900.232	14370
900.352	14396
900.472	14317
900.591	14229
900.711	14320
900.83	14225
900.95	14355
901.069	14389
901.189	14225
901.308	14058
901.427	13951
901.546	14001
901.665	13989
901.784	13947
901.904	13833
902.023	13689
902.141	13537
902.26	13434
902.379	13643
902.498	13514
902.617	13502
902.735	13540
902.854	13483
902.973	13392
903.091	13282
903.21	13339
903.328	13187
903.446	13206
903.565	13046
903.683	13209
903.801	13042
903.919	12993
904.038	13015
904.156	12913
904.274	13019
904.392	12897
904.51	12867
904.627	12867
904.745	13000
904.863	12909
904.981	12757
905.098	12608
905.216	12627
905.334	12635
905.451	12604
905.569	12604
905.686	12612
905.803	12601
905.921	12414
906.038	12528
906.155	12479
906.272	12353
906.389	12357
906.506	12262
906.623	12144
906.74	12197
906.857	12163
906.974	12140
907.091	12220
907.208	12254
907.324	12182
907.441	12026
907.557	11980
907.674	11908
907.79	11798
907.907	11980
908.023	11954
908.139	11992
908.256	11946
908.372	11870
908.488	11874
908.604	11676
908.72	11718
908.836	11767
908.952	11608
909.068	11703
909.184	11767
909.3	11703
909.415	11733
909.531	11783
909.647	11482
909.762	11532
909.878	11505
909.993	11395
910.108	11440
910.224	11486
910.339	11566
910.454	11410
910.57	11303
910.685	11223
910.8	11482
910.915	11471
911.03	11436
911.145	11223
911.259	11193
911.374	11178
911.489	11037
911.604	11037
911.718	10862
911.833	10911
911.947	10805
912.062	10740
912.176	10972
912.291	10934
912.405	10953
912.519	11166
912.633	11147
912.748	11010
912.862	10934
912.976	10881
913.09	10725
913.204	10786
913.318	10793
913.431	10949
913.545	10862
913.659	10980
913.772	10835
913.886	10675
914	10698
914.113	10828
914.226	10831
914.34	10694
914.453	10630
914.566	10748
914.68	10645
914.793	10675
914.906	10409
915.019	10398
915.132	10280
915.245	10428
915.358	10470
915.47	10538
915.583	10489
915.696	10512
915.809	10588
915.921	10645
916.034	10398
916.146	10440
916.259	10348
916.371	10481
916.483	10497
916.595	10409
916.708	10413
916.82	10386
916.932	10234
917.044	10318
917.156	10398
917.268	10234
917.38	10246
917.491	10287
917.603	10310
917.715	10341
917.826	10386
917.938	10314
918.049	10192
918.161	10291
918.272	10459
918.384	10455
918.495	10337
918.606	10173
918.717	10135
918.828	10131
918.939	10147
919.05	10071
919.161	10154
919.272	9926
919.383	10086
919.494	10181
919.604	10409
919.715	10166
919.826	10116
919.936	10105
920.047	10234
920.157	10185
920.267	10424
920.378	10242
920.488	10196
920.598	10413
920.708	10455
920.818	10310
920.928	10443
921.038	10542
921.148	10523
921.258	10268
921.368	10154
921.477	10006
921.587	10059
921.697	9857
921.806	10067
921.916	9926
922.025	9701
922.134	9728
922.244	9720
922.353	9838
922.462	9572
922.571	9603
922.68	9420
922.789	9332
922.898	9420
923.007	9424
923.116	9462
923.224	9389
923.333	9424
923.442	9336
923.55	9283
923.659	9298
923.767	9325
923.876	9332
923.984	9397
924.092	9233
924.201	9340
924.309	9291
924.417	9340
924.525	9249
924.633	9287
924.741	10071
924.849	9150
924.956	9214
925.064	9039
925.172	9058
925.279	9055
925.387	9119
925.494	9043
925.602	9233
925.709	9184
925.816	9085
925.924	9100
926.031	9146
926.138	9104
926.245	9093
926.352	8979
926.459	9188
926.566	9203
926.673	9081
926.779	8937
926.886	8982
926.993	8872
927.099	8826
927.206	8746
927.312	8804
927.419	8899
927.525	8872
927.631	8853
927.737	8693
927.843	8716
927.95	8610
928.056	8720
928.162	8678
928.267	8727
928.373	9336
928.479	8823
928.585	8579
928.69	8693
928.796	8712
928.901	8629
929.007	8533
929.112	8575
929.218	8613
929.323	8518
929.428	8549
929.533	8568
929.638	8438
929.743	8503
929.848	8571
929.953	8526
930.058	8461
930.163	8294
930.267	8355
930.372	8465
930.477	8248
930.581	8518
930.685	8408
930.79	8206
930.894	8240
930.998	8195
931.103	8385
931.207	8008
931.311	7989
931.415	7932
931.519	7723
931.623	7715
