Data from test_V78500241_331.txt Node
Date: Fri Mar 25 14:36:01 CST 2022
User: usil
Spectrometer: V785-0024
Trigger mode: 0
Integration Time (sec): 4.000000E-1
Scans to average: 1
Nonlinearity correction enabled: false
Boxcar width: 0
Storing dark spectrum: false
XAxis mode: Wavelengths
Number of Pixels in Spectrum: 1024
>>>>>Begin Spectral Data<<<<<
801.071	26872
801.214	26891
801.356	26682
801.499	26541
801.641	26355
801.783	26355
801.926	26427
802.068	26259
802.211	26286
802.353	26183
802.496	26001
802.638	25879
802.78	25860
802.923	25746
803.065	25978
803.208	25921
803.35	25890
803.492	25890
803.635	26016
803.777	25932
803.919	26145
804.061	26419
804.204	26039
804.346	25936
804.488	25826
804.63	25856
804.773	25761
804.915	25917
805.057	26031
805.199	25963
805.341	25944
805.483	25784
805.626	25925
805.768	25921
805.91	25955
806.052	25917
806.194	25780
806.336	26084
806.478	25864
806.62	25951
806.762	26012
806.904	26145
807.046	26423
807.188	26195
807.33	26183
807.472	26381
807.614	26206
807.756	26119
807.898	26122
808.04	25864
808.182	26046
808.324	26020
808.465	26119
808.607	26317
808.749	26549
808.891	26552
809.033	26667
809.174	26453
809.316	26453
809.458	26473
809.6	26347
809.741	26457
809.883	26590
810.025	26686
810.166	26590
810.308	26648
810.45	26533
810.591	26564
810.733	26336
810.875	26374
811.016	26267
811.158	26161
811.299	26313
811.441	26530
811.582	26412
811.724	26240
811.865	26320
812.007	26332
812.148	26259
812.29	26381
812.431	26465
812.573	26469
812.714	26560
812.855	26629
812.997	26883
813.138	27089
813.279	26861
813.421	26804
813.562	26670
813.703	26609
813.845	26453
813.986	26252
814.127	26153
814.268	25784
814.41	25955
814.551	25989
814.692	25807
814.833	25689
814.974	25734
815.115	25883
815.256	25609
815.397	25582
815.539	25552
815.68	25624
815.821	25529
815.962	25544
816.103	25586
816.244	25422
816.385	25365
816.526	25346
816.666	25137
816.807	24951
816.948	25126
817.089	25057
817.23	24935
817.371	25000
817.512	24985
817.653	24840
817.793	24760
817.934	24981
818.075	24909
818.216	24852
818.356	24821
818.497	24726
818.638	24703
818.778	24684
818.919	24612
819.06	24627
819.2	24726
819.341	24878
819.481	24863
819.622	25034
819.762	25289
819.903	25145
820.043	24977
820.184	24935
820.324	24932
820.465	25080
820.605	24882
820.746	24928
820.886	24817
821.026	25038
821.167	24749
821.307	24989
821.447	24890
821.588	24688
821.728	24616
821.868	24437
822.008	24361
822.149	24178
822.289	24262
822.429	24057
822.569	23992
822.709	23882
822.849	23748
822.99	23710
823.13	23661
823.27	23695
823.41	23512
823.55	23395
823.69	23581
823.83	23566
823.97	23543
824.11	23395
824.25	23345
824.389	23303
824.529	23471
824.669	23299
824.809	23520
824.949	23315
825.089	23376
825.228	23269
825.368	23060
825.508	23064
825.648	23094
825.787	23117
825.927	23174
826.067	22892
826.206	23090
826.346	23094
826.485	23140
826.625	23132
826.765	23216
826.904	23132
827.044	22915
827.183	22816
827.323	22641
827.462	22816
827.601	22679
827.741	22710
827.88	22801
828.02	22542
828.159	22698
828.298	22763
828.437	22805
828.577	22675
828.716	22759
828.855	22786
828.994	22535
829.134	22432
829.273	22363
829.412	22417
829.551	22360
829.69	22489
829.829	22485
829.968	22531
830.107	22557
830.246	22367
830.385	22268
830.524	22440
830.663	22287
830.802	22131
830.941	22048
831.08	22067
831.219	22070
831.357	22158
831.496	22249
831.635	22059
831.774	21926
831.913	21842
832.051	21884
832.19	21701
832.329	21770
832.467	21705
832.606	21637
832.744	21709
832.883	21591
833.022	21694
833.16	21694
833.299	21675
833.437	21682
833.576	21827
833.714	21728
833.852	21766
833.991	21694
834.129	21743
834.267	21698
834.406	21732
834.544	21728
834.682	21709
834.821	21724
834.959	21895
835.097	21583
835.235	21675
835.373	21599
835.511	21587
835.65	21557
835.788	21682
835.926	21348
836.064	21283
836.202	21287
836.34	21568
836.478	21568
836.615	21504
836.753	21538
836.891	21496
837.029	21523
837.167	21485
837.305	21458
837.443	21458
837.58	21249
837.718	21435
837.856	21363
837.993	21359
838.131	21336
838.269	21241
838.406	21252
838.544	21116
838.681	21047
838.819	21055
838.956	20739
839.094	20861
839.231	20902
839.369	20941
839.506	21207
839.643	21058
839.781	20792
839.918	20743
840.055	20880
840.193	20819
840.33	20674
840.467	20663
840.604	20868
840.742	20906
840.879	20590
841.016	20549
841.153	20549
841.29	20819
841.427	20625
841.564	20743
841.701	20720
841.838	20701
841.975	20583
842.112	20602
842.249	20495
842.385	20454
842.522	20556
842.659	20412
842.796	20385
842.933	20556
843.069	20385
843.206	20450
843.343	20385
843.479	20438
843.616	20282
843.752	20275
843.889	20225
844.025	20389
844.162	20142
844.298	20355
844.435	20035
844.571	20088
844.708	20191
844.844	20336
844.98	20336
845.117	20320
845.253	20126
845.389	20081
845.525	20142
845.661	20180
845.798	20115
845.934	20103
846.07	19947
846.206	20016
846.342	20035
846.478	19940
846.614	19841
846.75	19696
846.886	19601
847.022	19731
847.158	19719
847.294	19647
847.429	19765
847.565	19502
847.701	19826
847.837	19373
847.972	19324
848.108	19407
848.244	19411
848.379	19251
848.515	19285
848.65	19088
848.786	19213
848.921	19110
849.057	19304
849.192	19278
849.328	19297
849.463	19270
849.598	19095
849.734	19137
849.869	19027
850.004	19038
850.14	18985
850.275	19053
850.41	18795
850.545	18875
850.68	19012
850.815	19042
850.95	18973
851.085	19076
851.22	19019
851.355	18932
851.49	18817
851.625	18840
851.76	18901
851.895	18802
852.03	18878
852.165	18882
852.299	19023
852.434	19012
852.569	18966
852.703	18985
852.838	19088
852.973	19027
853.107	19080
853.242	18939
853.376	18745
853.511	18700
853.645	18738
853.78	18920
853.914	18825
854.048	18749
854.183	18757
854.317	18821
854.451	18909
854.585	18791
854.72	18726
854.854	18833
854.988	18585
855.122	18734
855.256	18635
855.39	18661
855.524	18719
855.658	18753
855.792	18753
855.926	18817
856.06	18810
856.194	18837
856.327	18779
856.461	18669
856.595	18722
856.729	18711
856.862	18768
856.996	18707
857.13	18783
857.263	18798
857.397	18909
857.53	18684
857.664	18806
857.797	18867
857.931	18791
858.064	18726
858.197	18795
858.331	18753
858.464	18730
858.597	18646
858.731	18749
858.864	18745
858.997	18658
859.13	18791
859.263	18684
859.396	18791
859.529	18627
859.662	18604
859.795	18783
859.928	18642
860.061	18783
860.194	18837
860.327	18681
860.46	18753
860.592	18814
860.725	18787
860.858	18730
860.99	18608
861.123	18722
861.256	18620
861.388	18696
861.521	19316
861.653	18669
861.786	18456
861.918	18608
862.05	18661
862.183	18673
862.315	18757
862.447	18749
862.58	18642
862.712	18544
862.844	18437
862.976	18570
863.108	18532
863.24	18783
863.372	18350
863.504	18323
863.636	18483
863.768	18585
863.9	18460
864.032	18254
864.164	18376
864.296	18429
864.428	18464
864.559	18551
864.691	18490
864.823	18418
864.954	18441
865.086	18372
865.217	18330
865.349	18369
865.48	18311
865.612	18327
865.743	18429
865.875	18281
866.006	18171
866.137	18357
866.269	18384
866.4	18330
866.531	18357
866.662	18167
866.793	18152
866.924	18235
867.055	18300
867.186	18357
867.317	18304
867.448	18171
867.579	18319
867.71	18228
867.841	18251
867.972	18277
868.103	18266
868.233	18372
868.364	18254
868.495	18361
868.625	18498
868.756	18635
868.886	18346
869.017	18509
869.147	18517
869.278	18642
869.408	18589
869.539	18563
869.669	18661
869.799	18570
869.929	18521
870.06	18578
870.19	18810
870.32	18810
870.45	18920
870.58	19008
870.71	18848
870.84	18943
870.97	18829
871.1	18875
871.23	19015
871.36	19099
871.489	18932
871.619	19004
871.749	19023
871.879	19042
872.008	19126
872.138	19080
872.267	19046
872.397	19046
872.526	19038
872.656	18916
872.785	18901
872.915	19046
873.044	19179
873.173	19034
873.303	19152
873.432	19183
873.561	19301
873.69	19183
873.819	19103
873.948	19141
874.077	19126
874.206	19034
874.335	19145
874.464	19202
874.593	19350
874.722	19278
874.851	19468
874.979	19422
875.108	19464
875.237	19445
875.365	19247
875.494	19392
875.623	19487
875.751	19350
875.88	19540
876.008	19491
876.136	19643
876.265	19803
876.393	19852
876.521	19909
876.65	19963
876.778	19799
876.906	19826
877.034	19655
877.162	19803
877.29	19757
877.418	19803
877.546	19841
877.674	19875
877.802	19807
877.93	19734
878.058	19662
878.185	19609
878.313	19753
878.441	19719
878.568	19632
878.696	19761
878.824	19898
878.951	19803
879.079	19871
879.206	20221
879.333	19959
879.461	19875
879.588	19986
879.715	20024
879.842	20062
879.97	19845
880.097	19693
880.224	19575
880.351	19666
880.478	19708
880.605	19537
880.732	19620
880.859	19890
880.986	19674
881.112	19681
881.239	19647
881.366	19369
881.493	19354
881.619	19293
881.746	19225
881.872	19327
881.999	19148
882.125	19217
882.252	19396
882.378	19255
882.505	19358
882.631	19190
882.757	18966
882.883	19122
883.01	18981
883.136	18935
883.262	18966
883.388	18859
883.514	19088
883.64	18981
883.766	18894
883.892	18848
884.018	18886
884.143	18996
884.269	19046
884.395	18707
884.52	18753
884.646	18612
884.772	18589
884.897	18627
885.023	18677
885.148	18768
885.274	18745
885.399	18692
885.524	18658
885.65	18665
885.775	18749
885.9	18684
886.025	18753
886.15	18642
886.275	18654
886.4	18555
886.525	18616
886.65	18604
886.775	18604
886.9	18715
887.025	18821
887.149	18700
887.274	18380
887.399	18384
887.523	18296
887.648	18517
887.773	18323
887.897	18479
888.021	18471
888.146	18437
888.27	18513
888.395	18585
888.519	18448
888.643	18604
888.767	18437
888.891	18273
889.015	18270
889.139	18399
889.263	18304
889.387	18384
889.511	18490
889.635	18437
889.759	18239
889.883	18224
890.006	18258
890.13	18133
890.254	18133
890.377	18167
890.501	18034
890.624	17977
890.748	18117
890.871	17870
890.995	17897
891.118	17824
891.241	17798
891.364	17866
891.488	17980
891.611	17988
891.734	17878
891.857	17942
891.98	17836
892.103	17912
892.226	17920
892.349	17783
892.471	17539
892.594	17672
892.717	17786
892.839	17809
892.962	17752
893.085	17863
893.207	17824
893.33	17634
893.452	17630
893.575	17805
893.697	17756
893.819	17988
893.941	18030
894.064	17889
894.186	17741
894.308	17821
894.43	17973
894.552	17878
894.674	17908
894.796	17672
894.918	17783
895.04	17821
895.161	17847
895.283	17779
895.405	17790
895.526	17722
895.648	17912
895.769	17813
895.891	17851
896.012	17859
896.134	18110
896.255	17893
896.376	17870
896.498	17878
896.619	17954
896.74	17889
896.861	17980
896.982	18216
897.103	18376
897.224	18201
897.345	18091
897.466	18034
897.587	18125
897.708	18201
897.828	18228
897.949	18019
898.07	17920
898.19	18072
898.311	18232
898.431	18102
898.552	18110
898.672	18216
898.792	18220
898.913	18136
899.033	18102
899.153	17737
899.273	17893
899.393	17851
899.513	17939
899.633	17901
899.753	17847
899.873	17779
899.993	18045
900.113	17790
900.232	17870
900.352	17912
900.472	17687
900.591	17642
900.711	17695
900.83	17585
900.95	17775
901.069	17885
901.189	17600
901.308	17425
901.427	17337
901.546	17395
901.665	17360
901.784	17280
901.904	17231
902.023	17223
902.141	16968
902.26	16790
902.379	17071
902.498	16812
902.617	16885
902.735	16839
902.854	16873
902.973	16733
903.091	16603
903.21	16459
903.328	16603
903.446	16481
903.565	16352
903.683	16360
903.801	16238
903.919	16341
904.038	16200
904.156	16207
904.274	16211
904.392	16196
904.51	16135
904.627	16074
904.745	16158
904.863	16086
904.981	15873
905.098	15846
905.216	15793
905.334	15774
905.451	15698
905.569	15713
905.686	15800
905.803	15846
905.921	15568
906.038	15709
906.155	15618
906.272	15466
906.389	15538
906.506	15363
906.623	15386
906.74	15367
906.857	15287
906.974	15256
907.091	15393
907.208	15454
907.324	15321
907.441	15241
907.557	15123
907.674	14990
907.79	15028
907.907	14857
908.023	15017
908.139	14982
908.256	15036
908.372	14880
908.488	14914
908.604	14750
908.72	14659
908.836	14769
908.952	14682
909.068	14796
909.184	14819
909.3	14716
909.415	14769
909.531	14739
909.647	14461
909.762	14423
909.878	14469
909.993	14499
910.108	14434
910.224	14412
910.339	14419
910.454	14290
910.57	14320
910.685	14305
910.8	14461
910.915	14480
911.03	14282
911.145	14123
911.259	14100
911.374	14069
911.489	14024
911.604	14031
911.718	13856
911.833	13879
911.947	13696
912.062	13674
912.176	13830
912.291	13860
912.405	13765
912.519	14001
912.633	14020
912.748	13849
912.862	13909
912.976	13750
913.09	13502
913.204	13636
913.318	13765
913.431	13822
913.545	13753
913.659	13734
913.772	13594
913.886	13552
914	13499
914.113	13537
914.226	13605
914.34	13548
914.453	13457
914.566	13571
914.68	13434
914.793	13358
914.906	13259
915.019	13190
915.132	13213
915.245	13072
915.358	13228
915.47	13133
915.583	13213
915.696	13225
915.809	13282
915.921	13263
916.034	13118
916.146	13046
916.259	13076
916.371	13202
916.483	13202
916.595	12970
916.708	12928
916.82	13012
916.932	12970
917.044	13000
917.156	12932
917.268	12970
917.38	12954
917.491	12875
917.603	12894
917.715	12943
917.826	12993
917.938	12867
918.049	12741
918.161	12802
918.272	13019
918.384	13019
918.495	12833
918.606	12745
918.717	12684
918.828	12650
918.939	12738
919.05	12715
919.161	12642
919.272	12570
919.383	12467
919.494	12764
919.604	12894
919.715	12700
919.826	12563
919.936	12551
920.047	12764
920.157	12608
920.267	12783
920.378	12707
920.488	12551
920.598	12798
920.708	12901
920.818	12943
920.928	12844
921.038	12935
921.148	13004
921.258	12566
921.368	12460
921.477	12437
921.587	12441
921.697	12273
921.806	12437
921.916	12277
922.025	12152
922.134	12220
922.244	12064
922.353	12121
922.462	11992
922.571	11912
922.68	11718
922.789	11786
922.898	11722
923.007	11672
923.116	11722
923.224	11699
923.333	11695
923.442	11585
923.55	11649
923.659	11589
923.767	11680
923.876	11619
923.984	11608
924.092	11425
924.201	11486
924.309	11509
924.417	11589
924.525	11471
924.633	11387
924.741	12281
924.849	11246
924.956	11463
925.064	11235
925.172	11231
925.279	11185
925.387	11299
925.494	11246
925.602	11383
925.709	11376
925.816	11227
925.924	11204
926.031	11372
926.138	11254
926.245	11379
926.352	11201
926.459	11208
926.566	11322
926.673	11235
926.779	11018
926.886	11048
926.993	10877
927.099	10949
927.206	10839
927.312	10828
927.419	10972
927.525	10919
927.631	10908
927.737	10752
927.843	10759
927.95	10664
928.056	10774
928.162	10744
928.267	10782
928.373	11364
928.479	10847
928.585	10584
928.69	10710
928.796	10649
928.901	10569
929.007	10508
929.112	10523
929.218	10603
929.323	10523
929.428	10508
929.533	10584
929.638	10371
929.743	10523
929.848	10508
929.953	10417
930.058	10325
930.163	10234
930.267	10211
930.372	10421
930.477	10139
930.581	10421
930.685	10299
930.79	10147
930.894	10204
930.998	10071
931.103	10211
931.207	9991
931.311	9831
931.415	9671
931.519	9477
931.623	9511
