Data from test_V78500241_1234.txt Node
Date: Fri Mar 25 14:42:18 CST 2022
User: usil
Spectrometer: V785-0024
Trigger mode: 0
Integration Time (sec): 4.000000E-1
Scans to average: 1
Nonlinearity correction enabled: false
Boxcar width: 0
Storing dark spectrum: false
XAxis mode: Wavelengths
Number of Pixels in Spectrum: 1024
>>>>>Begin Spectral Data<<<<<
801.071	22440
801.214	22318
801.356	22128
801.499	21918
801.641	21819
801.783	21747
801.926	21846
802.068	21648
802.211	21568
802.353	21473
802.496	21325
802.638	21230
802.78	21325
802.923	21176
803.065	21154
803.208	21119
803.35	21116
803.492	21081
803.635	21279
803.777	21028
803.919	21211
804.061	21435
804.204	21233
804.346	20982
804.488	20937
804.63	21020
804.773	20933
804.915	20979
805.057	21062
805.199	21055
805.341	21123
805.483	21135
805.626	21169
805.768	20880
805.91	21074
806.052	20937
806.194	21028
806.336	21176
806.478	21089
806.62	21039
806.762	21051
806.904	21233
807.046	21466
807.188	21252
807.33	21336
807.472	21431
807.614	21287
807.756	21367
807.898	21199
808.04	21020
808.182	21123
808.324	21070
808.465	21260
808.607	21298
808.749	21408
808.891	21625
809.033	21682
809.174	21580
809.316	21481
809.458	21428
809.6	21500
809.741	21473
809.883	21679
810.025	21504
810.166	21519
810.308	21542
810.45	21526
810.591	21443
810.733	21424
810.875	21116
811.016	21260
811.158	21211
811.299	21199
811.441	21408
811.582	21370
811.724	21192
811.865	21157
812.007	21127
812.148	21226
812.29	21192
812.431	21348
812.573	21454
812.714	21568
812.855	21709
812.997	21781
813.138	21941
813.279	21701
813.421	21595
813.562	21561
813.703	21374
813.845	21408
813.986	20979
814.127	20910
814.268	20765
814.41	20651
814.551	20701
814.692	20849
814.833	20625
814.974	20640
815.115	20758
815.256	20511
815.397	20575
815.539	20632
815.68	20438
815.821	20446
815.962	20560
816.103	20492
816.244	20434
816.385	20248
816.526	20282
816.666	20088
816.807	19814
816.948	19993
817.089	20027
817.23	20016
817.371	19845
817.512	19841
817.653	19898
817.793	19849
817.934	19837
818.075	19921
818.216	19917
818.356	19909
818.497	19830
818.638	19601
818.778	19704
818.919	19537
819.06	19616
819.2	19715
819.341	19807
819.481	19833
819.622	19845
819.762	19997
819.903	19970
820.043	19955
820.184	19871
820.324	19830
820.465	19928
820.605	19909
820.746	19849
820.886	19712
821.026	19830
821.167	19791
821.307	19944
821.447	19807
821.588	19689
821.728	19647
821.868	19464
822.008	19285
822.149	19320
822.289	19289
822.429	19072
822.569	18947
822.709	18951
822.849	18749
822.99	18833
823.13	18852
823.27	18627
823.41	18551
823.55	18597
823.69	18631
823.83	18650
823.97	18642
824.11	18319
824.25	18429
824.389	18403
824.529	18509
824.669	18445
824.809	18422
824.949	18464
825.089	18513
825.228	18448
825.368	18201
825.508	18064
825.648	18209
825.787	18171
825.927	18102
826.067	18095
826.206	18186
826.346	18087
826.485	18117
826.625	18102
826.765	18304
826.904	18220
827.044	17916
827.183	17828
827.323	17821
827.462	17916
827.601	17878
827.741	17851
827.88	17809
828.02	17802
828.159	17931
828.298	17832
828.437	17908
828.577	17817
828.716	17950
828.855	17821
828.994	17562
829.134	17642
829.273	17699
829.412	17577
829.551	17604
829.69	17562
829.829	17646
829.968	17581
830.107	17687
830.246	17585
830.385	17638
830.524	17444
830.663	17360
830.802	17258
830.941	17189
831.08	17284
831.219	17311
831.357	17258
831.496	17425
831.635	17250
831.774	17105
831.913	17128
832.051	17048
832.19	16953
832.329	17018
832.467	17098
832.606	16976
832.744	16942
832.883	16892
833.022	16900
833.16	16930
833.299	16961
833.437	16980
833.576	16980
833.714	16908
833.852	16972
833.991	16999
834.129	17014
834.267	16999
834.406	17018
834.544	17022
834.682	16934
834.821	16938
834.959	17094
835.097	17048
835.235	17079
835.373	17014
835.511	16953
835.65	16957
835.788	16858
835.926	16687
836.064	16626
836.202	16687
836.34	16911
836.478	17064
836.615	16816
836.753	16919
836.891	16995
837.029	16961
837.167	16866
837.305	16774
837.443	16835
837.58	16835
837.718	16786
837.856	16782
837.993	16645
838.131	16820
838.269	16729
838.406	16698
838.544	16626
838.681	16367
838.819	16462
838.956	16284
839.094	16337
839.231	16352
839.369	16379
839.506	16713
839.643	16573
839.781	16310
839.918	16284
840.055	16246
840.193	16299
840.33	16253
840.467	16287
840.604	16299
840.742	16558
840.879	16192
841.016	16299
841.153	16112
841.29	16363
841.427	16329
841.564	16223
841.701	16257
841.838	16181
841.975	16177
842.112	16131
842.249	16082
842.385	16082
842.522	16333
842.659	16169
842.796	15926
842.933	16059
843.069	16071
843.206	16036
843.343	16192
843.479	16051
843.616	16059
843.752	15922
843.889	15846
844.025	15991
844.162	15793
844.298	15949
844.435	15778
844.571	15861
844.708	15979
844.844	16051
844.98	15937
845.117	15987
845.253	15854
845.389	15755
845.525	15861
845.661	15895
845.798	15739
845.934	15915
846.07	15770
846.206	15857
846.342	15846
846.478	15686
846.614	15587
846.75	15477
846.886	15473
847.022	15507
847.158	15454
847.294	15450
847.429	15469
847.565	15325
847.701	15618
847.837	15310
847.972	15108
848.108	15291
848.244	15180
848.379	15108
848.515	15058
848.65	15013
848.786	15074
848.921	15055
849.057	15119
849.192	15180
849.328	15032
849.463	15020
849.598	14998
849.734	14960
849.869	14868
850.004	14838
850.14	14785
850.275	14864
850.41	14678
850.545	14769
850.68	14724
850.815	14971
850.95	14765
851.085	14952
851.22	14895
851.355	14815
851.49	14811
851.625	14807
851.76	14735
851.895	14712
852.03	14590
852.165	14762
852.299	14804
852.434	14921
852.569	14868
852.703	14925
852.838	14826
852.973	14994
853.107	14998
853.242	14777
853.376	14743
853.511	14488
853.645	14655
853.78	14773
853.914	14746
854.048	14636
854.183	14667
854.317	14682
854.451	14838
854.585	14625
854.72	14552
854.854	14720
854.988	14590
855.122	14648
855.256	14518
855.39	14644
855.524	14796
855.658	14754
855.792	14655
855.926	14689
856.06	14610
856.194	14762
856.327	14720
856.461	14552
856.595	14632
856.729	14746
856.862	14804
856.996	14617
857.13	14743
857.263	14838
857.397	14815
857.53	14743
857.664	14758
857.797	14819
857.931	14918
858.064	14720
858.197	14781
858.331	14773
858.464	14686
858.597	14613
858.731	14670
858.864	14667
858.997	14762
859.13	14705
859.263	14769
859.396	14765
859.529	14727
859.662	14636
859.795	14613
859.928	14758
860.061	14838
860.194	14948
860.327	14819
860.46	14712
860.592	14830
860.725	14872
860.858	14823
860.99	14678
861.123	14640
861.256	14632
861.388	14724
861.521	15386
861.653	14636
861.786	14499
861.918	14606
862.05	14606
862.183	14697
862.315	14693
862.447	14792
862.58	14636
862.712	14385
862.844	14423
862.976	14476
863.108	14587
863.24	14937
863.372	14415
863.504	14457
863.636	14396
863.768	14545
863.9	14564
864.032	14499
864.164	14412
864.296	14393
864.428	14610
864.559	14530
864.691	14423
864.823	14571
864.954	14522
865.086	14492
865.217	14385
865.349	14465
865.48	14442
865.612	14419
865.743	14629
865.875	14461
866.006	14415
866.137	14415
866.269	14499
866.4	14450
866.531	14347
866.662	14366
866.793	14370
866.924	14533
867.055	14400
867.186	14355
867.317	14370
867.448	14336
867.579	14385
867.71	14419
867.841	14381
867.972	14438
868.103	14518
868.233	14552
868.364	14434
868.495	14602
868.625	14648
868.756	14727
868.886	14606
869.017	14651
869.147	14834
869.278	14807
869.408	14743
869.539	14708
869.669	14849
869.799	14792
869.929	14861
870.06	14754
870.19	14941
870.32	15043
870.45	15024
870.58	15104
870.71	15123
870.84	15165
870.97	15157
871.1	15055
871.23	15275
871.36	15214
871.489	15211
871.619	15313
871.749	15340
871.879	15363
872.008	15382
872.138	15272
872.267	15325
872.397	15043
872.526	15062
872.656	15062
872.785	15154
872.915	15329
873.044	15389
873.173	15165
873.303	15401
873.432	15393
873.561	15538
873.69	15321
873.819	15329
873.948	15447
874.077	15317
874.206	15431
874.335	15370
874.464	15504
874.593	15705
874.722	15576
874.851	15660
874.979	15679
875.108	15587
875.237	15606
875.365	15595
875.494	15591
875.623	15682
875.751	15656
875.88	15739
876.008	15899
876.136	15812
876.265	16097
876.393	16246
876.521	16135
876.65	16078
876.778	16074
876.906	16074
877.034	16036
877.162	16006
877.29	16017
877.418	16093
877.546	16059
877.674	16006
877.802	16105
877.93	15983
878.058	16051
878.185	16059
878.313	15991
878.441	16021
878.568	15850
878.696	16048
878.824	16131
878.951	16147
879.079	16253
879.206	16440
879.333	16280
879.461	16226
879.588	16139
879.715	16375
879.842	16306
879.97	16265
880.097	15956
880.224	15880
880.351	15903
880.478	15934
880.605	15789
880.732	15922
880.859	16124
880.986	15926
881.112	15983
881.239	15823
881.366	15622
881.493	15564
881.619	15644
881.746	15595
881.872	15606
881.999	15584
882.125	15519
882.252	15504
882.378	15622
882.505	15766
882.631	15523
882.757	15420
882.883	15431
883.01	15500
883.136	15272
883.262	15275
883.388	15195
883.514	15397
883.64	15466
883.766	15287
883.892	15180
884.018	15283
884.143	15412
884.269	15428
884.395	15192
884.52	15119
884.646	15211
884.772	15116
884.897	14963
885.023	15066
885.148	15192
885.274	15214
885.399	15214
885.524	15161
885.65	15085
885.775	15074
885.9	14979
886.025	15165
886.15	15100
886.275	15058
886.4	15009
886.525	15074
886.65	15020
886.775	15020
886.9	15214
887.025	15355
887.149	15097
887.274	14967
887.399	14906
887.523	14982
887.648	14876
887.773	14842
887.897	14963
888.021	14933
888.146	14948
888.27	15005
888.395	14925
888.519	14925
888.643	14975
888.767	15013
888.891	14788
889.015	14800
889.139	14876
889.263	14823
889.387	14891
889.511	14963
889.635	14861
889.759	14720
889.883	14682
890.006	14773
890.13	14956
890.254	14727
890.377	14716
890.501	14530
890.624	14518
890.748	14575
890.871	14438
890.995	14396
891.118	14434
891.241	14465
891.364	14454
891.488	14625
891.611	14454
891.734	14434
891.857	14511
891.98	14476
892.103	14560
892.226	14450
892.349	14495
892.471	14248
892.594	14415
892.717	14454
892.839	14431
892.962	14461
893.085	14499
893.207	14545
893.33	14457
893.452	14393
893.575	14499
893.697	14324
893.819	14579
893.941	14682
894.064	14632
894.186	14412
894.308	14476
894.43	14412
894.552	14606
894.674	14514
894.796	14358
894.918	14461
895.04	14454
895.161	14663
895.283	14575
895.405	14511
895.526	14469
895.648	14476
895.769	14518
895.891	14560
896.012	14727
896.134	14629
896.255	14629
896.376	14552
896.498	14571
896.619	14602
896.74	14655
896.861	14811
896.982	14902
897.103	15055
897.224	14929
897.345	14872
897.466	14781
897.587	14762
897.708	15020
897.828	14960
897.949	14845
898.07	14823
898.19	14868
898.311	15001
898.431	14944
898.552	14944
898.672	15051
898.792	15085
898.913	14986
899.033	14902
899.153	14796
899.273	14739
899.393	14731
899.513	14845
899.633	14804
899.753	14819
899.873	14670
899.993	14948
900.113	14842
900.232	14815
900.352	14788
900.472	14678
900.591	14644
900.711	14716
900.83	14617
900.95	14705
901.069	14765
901.189	14522
901.308	14381
901.427	14259
901.546	14332
901.665	14408
901.784	14393
901.904	14210
902.023	14016
902.141	13974
902.26	13936
902.379	13928
902.498	13856
902.617	13902
902.735	14043
902.854	13887
902.973	13799
903.091	13670
903.21	13567
903.328	13670
903.446	13510
903.565	13506
903.683	13487
903.801	13331
903.919	13396
904.038	13381
904.156	13343
904.274	13445
904.392	13247
904.51	13346
904.627	13285
904.745	13308
904.863	13365
904.981	13110
905.098	12939
905.216	12916
905.334	12966
905.451	12981
905.569	12916
905.686	13034
905.803	12954
905.921	12817
906.038	12833
906.155	12871
906.272	12719
906.389	12688
906.506	12483
906.623	12525
906.74	12464
906.857	12555
906.974	12422
907.091	12578
907.208	12650
907.324	12585
907.441	12448
907.557	12357
907.674	12216
907.79	12273
907.907	12197
908.023	12292
908.139	12289
908.256	12209
908.372	12247
908.488	12102
908.604	12026
908.72	11996
908.836	12022
908.952	12064
909.068	12057
909.184	12129
909.3	12026
909.415	12110
909.531	12030
909.647	11870
909.762	11783
909.878	11764
909.993	11885
910.108	11798
910.224	11882
910.339	11802
910.454	11661
910.57	11665
910.685	11627
910.8	11904
910.915	11866
911.03	11726
911.145	11558
911.259	11490
911.374	11532
911.489	11463
911.604	11440
911.718	11273
911.833	11296
911.947	11201
912.062	10999
912.176	11239
912.291	11189
912.405	11246
912.519	11474
912.633	11482
912.748	11372
912.862	11235
912.976	11124
913.09	10991
913.204	11117
913.318	11090
913.431	11216
913.545	11216
913.659	11235
913.772	11201
913.886	11064
914	10942
914.113	11067
914.226	11056
914.34	11048
914.453	10999
914.566	11094
914.68	10942
914.793	11056
914.906	10767
915.019	10599
915.132	10672
915.245	10759
915.358	10801
915.47	10805
915.583	10759
915.696	10835
915.809	10877
915.921	10866
916.034	10748
916.146	10656
916.259	10622
916.371	10740
916.483	10782
916.595	10660
916.708	10634
916.82	10668
916.932	10675
917.044	10698
917.156	10592
917.268	10478
917.38	10584
917.491	10497
917.603	10630
917.715	10599
917.826	10653
917.938	10618
918.049	10424
918.161	10538
918.272	10710
918.384	10675
918.495	10626
918.606	10459
918.717	10356
918.828	10367
918.939	10466
919.05	10341
919.161	10394
919.272	10124
919.383	10303
919.494	10481
919.604	10580
919.715	10424
919.826	10443
919.936	10352
920.047	10504
920.157	10436
920.267	10641
920.378	10474
920.488	10443
920.598	10599
920.708	10797
920.818	10630
920.928	10649
921.038	10809
921.148	10812
921.258	10531
921.368	10417
921.477	10394
921.587	10280
921.697	10192
921.806	10356
921.916	10169
922.025	10086
922.134	10013
922.244	9884
922.353	9949
922.462	9899
922.571	9846
922.68	9740
922.789	9682
922.898	9732
923.007	9637
923.116	9709
923.224	9736
923.333	9667
923.442	9580
923.55	9595
923.659	9610
923.767	9679
923.876	9542
923.984	9557
924.092	9534
924.201	9584
924.309	9549
924.417	9622
924.525	9504
924.633	9595
924.741	10291
924.849	9363
924.956	9526
925.064	9397
925.172	9260
925.279	9386
925.387	9386
925.494	9397
925.602	9515
925.709	9420
925.816	9310
925.924	9389
926.031	9435
926.138	9332
926.245	9443
926.352	9344
926.459	9389
926.566	9469
926.673	9344
926.779	9237
926.886	9279
926.993	9119
927.099	9028
927.206	9032
927.312	8956
927.419	9070
927.525	9032
927.631	9169
927.737	9051
927.843	8975
927.95	8887
928.056	8880
928.162	8982
928.267	9032
928.373	9622
928.479	9123
928.585	8921
928.69	8960
928.796	8956
928.901	8834
929.007	8731
929.112	8872
929.218	8807
929.323	8781
929.428	8727
929.533	8952
929.638	8716
929.743	8750
929.848	8853
929.953	8712
930.058	8731
930.163	8507
930.267	8492
930.372	8651
930.477	8469
930.581	8815
930.685	8606
930.79	8461
930.894	8450
930.998	8514
931.103	8621
931.207	8282
931.311	8199
931.415	8096
931.519	8050
931.623	7959
