Data from test_V78500241_533.txt Node
Date: Fri Mar 25 14:37:25 CST 2022
User: usil
Spectrometer: V785-0024
Trigger mode: 0
Integration Time (sec): 4.000000E-1
Scans to average: 1
Nonlinearity correction enabled: false
Boxcar width: 0
Storing dark spectrum: false
XAxis mode: Wavelengths
Number of Pixels in Spectrum: 1024
>>>>>Begin Spectral Data<<<<<
801.071	27355
801.214	27302
801.356	27024
801.499	26838
801.641	26678
801.783	26773
801.926	26762
802.068	26689
802.211	26457
802.353	26492
802.496	26229
802.638	26240
802.78	26256
802.923	26153
803.065	26043
803.208	26199
803.35	26233
803.492	26267
803.635	26313
803.777	26164
803.919	26256
804.061	26495
804.204	26381
804.346	26263
804.488	26172
804.63	26191
804.773	26172
804.915	26298
805.057	26511
805.199	26328
805.341	26434
805.483	26385
805.626	26347
805.768	26290
805.91	26537
806.052	26556
806.194	26492
806.336	26602
806.478	26640
806.62	26552
806.762	26925
806.904	27077
807.046	27469
807.188	27401
807.33	27458
807.472	27606
807.614	27983
807.756	28128
807.898	28455
808.04	28717
808.182	29292
808.324	30266
808.465	31160
808.607	32199
808.749	33104
808.891	33591
809.033	33580
809.174	32906
809.316	32024
809.458	31152
809.6	30068
809.741	29406
809.883	28729
810.025	28451
810.166	28135
810.308	27903
810.45	27709
810.591	27507
810.733	27203
810.875	27180
811.016	26868
811.158	26842
811.299	26948
811.441	26982
811.582	26986
811.724	26811
811.865	26811
812.007	26716
812.148	26720
812.29	26682
812.431	26804
812.573	26906
812.714	27017
812.855	27039
812.997	27184
813.138	27370
813.279	27116
813.421	27116
813.562	26921
813.703	26754
813.845	26708
813.986	26503
814.127	26286
814.268	26069
814.41	26111
814.551	26107
814.692	26081
814.833	25978
814.974	25986
815.115	25932
815.256	25875
815.397	25837
815.539	25761
815.68	25696
815.821	25685
815.962	25765
816.103	25700
816.244	25559
816.385	25468
816.526	25403
816.666	25232
816.807	25084
816.948	25114
817.089	25221
817.23	25122
817.371	25088
817.512	25027
817.653	25065
817.793	24943
817.934	24939
818.075	25000
818.216	25027
818.356	25000
818.497	24977
818.638	24738
818.778	24700
818.919	24715
819.06	24738
819.2	24711
819.341	25004
819.481	24806
819.622	25061
819.762	25354
819.903	25206
820.043	25084
820.184	24992
820.324	25057
820.465	24973
820.605	24924
820.746	24947
820.886	24749
821.026	24863
821.167	24833
821.307	24901
821.447	24776
821.588	24772
821.728	24669
821.868	24319
822.008	24186
822.149	24239
822.289	24277
822.429	23961
822.569	23965
822.709	23882
822.849	23680
822.99	23870
823.13	23627
823.27	23661
823.41	23577
823.55	23448
823.69	23634
823.83	23543
823.97	23429
824.11	23258
824.25	23254
824.389	23227
824.529	23288
824.669	23269
824.809	23273
824.949	23299
825.089	23269
825.228	23436
825.368	23075
825.508	23098
825.648	23067
825.787	23010
825.927	23166
826.067	22984
826.206	22980
826.346	22968
826.485	22995
826.625	22972
826.765	23109
826.904	23041
827.044	22809
827.183	22862
827.323	22691
827.462	22713
827.601	22797
827.741	22744
827.88	22675
828.02	22641
828.159	22618
828.298	22752
828.437	22683
828.577	22664
828.716	22607
828.855	22687
828.994	22299
829.134	22417
829.273	22394
829.412	22356
829.551	22360
829.69	22299
829.829	22375
829.968	22451
830.107	22291
830.246	22280
830.385	22322
830.524	22371
830.663	22200
830.802	22112
830.941	21994
831.08	21953
831.219	22029
831.357	22070
831.496	22154
831.635	21945
831.774	21831
831.913	21812
832.051	21819
832.19	21846
832.329	21816
832.467	21614
832.606	21572
832.744	21739
832.883	21614
833.022	21614
833.16	21705
833.299	21732
833.437	21739
833.576	21842
833.714	21778
833.852	21983
833.991	22067
834.129	22070
834.267	22063
834.406	21915
834.544	21930
834.682	21888
834.821	21854
834.959	21926
835.097	21800
835.235	21751
835.373	21629
835.511	21785
835.65	21599
835.788	21507
835.926	21408
836.064	21302
836.202	21302
836.34	21443
836.478	21618
836.615	21466
836.753	21511
836.891	21568
837.029	21523
837.167	21325
837.305	21485
837.443	21336
837.58	21142
837.718	21272
837.856	21332
837.993	21237
838.131	21302
838.269	21127
838.406	21203
838.544	21112
838.681	20902
838.819	20895
838.956	20769
839.094	20743
839.231	20815
839.369	20891
839.506	21112
839.643	20902
839.781	20785
839.918	20724
840.055	20735
840.193	20769
840.33	20644
840.467	20697
840.604	20602
840.742	20956
840.879	20549
841.016	20568
841.153	20473
841.29	20765
841.427	20636
841.564	20701
841.701	20708
841.838	20541
841.975	20632
842.112	20476
842.249	20434
842.385	20381
842.522	20587
842.659	20480
842.796	20419
842.933	20343
843.069	20362
843.206	20415
843.343	20434
843.479	20412
843.616	20450
843.752	20168
843.889	20263
844.025	20343
844.162	20286
844.298	20267
844.435	20358
844.571	20336
844.708	20427
844.844	20708
844.98	20743
845.117	20853
845.253	21108
845.389	21641
845.525	22481
845.661	23969
845.798	25830
845.934	27679
846.07	28284
846.206	28147
846.342	26906
846.478	24825
846.614	22839
846.75	21690
846.886	20906
847.022	20636
847.158	20286
847.294	20039
847.429	19963
847.565	19791
847.701	20012
847.837	19441
847.972	19426
848.108	19567
848.244	19502
848.379	19251
848.515	19175
848.65	19244
848.786	19183
848.921	19270
849.057	19335
849.192	19244
849.328	19270
849.463	19137
849.598	19084
849.734	19053
849.869	19118
850.004	19053
850.14	18943
850.275	18905
850.41	18913
850.545	18840
850.68	18859
850.815	18981
850.95	18916
851.085	19137
851.22	18989
851.355	18905
851.49	18852
851.625	18837
851.76	18871
851.895	18886
852.03	18760
852.165	18920
852.299	18875
852.434	18985
852.569	18897
852.703	19004
852.838	19004
852.973	19034
853.107	19019
853.242	18783
853.376	18730
853.511	18665
853.645	18844
853.78	18935
853.914	18916
854.048	18779
854.183	18757
854.317	18772
854.451	19019
854.585	18844
854.72	18840
854.854	18821
854.988	18684
855.122	18817
855.256	18684
855.39	18669
855.524	18734
855.658	18844
855.792	18844
855.926	18738
856.06	18760
856.194	18897
856.327	18753
856.461	18620
856.595	18734
856.729	18749
856.862	18856
856.996	18715
857.13	18829
857.263	18882
857.397	18776
857.53	18631
857.664	18734
857.797	18810
857.931	18741
858.064	18814
858.197	18863
858.331	18570
858.464	18616
858.597	18486
858.731	18608
858.864	18681
858.997	18627
859.13	18627
859.263	18612
859.396	18768
859.529	18646
859.662	18654
859.795	18593
859.928	18661
860.061	18707
860.194	18753
860.327	18623
860.46	18612
860.592	18700
860.725	18688
860.858	18768
860.99	18585
861.123	18513
861.256	18540
861.388	18620
861.521	19301
861.653	18460
861.786	18376
861.918	18433
862.05	18521
862.183	18639
862.315	18661
862.447	18734
862.58	18711
862.712	18441
862.844	18391
862.976	18460
863.108	18327
863.24	18776
863.372	18251
863.504	18376
863.636	18399
863.768	18372
863.9	18300
864.032	18220
864.164	18174
864.296	18281
864.428	18399
864.559	18323
864.691	18361
864.823	18384
864.954	18292
865.086	18311
865.217	18304
865.349	18220
865.48	18262
865.612	18258
865.743	18350
865.875	18266
866.006	18174
866.137	18243
866.269	18300
866.4	18270
866.531	18155
866.662	18197
866.793	18083
866.924	18140
867.055	18289
867.186	18121
867.317	18140
867.448	18171
867.579	18148
867.71	18095
867.841	18019
867.972	18224
868.103	18197
868.233	18220
868.364	18213
868.495	18239
868.625	18452
868.756	18601
868.886	18357
869.017	18342
869.147	18555
869.278	18616
869.408	18506
869.539	18399
869.669	18555
869.799	18369
869.929	18555
870.06	18555
870.19	18604
870.32	18772
870.45	18848
870.58	18859
870.71	18867
870.84	18905
870.97	18894
871.1	18916
871.23	19069
871.36	19103
871.489	18951
871.619	19027
871.749	19034
871.879	19160
872.008	19179
872.138	19038
872.267	19065
872.397	18981
872.526	18954
872.656	18977
872.785	18901
872.915	19076
873.044	19217
873.173	19145
873.303	19190
873.432	19217
873.561	19236
873.69	19183
873.819	19190
873.948	19179
874.077	19133
874.206	19156
874.335	19190
874.464	19377
874.593	19506
874.722	19556
874.851	19651
874.979	19582
875.108	19708
875.237	19373
875.365	19514
875.494	19525
875.623	19613
875.751	19582
875.88	19578
876.008	19658
876.136	19879
876.265	19978
876.393	20206
876.521	20107
876.65	20142
876.778	19951
876.906	20115
877.034	20084
877.162	20100
877.29	20043
877.418	20294
877.546	20278
877.674	20134
877.802	20172
877.93	20301
878.058	20328
878.185	20305
878.313	20351
878.441	20579
878.568	20636
878.696	20686
878.824	21013
878.951	21382
879.079	21987
879.206	22580
879.333	23242
879.461	23535
879.588	24125
879.715	24159
879.842	24057
879.97	23079
880.097	22337
880.224	21831
880.351	21595
880.478	21161
880.605	21138
880.732	20853
880.859	21154
880.986	20823
881.112	20845
881.239	20727
881.366	20518
881.493	20469
881.619	20400
881.746	20438
881.872	20434
881.999	20366
882.125	20415
882.252	20575
882.378	20499
882.505	20632
882.631	20488
882.757	20164
882.883	20351
883.01	20256
883.136	20244
883.262	20210
883.388	20092
883.514	20244
883.64	20214
883.766	20214
883.892	20062
884.018	19951
884.143	20225
884.269	20374
884.395	20058
884.52	19936
884.646	20012
884.772	19814
884.897	19875
885.023	19944
885.148	19913
885.274	20050
885.399	19883
885.524	19818
885.65	19803
885.775	19833
885.9	19696
886.025	19807
886.15	19772
886.275	19670
886.4	19495
886.525	19544
886.65	19339
886.775	19514
886.9	19480
887.025	19575
887.149	19335
887.274	19171
887.399	19164
887.523	19091
887.648	18981
887.773	18943
887.897	19046
888.021	19034
888.146	18905
888.27	18958
888.395	19008
888.519	19027
888.643	18916
888.767	19038
888.891	18852
889.015	18757
889.139	18730
889.263	18722
889.387	18726
889.511	18878
889.635	18802
889.759	18639
889.883	18665
890.006	18741
890.13	18688
890.254	18623
890.377	18517
890.501	18380
890.624	18338
890.748	18426
890.871	18224
890.995	18152
891.118	18194
891.241	18289
891.364	18152
891.488	18209
891.611	18072
891.734	18174
891.857	18201
891.98	18155
892.103	18216
892.226	18091
892.349	18034
892.471	17920
892.594	18003
892.717	18015
892.839	17965
892.962	18007
893.085	18106
893.207	18022
893.33	17866
893.452	17904
893.575	18038
893.697	17912
893.819	18110
893.941	18072
894.064	18178
894.186	18015
894.308	17882
894.43	17992
894.552	18110
894.674	17996
894.796	17760
894.918	17931
895.04	17901
895.161	17996
895.283	17935
895.405	17863
895.526	17843
895.648	17866
895.769	17977
895.891	17973
896.012	17908
896.134	17973
896.255	18019
896.376	17912
896.498	17939
896.619	17920
896.74	17992
896.861	18011
896.982	18270
897.103	18330
897.224	18266
897.345	18190
897.466	18140
897.587	18136
897.708	18350
897.828	18174
897.949	18098
898.07	17897
898.19	18121
898.311	18228
898.431	18140
898.552	18163
898.672	18235
898.792	18296
898.913	18174
899.033	18041
899.153	17920
899.273	17923
899.393	17821
899.513	18049
899.633	17901
899.753	17961
899.873	17878
899.993	18015
900.113	17821
900.232	17996
900.352	17893
900.472	17786
900.591	17695
900.711	17840
900.83	17748
900.95	17817
901.069	17817
901.189	17748
901.308	17448
901.427	17417
901.546	17364
901.665	17433
901.784	17360
901.904	17208
902.023	17159
902.141	17132
902.26	17067
902.379	16946
902.498	16877
902.617	16805
902.735	17014
902.854	16771
902.973	16755
903.091	16519
903.21	16546
903.328	16493
903.446	16451
903.565	16230
903.683	16360
903.801	16215
903.919	16287
904.038	16299
904.156	16219
904.274	16105
904.392	16158
904.51	16078
904.627	16162
904.745	16169
904.863	16192
904.981	15994
905.098	15770
905.216	15660
905.334	15781
905.451	15793
905.569	15682
905.686	15842
905.803	15682
905.921	15496
906.038	15660
906.155	15637
906.272	15408
906.389	15485
906.506	15329
906.623	15336
906.74	15230
906.857	15233
906.974	15211
907.091	15363
907.208	15321
907.324	15310
907.441	15230
907.557	15036
907.674	14990
907.79	14891
907.907	14902
908.023	14979
908.139	14979
908.256	14982
908.372	14864
908.488	14868
908.604	14765
908.72	14743
908.836	14682
908.952	14644
909.068	14689
909.184	14838
909.3	14720
909.415	14701
909.531	14655
909.647	14415
909.762	14438
909.878	14415
909.993	14374
910.108	14408
910.224	14408
910.339	14298
910.454	14282
910.57	14164
910.685	14229
910.8	14442
910.915	14408
911.03	14142
911.145	14001
911.259	14050
911.374	13982
911.489	13947
911.604	13871
911.718	13791
911.833	13826
911.947	13696
912.062	13666
912.176	13719
912.291	13864
912.405	13772
912.519	13887
912.633	13951
912.748	13742
912.862	13757
912.976	13662
913.09	13510
913.204	13563
913.318	13639
913.431	13681
913.545	13693
913.659	13719
913.772	13601
913.886	13575
914	13396
914.113	13582
914.226	13529
914.34	13468
914.453	13343
914.566	13559
914.68	13396
914.793	13358
914.906	13202
915.019	13057
915.132	13103
915.245	13145
915.358	13168
915.47	13118
915.583	13095
915.696	13122
915.809	13236
915.921	13247
916.034	13198
916.146	12996
916.259	13038
916.371	13168
916.483	13141
916.595	12996
916.708	13103
916.82	13061
916.932	13008
917.044	13027
917.156	13027
917.268	12844
917.38	12916
917.491	12821
917.603	12886
917.715	12901
917.826	12970
917.938	12730
918.049	12707
918.161	12776
918.272	12894
918.384	12909
918.495	12848
918.606	12722
918.717	12631
918.828	12627
918.939	12658
919.05	12574
919.161	12620
919.272	12403
919.383	12410
919.494	12688
919.604	12753
919.715	12620
919.826	12513
919.936	12525
920.047	12703
920.157	12585
920.267	12776
920.378	12620
920.488	12627
920.598	12878
920.708	12935
920.818	12741
920.928	12749
921.038	12875
921.148	12852
921.258	12566
921.368	12585
921.477	12426
921.587	12388
921.697	12247
921.806	12346
921.916	12262
922.025	12117
922.134	12045
922.244	11980
922.353	12079
922.462	11832
922.571	11897
922.68	11699
922.789	11604
922.898	11718
923.007	11737
923.116	11756
923.224	11680
923.333	11619
923.442	11604
923.55	11444
923.659	11562
923.767	11600
923.876	11539
923.984	11551
924.092	11440
924.201	11463
924.309	11414
924.417	11474
924.525	11467
924.633	11486
924.741	12201
924.849	11239
924.956	11406
925.064	11330
925.172	11086
925.279	11212
925.387	11189
925.494	11212
925.602	11326
925.709	11223
925.816	11147
925.924	11132
926.031	11410
926.138	11204
926.245	11189
926.352	11185
926.459	11250
926.566	11311
926.673	11109
926.779	11025
926.886	10991
926.993	10843
927.099	10858
927.206	10866
927.312	10740
927.419	10854
927.525	10862
927.631	10831
927.737	10752
927.843	10710
927.95	10618
928.056	10710
928.162	10679
928.267	10653
928.373	11254
928.479	10797
928.585	10569
928.69	10816
928.796	10675
928.901	10630
929.007	10459
929.112	10603
929.218	10660
929.323	10535
929.428	10474
929.533	10649
929.638	10527
929.743	10519
929.848	10402
929.953	10390
930.058	10382
930.163	10200
930.267	10169
930.372	10363
930.477	10166
930.581	10421
930.685	10177
930.79	10116
930.894	10055
930.998	10109
931.103	10238
931.207	9911
931.311	9800
931.415	9682
931.519	9500
931.623	9538
