Data from test_V78500241_2342.txt Node
Date: Fri Mar 25 14:50:01 CST 2022
User: usil
Spectrometer: V785-0024
Trigger mode: 0
Integration Time (sec): 4.000000E-1
Scans to average: 1
Nonlinearity correction enabled: false
Boxcar width: 0
Storing dark spectrum: false
XAxis mode: Wavelengths
Number of Pixels in Spectrum: 1024
>>>>>Begin Spectral Data<<<<<
801.071	22124
801.214	22017
801.356	21762
801.499	21762
801.641	21583
801.783	21507
801.926	21519
802.068	21519
802.211	21370
802.353	21329
802.496	21169
802.638	21039
802.78	20963
802.923	21036
803.065	20815
803.208	20830
803.35	20918
803.492	21024
803.635	21032
803.777	20849
803.919	20982
804.061	21237
804.204	20944
804.346	20823
804.488	20674
804.63	20853
804.773	20762
804.915	20796
805.057	20937
805.199	20796
805.341	20826
805.483	20937
805.626	20891
805.768	20629
805.91	20792
806.052	20792
806.194	20765
806.336	20944
806.478	20819
806.62	20651
806.762	20800
806.904	20998
807.046	21226
807.188	21036
807.33	21096
807.472	21173
807.614	21020
807.756	21138
807.898	20933
808.04	20845
808.182	20880
808.324	20914
808.465	20906
808.607	21043
808.749	21161
808.891	21272
809.033	21317
809.174	21203
809.316	21119
809.458	21142
809.6	21138
809.741	21249
809.883	21283
810.025	21340
810.166	21283
810.308	21332
810.45	21329
810.591	21195
810.733	21104
810.875	20876
811.016	20811
811.158	20910
811.299	20994
811.441	20979
811.582	21108
811.724	20994
811.865	20906
812.007	20929
812.148	20864
812.29	21009
812.431	21154
812.573	21294
812.714	21268
812.855	21435
812.997	21511
813.138	21667
813.279	21618
813.421	21397
813.562	21192
813.703	21264
813.845	21036
813.986	20868
814.127	20488
814.268	20609
814.41	20670
814.551	20571
814.692	20469
814.833	20366
814.974	20434
815.115	20541
815.256	20351
815.397	20290
815.539	20343
815.68	20286
815.821	20244
815.962	20145
816.103	20202
816.244	20008
816.385	20039
816.526	19856
816.666	19890
816.807	19635
816.948	19689
817.089	19666
817.23	19674
817.371	19594
817.512	19628
817.653	19506
817.793	19540
817.934	19491
818.075	19548
818.216	19635
818.356	19392
818.497	19510
818.638	19293
818.778	19202
818.919	19358
819.06	19339
819.2	19407
819.341	19472
819.481	19480
819.622	19613
819.762	19750
819.903	19582
820.043	19719
820.184	19544
820.324	19605
820.465	19597
820.605	19537
820.746	19689
820.886	19358
821.026	19628
821.167	19453
821.307	19605
821.447	19567
821.588	19301
821.728	19373
821.868	19228
822.008	18981
822.149	19118
822.289	19038
822.429	18700
822.569	18612
822.709	18745
822.849	18601
822.99	18460
823.13	18540
823.27	18429
823.41	18380
823.55	18243
823.69	18414
823.83	18376
823.97	18277
824.11	18057
824.25	17996
824.389	18072
824.529	18125
824.669	17988
824.809	18239
824.949	18076
825.089	18178
825.228	18091
825.368	17889
825.508	17923
825.648	17851
825.787	17901
825.927	17889
826.067	17760
826.206	17863
826.346	17912
826.485	17813
826.625	17927
826.765	17988
826.904	17802
827.044	17562
827.183	17395
827.323	17627
827.462	17566
827.601	17630
827.741	17524
827.88	17539
828.02	17455
828.159	17558
828.298	17448
828.437	17707
828.577	17467
828.716	17668
828.855	17490
828.994	17341
829.134	17318
829.273	17296
829.412	17223
829.551	17273
829.69	17250
829.829	17341
829.968	17391
830.107	17299
830.246	17284
830.385	17292
830.524	17235
830.663	17083
830.802	17060
830.941	16892
831.08	16900
831.219	16949
831.357	17033
831.496	17041
831.635	16934
831.774	16801
831.913	16668
832.051	16725
832.19	16607
832.329	16713
832.467	16618
832.606	16558
832.744	16603
832.883	16584
833.022	16569
833.16	16565
833.299	16584
833.437	16550
833.576	16706
833.714	16527
833.852	16615
833.991	16736
834.129	16664
834.267	16607
834.406	16599
834.544	16683
834.682	16675
834.821	16660
834.959	16774
835.097	16618
835.235	16618
835.373	16618
835.511	16584
835.65	16519
835.788	16527
835.926	16459
836.064	16268
836.202	16360
836.34	16554
836.478	16607
836.615	16459
836.753	16542
836.891	16664
837.029	16493
837.167	16519
837.305	16546
837.443	16379
837.58	16394
837.718	16459
837.856	16436
837.993	16291
838.131	16379
838.269	16325
838.406	16367
838.544	16150
838.681	16010
838.819	16150
838.956	15930
839.094	15915
839.231	15979
839.369	16105
839.506	16371
839.643	16147
839.781	16067
839.918	15915
840.055	16006
840.193	15949
840.33	15888
840.467	15937
840.604	16036
840.742	16078
840.879	15682
841.016	15823
841.153	15770
841.29	16078
841.427	15975
841.564	15960
841.701	15975
841.838	15880
841.975	15789
842.112	15797
842.249	15766
842.385	15622
842.522	15907
842.659	15698
842.796	15648
842.933	15694
843.069	15622
843.206	15694
843.343	15793
843.479	15743
843.616	15682
843.752	15450
843.889	15431
844.025	15652
844.162	15526
844.298	15610
844.435	15553
844.571	15545
844.708	15641
844.844	15564
844.98	15564
845.117	15618
845.253	15549
845.389	15340
845.525	15454
845.661	15401
845.798	15283
845.934	15405
846.07	15207
846.206	15291
846.342	15397
846.478	15241
846.614	15157
846.75	15062
846.886	14921
847.022	15123
847.158	15119
847.294	15241
847.429	15055
847.565	15104
847.701	15230
847.837	14735
847.972	14849
848.108	14861
848.244	14743
848.379	14735
848.515	14754
848.65	14594
848.786	14644
848.921	14640
849.057	14701
849.192	14727
849.328	14659
849.463	14712
849.598	14708
849.734	14552
849.869	14503
850.004	14473
850.14	14476
850.275	14454
850.41	14320
850.545	14358
850.68	14465
850.815	14377
850.95	14492
851.085	14484
851.22	14473
851.355	14488
851.49	14454
851.625	14355
851.76	14370
851.895	14366
852.03	14233
852.165	14484
852.299	14374
852.434	14454
852.569	14503
852.703	14412
852.838	14499
852.973	14583
853.107	14514
853.242	14366
853.376	14336
853.511	14206
853.645	14252
853.78	14454
853.914	14332
854.048	14298
854.183	14229
854.317	14343
854.451	14431
854.585	14225
854.72	14233
854.854	14339
854.988	14157
855.122	14244
855.256	14081
855.39	14305
855.524	14366
855.658	14317
855.792	14347
855.926	14404
856.06	14336
856.194	14423
856.327	14233
856.461	14244
856.595	14320
856.729	14328
856.862	14294
856.996	14195
857.13	14427
857.263	14393
857.397	14415
857.53	14298
857.664	14324
857.797	14355
857.931	14454
858.064	14366
858.197	14339
858.331	14298
858.464	14199
858.597	14195
858.731	14278
858.864	14278
858.997	14164
859.13	14267
859.263	14328
859.396	14396
859.529	14271
859.662	14244
859.795	14309
859.928	14404
860.061	14446
860.194	14495
860.327	14317
860.46	14313
860.592	14457
860.725	14412
860.858	14393
860.99	14252
861.123	14305
861.256	14225
861.388	14282
861.521	14826
861.653	14187
861.786	14103
861.918	14149
862.05	14214
862.183	14275
862.315	14267
862.447	14370
862.58	14237
862.712	14084
862.844	14020
862.976	14180
863.108	14149
863.24	14488
863.372	14043
863.504	14111
863.636	14016
863.768	14172
863.9	14157
864.032	14062
864.164	13989
864.296	14164
864.428	14267
864.559	14195
864.691	14202
864.823	14130
864.954	14088
865.086	14195
865.217	14035
865.349	13963
865.48	14077
865.612	14043
865.743	14172
865.875	14107
866.006	14039
866.137	14027
866.269	14107
866.4	14005
866.531	14024
866.662	13967
866.793	13928
866.924	14039
867.055	14062
867.186	14054
867.317	13944
867.448	14062
867.579	13932
867.71	13986
867.841	13963
867.972	14081
868.103	14008
868.233	14065
868.364	14073
868.495	14016
868.625	14256
868.756	14355
868.886	14233
869.017	14267
869.147	14320
869.278	14431
869.408	14339
869.539	14385
869.669	14434
869.799	14324
869.929	14408
870.06	14450
870.19	14549
870.32	14564
870.45	14648
870.58	14697
870.71	14826
870.84	14811
870.97	14754
871.1	14674
871.23	14933
871.36	14906
871.489	14906
871.619	14861
871.749	14857
871.879	15032
872.008	15017
872.138	14941
872.267	14861
872.397	14796
872.526	14651
872.656	14705
872.785	14746
872.915	14838
873.044	14986
873.173	14891
873.303	14944
873.432	15009
873.561	14960
873.69	15020
873.819	14823
873.948	14963
874.077	15032
874.206	14975
874.335	14902
874.464	15161
874.593	15214
874.722	15142
874.851	15245
874.979	15310
875.108	15310
875.237	15142
875.365	15245
875.494	15237
875.623	15363
875.751	15241
875.88	15332
876.008	15473
876.136	15488
876.265	15774
876.393	15728
876.521	15831
876.65	15717
876.778	15644
876.906	15698
877.034	15652
877.162	15622
877.29	15492
877.418	15606
877.546	15690
877.674	15747
877.802	15701
877.93	15705
878.058	15667
878.185	15545
878.313	15637
878.441	15568
878.568	15561
878.696	15580
878.824	15644
878.951	15797
879.079	15888
879.206	16078
879.333	15926
879.461	15637
879.588	15751
879.715	15827
879.842	16010
879.97	15842
880.097	15564
880.224	15538
880.351	15534
880.478	15545
880.605	15523
880.732	15500
880.859	15762
880.986	15580
881.112	15553
881.239	15412
881.366	15317
881.493	15272
881.619	15188
881.746	15222
881.872	15230
881.999	15203
882.125	15176
882.252	15142
882.378	15211
882.505	15222
882.631	15051
882.757	14975
882.883	15024
883.01	15047
883.136	15013
883.262	14857
883.388	14887
883.514	14994
883.64	15077
883.766	14944
883.892	14910
884.018	14811
884.143	15017
884.269	15077
884.395	14765
884.52	14651
884.646	14621
884.772	14663
884.897	14701
885.023	14712
885.148	14765
885.274	14918
885.399	14853
885.524	14716
885.65	14693
885.775	14712
885.9	14651
886.025	14800
886.15	14689
886.275	14693
886.4	14579
886.525	14549
886.65	14648
886.775	14530
886.9	14777
887.025	14864
887.149	14648
887.274	14556
887.399	14590
887.523	14492
887.648	14427
887.773	14431
887.897	14598
888.021	14476
888.146	14465
888.27	14598
888.395	14670
888.519	14602
888.643	14625
888.767	14610
888.891	14438
889.015	14457
889.139	14469
889.263	14446
889.387	14484
889.511	14575
889.635	14587
889.759	14332
889.883	14347
890.006	14461
890.13	14454
890.254	14332
890.377	14358
890.501	14142
890.624	14157
890.748	14259
890.871	14092
890.995	14069
891.118	13913
891.241	14088
891.364	14073
891.488	14180
891.611	14096
891.734	14088
891.857	14199
891.98	14123
892.103	14130
892.226	14107
892.349	14145
892.471	14027
892.594	14065
892.717	14100
892.839	14058
892.962	14050
893.085	14138
893.207	14138
893.33	13989
893.452	13989
893.575	14221
893.697	14107
893.819	14210
893.941	14275
894.064	14206
894.186	14043
894.308	14031
894.43	14210
894.552	14320
894.674	14313
894.796	14031
894.918	14100
895.04	14176
895.161	14202
895.283	14199
895.405	14096
895.526	14149
895.648	14271
895.769	14195
895.891	14244
896.012	14286
896.134	14263
896.255	14290
896.376	14298
896.498	14301
896.619	14301
896.74	14191
896.861	14427
896.982	14590
897.103	14743
897.224	14545
897.345	14484
897.466	14431
897.587	14530
897.708	14655
897.828	14484
897.949	14514
898.07	14362
898.19	14507
898.311	14686
898.431	14564
898.552	14640
898.672	14640
898.792	14731
898.913	14636
899.033	14511
899.153	14469
899.273	14358
899.393	14442
899.513	14484
899.633	14419
899.753	14457
899.873	14552
899.993	14511
900.113	14343
900.232	14560
900.352	14427
900.472	14412
900.591	14332
900.711	14431
900.83	14290
900.95	14385
901.069	14434
901.189	14301
901.308	14111
901.427	13963
901.546	14065
901.665	14100
901.784	14046
901.904	13833
902.023	13757
902.141	13700
902.26	13613
902.379	13609
902.498	13529
902.617	13601
902.735	13689
902.854	13563
902.973	13419
903.091	13335
903.21	13346
903.328	13316
903.446	13187
903.565	13133
903.683	13187
903.801	13072
903.919	13137
904.038	13164
904.156	13053
904.274	12989
904.392	12875
904.51	12897
904.627	12989
904.745	13012
904.863	12947
904.981	12722
905.098	12734
905.216	12616
905.334	12749
905.451	12658
905.569	12707
905.686	12700
905.803	12544
905.921	12509
906.038	12593
906.155	12494
906.272	12391
906.389	12426
906.506	12254
906.623	12186
906.74	12247
906.857	12178
906.974	12201
907.091	12441
907.208	12437
907.324	12334
907.441	12205
907.557	12030
907.674	11946
907.79	11931
907.907	11920
908.023	12053
908.139	12091
908.256	11920
908.372	11920
908.488	11927
908.604	11767
908.72	11752
908.836	11786
908.952	11699
909.068	11794
909.184	11855
909.3	11767
909.415	11824
909.531	11745
909.647	11596
909.762	11509
909.878	11501
909.993	11512
910.108	11482
910.224	11509
910.339	11608
910.454	11433
910.57	11288
910.685	11254
910.8	11566
910.915	11535
911.03	11440
911.145	11216
911.259	11231
911.374	11208
911.489	11086
911.604	11098
911.718	10987
911.833	10987
911.947	10866
912.062	10759
912.176	10999
912.291	11029
912.405	10904
912.519	11155
912.633	11242
912.748	11025
912.862	11029
912.976	10847
913.09	10805
913.204	10812
913.318	10839
913.431	10915
913.545	10854
913.659	10984
913.772	10816
913.886	10759
914	10729
914.113	10820
914.226	10812
914.34	10843
914.453	10649
914.566	10812
914.68	10702
914.793	10603
914.906	10481
915.019	10421
915.132	10352
915.245	10413
915.358	10516
915.47	10478
915.583	10462
915.696	10493
915.809	10588
915.921	10641
916.034	10493
916.146	10428
916.259	10489
916.371	10489
916.483	10455
916.595	10390
916.708	10398
916.82	10421
916.932	10402
917.044	10421
917.156	10462
917.268	10257
917.38	10314
917.491	10257
917.603	10295
917.715	10398
917.826	10325
917.938	10318
918.049	10211
918.161	10306
918.272	10485
918.384	10432
918.495	10303
918.606	10196
918.717	10135
918.828	10227
918.939	10223
919.05	10093
919.161	10185
919.272	9956
919.383	10090
919.494	10272
919.604	10367
919.715	10177
919.826	10112
919.936	10249
920.047	10234
920.157	10223
920.267	10356
920.378	10204
920.488	10204
920.598	10413
920.708	10535
920.818	10409
920.928	10363
921.038	10660
921.148	10531
921.258	10291
921.368	10112
921.477	10067
921.587	10090
921.697	9922
921.806	10051
921.916	9930
922.025	9762
922.134	9778
922.244	9800
922.353	9797
922.462	9663
922.571	9652
922.68	9477
922.789	9519
922.898	9450
923.007	9389
923.116	9496
923.224	9443
923.333	9397
923.442	9389
923.55	9336
923.659	9378
923.767	9469
923.876	9310
923.984	9416
924.092	9268
924.201	9313
924.309	9313
924.417	9306
924.525	9249
924.633	9344
924.741	10093
924.849	9097
924.956	9283
925.064	9100
925.172	9055
925.279	9081
925.387	9142
925.494	8986
925.602	9226
925.709	9207
925.816	9062
925.924	9119
926.031	9188
926.138	9150
926.245	9207
926.352	9032
926.459	9165
926.566	9173
926.673	9058
926.779	8963
926.886	8960
926.993	8838
927.099	8716
927.206	8773
927.312	8724
927.419	8914
927.525	8902
927.631	8872
927.737	8785
927.843	8712
927.95	8621
928.056	8739
928.162	8796
928.267	8830
928.373	9325
928.479	8792
928.585	8625
928.69	8758
928.796	8804
928.901	8602
929.007	8518
929.112	8629
929.218	8610
929.323	8579
929.428	8590
929.533	8655
929.638	8564
929.743	8598
929.848	8644
929.953	8560
930.058	8507
930.163	8294
930.267	8290
930.372	8514
930.477	8328
930.581	8514
930.685	8415
930.79	8298
930.894	8252
930.998	8244
931.103	8370
931.207	8100
931.311	7993
931.415	7970
931.519	7784
931.623	7788
