Data from test_V78500241_3510.txt Node
Date: Fri Mar 25 14:58:09 CST 2022
User: usil
Spectrometer: V785-0024
Trigger mode: 0
Integration Time (sec): 4.000000E-1
Scans to average: 1
Nonlinearity correction enabled: false
Boxcar width: 0
Storing dark spectrum: false
XAxis mode: Wavelengths
Number of Pixels in Spectrum: 1024
>>>>>Begin Spectral Data<<<<<
801.071	21968
801.214	21827
801.356	21625
801.499	21496
801.641	21283
801.783	21294
801.926	21401
802.068	21283
802.211	21135
802.353	21093
802.496	20929
802.638	20838
802.78	20781
802.923	20632
803.065	20632
803.208	20632
803.35	20644
803.492	20644
803.635	20876
803.777	20670
803.919	20686
804.061	21100
804.204	20735
804.346	20632
804.488	20473
804.63	20507
804.773	20629
804.915	20564
805.057	20590
805.199	20549
805.341	20598
805.483	20727
805.626	20712
805.768	20549
805.91	20514
806.052	20469
806.194	20507
806.336	20678
806.478	20545
806.62	20412
806.762	20636
806.904	20629
807.046	20948
807.188	20815
807.33	20857
807.472	20975
807.614	20617
807.756	20781
807.898	20537
808.04	20697
808.182	20503
808.324	20552
808.465	20705
808.607	20834
808.749	20979
808.891	21028
809.033	21116
809.174	20948
809.316	20861
809.458	20937
809.6	20838
809.741	20838
809.883	20967
810.025	21039
810.166	21089
810.308	20891
810.45	20990
810.591	20830
810.733	20735
810.875	20716
811.016	20526
811.158	20621
811.299	20712
811.441	20842
811.582	20746
811.724	20625
811.865	20667
812.007	20583
812.148	20545
812.29	20792
812.431	20724
812.573	20895
812.714	21074
812.855	21188
812.997	21325
813.138	21313
813.279	21207
813.421	21150
813.562	21093
813.703	20842
813.845	20899
813.986	20541
814.127	20358
814.268	20294
814.41	20225
814.551	20149
814.692	20225
814.833	20195
814.974	20202
815.115	20275
815.256	20043
815.397	20058
815.539	20183
815.68	19932
815.821	19921
815.962	19928
816.103	19944
816.244	19860
816.385	19658
816.526	19597
816.666	19506
816.807	19327
816.948	19506
817.089	19396
817.23	19373
817.371	19206
817.512	19232
817.653	19358
817.793	19324
817.934	19331
818.075	19377
818.216	19362
818.356	19339
818.497	19118
818.638	19038
818.778	18985
818.919	19034
819.06	19061
819.2	19110
819.341	19297
819.481	19236
819.622	19434
819.762	19525
819.903	19476
820.043	19468
820.184	19255
820.324	19301
820.465	19472
820.605	19266
820.746	19217
820.886	19088
821.026	19209
821.167	19278
821.307	19324
821.447	19244
821.588	19206
821.728	19042
821.868	18863
822.008	18726
822.149	18684
822.289	18597
822.429	18486
822.569	18384
822.709	18384
822.849	18346
822.99	18292
823.13	18247
823.27	18140
823.41	18076
823.55	17958
823.69	17980
823.83	18007
823.97	17916
824.11	17767
824.25	17779
824.389	17851
824.529	17840
824.669	17767
824.809	17870
824.949	17866
825.089	17920
825.228	17828
825.368	17573
825.508	17577
825.648	17615
825.787	17512
825.927	17623
826.067	17573
826.206	17634
826.346	17630
826.485	17665
826.625	17539
826.765	17779
826.904	17638
827.044	17330
827.183	17391
827.323	17235
827.462	17269
827.601	17307
827.741	17265
827.88	17326
828.02	17048
828.159	17299
828.298	17220
828.437	17421
828.577	17288
828.716	17474
828.855	17303
828.994	16999
829.134	17041
829.273	17025
829.412	16984
829.551	17033
829.69	17064
829.829	17075
829.968	17090
830.107	17117
830.246	17010
830.385	16961
830.524	16934
830.663	16843
830.802	16721
830.941	16672
831.08	16546
831.219	16710
831.357	16816
831.496	16892
831.635	16634
831.774	16599
831.913	16546
832.051	16386
832.19	16497
832.329	16474
832.467	16386
832.606	16363
832.744	16310
832.883	16337
833.022	16348
833.16	16375
833.299	16421
833.437	16379
833.576	16443
833.714	16470
833.852	16436
833.991	16325
834.129	16447
834.267	16512
834.406	16379
834.544	16428
834.682	16398
834.821	16371
834.959	16584
835.097	16333
835.235	16375
835.373	16466
835.511	16447
835.65	16325
835.788	16306
835.926	16238
836.064	16166
836.202	16074
836.34	16337
836.478	16478
836.615	16337
836.753	16352
836.891	16398
837.029	16379
837.167	16253
837.305	16261
837.443	16265
837.58	16234
837.718	16287
837.856	16238
837.993	16135
838.131	16169
838.269	16181
838.406	16143
838.544	16078
838.681	15945
838.819	15831
838.956	15785
839.094	15755
839.231	15922
839.369	15808
839.506	16196
839.643	16078
839.781	15857
839.918	15797
840.055	15861
840.193	15854
840.33	15854
840.467	15694
840.604	15728
840.742	15991
840.879	15686
841.016	15652
841.153	15751
841.29	15960
841.427	15785
841.564	15698
841.701	15751
841.838	15694
841.975	15652
842.112	15652
842.249	15576
842.385	15492
842.522	15709
842.659	15462
842.796	15469
842.933	15545
843.069	15454
843.206	15530
843.343	15580
843.479	15534
843.616	15473
843.752	15344
843.889	15298
844.025	15466
844.162	15287
844.298	15378
844.435	15283
844.571	15306
844.708	15374
844.844	15450
844.98	15488
845.117	15435
845.253	15241
845.389	15230
845.525	15279
845.661	15283
845.798	14986
845.934	15146
846.07	15028
846.206	15184
846.342	15207
846.478	15131
846.614	14914
846.75	14819
846.886	14864
847.022	15001
847.158	14819
847.294	14921
847.429	14998
847.565	14868
847.701	15169
847.837	14667
847.972	14495
848.108	14788
848.244	14648
848.379	14533
848.515	14526
848.65	14473
848.786	14552
848.921	14442
849.057	14579
849.192	14598
849.328	14598
849.463	14568
849.598	14442
849.734	14450
849.869	14389
850.004	14267
850.14	14324
850.275	14210
850.41	14164
850.545	14130
850.68	14218
850.815	14294
850.95	14210
851.085	14427
851.22	14240
851.355	14305
851.49	14210
851.625	14252
851.76	14145
851.895	14126
852.03	14100
852.165	14248
852.299	14290
852.434	14393
852.569	14415
852.703	14275
852.838	14366
852.973	14446
853.107	14457
853.242	14328
853.376	14183
853.511	14065
853.645	14088
853.78	14218
853.914	14240
854.048	14176
854.183	14123
854.317	14176
854.451	14294
854.585	14157
854.72	14043
854.854	14275
854.988	14088
855.122	14077
855.256	14084
855.39	14164
855.524	14195
855.658	14210
855.792	14130
855.926	14202
856.06	14214
856.194	14240
856.327	14092
856.461	14153
856.595	14081
856.729	14225
856.862	14301
856.996	14069
857.13	14267
857.263	14244
857.397	14294
857.53	14138
857.664	14206
857.797	14244
857.931	14278
858.064	14240
858.197	14244
858.331	14161
858.464	14130
858.597	14069
858.731	14153
858.864	14176
858.997	14183
859.13	14199
859.263	14180
859.396	14320
859.529	14103
859.662	14123
859.795	14153
859.928	14240
860.061	14415
860.194	14320
860.327	14233
860.46	14191
860.592	14214
860.725	14263
860.858	14298
860.99	14111
861.123	14103
861.256	14168
861.388	14187
861.521	14967
861.653	14020
861.786	13978
861.918	13944
862.05	14073
862.183	14054
862.315	14225
862.447	14229
862.58	14107
862.712	13959
862.844	13932
862.976	14054
863.108	13909
863.24	14256
863.372	13909
863.504	13925
863.636	13940
863.768	13959
863.9	13917
864.032	13932
864.164	13959
864.296	13909
864.428	13982
864.559	14005
864.691	14123
864.823	13947
864.954	13963
865.086	13959
865.217	13970
865.349	13909
865.48	13925
865.612	13928
865.743	14050
865.875	13944
866.006	13894
866.137	13978
866.269	13951
866.4	13928
866.531	13906
866.662	13890
866.793	13951
866.924	13913
867.055	13986
867.186	13989
867.317	13856
867.448	13769
867.579	13909
867.71	13860
867.841	13837
867.972	13909
868.103	13959
868.233	13986
868.364	13811
868.495	13997
868.625	14111
868.756	14263
868.886	14077
869.017	14100
869.147	14366
869.278	14305
869.408	14157
869.539	14103
869.669	14301
869.799	14240
869.929	14313
870.06	14298
870.19	14507
870.32	14499
870.45	14473
870.58	14659
870.71	14705
870.84	14606
870.97	14556
871.1	14629
871.23	14720
871.36	14777
871.489	14682
871.619	14743
871.749	14773
871.879	14826
872.008	14952
872.138	14815
872.267	14815
872.397	14636
872.526	14610
872.656	14579
872.785	14674
872.915	14842
873.044	14910
873.173	14762
873.303	14788
873.432	14853
873.561	14861
873.69	14853
873.819	14830
873.948	15005
874.077	14830
874.206	14788
874.335	14895
874.464	15032
874.593	15211
874.722	15089
874.851	15256
874.979	15188
875.108	15218
875.237	15089
875.365	15100
875.494	15150
875.623	15157
875.751	15138
875.88	15184
876.008	15294
876.136	15332
876.265	15610
876.393	15743
876.521	15644
876.65	15564
876.778	15622
876.906	15511
877.034	15545
877.162	15553
877.29	15500
877.418	15595
877.546	15564
877.674	15507
877.802	15587
877.93	15542
878.058	15462
878.185	15481
878.313	15530
878.441	15606
878.568	15416
878.696	15428
878.824	15603
878.951	15732
879.079	15785
879.206	15850
879.333	15759
879.461	15580
879.588	15667
879.715	15781
879.842	15926
879.97	15568
880.097	15523
880.224	15344
880.351	15431
880.478	15553
880.605	15424
880.732	15359
880.859	15515
880.986	15355
881.112	15389
881.239	15348
881.366	15169
881.493	15199
881.619	15039
881.746	15104
881.872	15028
881.999	15039
882.125	15097
882.252	15081
882.378	15047
882.505	15291
882.631	15081
882.757	14887
882.883	14921
883.01	14933
883.136	14872
883.262	14739
883.388	14804
883.514	14952
883.64	14929
883.766	14838
883.892	14674
884.018	14689
884.143	14819
884.269	14979
884.395	14606
884.52	14697
884.646	14590
884.772	14545
884.897	14480
885.023	14522
885.148	14758
885.274	14785
885.399	14682
885.524	14625
885.65	14518
885.775	14629
885.9	14625
886.025	14785
886.15	14655
886.275	14533
886.4	14434
886.525	14575
886.65	14518
886.775	14541
886.9	14678
887.025	14868
887.149	14590
887.274	14396
887.399	14389
887.523	14419
887.648	14351
887.773	14347
887.897	14541
888.021	14400
888.146	14328
888.27	14526
888.395	14537
888.519	14434
888.643	14556
888.767	14476
888.891	14374
889.015	14286
889.139	14313
889.263	14233
889.387	14396
889.511	14457
889.635	14408
889.759	14202
889.883	14278
890.006	14202
890.13	14343
890.254	14244
890.377	14218
890.501	14157
890.624	14046
890.748	14286
890.871	14065
890.995	14005
891.118	13849
891.241	14054
891.364	14001
891.488	14107
891.611	13951
891.734	14081
891.857	14081
891.98	13982
892.103	14069
892.226	14027
892.349	14016
892.471	13822
892.594	14027
892.717	14050
892.839	13993
892.962	14020
893.085	14043
893.207	14012
893.33	13868
893.452	13944
893.575	14081
893.697	13925
893.819	14225
893.941	14259
894.064	14142
894.186	13955
894.308	13944
894.43	14103
894.552	14153
894.674	14206
894.796	13989
894.918	13944
895.04	14020
895.161	14259
895.283	14065
895.405	14054
895.526	14096
895.648	14119
895.769	14096
895.891	14100
896.012	14244
896.134	14107
896.255	14259
896.376	14161
896.498	14252
896.619	14259
896.74	14142
896.861	14191
896.982	14530
897.103	14697
897.224	14492
897.345	14442
897.466	14389
897.587	14450
897.708	14575
897.828	14511
897.949	14499
898.07	14252
898.19	14351
898.311	14556
898.431	14442
898.552	14514
898.672	14522
898.792	14625
898.913	14674
899.033	14575
899.153	14442
899.273	14351
899.393	14362
899.513	14408
899.633	14385
899.753	14450
899.873	14374
899.993	14438
900.113	14366
900.232	14347
900.352	14267
900.472	14275
900.591	14130
900.711	14248
900.83	14176
900.95	14351
901.069	14233
901.189	14180
901.308	14065
901.427	13883
901.546	13959
901.665	13986
901.784	13974
901.904	13883
902.023	13670
902.141	13620
902.26	13521
902.379	13594
902.498	13457
902.617	13514
902.735	13533
902.854	13544
902.973	13365
903.091	13118
903.21	13213
903.328	13164
903.446	13213
903.565	13088
903.683	13156
903.801	12977
903.919	12977
904.038	13057
904.156	12840
904.274	12939
904.392	12894
904.51	12863
904.627	12817
904.745	12966
904.863	12951
904.981	12688
905.098	12559
905.216	12597
905.334	12650
905.451	12578
905.569	12555
905.686	12669
905.803	12612
905.921	12357
906.038	12471
906.155	12471
906.272	12251
906.389	12346
906.506	12213
906.623	12144
906.74	12148
906.857	12019
906.974	12091
907.091	12262
907.208	12277
907.324	12247
907.441	12053
907.557	11874
907.674	11874
907.79	11824
907.907	11885
908.023	11923
908.139	11878
908.256	11817
908.372	11828
908.488	11821
908.604	11714
908.72	11722
908.836	11737
908.952	11615
909.068	11729
909.184	11771
909.3	11668
909.415	11668
909.531	11661
909.647	11414
909.762	11524
909.878	11444
909.993	11410
910.108	11414
910.224	11376
910.339	11452
910.454	11398
910.57	11280
910.685	11223
910.8	11554
910.915	11452
911.03	11334
911.145	11060
911.259	11128
911.374	11181
911.489	11109
911.604	11064
911.718	10915
911.833	10972
911.947	10862
912.062	10672
912.176	10889
912.291	10858
912.405	10885
912.519	11090
912.633	11098
912.748	10957
912.862	10828
912.976	10873
913.09	10717
913.204	10679
913.318	10869
913.431	10854
913.545	10896
913.659	10862
913.772	10759
913.886	10561
914	10618
914.113	10790
914.226	10736
914.34	10767
914.453	10607
914.566	10812
914.68	10675
914.793	10634
914.906	10421
915.019	10398
915.132	10295
915.245	10390
915.358	10318
915.47	10405
915.583	10470
915.696	10417
915.809	10615
915.921	10588
916.034	10390
916.146	10375
916.259	10417
916.371	10432
916.483	10379
916.595	10306
916.708	10382
916.82	10314
916.932	10242
917.044	10280
917.156	10322
917.268	10219
917.38	10295
917.491	10318
917.603	10230
917.715	10287
917.826	10325
917.938	10192
918.049	10124
918.161	10234
918.272	10367
918.384	10394
918.495	10265
918.606	10097
918.717	10063
918.828	10124
918.939	10128
919.05	10063
919.161	10090
919.272	9915
919.383	10006
919.494	10177
919.604	10375
919.715	10207
919.826	10040
919.936	10105
920.047	10234
920.157	10204
920.267	10284
920.378	10150
920.488	10139
920.598	10428
920.708	10519
920.818	10333
920.928	10306
921.038	10508
921.148	10424
921.258	10200
921.368	10074
921.477	10010
921.587	10055
921.697	9907
921.806	10032
921.916	9884
922.025	9732
922.134	9743
922.244	9610
922.353	9781
922.462	9637
922.571	9504
922.68	9412
922.789	9393
922.898	9450
923.007	9344
923.116	9424
923.224	9348
923.333	9393
923.442	9317
923.55	9245
923.659	9317
923.767	9336
923.876	9222
923.984	9355
924.092	9127
924.201	9253
924.309	9298
924.417	9249
924.525	9237
924.633	9230
924.741	10013
924.849	8986
924.956	9157
925.064	9047
925.172	8925
925.279	9062
925.387	9074
925.494	9043
925.602	9199
925.709	9127
925.816	8956
925.924	9020
926.031	9218
926.138	9028
926.245	9074
926.352	8941
926.459	9199
926.566	9157
926.673	9093
926.779	8849
926.886	8887
926.993	8838
927.099	8746
927.206	8796
927.312	8739
927.419	8868
927.525	8819
927.631	8872
927.737	8743
927.843	8686
927.95	8518
928.056	8636
928.162	8705
928.267	8674
928.373	9359
928.479	8670
928.585	8632
928.69	8659
928.796	8731
928.901	8632
929.007	8488
929.112	8568
929.218	8579
929.323	8480
929.428	8507
929.533	8632
929.638	8450
929.743	8495
929.848	8533
929.953	8526
930.058	8396
930.163	8294
930.267	8309
930.372	8366
930.477	8233
930.581	8438
930.685	8279
930.79	8180
930.894	8225
930.998	8214
931.103	8370
931.207	8069
931.311	7963
931.415	7894
931.519	7719
931.623	7685
