Data from test_V78500241_2383.txt Node
Date: Fri Mar 25 14:50:18 CST 2022
User: usil
Spectrometer: V785-0024
Trigger mode: 0
Integration Time (sec): 4.000000E-1
Scans to average: 1
Nonlinearity correction enabled: false
Boxcar width: 0
Storing dark spectrum: false
XAxis mode: Wavelengths
Number of Pixels in Spectrum: 1024
>>>>>Begin Spectral Data<<<<<
801.071	22097
801.214	22166
801.356	21766
801.499	21774
801.641	21549
801.783	21496
801.926	21671
802.068	21401
802.211	21370
802.353	21310
802.496	21032
802.638	20937
802.78	20906
802.923	20899
803.065	20689
803.208	20819
803.35	20697
803.492	20979
803.635	21051
803.777	20754
803.919	20815
804.061	21275
804.204	20880
804.346	20758
804.488	20712
804.63	20933
804.773	20720
804.915	20811
805.057	20792
805.199	20792
805.341	20788
805.483	20883
805.626	20979
805.768	20830
805.91	20781
806.052	20777
806.194	20670
806.336	20975
806.478	20754
806.62	20697
806.762	20853
806.904	21009
807.046	21077
807.188	21074
807.33	21093
807.472	21135
807.614	20899
807.756	21028
807.898	20849
808.04	20765
808.182	20819
808.324	20811
808.465	20941
808.607	21112
808.749	21249
808.891	21230
809.033	21359
809.174	21161
809.316	21104
809.458	21127
809.6	21245
809.741	21237
809.883	21275
810.025	21306
810.166	21252
810.308	21336
810.45	21226
810.591	21241
810.733	21013
810.875	20986
811.016	20819
811.158	20853
811.299	20929
811.441	21036
811.582	20986
811.724	20914
811.865	20918
812.007	20891
812.148	20891
812.29	20925
812.431	20925
812.573	21123
812.714	21268
812.855	21348
812.997	21492
813.138	21641
813.279	21393
813.421	21488
813.562	21408
813.703	21176
813.845	21066
813.986	20853
814.127	20549
814.268	20583
814.41	20640
814.551	20499
814.692	20522
814.833	20351
814.974	20457
815.115	20457
815.256	20248
815.397	20309
815.539	20298
815.68	20180
815.821	20199
815.962	20275
816.103	20134
816.244	20024
816.385	19932
816.526	19833
816.666	19685
816.807	19556
816.948	19685
817.089	19666
817.23	19609
817.371	19632
817.512	19609
817.653	19597
817.793	19533
817.934	19586
818.075	19578
818.216	19544
818.356	19521
818.497	19403
818.638	19255
818.778	19091
818.919	19278
819.06	19270
819.2	19369
819.341	19457
819.481	19449
819.622	19578
819.762	19803
819.903	19681
820.043	19647
820.184	19483
820.324	19506
820.465	19677
820.605	19514
820.746	19556
820.886	19472
821.026	19464
821.167	19548
821.307	19552
821.447	19510
821.588	19384
821.728	19255
821.868	19091
822.008	19099
822.149	18951
822.289	18954
822.429	18642
822.569	18654
822.709	18696
822.849	18536
822.99	18376
823.13	18483
823.27	18300
823.41	18247
823.55	18262
823.69	18163
823.83	18251
823.97	18213
824.11	17988
824.25	17973
824.389	17969
824.529	18072
824.669	17958
824.809	18205
824.949	18121
825.089	18091
825.228	17999
825.368	17882
825.508	17904
825.648	17851
825.787	17836
825.927	17821
826.067	17828
826.206	17771
826.346	17809
826.485	17828
826.625	17722
826.765	17840
826.904	17851
827.044	17691
827.183	17551
827.323	17524
827.462	17474
827.601	17608
827.741	17516
827.88	17505
828.02	17311
828.159	17402
828.298	17570
828.437	17589
828.577	17414
828.716	17657
828.855	17486
828.994	17277
829.134	17258
829.273	17376
829.412	17155
829.551	17246
829.69	17315
829.829	17303
829.968	17330
830.107	17265
830.246	17231
830.385	17231
830.524	17083
830.663	17090
830.802	16961
830.941	16930
831.08	16938
831.219	16987
831.357	16877
831.496	17079
831.635	16866
831.774	16812
831.913	16710
832.051	16660
832.19	16694
832.329	16706
832.467	16497
832.606	16478
832.744	16489
832.883	16550
833.022	16489
833.16	16538
833.299	16558
833.437	16546
833.576	16622
833.714	16531
833.852	16626
833.991	16558
834.129	16668
834.267	16516
834.406	16459
834.544	16599
834.682	16538
834.821	16687
834.959	16774
835.097	16500
835.235	16649
835.373	16637
835.511	16634
835.65	16459
835.788	16459
835.926	16360
836.064	16268
836.202	16341
836.34	16554
836.478	16497
836.615	16432
836.753	16493
836.891	16500
837.029	16637
837.167	16470
837.305	16428
837.443	16367
837.58	16356
837.718	16485
837.856	16329
837.993	16325
838.131	16299
838.269	16295
838.406	16295
838.544	16196
838.681	16074
838.819	16105
838.956	15808
839.094	15869
839.231	15964
839.369	16112
839.506	16200
839.643	16238
839.781	15941
839.918	15907
840.055	15918
840.193	16025
840.33	15937
840.467	15895
840.604	15968
840.742	16249
840.879	15800
841.016	15850
841.153	15766
841.29	16074
841.427	15918
841.564	15994
841.701	15918
841.838	15903
841.975	15823
842.112	15713
842.249	15690
842.385	15663
842.522	15770
842.659	15732
842.796	15709
842.933	15644
843.069	15705
843.206	15576
843.343	15808
843.479	15682
843.616	15675
843.752	15435
843.889	15485
844.025	15610
844.162	15542
844.298	15595
844.435	15481
844.571	15492
844.708	15603
844.844	15599
844.98	15648
845.117	15561
845.253	15279
845.389	15351
845.525	15416
845.661	15329
845.798	15363
845.934	15302
846.07	15222
846.206	15408
846.342	15351
846.478	15287
846.614	15112
846.75	14944
846.886	15001
847.022	15138
847.158	15123
847.294	15058
847.429	15066
847.565	15058
847.701	15260
847.837	14872
847.972	14788
848.108	14941
848.244	14823
848.379	14613
848.515	14678
848.65	14625
848.786	14575
848.921	14693
849.057	14712
849.192	14746
849.328	14587
849.463	14640
849.598	14590
849.734	14549
849.869	14457
850.004	14412
850.14	14415
850.275	14423
850.41	14351
850.545	14332
850.68	14389
850.815	14389
850.95	14339
851.085	14621
851.22	14427
851.355	14442
851.49	14385
851.625	14324
851.76	14320
851.895	14305
852.03	14271
852.165	14389
852.299	14473
852.434	14396
852.569	14461
852.703	14423
852.838	14446
852.973	14549
853.107	14583
853.242	14351
853.376	14305
853.511	14149
853.645	14263
853.78	14396
853.914	14313
854.048	14210
854.183	14153
854.317	14271
854.451	14461
854.585	14305
854.72	14305
854.854	14389
854.988	14191
855.122	14286
855.256	14172
855.39	14263
855.524	14374
855.658	14252
855.792	14259
855.926	14229
856.06	14343
856.194	14415
856.327	14252
856.461	14237
856.595	14290
856.729	14294
856.862	14336
856.996	14161
857.13	14358
857.263	14301
857.397	14408
857.53	14199
857.664	14328
857.797	14404
857.931	14454
858.064	14256
858.197	14446
858.331	14290
858.464	14195
858.597	14096
858.731	14233
858.864	14244
858.997	14199
859.13	14370
859.263	14332
859.396	14309
859.529	14176
859.662	14286
859.795	14199
859.928	14256
860.061	14358
860.194	14446
860.327	14275
860.46	14195
860.592	14423
860.725	14431
860.858	14377
860.99	14252
861.123	14183
861.256	14225
861.388	14271
861.521	14792
861.653	14134
861.786	13986
861.918	14164
862.05	14237
862.183	14275
862.315	14267
862.447	14377
862.58	14259
862.712	14077
862.844	13909
862.976	14088
863.108	14210
863.24	14396
863.372	13913
863.504	14024
863.636	14065
863.768	14001
863.9	14126
864.032	13936
864.164	14069
864.296	14119
864.428	14103
864.559	14191
864.691	14081
864.823	14123
864.954	14046
865.086	14149
865.217	14027
865.349	13932
865.48	14001
865.612	14012
865.743	14191
865.875	13974
866.006	13967
866.137	14077
866.269	13944
866.4	14020
866.531	14012
866.662	13978
866.793	14046
866.924	13955
867.055	14062
867.186	14012
867.317	13989
867.448	14008
867.579	13947
867.71	14050
867.841	13959
867.972	13997
868.103	13986
868.233	13955
868.364	14031
868.495	14157
868.625	14214
868.756	14415
868.886	14218
869.017	14252
869.147	14370
869.278	14377
869.408	14332
869.539	14320
869.669	14328
869.799	14355
869.929	14347
870.06	14362
870.19	14632
870.32	14636
870.45	14720
870.58	14697
870.71	14815
870.84	14788
870.97	14663
871.1	14629
871.23	14758
871.36	14868
871.489	14765
871.619	14834
871.749	14830
871.879	14933
872.008	15039
872.138	14883
872.267	14899
872.397	14750
872.526	14686
872.656	14807
872.785	14708
872.915	14937
873.044	14990
873.173	14853
873.303	14994
873.432	14994
873.561	14944
873.69	14937
873.819	14933
873.948	14986
874.077	14868
874.206	14880
874.335	14944
874.464	15062
874.593	15150
874.722	15211
874.851	15374
874.979	15241
875.108	15367
875.237	15272
875.365	15173
875.494	15173
875.623	15416
875.751	15214
875.88	15298
876.008	15424
876.136	15568
876.265	15622
876.393	15857
876.521	15698
876.65	15808
876.778	15713
876.906	15660
877.034	15625
877.162	15644
877.29	15587
877.418	15663
877.546	15686
877.674	15686
877.802	15644
877.93	15694
878.058	15663
878.185	15557
878.313	15561
878.441	15698
878.568	15500
878.696	15595
878.824	15675
878.951	15755
879.079	15648
879.206	15899
879.333	15762
879.461	15781
879.588	15797
879.715	15861
879.842	15937
879.97	15743
880.097	15477
880.224	15511
880.351	15603
880.478	15564
880.605	15507
880.732	15382
880.859	15789
880.986	15485
881.112	15614
881.239	15439
881.366	15230
881.493	15211
881.619	15157
881.746	15199
881.872	15116
881.999	15119
882.125	15066
882.252	15211
882.378	15184
882.505	15329
882.631	15097
882.757	14937
882.883	15032
883.01	14975
883.136	14834
883.262	14796
883.388	14849
883.514	14960
883.64	14902
883.766	14971
883.892	14716
884.018	14800
884.143	15013
884.269	15062
884.395	14705
884.52	14655
884.646	14807
884.772	14480
884.897	14587
885.023	14674
885.148	14788
885.274	14838
885.399	14815
885.524	14727
885.65	14712
885.775	14644
885.9	14663
886.025	14811
886.15	14864
886.275	14610
886.4	14640
886.525	14712
886.65	14613
886.775	14617
886.9	14800
887.025	14864
887.149	14712
887.274	14583
887.399	14503
887.523	14476
887.648	14385
887.773	14423
887.897	14522
888.021	14533
888.146	14396
888.27	14590
888.395	14617
888.519	14613
888.643	14610
888.767	14606
888.891	14427
889.015	14343
889.139	14495
889.263	14320
889.387	14556
889.511	14670
889.635	14507
889.759	14355
889.883	14313
890.006	14442
890.13	14526
890.254	14317
890.377	14343
890.501	14088
890.624	14172
890.748	14214
890.871	14145
890.995	14039
891.118	13951
891.241	14134
891.364	14157
891.488	14225
891.611	14191
891.734	14062
891.857	14081
891.98	14138
892.103	14130
892.226	14058
892.349	14081
892.471	13989
892.594	14103
892.717	14058
892.839	13993
892.962	14005
893.085	14111
893.207	14103
893.33	13978
893.452	14005
893.575	14134
893.697	14062
893.819	14248
893.941	14313
894.064	14145
894.186	14020
894.308	14054
894.43	14210
894.552	14286
894.674	14256
894.796	13993
894.918	14062
895.04	14054
895.161	14233
895.283	14206
895.405	14157
895.526	14221
895.648	14172
895.769	14168
895.891	14267
896.012	14244
896.134	14282
896.255	14214
896.376	14199
896.498	14229
896.619	14221
896.74	14301
896.861	14339
896.982	14632
897.103	14785
897.224	14636
897.345	14465
897.466	14381
897.587	14545
897.708	14705
897.828	14556
897.949	14461
898.07	14461
898.19	14571
898.311	14674
898.431	14636
898.552	14602
898.672	14606
898.792	14796
898.913	14636
899.033	14587
899.153	14408
899.273	14419
899.393	14495
899.513	14442
899.633	14480
899.753	14480
899.873	14419
899.993	14541
900.113	14358
900.232	14492
900.352	14484
900.472	14412
900.591	14320
900.711	14412
900.83	14294
900.95	14347
901.069	14374
901.189	14206
901.308	14012
901.427	13989
901.546	14035
901.665	13963
901.784	14065
901.904	13879
902.023	13807
902.141	13658
902.26	13647
902.379	13613
902.498	13586
902.617	13510
902.735	13666
902.854	13575
902.973	13533
903.091	13373
903.21	13339
903.328	13430
903.446	13137
903.565	13209
903.683	13236
903.801	13099
903.919	13099
904.038	13031
904.156	12951
904.274	13015
904.392	12977
904.51	12973
904.627	12943
904.745	13034
904.863	12996
904.981	12719
905.098	12574
905.216	12719
905.334	12597
905.451	12669
905.569	12639
905.686	12726
905.803	12658
905.921	12464
906.038	12578
906.155	12502
906.272	12422
906.389	12338
906.506	12285
906.623	12262
906.74	12201
906.857	12167
906.974	12178
907.091	12338
907.208	12319
907.324	12285
907.441	12148
907.557	11965
907.674	11999
907.79	11916
907.907	11950
908.023	11984
908.139	12007
908.256	11874
908.372	11969
908.488	11965
908.604	11790
908.72	11802
908.836	11726
908.952	11779
909.068	11790
909.184	11813
909.3	11707
909.415	11813
909.531	11741
909.647	11539
909.762	11570
909.878	11471
909.993	11592
910.108	11448
910.224	11474
910.339	11455
910.454	11398
910.57	11288
910.685	11322
910.8	11505
910.915	11376
911.03	11353
911.145	11258
911.259	11178
911.374	11254
911.489	11166
911.604	11117
911.718	10957
911.833	10949
911.947	10820
912.062	10759
912.176	10980
912.291	10908
912.405	11060
912.519	11170
912.633	11124
912.748	11006
912.862	10972
912.976	10858
913.09	10850
913.204	10755
913.318	10759
913.431	10942
913.545	10934
913.659	10927
913.772	10896
913.886	10778
914	10656
914.113	10839
914.226	10911
914.34	10828
914.453	10668
914.566	10793
914.68	10683
914.793	10618
914.906	10497
915.019	10459
915.132	10451
915.245	10390
915.358	10508
915.47	10489
915.583	10519
915.696	10592
915.809	10542
915.921	10580
916.034	10523
916.146	10447
916.259	10379
916.371	10516
916.483	10531
916.595	10459
916.708	10409
916.82	10398
916.932	10398
917.044	10440
917.156	10371
917.268	10276
917.38	10303
917.491	10230
917.603	10314
917.715	10382
917.826	10436
917.938	10322
918.049	10249
918.161	10253
918.272	10481
918.384	10474
918.495	10386
918.606	10230
918.717	10135
918.828	10147
918.939	10173
919.05	10128
919.161	10124
919.272	9975
919.383	10025
919.494	10265
919.604	10413
919.715	10207
919.826	10097
919.936	10109
920.047	10318
920.157	10238
920.267	10447
920.378	10242
920.488	10200
920.598	10390
920.708	10504
920.818	10356
920.928	10360
921.038	10603
921.148	10512
921.258	10200
921.368	10109
921.477	10051
921.587	10055
921.697	9873
921.806	10078
921.916	9968
922.025	9705
922.134	9808
922.244	9751
922.353	9736
922.462	9648
922.571	9561
922.68	9454
922.789	9363
922.898	9450
923.007	9428
923.116	9477
923.224	9431
923.333	9412
923.442	9374
923.55	9458
923.659	9382
923.767	9428
923.876	9325
923.984	9393
924.092	9233
924.201	9310
924.309	9378
924.417	9363
924.525	9230
924.633	9325
924.741	10105
924.849	9077
924.956	9241
925.064	9100
925.172	8979
925.279	9131
925.387	9173
925.494	9108
925.602	9256
925.709	9199
925.816	9047
925.924	9093
926.031	9188
926.138	9108
926.245	9169
926.352	9058
926.459	9203
926.566	9222
926.673	9070
926.779	8994
926.886	8979
926.993	8807
927.099	8849
927.206	8800
927.312	8762
927.419	8849
927.525	8796
927.631	8842
927.737	8766
927.843	8689
927.95	8617
928.056	8743
928.162	8705
928.267	8773
928.373	9389
928.479	8781
928.585	8602
928.69	8720
928.796	8830
928.901	8644
929.007	8454
929.112	8693
929.218	8644
929.323	8545
929.428	8564
929.533	8674
929.638	8522
929.743	8488
929.848	8514
929.953	8518
930.058	8423
930.163	8294
930.267	8328
930.372	8446
930.477	8279
930.581	8499
930.685	8396
930.79	8195
930.894	8309
930.998	8290
931.103	8298
931.207	8081
931.311	7989
931.415	7883
931.519	7772
931.623	7792
