Data from test_V78500241_1503.txt Node
Date: Fri Mar 25 14:44:10 CST 2022
User: usil
Spectrometer: V785-0024
Trigger mode: 0
Integration Time (sec): 4.000000E-1
Scans to average: 1
Nonlinearity correction enabled: false
Boxcar width: 0
Storing dark spectrum: false
XAxis mode: Wavelengths
Number of Pixels in Spectrum: 1024
>>>>>Begin Spectral Data<<<<<
801.071	22519
801.214	22287
801.356	22063
801.499	22078
801.641	21835
801.783	21770
801.926	21804
802.068	21743
802.211	21656
802.353	21492
802.496	21458
802.638	21291
802.78	21260
802.923	21150
803.065	21085
803.208	21169
803.35	21146
803.492	21237
803.635	21180
803.777	21207
803.919	21112
804.061	21260
804.204	21256
804.346	21055
804.488	21138
804.63	21077
804.773	21043
804.915	21093
805.057	21104
805.199	21055
805.341	21116
805.483	21188
805.626	21127
805.768	20982
805.91	21146
806.052	21142
806.194	20971
806.336	21249
806.478	21017
806.62	21005
806.762	21123
806.904	21249
807.046	21389
807.188	21469
807.33	21355
807.472	21572
807.614	21298
807.756	21310
807.898	21351
808.04	21226
808.182	21264
808.324	21245
808.465	21332
808.607	21587
808.749	21576
808.891	21701
809.033	21827
809.174	21606
809.316	21488
809.458	21519
809.6	21511
809.741	21641
809.883	21690
810.025	21686
810.166	21694
810.308	21762
810.45	21561
810.591	21519
810.733	21477
810.875	21370
811.016	21211
811.158	21165
811.299	21291
811.441	21336
811.582	21401
811.724	21154
811.865	21211
812.007	21252
812.148	21184
812.29	21355
812.431	21496
812.573	21583
812.714	21648
812.855	21888
812.997	21850
813.138	21873
813.279	21797
813.421	21709
813.562	21667
813.703	21488
813.845	21416
813.986	21184
814.127	21028
814.268	20887
814.41	20830
814.551	20830
814.692	20815
814.833	20773
814.974	20701
815.115	20739
815.256	20590
815.397	20530
815.539	20655
815.68	20537
815.821	20434
815.962	20568
816.103	20511
816.244	20415
816.385	20221
816.526	20210
816.666	20050
816.807	20020
816.948	19967
817.089	20210
817.23	20096
817.371	19917
817.512	19928
817.653	19940
817.793	19883
817.934	19925
818.075	19887
818.216	19875
818.356	19776
818.497	19814
818.638	19540
818.778	19643
818.919	19563
819.06	19597
819.2	19776
819.341	19723
819.481	19689
819.622	19822
819.762	20088
819.903	20046
820.043	20058
820.184	19986
820.324	19940
820.465	20035
820.605	19879
820.746	19791
820.886	19879
821.026	19803
821.167	19826
821.307	19879
821.447	19769
821.588	19742
821.728	19575
821.868	19381
822.008	19263
822.149	19278
822.289	19198
822.429	19050
822.569	19099
822.709	19038
822.849	18783
822.99	18764
823.13	18768
823.27	18745
823.41	18627
823.55	18578
823.69	18665
823.83	18642
823.97	18509
824.11	18388
824.25	18239
824.389	18338
824.529	18361
824.669	18346
824.809	18433
824.949	18490
825.089	18407
825.228	18391
825.368	18140
825.508	18152
825.648	18125
825.787	18266
825.927	18243
826.067	18152
826.206	18190
826.346	18194
826.485	18068
826.625	18125
826.765	18232
826.904	18197
827.044	17920
827.183	17999
827.323	17828
827.462	17935
827.601	17802
827.741	17916
827.88	17805
828.02	17760
828.159	17733
828.298	17752
828.437	17920
828.577	17767
828.716	17958
828.855	17623
828.994	17764
829.134	17566
829.273	17585
829.412	17471
829.551	17528
829.69	17585
829.829	17589
829.968	17672
830.107	17608
830.246	17604
830.385	17532
830.524	17524
830.663	17414
830.802	17254
830.941	17258
831.08	17216
831.219	17303
831.357	17273
831.496	17349
831.635	17113
831.774	17090
831.913	17048
832.051	16927
832.19	17056
832.329	16999
832.467	17006
832.606	16797
832.744	16889
832.883	16835
833.022	16710
833.16	16881
833.299	16915
833.437	16767
833.576	17003
833.714	16828
833.852	17033
833.991	17025
834.129	16995
834.267	16923
834.406	16980
834.544	16896
834.682	16949
834.821	16881
834.959	17025
835.097	16866
835.235	17033
835.373	16965
835.511	17033
835.65	16793
835.788	16793
835.926	16736
836.064	16592
836.202	16637
836.34	16908
836.478	16915
836.615	16809
836.753	16869
836.891	16957
837.029	16869
837.167	16752
837.305	16698
837.443	16733
837.58	16672
837.718	16778
837.856	16691
837.993	16618
838.131	16725
838.269	16504
838.406	16668
838.544	16558
838.681	16398
838.819	16436
838.956	16143
839.094	16226
839.231	16268
839.369	16337
839.506	16649
839.643	16447
839.781	16314
839.918	16090
840.055	16268
840.193	16223
840.33	16200
840.467	16200
840.604	16272
840.742	16466
840.879	16105
841.016	16200
841.153	16166
841.29	16360
841.427	16200
841.564	16238
841.701	16223
841.838	16242
841.975	16051
842.112	16246
842.249	16071
842.385	15998
842.522	16029
842.659	15926
842.796	15960
842.933	16021
843.069	16025
843.206	15911
843.343	16090
843.479	15960
843.616	16017
843.752	15743
843.889	15899
844.025	15926
844.162	15823
844.298	15846
844.435	15816
844.571	15755
844.708	15861
844.844	16006
844.98	15884
845.117	15956
845.253	15823
845.389	15675
845.525	15743
845.661	15816
845.798	15751
845.934	15793
846.07	15762
846.206	15743
846.342	15953
846.478	15648
846.614	15504
846.75	15332
846.886	15389
847.022	15485
847.158	15435
847.294	15355
847.429	15363
847.565	15310
847.701	15496
847.837	15093
847.972	15116
848.108	15119
848.244	15233
848.379	14937
848.515	15009
848.65	14864
848.786	14990
848.921	14937
849.057	14952
849.192	15074
849.328	15032
849.463	15032
849.598	14849
849.734	14864
849.869	14845
850.004	14720
850.14	14712
850.275	14735
850.41	14670
850.545	14667
850.68	14807
850.815	14682
850.95	14689
851.085	14746
851.22	14743
851.355	14746
851.49	14674
851.625	14705
851.76	14640
851.895	14541
852.03	14537
852.165	14697
852.299	14705
852.434	14834
852.569	14712
852.703	14762
852.838	14838
852.973	14918
853.107	14864
853.242	14621
853.376	14568
853.511	14442
853.645	14552
853.78	14701
853.914	14617
854.048	14564
854.183	14537
854.317	14663
854.451	14682
854.585	14587
854.72	14571
854.854	14625
854.988	14499
855.122	14564
855.256	14526
855.39	14625
855.524	14522
855.658	14621
855.792	14617
855.926	14613
856.06	14689
856.194	14678
856.327	14556
856.461	14522
856.595	14552
856.729	14602
856.862	14632
856.996	14575
857.13	14602
857.263	14686
857.397	14659
857.53	14625
857.664	14697
857.797	14724
857.931	14644
858.064	14648
858.197	14838
858.331	14632
858.464	14469
858.597	14476
858.731	14575
858.864	14568
858.997	14587
859.13	14579
859.263	14556
859.396	14640
859.529	14522
859.662	14552
859.795	14465
859.928	14533
860.061	14716
860.194	14785
860.327	14606
860.46	14480
860.592	14640
860.725	14693
860.858	14746
860.99	14651
861.123	14522
861.256	14507
861.388	14568
861.521	15146
861.653	14446
861.786	14351
861.918	14434
862.05	14514
862.183	14431
862.315	14632
862.447	14583
862.58	14610
862.712	14412
862.844	14339
862.976	14419
863.108	14358
863.24	14705
863.372	14305
863.504	14355
863.636	14351
863.768	14370
863.9	14343
864.032	14377
864.164	14294
864.296	14427
864.428	14480
864.559	14533
864.691	14415
864.823	14454
864.954	14332
865.086	14370
865.217	14389
865.349	14282
865.48	14347
865.612	14313
865.743	14514
865.875	14317
866.006	14343
866.137	14271
866.269	14336
866.4	14256
866.531	14282
866.662	14248
866.793	14233
866.924	14267
867.055	14347
867.186	14263
867.317	14218
867.448	14225
867.579	14157
867.71	14256
867.841	14278
867.972	14366
868.103	14328
868.233	14305
868.364	14320
868.495	14503
868.625	14514
868.756	14689
868.886	14476
869.017	14518
869.147	14735
869.278	14636
869.408	14552
869.539	14659
869.669	14674
869.799	14579
869.929	14731
870.06	14655
870.19	14864
870.32	14857
870.45	14948
870.58	14967
870.71	15047
870.84	15036
870.97	14834
871.1	14937
871.23	15135
871.36	15184
871.489	15077
871.619	15020
871.749	15211
871.879	15241
872.008	15279
872.138	15211
872.267	15131
872.397	14998
872.526	15024
872.656	15058
872.785	14975
872.915	15108
873.044	15298
873.173	15222
873.303	15165
873.432	15230
873.561	15367
873.69	15218
873.819	15260
873.948	15317
874.077	15180
874.206	15199
874.335	15260
874.464	15374
874.593	15473
874.722	15519
874.851	15496
874.979	15542
875.108	15504
875.237	15492
875.365	15393
875.494	15458
875.623	15614
875.751	15557
875.88	15580
876.008	15743
876.136	15842
876.265	15812
876.393	16059
876.521	15937
876.65	16063
876.778	16017
876.906	15926
877.034	15861
877.162	15899
877.29	15884
877.418	15888
877.546	15968
877.674	16017
877.802	15972
877.93	15903
878.058	15857
878.185	15831
878.313	15918
878.441	15994
878.568	15808
878.696	15846
878.824	15998
878.951	16097
879.079	16128
879.206	16230
879.333	16215
879.461	16154
879.588	16185
879.715	16322
879.842	16303
879.97	16040
880.097	15819
880.224	15869
880.351	15873
880.478	15861
880.605	15766
880.732	15770
880.859	15968
880.986	15781
881.112	15800
881.239	15648
881.366	15629
881.493	15466
881.619	15428
881.746	15534
881.872	15530
881.999	15496
882.125	15310
882.252	15568
882.378	15530
882.505	15694
882.631	15439
882.757	15283
882.883	15348
883.01	15306
883.136	15313
883.262	15127
883.388	15123
883.514	15325
883.64	15218
883.766	15245
883.892	15127
884.018	15116
884.143	15241
884.269	15344
884.395	15195
884.52	14944
884.646	15001
884.772	14998
884.897	14861
885.023	14979
885.148	15112
885.274	15127
885.399	15089
885.524	14918
885.65	14956
885.775	15001
885.9	14906
886.025	15085
886.15	15074
886.275	14929
886.4	14883
886.525	14994
886.65	14864
886.775	14788
886.9	15051
887.025	15146
887.149	14986
887.274	14861
887.399	14773
887.523	14765
887.648	14727
887.773	14667
887.897	14811
888.021	14857
888.146	14739
888.27	14792
888.395	14944
888.519	14880
888.643	14864
888.767	14876
888.891	14735
889.015	14678
889.139	14720
889.263	14659
889.387	14667
889.511	14857
889.635	14731
889.759	14590
889.883	14663
890.006	14625
890.13	14834
890.254	14537
890.377	14575
890.501	14469
890.624	14396
890.748	14480
890.871	14480
890.995	14301
891.118	14248
891.241	14248
891.364	14332
891.488	14404
891.611	14355
891.734	14313
891.857	14415
891.98	14347
892.103	14545
892.226	14465
892.349	14362
892.471	14149
892.594	14294
892.717	14351
892.839	14313
892.962	14282
893.085	14427
893.207	14389
893.33	14172
893.452	14271
893.575	14404
893.697	14282
893.819	14579
893.941	14590
894.064	14602
894.186	14271
894.308	14256
894.43	14473
894.552	14571
894.674	14560
894.796	14404
894.918	14381
895.04	14499
895.161	14530
895.283	14499
895.405	14385
895.526	14400
895.648	14454
895.769	14530
895.891	14587
896.012	14549
896.134	14518
896.255	14480
896.376	14526
896.498	14442
896.619	14568
896.74	14530
896.861	14533
896.982	14845
897.103	14990
897.224	14678
897.345	14762
897.466	14583
897.587	14819
897.708	14785
897.828	14891
897.949	14739
898.07	14625
898.19	14686
898.311	14853
898.431	14819
898.552	14864
898.672	14948
898.792	14956
898.913	14902
899.033	14807
899.153	14727
899.273	14537
899.393	14731
899.513	14712
899.633	14792
899.753	14731
899.873	14754
899.993	14826
900.113	14678
900.232	14689
900.352	14765
900.472	14629
900.591	14602
900.711	14640
900.83	14571
900.95	14613
901.069	14765
901.189	14610
901.308	14252
901.427	14275
901.546	14298
901.665	14294
901.784	14218
901.904	14161
902.023	14081
902.141	13940
902.26	13780
902.379	13883
902.498	13761
902.617	13803
902.735	13871
902.854	13719
902.973	13738
903.091	13601
903.21	13552
903.328	13537
903.446	13415
903.565	13411
903.683	13441
903.801	13266
903.919	13350
904.038	13331
904.156	13213
904.274	13213
904.392	13209
904.51	13164
904.627	13133
904.745	13225
904.863	13247
904.981	13004
905.098	12810
905.216	12825
905.334	12878
905.451	12993
905.569	12859
905.686	12905
905.803	12958
905.921	12730
906.038	12817
906.155	12681
906.272	12700
906.389	12589
906.506	12513
906.623	12437
906.74	12532
906.857	12334
906.974	12346
907.091	12589
907.208	12566
907.324	12490
907.441	12407
907.557	12144
907.674	12140
907.79	12171
907.907	12220
908.023	12178
908.139	12171
908.256	12133
908.372	12171
908.488	12064
908.604	11973
908.72	11927
908.836	11939
908.952	11954
909.068	11973
909.184	12091
909.3	11958
909.415	11996
909.531	11954
909.647	11813
909.762	11733
909.878	11748
909.993	11726
910.108	11729
910.224	11733
910.339	11817
910.454	11661
910.57	11577
910.685	11474
910.8	11866
910.915	11790
911.03	11566
911.145	11395
911.259	11326
911.374	11444
911.489	11292
911.604	11360
911.718	11246
911.833	11143
911.947	11071
912.062	11029
912.176	11128
912.291	11208
912.405	11102
912.519	11410
912.633	11471
912.748	11288
912.862	11231
912.976	11037
913.09	10984
913.204	11086
913.318	11121
913.431	11075
913.545	11143
913.659	11098
913.772	11052
913.886	10968
914	10862
914.113	11018
914.226	11083
914.34	11041
914.453	10839
914.566	11045
914.68	10930
914.793	10797
914.906	10649
915.019	10603
915.132	10611
915.245	10668
915.358	10691
915.47	10691
915.583	10599
915.696	10687
915.809	10828
915.921	10778
916.034	10630
916.146	10649
916.259	10588
916.371	10630
916.483	10664
916.595	10592
916.708	10558
916.82	10588
916.932	10668
917.044	10626
917.156	10512
917.268	10440
917.38	10523
917.491	10474
917.603	10489
917.715	10615
917.826	10592
917.938	10394
918.049	10352
918.161	10531
918.272	10580
918.384	10630
918.495	10550
918.606	10322
918.717	10394
918.828	10447
918.939	10341
919.05	10379
919.161	10382
919.272	10181
919.383	10192
919.494	10367
919.604	10592
919.715	10367
919.826	10306
919.936	10360
920.047	10451
920.157	10417
920.267	10611
920.378	10451
920.488	10417
920.598	10630
920.708	10710
920.818	10500
920.928	10580
921.038	10812
921.148	10641
921.258	10481
921.368	10284
921.477	10227
921.587	10276
921.697	10154
921.806	10276
921.916	10265
922.025	9987
922.134	9979
922.244	9808
922.353	9983
922.462	9850
922.571	9800
922.68	9648
922.789	9568
922.898	9625
923.007	9542
923.116	9625
923.224	9545
923.333	9606
923.442	9538
923.55	9561
923.659	9568
923.767	9644
923.876	9492
923.984	9564
924.092	9420
924.201	9447
924.309	9580
924.417	9511
924.525	9412
924.633	9416
924.741	10417
924.849	9260
924.956	9386
925.064	9237
925.172	9260
925.279	9253
925.387	9188
925.494	9306
925.602	9374
925.709	9393
925.816	9176
925.924	9275
926.031	9374
926.138	9321
926.245	9310
926.352	9203
926.459	9306
926.566	9344
926.673	9233
926.779	9165
926.886	9093
926.993	9017
927.099	8979
927.206	8914
927.312	8921
927.419	9013
927.525	8937
927.631	9058
927.737	8925
927.843	8895
927.95	8819
928.056	8773
928.162	8864
928.267	8925
928.373	9481
928.479	9024
928.585	8743
928.69	8872
928.796	8960
928.901	8864
929.007	8610
929.112	8788
929.218	8754
929.323	8731
929.428	8754
929.533	8834
929.638	8587
929.743	8667
929.848	8750
929.953	8640
930.058	8590
930.163	8450
930.267	8488
930.372	8480
930.477	8400
930.581	8697
930.685	8552
930.79	8431
930.894	8427
930.998	8400
931.103	8549
931.207	8202
931.311	8119
931.415	8164
931.519	7890
931.623	7947
