Data from test_V78500241_2170.txt Node
Date: Fri Mar 25 14:48:49 CST 2022
User: usil
Spectrometer: V785-0024
Trigger mode: 0
Integration Time (sec): 4.000000E-1
Scans to average: 1
Nonlinearity correction enabled: false
Boxcar width: 0
Storing dark spectrum: false
XAxis mode: Wavelengths
Number of Pixels in Spectrum: 1024
>>>>>Begin Spectral Data<<<<<
801.071	22150
801.214	22063
801.356	21770
801.499	21736
801.641	21583
801.783	21504
801.926	21473
802.068	21511
802.211	21382
802.353	21332
802.496	21138
802.638	21020
802.78	21024
802.923	20861
803.065	20880
803.208	20838
803.35	20769
803.492	20918
803.635	20887
803.777	20845
803.919	20857
804.061	21192
804.204	20902
804.346	20705
804.488	20686
804.63	20785
804.773	20811
804.915	20746
805.057	20849
805.199	20788
805.341	20743
805.483	20918
805.626	20830
805.768	20750
805.91	20792
806.052	20899
806.194	20708
806.336	20895
806.478	20819
806.62	20712
806.762	20765
806.904	20918
807.046	21176
807.188	21108
807.33	21135
807.472	21184
807.614	20952
807.756	21036
807.898	20864
808.04	20769
808.182	20933
808.324	20811
808.465	20952
808.607	21188
808.749	21116
808.891	21157
809.033	21374
809.174	21256
809.316	21100
809.458	21081
809.6	21123
809.741	21154
809.883	21150
810.025	21401
810.166	21260
810.308	21264
810.45	21203
810.591	21184
810.733	21119
810.875	21020
811.016	20762
811.158	20788
811.299	20895
811.441	20937
811.582	20990
811.724	21058
811.865	20925
812.007	20937
812.148	20891
812.29	21001
812.431	21100
812.573	21264
812.714	21214
812.855	21439
812.997	21591
813.138	21614
813.279	21477
813.421	21401
813.562	21351
813.703	21062
813.845	21028
813.986	20769
814.127	20716
814.268	20594
814.41	20613
814.551	20495
814.692	20484
814.833	20465
814.974	20473
815.115	20377
815.256	20328
815.397	20263
815.539	20336
815.68	20161
815.821	20084
815.962	20161
816.103	20107
816.244	19936
816.385	19925
816.526	20012
816.666	19871
816.807	19597
816.948	19658
817.089	19666
817.23	19594
817.371	19594
817.512	19658
817.653	19597
817.793	19563
817.934	19472
818.075	19597
818.216	19708
818.356	19480
818.497	19449
818.638	19285
818.778	19419
818.919	19331
819.06	19358
819.2	19552
819.341	19537
819.481	19400
819.622	19723
819.762	19750
819.903	19670
820.043	19696
820.184	19506
820.324	19635
820.465	19578
820.605	19567
820.746	19575
820.886	19476
821.026	19594
821.167	19563
821.307	19677
821.447	19506
821.588	19453
821.728	19274
821.868	19228
822.008	18993
822.149	19008
822.289	18916
822.429	18730
822.569	18776
822.709	18597
822.849	18502
822.99	18494
823.13	18555
823.27	18486
823.41	18403
823.55	18251
823.69	18323
823.83	18224
823.97	18270
824.11	18201
824.25	18019
824.389	18068
824.529	18152
824.669	18057
824.809	18125
824.949	18041
825.089	18102
825.228	18079
825.368	17840
825.508	17889
825.648	17882
825.787	17996
825.927	17942
826.067	17756
826.206	17737
826.346	17939
826.485	17992
826.625	17745
826.765	17908
826.904	17882
827.044	17695
827.183	17668
827.323	17467
827.462	17630
827.601	17520
827.741	17410
827.88	17535
828.02	17368
828.159	17478
828.298	17532
828.437	17532
828.577	17532
828.716	17638
828.855	17398
828.994	17261
829.134	17379
829.273	17330
829.412	17303
829.551	17197
829.69	17223
829.829	17250
829.968	17345
830.107	17299
830.246	17311
830.385	17208
830.524	17140
830.663	17045
830.802	17067
830.941	16915
831.08	16915
831.219	17014
831.357	16961
831.496	17166
831.635	16782
831.774	16858
831.913	16801
832.051	16691
832.19	16725
832.329	16717
832.467	16599
832.606	16508
832.744	16592
832.883	16630
833.022	16508
833.16	16599
833.299	16637
833.437	16694
833.576	16637
833.714	16744
833.852	16641
833.991	16778
834.129	16717
834.267	16660
834.406	16550
834.544	16626
834.682	16649
834.821	16668
834.959	16744
835.097	16691
835.235	16824
835.373	16573
835.511	16558
835.65	16527
835.788	16459
835.926	16356
836.064	16306
836.202	16367
836.34	16519
836.478	16615
836.615	16481
836.753	16569
836.891	16527
837.029	16565
837.167	16500
837.305	16398
837.443	16394
837.58	16325
837.718	16459
837.856	16554
837.993	16310
838.131	16447
838.269	16246
838.406	16291
838.544	16272
838.681	16093
838.819	16002
838.956	15956
839.094	15994
839.231	16025
839.369	16010
839.506	16291
839.643	16074
839.781	15972
839.918	15895
840.055	15873
840.193	15934
840.33	15850
840.467	15945
840.604	15972
840.742	16109
840.879	15770
841.016	15827
841.153	15816
841.29	16032
841.427	15949
841.564	15998
841.701	15968
841.838	15953
841.975	15873
842.112	15915
842.249	15755
842.385	15618
842.522	15888
842.659	15724
842.796	15759
842.933	15720
843.069	15675
843.206	15717
843.343	15720
843.479	15618
843.616	15759
843.752	15584
843.889	15435
844.025	15774
844.162	15408
844.298	15686
844.435	15542
844.571	15454
844.708	15599
844.844	15679
844.98	15663
845.117	15694
845.253	15408
845.389	15504
845.525	15526
845.661	15355
845.798	15298
845.934	15370
846.07	15241
846.206	15340
846.342	15431
846.478	15408
846.614	15138
846.75	15074
846.886	15013
847.022	15176
847.158	15051
847.294	15119
847.429	15066
847.565	15043
847.701	15275
847.837	14842
847.972	14781
848.108	14925
848.244	14872
848.379	14758
848.515	14606
848.65	14678
848.786	14705
848.921	14727
849.057	14769
849.192	14682
849.328	14754
849.463	14720
849.598	14629
849.734	14598
849.869	14507
850.004	14518
850.14	14545
850.275	14419
850.41	14374
850.545	14446
850.68	14370
850.815	14351
850.95	14374
851.085	14651
851.22	14594
851.355	14385
851.49	14442
851.625	14507
851.76	14400
851.895	14286
852.03	14290
852.165	14400
852.299	14541
852.434	14564
852.569	14473
852.703	14393
852.838	14431
852.973	14613
853.107	14541
853.242	14385
853.376	14275
853.511	14138
853.645	14324
853.78	14408
853.914	14381
854.048	14317
854.183	14195
854.317	14355
854.451	14465
854.585	14305
854.72	14298
854.854	14347
854.988	14317
855.122	14343
855.256	14309
855.39	14263
855.524	14256
855.658	14286
855.792	14374
855.926	14347
856.06	14298
856.194	14431
856.327	14278
856.461	14164
856.595	14267
856.729	14271
856.862	14404
856.996	14290
857.13	14511
857.263	14484
857.397	14484
857.53	14313
857.664	14431
857.797	14412
857.931	14503
858.064	14248
858.197	14457
858.331	14271
858.464	14187
858.597	14176
858.731	14225
858.864	14328
858.997	14301
859.13	14362
859.263	14317
859.396	14328
859.529	14294
859.662	14290
859.795	14153
859.928	14370
860.061	14579
860.194	14480
860.327	14221
860.46	14393
860.592	14404
860.725	14541
860.858	14446
860.99	14294
861.123	14233
861.256	14225
861.388	14339
861.521	14971
861.653	14161
861.786	14195
861.918	14187
862.05	14286
862.183	14286
862.315	14362
862.447	14396
862.58	14240
862.712	14088
862.844	14100
862.976	14248
863.108	14100
863.24	14427
863.372	13978
863.504	14069
863.636	14092
863.768	14069
863.9	14084
864.032	14012
864.164	14142
864.296	14134
864.428	14210
864.559	14176
864.691	14111
864.823	14126
864.954	14149
865.086	14153
865.217	14046
865.349	14005
865.48	14054
865.612	14073
865.743	14275
865.875	14138
866.006	14062
866.137	14046
866.269	14058
866.4	14142
866.531	14046
866.662	14012
866.793	14058
866.924	14005
867.055	14115
867.186	14073
867.317	13963
867.448	13917
867.579	14069
867.71	14046
867.841	13978
867.972	14111
868.103	13989
868.233	14020
868.364	14039
868.495	14172
868.625	14317
868.756	14389
868.886	14206
869.017	14320
869.147	14408
869.278	14374
869.408	14305
869.539	14225
869.669	14396
869.799	14358
869.929	14415
870.06	14522
870.19	14583
870.32	14556
870.45	14621
870.58	14693
870.71	14842
870.84	14804
870.97	14724
871.1	14735
871.23	14857
871.36	14872
871.489	14834
871.619	14868
871.749	14868
871.879	14899
872.008	14990
872.138	14929
872.267	14933
872.397	14815
872.526	14785
872.656	14720
872.785	14800
872.915	14872
873.044	15039
873.173	15005
873.303	15081
873.432	15024
873.561	15070
873.69	14941
873.819	14986
873.948	15032
874.077	15047
874.206	14982
874.335	14971
874.464	15119
874.593	15218
874.722	15123
874.851	15317
874.979	15306
875.108	15283
875.237	15325
875.365	15203
875.494	15241
875.623	15317
875.751	15291
875.88	15325
876.008	15454
876.136	15424
876.265	15671
876.393	15831
876.521	15816
876.65	15793
876.778	15599
876.906	15675
877.034	15698
877.162	15641
877.29	15564
877.418	15747
877.546	15720
877.674	15656
877.802	15660
877.93	15701
878.058	15682
878.185	15633
878.313	15686
878.441	15682
878.568	15412
878.696	15606
878.824	15682
878.951	15816
879.079	15812
879.206	15991
879.333	15888
879.461	15785
879.588	15869
879.715	15888
879.842	15934
879.97	15762
880.097	15500
880.224	15538
880.351	15526
880.478	15633
880.605	15534
880.732	15553
880.859	15846
880.986	15618
881.112	15564
881.239	15367
881.366	15428
881.493	15283
881.619	15146
881.746	15230
881.872	15218
881.999	15252
882.125	15089
882.252	15325
882.378	15302
882.505	15397
882.631	15165
882.757	14918
882.883	15150
883.01	15131
883.136	14929
883.262	14864
883.388	15005
883.514	14948
883.64	15070
883.766	15013
883.892	14807
884.018	14834
884.143	15028
884.269	15119
884.395	14762
884.52	14632
884.646	14788
884.772	14598
884.897	14587
885.023	14750
885.148	14765
885.274	14815
885.399	14823
885.524	14708
885.65	14712
885.775	14804
885.9	14705
886.025	14910
886.15	14769
886.275	14663
886.4	14632
886.525	14682
886.65	14716
886.775	14648
886.9	14781
887.025	14933
887.149	14716
887.274	14663
887.399	14488
887.523	14590
887.648	14412
887.773	14465
887.897	14651
888.021	14579
888.146	14587
888.27	14644
888.395	14606
888.519	14590
888.643	14602
888.767	14735
888.891	14412
889.015	14389
889.139	14454
889.263	14408
889.387	14465
889.511	14587
889.635	14530
889.759	14442
889.883	14415
890.006	14389
890.13	14549
890.254	14358
890.377	14393
890.501	14096
890.624	14183
890.748	14271
890.871	14259
890.995	14126
891.118	14149
891.241	14107
891.364	14145
891.488	14214
891.611	14103
891.734	14172
891.857	14153
891.98	14073
892.103	14172
892.226	14092
892.349	14123
892.471	13928
892.594	14062
892.717	14123
892.839	14058
892.962	14084
893.085	14126
893.207	14164
893.33	13986
893.452	14096
893.575	14126
893.697	14077
893.819	14256
893.941	14355
894.064	14240
894.186	14103
894.308	14100
894.43	14389
894.552	14415
894.674	14229
894.796	14172
894.918	14180
895.04	14100
895.161	14294
895.283	14259
895.405	14134
895.526	14225
895.648	14290
895.769	14168
895.891	14233
896.012	14339
896.134	14343
896.255	14328
896.376	14271
896.498	14244
896.619	14301
896.74	14313
896.861	14237
896.982	14632
897.103	14720
897.224	14583
897.345	14461
897.466	14431
897.587	14533
897.708	14606
897.828	14610
897.949	14537
898.07	14374
898.19	14549
898.311	14697
898.431	14587
898.552	14606
898.672	14602
898.792	14762
898.913	14629
899.033	14560
899.153	14469
899.273	14370
899.393	14450
899.513	14530
899.633	14503
899.753	14507
899.873	14480
899.993	14613
900.113	14476
900.232	14552
900.352	14499
900.472	14412
900.591	14400
900.711	14412
900.83	14309
900.95	14518
901.069	14423
901.189	14320
901.308	14145
901.427	14035
901.546	14024
901.665	14081
901.784	14043
901.904	13879
902.023	13826
902.141	13605
902.26	13586
902.379	13639
902.498	13480
902.617	13476
902.735	13525
902.854	13681
902.973	13506
903.091	13259
903.21	13308
903.328	13339
903.446	13202
903.565	13129
903.683	13285
903.801	13008
903.919	13187
904.038	13141
904.156	12993
904.274	13107
904.392	12920
904.51	12966
904.627	13004
904.745	12981
904.863	13031
904.981	12772
905.098	12745
905.216	12623
905.334	12715
905.451	12673
905.569	12578
905.686	12677
905.803	12681
905.921	12502
906.038	12536
906.155	12410
906.272	12441
906.389	12513
906.506	12205
906.623	12327
906.74	12300
906.857	12144
906.974	12140
907.091	12243
907.208	12437
907.324	12342
907.441	12098
907.557	12030
907.674	11973
907.79	11988
907.907	11996
908.023	11980
908.139	11988
908.256	12011
908.372	12019
908.488	11920
908.604	11836
908.72	11764
908.836	11847
908.952	11718
909.068	11843
909.184	11843
909.3	11722
909.415	11779
909.531	11809
909.647	11558
909.762	11638
909.878	11478
909.993	11600
910.108	11543
910.224	11516
910.339	11604
910.454	11547
910.57	11474
910.685	11299
910.8	11585
910.915	11589
911.03	11436
911.145	11277
911.259	11258
911.374	11197
911.489	11231
911.604	11136
911.718	11018
911.833	10984
911.947	10885
912.062	10881
912.176	11029
912.291	11037
912.405	10980
912.519	11105
912.633	11273
912.748	10965
912.862	11045
912.976	10934
913.09	10801
913.204	10850
913.318	10873
913.431	10957
913.545	10942
913.659	10976
913.772	10869
913.886	10710
914	10786
914.113	10816
914.226	10862
914.34	10771
914.453	10694
914.566	10850
914.68	10698
914.793	10679
914.906	10550
915.019	10447
915.132	10405
915.245	10527
915.358	10584
915.47	10550
915.583	10512
915.696	10554
915.809	10721
915.921	10641
916.034	10516
916.146	10580
916.259	10455
916.371	10550
916.483	10573
916.595	10402
916.708	10424
916.82	10478
916.932	10428
917.044	10440
917.156	10367
917.268	10382
917.38	10344
917.491	10280
917.603	10295
917.715	10421
917.826	10413
917.938	10276
918.049	10238
918.161	10352
918.272	10390
918.384	10443
918.495	10394
918.606	10227
918.717	10139
918.828	10272
918.939	10211
919.05	10109
919.161	10234
919.272	9964
919.383	10032
919.494	10333
919.604	10474
919.715	10204
919.826	10093
919.936	10158
920.047	10428
920.157	10249
920.267	10398
920.378	10242
920.488	10177
920.598	10409
920.708	10615
920.818	10497
920.928	10386
921.038	10573
921.148	10531
921.258	10291
921.368	10147
921.477	10124
921.587	10143
921.697	9987
921.806	10150
921.916	10010
922.025	9778
922.134	9797
922.244	9698
922.353	9854
922.462	9637
922.571	9637
922.68	9397
922.789	9447
922.898	9530
923.007	9355
923.116	9500
923.224	9580
923.333	9424
923.442	9348
923.55	9386
923.659	9370
923.767	9428
923.876	9291
923.984	9454
924.092	9298
924.201	9389
924.309	9397
924.417	9450
924.525	9291
924.633	9336
924.741	10006
924.849	9097
924.956	9241
925.064	9142
925.172	9135
925.279	9093
925.387	9123
925.494	9188
925.602	9329
925.709	9241
925.816	9039
925.924	9142
926.031	9249
926.138	9119
926.245	9230
926.352	8963
926.459	9180
926.566	9256
926.673	9127
926.779	9013
926.886	9020
926.993	8826
927.099	8872
927.206	8838
927.312	8819
927.419	8929
927.525	8800
927.631	8880
927.737	8785
927.843	8731
927.95	8636
928.056	8788
928.162	8739
928.267	8769
928.373	9336
928.479	8849
928.585	8579
928.69	8811
928.796	8746
928.901	8632
929.007	8499
929.112	8674
929.218	8629
929.323	8556
929.428	8594
929.533	8629
929.638	8495
929.743	8518
929.848	8602
929.953	8598
930.058	8495
930.163	8362
930.267	8324
930.372	8499
930.477	8324
930.581	8579
930.685	8419
930.79	8218
930.894	8313
930.998	8259
931.103	8446
931.207	8077
931.311	8058
931.415	7989
931.519	7784
931.623	7833
