Data from test_V78500241_1053.txt Node
Date: Fri Mar 25 14:41:02 CST 2022
User: usil
Spectrometer: V785-0024
Trigger mode: 0
Integration Time (sec): 4.000000E-1
Scans to average: 1
Nonlinearity correction enabled: false
Boxcar width: 0
Storing dark spectrum: false
XAxis mode: Wavelengths
Number of Pixels in Spectrum: 1024
>>>>>Begin Spectral Data<<<<<
801.071	22934
801.214	22706
801.356	22554
801.499	22421
801.641	22284
801.783	22219
801.926	22135
802.068	22215
802.211	22169
802.353	22002
802.496	21812
802.638	21671
802.78	21610
802.923	21591
803.065	21504
803.208	21431
803.35	21519
803.492	21698
803.635	21641
803.777	21500
803.919	21747
804.061	21922
804.204	21660
804.346	21591
804.488	21488
804.63	21507
804.773	21443
804.915	21564
805.057	21576
805.199	21526
805.341	21564
805.483	21686
805.626	21656
805.768	21466
805.91	21534
806.052	21412
806.194	21485
806.336	21644
806.478	21492
806.62	21485
806.762	21705
806.904	21667
807.046	22017
807.188	21838
807.33	21892
807.472	21945
807.614	21895
807.756	22002
807.898	21865
808.04	21892
808.182	21831
808.324	21869
808.465	22029
808.607	22242
808.749	22356
808.891	22687
809.033	22653
809.174	22436
809.316	22303
809.458	22276
809.6	22162
809.741	22219
809.883	22234
810.025	22333
810.166	22158
810.308	22143
810.45	22192
810.591	22051
810.733	21907
810.875	21812
811.016	21675
811.158	21667
811.299	21846
811.441	21861
811.582	21789
811.724	21770
811.865	21629
812.007	21793
812.148	21671
812.29	21709
812.431	21895
812.573	21934
812.714	22196
812.855	22207
812.997	22314
813.138	22481
813.279	22337
813.421	22234
813.562	22169
813.703	22036
813.845	21838
813.986	21603
814.127	21321
814.268	21306
814.41	21294
814.551	21294
814.692	21306
814.833	21222
814.974	21230
815.115	21165
815.256	21104
815.397	21131
815.539	21154
815.68	21020
815.821	21081
815.962	21074
816.103	20956
816.244	20785
816.385	20674
816.526	20720
816.666	20617
816.807	20495
816.948	20465
817.089	20564
817.23	20461
817.371	20358
817.512	20355
817.653	20343
817.793	20377
817.934	20507
818.075	20461
818.216	20412
818.356	20256
818.497	20202
818.638	20195
818.778	20240
818.919	20062
819.06	20149
819.2	20168
819.341	20259
819.481	20301
819.622	20347
819.762	20571
819.903	20419
820.043	20419
820.184	20332
820.324	20434
820.465	20423
820.605	20400
820.746	20328
820.886	20199
821.026	20309
821.167	20381
821.307	20317
821.447	20271
821.588	20210
821.728	20050
821.868	19974
822.008	19750
822.149	19780
822.289	19776
822.429	19499
822.569	19460
822.709	19556
822.849	19148
822.99	19198
823.13	19137
823.27	19206
823.41	19122
823.55	19107
823.69	19133
823.83	19103
823.97	19061
824.11	18837
824.25	18764
824.389	18848
824.529	18894
824.669	18901
824.809	18916
824.949	18882
825.089	18989
825.228	18833
825.368	18711
825.508	18623
825.648	18593
825.787	18730
825.927	18631
826.067	18601
826.206	18589
826.346	18658
826.485	18696
826.625	18608
826.765	18715
826.904	18563
827.044	18426
827.183	18388
827.323	18277
827.462	18464
827.601	18407
827.741	18273
827.88	18410
828.02	18159
828.159	18369
828.298	18426
828.437	18407
828.577	18338
828.716	18395
828.855	18372
828.994	18201
829.134	18102
829.273	18072
829.412	17980
829.551	18087
829.69	18190
829.829	18114
829.968	18228
830.107	18129
830.246	18106
830.385	18057
830.524	17946
830.663	17878
830.802	17866
830.941	17790
831.08	17699
831.219	17878
831.357	17760
831.496	17927
831.635	17691
831.774	17653
831.913	17600
832.051	17490
832.19	17497
832.329	17452
832.467	17490
832.606	17452
832.744	17516
832.883	17421
833.022	17376
833.16	17455
833.299	17532
833.437	17501
833.576	17455
833.714	17501
833.852	17585
833.991	17573
834.129	17528
834.267	17539
834.406	17566
834.544	17558
834.682	17516
834.821	17520
834.959	17672
835.097	17444
835.235	17532
835.373	17410
835.511	17417
835.65	17372
835.788	17402
835.926	17220
836.064	17166
836.202	17239
836.34	17360
836.478	17433
836.615	17410
836.753	17440
836.891	17425
837.029	17410
837.167	17368
837.305	17326
837.443	17227
837.58	17204
837.718	17315
837.856	17258
837.993	17227
838.131	17250
838.269	17113
838.406	17170
838.544	17041
838.681	16946
838.819	16972
838.956	16733
839.094	16771
839.231	16759
839.369	16957
839.506	17132
839.643	17010
839.781	16831
839.918	16660
840.055	16752
840.193	16839
840.33	16736
840.467	16778
840.604	16824
840.742	16972
840.879	16664
841.016	16592
841.153	16656
841.29	16805
841.427	16820
841.564	16809
841.701	16717
841.838	16702
841.975	16588
842.112	16672
842.249	16493
842.385	16577
842.522	16725
842.659	16493
842.796	16519
842.933	16573
843.069	16489
843.206	16462
843.343	16607
843.479	16546
843.616	16440
843.752	16390
843.889	16348
844.025	16470
844.162	16162
844.298	16504
844.435	16352
844.571	16268
844.708	16440
844.844	16512
844.98	16485
845.117	16455
845.253	16306
845.389	16337
845.525	16500
845.661	16596
845.798	16645
845.934	16881
846.07	16877
846.206	16930
846.342	16877
846.478	16588
846.614	16253
846.75	16036
846.886	15964
847.022	16135
847.158	15991
847.294	15918
847.429	15991
847.565	15915
847.701	16116
847.837	15686
847.972	15584
848.108	15724
848.244	15618
848.379	15504
848.515	15492
848.65	15428
848.786	15416
848.921	15500
849.057	15545
849.192	15519
849.328	15496
849.463	15530
849.598	15389
849.734	15321
849.869	15344
850.004	15249
850.14	15287
850.275	15203
850.41	15180
850.545	15077
850.68	15214
850.815	15207
850.95	15226
851.085	15416
851.22	15279
851.355	15230
851.49	15222
851.625	15066
851.76	15176
851.895	15039
852.03	15173
852.165	15230
852.299	15195
852.434	15199
852.569	15199
852.703	15287
852.838	15275
852.973	15363
853.107	15370
853.242	15093
853.376	15093
853.511	14914
853.645	15131
853.78	15249
853.914	15176
854.048	15112
854.183	15074
854.317	15043
854.451	15245
854.585	15017
854.72	15058
854.854	15222
854.988	15024
855.122	15055
855.256	14963
855.39	15051
855.524	15138
855.658	15097
855.792	15188
855.926	15097
856.06	15138
856.194	15203
856.327	15062
856.461	14967
856.595	14986
856.729	15077
856.862	15268
856.996	15116
857.13	15222
857.263	15169
857.397	15169
857.53	15108
857.664	15055
857.797	15154
857.931	15180
858.064	15127
858.197	15188
858.331	15085
858.464	15074
858.597	15005
858.731	15066
858.864	15150
858.997	15036
859.13	15039
859.263	15135
859.396	15131
859.529	15051
859.662	15085
859.795	15024
859.928	15047
860.061	15306
860.194	15214
860.327	15047
860.46	15112
860.592	15233
860.725	15138
860.858	15192
860.99	15062
861.123	14963
861.256	14979
861.388	15077
861.521	15694
861.653	14971
861.786	14857
861.918	14880
862.05	14952
862.183	15017
862.315	15024
862.447	15089
862.58	14982
862.712	14811
862.844	14842
862.976	14743
863.108	14876
863.24	15344
863.372	14777
863.504	14914
863.636	14819
863.768	14918
863.9	14826
864.032	14735
864.164	14834
864.296	14845
864.428	14933
864.559	14994
864.691	14963
864.823	14948
864.954	14819
865.086	14834
865.217	14830
865.349	14765
865.48	14830
865.612	14819
865.743	14971
865.875	14834
866.006	14788
866.137	14838
866.269	14785
866.4	14826
866.531	14754
866.662	14682
866.793	14720
866.924	14765
867.055	14823
867.186	14804
867.317	14785
867.448	14602
867.579	14533
867.71	14689
867.841	14697
867.972	14788
868.103	14777
868.233	14895
868.364	14777
868.495	14830
868.625	15093
868.756	15176
868.886	14914
869.017	15024
869.147	15245
869.278	15169
869.408	15085
869.539	15097
869.669	15176
869.799	15097
869.929	15218
870.06	15226
870.19	15397
870.32	15291
870.45	15291
870.58	15363
870.71	15587
870.84	15557
870.97	15397
871.1	15473
871.23	15644
871.36	15663
871.489	15538
871.619	15584
871.749	15660
871.879	15667
872.008	15736
872.138	15705
872.267	15648
872.397	15549
872.526	15443
872.656	15473
872.785	15462
872.915	15652
873.044	15793
873.173	15686
873.303	15720
873.432	15781
873.561	15690
873.69	15648
873.819	15652
873.948	15808
874.077	15694
874.206	15625
874.335	15705
874.464	15880
874.593	15911
874.722	15934
874.851	16055
874.979	15991
875.108	15987
875.237	15979
875.365	15994
875.494	15960
875.623	16010
875.751	16010
875.88	16059
876.008	16223
876.136	16234
876.265	16447
876.393	16561
876.521	16500
876.65	16497
876.778	16481
876.906	16398
877.034	16390
877.162	16405
877.29	16451
877.418	16375
877.546	16474
877.674	16348
877.802	16398
877.93	16466
878.058	16322
878.185	16382
878.313	16386
878.441	16455
878.568	16280
878.696	16413
878.824	16622
878.951	16744
879.079	16782
879.206	16961
879.333	16908
879.461	16812
879.588	16961
879.715	16885
879.842	17067
879.97	16809
880.097	16531
880.224	16447
880.351	16405
880.478	16417
880.605	16344
880.732	16276
880.859	16645
880.986	16379
881.112	16360
881.239	16272
881.366	16090
881.493	16063
881.619	16017
881.746	16006
881.872	16067
881.999	15907
882.125	15899
882.252	16082
882.378	16097
882.505	16158
882.631	16067
882.757	15865
882.883	15797
883.01	15804
883.136	15713
883.262	15633
883.388	15660
883.514	15804
883.64	15808
883.766	15766
883.892	15622
884.018	15610
884.143	15800
884.269	15804
884.395	15530
884.52	15507
884.646	15549
884.772	15408
884.897	15466
885.023	15526
885.148	15603
885.274	15633
885.399	15606
885.524	15477
885.65	15625
885.775	15466
885.9	15523
886.025	15637
886.15	15431
886.275	15447
886.4	15310
886.525	15469
886.65	15492
886.775	15378
886.9	15553
887.025	15720
887.149	15431
887.274	15450
887.399	15317
887.523	15272
887.648	15298
887.773	15252
887.897	15241
888.021	15386
888.146	15241
888.27	15336
888.395	15340
888.519	15428
888.643	15249
888.767	15291
888.891	15241
889.015	15195
889.139	15230
889.263	15169
889.387	15180
889.511	15321
889.635	15252
889.759	15093
889.883	15165
890.006	15112
890.13	15131
890.254	15028
890.377	14975
890.501	14971
890.624	14876
890.748	14914
890.871	14899
890.995	14701
891.118	14678
891.241	14796
891.364	14754
891.488	14845
891.611	14842
891.734	14785
891.857	14982
891.98	14853
892.103	14819
892.226	14902
892.349	14796
892.471	14632
892.594	14788
892.717	14746
892.839	14762
892.962	14758
893.085	14902
893.207	14811
893.33	14716
893.452	14727
893.575	14823
893.697	14792
893.819	14899
893.941	14971
894.064	14967
894.186	14712
894.308	14758
894.43	14872
894.552	15028
894.674	14956
894.796	14743
894.918	14754
895.04	14826
895.161	14876
895.283	14887
895.405	14872
895.526	14948
895.648	14815
895.769	14918
895.891	14986
896.012	14941
896.134	14971
896.255	14902
896.376	14899
896.498	15013
896.619	14887
896.74	14944
896.861	15032
896.982	15302
897.103	15386
897.224	15138
897.345	15188
897.466	15142
897.587	15055
897.708	15272
897.828	15237
897.949	15127
898.07	15005
898.19	15188
898.311	15252
898.431	15150
898.552	15378
898.672	15408
898.792	15401
898.913	15355
899.033	15173
899.153	15146
899.273	14986
899.393	15093
899.513	15112
899.633	15131
899.753	15154
899.873	15081
899.993	15199
900.113	15028
900.232	15207
900.352	15036
900.472	15043
900.591	15009
900.711	14963
900.83	14910
900.95	15036
901.069	15131
901.189	14929
901.308	14613
901.427	14644
901.546	14659
901.665	14625
901.784	14613
901.904	14583
902.023	14393
902.141	14168
902.26	14191
902.379	14278
902.498	14103
902.617	14111
902.735	14168
902.854	14187
902.973	14149
903.091	13986
903.21	13932
903.328	13936
903.446	13791
903.565	13734
903.683	13742
903.801	13693
903.919	13704
904.038	13723
904.156	13438
904.274	13693
904.392	13518
904.51	13529
904.627	13468
904.745	13578
904.863	13533
904.981	13346
905.098	13335
905.216	13301
905.334	13221
905.451	13285
905.569	13202
905.686	13266
905.803	13244
905.921	13023
906.038	13179
906.155	13050
906.272	12970
906.389	12954
906.506	12867
906.623	12833
906.74	12707
906.857	12722
906.974	12734
907.091	12913
907.208	12939
907.324	12833
907.441	12745
907.557	12490
907.674	12555
907.79	12566
907.907	12547
908.023	12593
908.139	12506
908.256	12391
908.372	12410
908.488	12513
908.604	12296
908.72	12289
908.836	12323
908.952	12258
909.068	12270
909.184	12338
909.3	12281
909.415	12365
909.531	12311
909.647	12019
909.762	12034
909.878	11992
909.993	12136
910.108	12053
910.224	12030
910.339	12095
910.454	11939
910.57	11904
910.685	11817
910.8	12117
910.915	12114
911.03	11992
911.145	11767
911.259	11832
911.374	11733
911.489	11726
911.604	11722
911.718	11547
911.833	11493
911.947	11444
912.062	11326
912.176	11417
912.291	11455
912.405	11474
912.519	11653
912.633	11699
912.748	11581
912.862	11490
912.976	11395
913.09	11330
913.204	11299
913.318	11414
913.431	11433
913.545	11379
913.659	11493
913.772	11406
913.886	11174
914	11212
914.113	11284
914.226	11429
914.34	11330
914.453	11132
914.566	11326
914.68	11124
914.793	11121
914.906	11033
915.019	10976
915.132	10911
915.245	10946
915.358	10953
915.47	11029
915.583	11064
915.696	11003
915.809	11075
915.921	11105
916.034	10995
916.146	10957
916.259	10858
916.371	10995
916.483	10885
916.595	10835
916.708	10908
916.82	10961
916.932	10816
917.044	10892
917.156	10809
917.268	10759
917.38	10824
917.491	10786
917.603	10835
917.715	10904
917.826	10896
917.938	10782
918.049	10584
918.161	10801
918.272	10946
918.384	10900
918.495	10771
918.606	10649
918.717	10558
918.828	10607
918.939	10698
919.05	10630
919.161	10694
919.272	10478
919.383	10565
919.494	10729
919.604	10881
919.715	10558
919.826	10485
919.936	10630
920.047	10801
920.157	10668
920.267	10896
920.378	10824
920.488	10679
920.598	10889
920.708	10961
920.818	10881
920.928	10824
921.038	10999
921.148	10980
921.258	10584
921.368	10580
921.477	10481
921.587	10478
921.697	10413
921.806	10493
921.916	10325
922.025	10280
922.134	10230
922.244	10120
922.353	10242
922.462	10128
922.571	10048
922.68	9903
922.789	9876
922.898	9903
923.007	9873
923.116	10036
923.224	9934
923.333	9869
923.442	9770
923.55	9751
923.659	9857
923.767	9816
923.876	9705
923.984	9831
924.092	9724
924.201	9717
924.309	9713
924.417	9781
924.525	9717
924.633	9675
924.741	10607
924.849	9591
924.956	9705
925.064	9466
925.172	9443
925.279	9553
925.387	9542
925.494	9549
925.602	9656
925.709	9610
925.816	9481
925.924	9511
926.031	9557
926.138	9504
926.245	9504
926.352	9447
926.459	9534
926.566	9618
926.673	9431
926.779	9382
926.886	9359
926.993	9268
927.099	9222
927.206	9146
927.312	9135
927.419	9283
927.525	9241
927.631	9351
927.737	9195
927.843	9070
927.95	8944
928.056	9070
928.162	9089
928.267	9180
928.373	9778
928.479	9192
928.585	8929
928.69	9203
928.796	9116
928.901	9009
929.007	8876
929.112	8979
929.218	9020
929.323	8933
929.428	8849
929.533	9077
929.638	8857
929.743	8956
929.848	8967
929.953	8990
930.058	8857
930.163	8701
930.267	8655
930.372	8800
930.477	8689
930.581	8933
930.685	8800
930.79	8598
930.894	8598
930.998	8564
931.103	8693
931.207	8412
931.311	8324
931.415	8237
931.519	8107
931.623	8077
