Data from test_V78500241_357.txt Node
Date: Fri Mar 25 14:36:12 CST 2022
User: usil
Spectrometer: V785-0024
Trigger mode: 0
Integration Time (sec): 4.000000E-1
Scans to average: 1
Nonlinearity correction enabled: false
Boxcar width: 0
Storing dark spectrum: false
XAxis mode: Wavelengths
Number of Pixels in Spectrum: 1024
>>>>>Begin Spectral Data<<<<<
801.071	26944
801.214	26842
801.356	26587
801.499	26355
801.641	26492
801.783	26282
801.926	26286
802.068	26107
802.211	26237
802.353	26084
802.496	25921
802.638	25989
802.78	25799
802.923	25784
803.065	25715
803.208	25795
803.35	25704
803.492	25883
803.635	25845
803.777	25746
803.919	25879
804.061	26138
804.204	25807
804.346	25860
804.488	25655
804.63	25765
804.773	25613
804.915	25677
805.057	25887
805.199	25868
805.341	25727
805.483	25830
805.626	25875
805.768	25658
805.91	25849
806.052	25814
806.194	25818
806.336	26149
806.478	25871
806.62	25849
806.762	25814
806.904	25966
807.046	26347
807.188	26107
807.33	26210
807.472	26233
807.614	26138
807.756	26237
807.898	26062
808.04	25913
808.182	25944
808.324	25966
808.465	25830
808.607	26233
808.749	26320
808.891	26412
809.033	26385
809.174	26339
809.316	26309
809.458	26180
809.6	26153
809.741	26202
809.883	26419
810.025	26438
810.166	26583
810.308	26461
810.45	26492
810.591	26423
810.733	26355
810.875	26309
811.016	26172
811.158	26244
811.299	26290
811.441	26271
811.582	26267
811.724	26313
811.865	26176
812.007	26187
812.148	26187
812.29	26176
812.431	26309
812.573	26533
812.714	26469
812.855	26598
812.997	26720
813.138	26986
813.279	26514
813.421	26716
813.562	26674
813.703	26480
813.845	26400
813.986	26069
814.127	25852
814.268	25875
814.41	25811
814.551	25624
814.692	25830
814.833	25563
814.974	25845
815.115	25830
815.256	25578
815.397	25499
815.539	25616
815.68	25441
815.821	25388
815.962	25400
816.103	25373
816.244	25278
816.385	25122
816.526	25266
816.666	25023
816.807	24817
816.948	24890
817.089	25088
817.23	24806
817.371	24863
817.512	24932
817.653	24795
817.793	24814
817.934	24817
818.075	24905
818.216	24749
818.356	24684
818.497	24753
818.638	24418
818.778	24544
818.919	24422
819.06	24544
819.2	24673
819.341	24703
819.481	24696
819.622	24890
819.762	24973
819.903	25038
820.043	24977
820.184	24833
820.324	24806
820.465	24878
820.605	24943
820.746	24848
820.886	24669
821.026	24798
821.167	24719
821.307	24825
821.447	24772
821.588	24601
821.728	24475
821.868	24365
822.008	24281
822.149	24197
822.289	24091
822.429	23859
822.569	23786
822.709	23843
822.849	23741
822.99	23646
823.13	23577
823.27	23425
823.41	23368
823.55	23330
823.69	23497
823.83	23440
823.97	23239
824.11	23292
824.25	23159
824.389	23121
824.529	23284
824.669	23258
824.809	23269
824.949	23223
825.089	23216
825.228	23151
825.368	23060
825.508	23022
825.648	23113
825.787	22976
825.927	23067
826.067	22919
826.206	22900
826.346	22965
826.485	22961
826.625	23018
826.765	23212
826.904	22961
827.044	22683
827.183	22706
827.323	22615
827.462	22793
827.601	22637
827.741	22694
827.88	22622
828.02	22561
828.159	22603
828.298	22649
828.437	22767
828.577	22508
828.716	22805
828.855	22527
828.994	22394
829.134	22375
829.273	22451
829.412	22360
829.551	22253
829.69	22325
829.829	22337
829.968	22466
830.107	22508
830.246	22360
830.385	22394
830.524	22253
830.663	22154
830.802	22044
830.941	21964
831.08	21869
831.219	21884
831.357	22086
831.496	22078
831.635	21812
831.774	21907
831.913	21797
832.051	21720
832.19	21755
832.329	21599
832.467	21500
832.606	21652
832.744	21572
832.883	21572
833.022	21603
833.16	21545
833.299	21625
833.437	21549
833.576	21679
833.714	21526
833.852	21701
833.991	21660
834.129	21580
834.267	21724
834.406	21641
834.544	21591
834.682	21572
834.821	21519
834.959	21671
835.097	21435
835.235	21545
835.373	21549
835.511	21538
835.65	21435
835.788	21431
835.926	21218
836.064	21173
836.202	21214
836.34	21447
836.478	21523
836.615	21378
836.753	21298
836.891	21530
837.029	21416
837.167	21428
837.305	21336
837.443	21340
837.58	21268
837.718	21249
837.856	21386
837.993	21218
838.131	21165
838.269	21165
838.406	21142
838.544	21062
838.681	20868
838.819	20868
838.956	20670
839.094	20693
839.231	20708
839.369	20895
839.506	21089
839.643	21093
839.781	20762
839.918	20552
840.055	20739
840.193	20670
840.33	20659
840.467	20568
840.604	20598
840.742	20842
840.879	20514
841.016	20606
841.153	20522
841.29	20754
841.427	20648
841.564	20750
841.701	20507
841.838	20560
841.975	20571
842.112	20450
842.249	20442
842.385	20396
842.522	20533
842.659	20320
842.796	20259
842.933	20400
843.069	20374
843.206	20320
843.343	20343
843.479	20434
843.616	20271
843.752	20092
843.889	20168
844.025	20206
844.162	20115
844.298	20142
844.435	20221
844.571	19951
844.708	20081
844.844	20252
844.98	20298
845.117	20240
845.253	19928
845.389	20065
845.525	20134
845.661	19879
845.798	19841
845.934	19940
846.07	19871
846.206	19917
846.342	19959
846.478	19776
846.614	19738
846.75	19563
846.886	19540
847.022	19723
847.158	19445
847.294	19620
847.429	19582
847.565	19468
847.701	19833
847.837	19312
847.972	19384
848.108	19392
848.244	19350
848.379	19160
848.515	19225
848.65	19110
848.786	19209
848.921	19069
849.057	19240
849.192	19255
849.328	19148
849.463	19069
849.598	19034
849.734	19015
849.869	19012
850.004	18939
850.14	18924
850.275	18878
850.41	18825
850.545	18821
850.68	18970
850.815	18833
850.95	18878
851.085	19072
851.22	18882
851.355	18878
851.49	18768
851.625	18802
851.76	18612
851.895	18798
852.03	18722
852.165	18783
852.299	18867
852.434	18852
852.569	18833
852.703	18886
852.838	18954
852.973	18943
853.107	18973
853.242	18825
853.376	18677
853.511	18612
853.645	18688
853.78	18810
853.914	18658
854.048	18661
854.183	18601
854.317	18627
854.451	18817
854.585	18642
854.72	18604
854.854	18673
854.988	18570
855.122	18551
855.256	18506
855.39	18639
855.524	18749
855.658	18730
855.792	18760
855.926	18700
856.06	18726
856.194	18772
856.327	18654
856.461	18563
856.595	18627
856.729	18734
856.862	18661
856.996	18555
857.13	18673
857.263	18760
857.397	18650
857.53	18551
857.664	18570
857.797	18681
857.931	18760
858.064	18696
858.197	18795
858.331	18684
858.464	18467
858.597	18467
858.731	18544
858.864	18589
858.997	18585
859.13	18779
859.263	18608
859.396	18734
859.529	18623
859.662	18528
859.795	18589
859.928	18570
860.061	18791
860.194	18852
860.327	18566
860.46	18582
860.592	18684
860.725	18684
860.858	18658
860.99	18642
861.123	18494
861.256	18574
861.388	18604
861.521	19346
861.653	18342
861.786	18372
861.918	18551
862.05	18604
862.183	18665
862.315	18604
862.447	18722
862.58	18631
862.712	18486
862.844	18251
862.976	18441
863.108	18448
863.24	18639
863.372	18342
863.504	18350
863.636	18300
863.768	18330
863.9	18338
864.032	18262
864.164	18167
864.296	18251
864.428	18327
864.559	18357
864.691	18380
864.823	18384
864.954	18300
865.086	18266
865.217	18342
865.349	18213
865.48	18334
865.612	18163
865.743	18361
865.875	18251
866.006	18224
866.137	18319
866.269	18190
866.4	18167
866.531	18216
866.662	18091
866.793	18174
866.924	18159
867.055	18152
867.186	18167
867.317	18087
867.448	18171
867.579	18133
867.71	18060
867.841	18125
867.972	18140
868.103	18167
868.233	18216
868.364	18224
868.495	18342
868.625	18414
868.756	18486
868.886	18334
869.017	18456
869.147	18502
869.278	18528
869.408	18281
869.539	18426
869.669	18506
869.799	18403
869.929	18445
870.06	18547
870.19	18654
870.32	18772
870.45	18711
870.58	18707
870.71	18798
870.84	18958
870.97	18859
871.1	18741
871.23	18935
871.36	18989
871.489	18954
871.619	18871
871.749	19042
871.879	19065
872.008	19129
872.138	19072
872.267	18954
872.397	18932
872.526	18783
872.656	18825
872.785	18909
872.915	19072
873.044	18977
873.173	19019
873.303	19031
873.432	19057
873.561	19175
873.69	19015
873.819	18989
873.948	19072
874.077	18977
874.206	19053
874.335	18996
874.464	19057
874.593	19164
874.722	19145
874.851	19194
874.979	19324
875.108	19312
875.237	19266
875.365	19255
875.494	19289
875.623	19350
875.751	19289
875.88	19358
876.008	19521
876.136	19491
876.265	19590
876.393	19712
876.521	19723
876.65	19746
876.778	19769
876.906	19647
877.034	19757
877.162	19788
877.29	19597
877.418	19715
877.546	19731
877.674	19681
877.802	19594
877.93	19658
878.058	19613
878.185	19491
878.313	19651
878.441	19616
878.568	19499
878.696	19651
878.824	19643
878.951	19833
879.079	19845
879.206	20145
879.333	19864
879.461	19818
879.588	19940
879.715	19868
879.842	19944
879.97	19841
880.097	19525
880.224	19582
880.351	19537
880.478	19658
880.605	19696
880.732	19575
880.859	19677
880.986	19628
881.112	19540
881.239	19525
881.366	19266
881.493	19282
881.619	19183
881.746	19183
881.872	19126
881.999	19183
882.125	19247
882.252	19179
882.378	19190
882.505	19274
882.631	19065
882.757	18909
882.883	19034
883.01	18993
883.136	18882
883.262	18833
883.388	18901
883.514	18996
883.64	19050
883.766	18966
883.892	18806
884.018	18768
884.143	19008
884.269	18951
884.395	18726
884.52	18582
884.646	18665
884.772	18597
884.897	18570
885.023	18620
885.148	18772
885.274	18707
885.399	18741
885.524	18654
885.65	18627
885.775	18665
885.9	18601
886.025	18681
886.15	18673
886.275	18673
886.4	18673
886.525	18494
886.65	18433
886.775	18433
886.9	18661
887.025	18814
887.149	18563
887.274	18448
887.399	18342
887.523	18327
887.648	18319
887.773	18285
887.897	18418
888.021	18467
888.146	18433
888.27	18467
888.395	18426
888.519	18448
888.643	18437
888.767	18289
888.891	18258
889.015	18194
889.139	18289
889.263	18232
889.387	18350
889.511	18483
889.635	18350
889.759	18174
889.883	18213
890.006	18178
890.13	18300
890.254	18106
890.377	18060
890.501	17836
890.624	17984
890.748	17973
890.871	17878
890.995	17790
891.118	17748
891.241	17843
891.364	17805
891.488	18011
891.611	17718
891.734	17805
891.857	17821
891.98	17817
892.103	17908
892.226	17775
892.349	17767
892.471	17665
892.594	17790
892.717	17760
892.839	17722
892.962	17824
893.085	17897
893.207	17695
893.33	17672
893.452	17661
893.575	17771
893.697	17764
893.819	17813
893.941	17939
894.064	17786
894.186	17733
894.308	17680
894.43	17843
894.552	17863
894.674	17874
894.796	17577
894.918	17771
895.04	17745
895.161	17828
895.283	17733
895.405	17684
895.526	17714
895.648	17748
895.769	17741
895.891	17783
896.012	17958
896.134	18011
896.255	17870
896.376	17866
896.498	17790
896.619	17999
896.74	17908
896.861	17885
896.982	18117
897.103	18281
897.224	18144
897.345	18079
897.466	17939
897.587	18117
897.708	18247
897.828	18144
897.949	18060
898.07	17878
898.19	17965
898.311	18076
898.431	18072
898.552	18034
898.672	18140
898.792	18205
898.913	18133
899.033	17950
899.153	17866
899.273	17718
899.393	17836
899.513	17821
899.633	17843
899.753	17794
899.873	17809
899.993	17824
900.113	17668
900.232	17840
900.352	17726
900.472	17786
900.591	17646
900.711	17779
900.83	17596
900.95	17794
901.069	17802
901.189	17668
901.308	17395
901.427	17341
901.546	17303
901.665	17292
901.784	17356
901.904	17181
902.023	17071
902.141	16885
902.26	16824
902.379	16797
902.498	16790
902.617	16908
902.735	16668
902.854	16793
902.973	16675
903.091	16413
903.21	16455
903.328	16493
903.446	16424
903.565	16344
903.683	16390
903.801	16226
903.919	16341
904.038	16291
904.156	16071
904.274	16242
904.392	16101
904.51	16063
904.627	15991
904.745	16040
904.863	16097
904.981	15880
905.098	15766
905.216	15804
905.334	15812
905.451	15797
905.569	15751
905.686	15804
905.803	15732
905.921	15538
906.038	15644
906.155	15614
906.272	15511
906.389	15435
906.506	15310
906.623	15279
906.74	15233
906.857	15100
906.974	15199
907.091	15306
907.208	15447
907.324	15374
907.441	15245
907.557	15013
907.674	15028
907.79	14994
907.907	14906
908.023	15009
908.139	14929
908.256	14899
908.372	14868
908.488	14842
908.604	14735
908.72	14670
908.836	14739
908.952	14663
909.068	14663
909.184	14830
909.3	14625
909.415	14705
909.531	14648
909.647	14427
909.762	14404
909.878	14396
909.993	14454
910.108	14415
910.224	14423
910.339	14389
910.454	14256
910.57	14286
910.685	14210
910.8	14503
910.915	14347
911.03	14240
911.145	14058
911.259	14123
911.374	14126
911.489	14012
911.604	13883
911.718	13753
911.833	13868
911.947	13655
912.062	13643
912.176	13704
912.291	13799
912.405	13833
912.519	13959
912.633	13986
912.748	13860
912.862	13753
912.976	13616
913.09	13514
913.204	13548
913.318	13609
913.431	13677
913.545	13681
913.659	13788
913.772	13567
913.886	13514
914	13537
914.113	13620
914.226	13609
914.34	13518
914.453	13346
914.566	13548
914.68	13362
914.793	13339
914.906	13198
915.019	13255
915.132	13126
915.245	13152
915.358	13168
915.47	13091
915.583	13206
915.696	13137
915.809	13343
915.921	13327
916.034	13107
916.146	13110
916.259	13084
916.371	13084
916.483	13069
916.595	13019
916.708	13069
916.82	12935
916.932	12951
917.044	13004
917.156	12939
917.268	12753
917.38	12875
917.491	12848
917.603	12768
917.715	12981
917.826	12867
917.938	12814
918.049	12730
918.161	12806
918.272	12951
918.384	12954
918.495	12833
918.606	12665
918.717	12620
918.828	12544
918.939	12662
919.05	12608
919.161	12585
919.272	12452
919.383	12536
919.494	12677
919.604	12875
919.715	12627
919.826	12597
919.936	12589
920.047	12719
920.157	12547
920.267	12776
920.378	12612
920.488	12494
920.598	12837
920.708	12962
920.818	12753
920.928	12764
921.038	12875
921.148	12840
921.258	12654
921.368	12532
921.477	12418
921.587	12407
921.697	12266
921.806	12391
921.916	12273
922.025	12106
922.134	12106
922.244	12030
922.353	12098
922.462	11984
922.571	11828
922.68	11767
922.789	11752
922.898	11718
923.007	11729
923.116	11691
923.224	11741
923.333	11653
923.442	11532
923.55	11535
923.659	11532
923.767	11615
923.876	11535
923.984	11649
924.092	11505
924.201	11474
924.309	11471
924.417	11490
924.525	11368
924.633	11482
924.741	12281
924.849	11280
924.956	11406
925.064	11250
925.172	11170
925.279	11227
925.387	11242
925.494	11227
925.602	11356
925.709	11258
925.816	11197
925.924	11235
926.031	11254
926.138	11254
926.245	11261
926.352	11079
926.459	11269
926.566	11284
926.673	11083
926.779	11018
926.886	11102
926.993	10930
927.099	10911
927.206	10778
927.312	10866
927.419	10835
927.525	10835
927.631	10946
927.737	10721
927.843	10805
927.95	10634
928.056	10691
928.162	10683
928.267	10767
928.373	11398
928.479	10797
928.585	10561
928.69	10717
928.796	10729
928.901	10584
929.007	10436
929.112	10558
929.218	10516
929.323	10596
929.428	10481
929.533	10626
929.638	10428
929.743	10436
929.848	10554
929.953	10424
930.058	10299
930.163	10196
930.267	10238
930.372	10253
930.477	10166
930.581	10405
930.685	10234
930.79	10055
930.894	10071
930.998	10048
931.103	10242
931.207	9861
931.311	9857
931.415	9698
931.519	9542
931.623	9530
