Data from test_V78500241_1835.txt Node
Date: Fri Mar 25 14:46:29 CST 2022
User: usil
Spectrometer: V785-0024
Trigger mode: 0
Integration Time (sec): 4.000000E-1
Scans to average: 1
Nonlinearity correction enabled: false
Boxcar width: 0
Storing dark spectrum: false
XAxis mode: Wavelengths
Number of Pixels in Spectrum: 1024
>>>>>Begin Spectral Data<<<<<
801.071	22192
801.214	21987
801.356	21747
801.499	21682
801.641	21416
801.783	21519
801.926	21553
802.068	21447
802.211	21370
802.353	21313
802.496	20971
802.638	21039
802.78	20990
802.923	20857
803.065	20823
803.208	20857
803.35	20876
803.492	20929
803.635	20994
803.777	20777
803.919	20861
804.061	21176
804.204	20872
804.346	20773
804.488	20689
804.63	20842
804.773	20716
804.915	20746
805.057	20937
805.199	20701
805.341	20792
805.483	20834
805.626	20834
805.768	20765
805.91	20796
806.052	20689
806.194	20537
806.336	20880
806.478	20788
806.62	20659
806.762	20765
806.904	21009
807.046	21173
807.188	21100
807.33	21024
807.472	21108
807.614	20910
807.756	20975
807.898	20872
808.04	20815
808.182	20857
808.324	20880
808.465	20876
808.607	20948
808.749	21264
808.891	21081
809.033	21249
809.174	21192
809.316	21081
809.458	21093
809.6	21096
809.741	21245
809.883	21207
810.025	21408
810.166	21268
810.308	21306
810.45	21272
810.591	21096
810.733	21077
810.875	20963
811.016	20857
811.158	20819
811.299	20910
811.441	21077
811.582	21043
811.724	20914
811.865	20849
812.007	20823
812.148	20792
812.29	20823
812.431	21062
812.573	21214
812.714	21310
812.855	21378
812.997	21576
813.138	21648
813.279	21534
813.421	21367
813.562	21252
813.703	21127
813.845	21089
813.986	20807
814.127	20533
814.268	20533
814.41	20511
814.551	20366
814.692	20480
814.833	20290
814.974	20328
815.115	20339
815.256	20229
815.397	20199
815.539	20305
815.68	20256
815.821	20065
815.962	20286
816.103	20046
816.244	20069
816.385	19864
816.526	19772
816.666	19704
816.807	19567
816.948	19738
817.089	19643
817.23	19559
817.371	19616
817.512	19518
817.653	19540
817.793	19499
817.934	19609
818.075	19571
818.216	19597
818.356	19480
818.497	19426
818.638	19263
818.778	19327
818.919	19369
819.06	19308
819.2	19426
819.341	19460
819.481	19438
819.622	19628
819.762	19784
819.903	19689
820.043	19537
820.184	19632
820.324	19506
820.465	19632
820.605	19666
820.746	19384
820.886	19396
821.026	19544
821.167	19575
821.307	19567
821.447	19601
821.588	19308
821.728	19175
821.868	19088
822.008	18993
822.149	18947
822.289	18916
822.429	18711
822.569	18574
822.709	18703
822.849	18429
822.99	18479
823.13	18380
823.27	18399
823.41	18285
823.55	18243
823.69	18334
823.83	18300
823.97	18148
824.11	18015
824.25	17973
824.389	18163
824.529	18155
824.669	18087
824.809	18182
824.949	18079
825.089	18072
825.228	18224
825.368	17748
825.508	17855
825.648	17916
825.787	17855
825.927	17790
826.067	17764
826.206	17745
826.346	17954
826.485	17893
826.625	17722
826.765	17874
826.904	17828
827.044	17581
827.183	17539
827.323	17467
827.462	17554
827.601	17585
827.741	17558
827.88	17512
828.02	17452
828.159	17497
828.298	17501
828.437	17566
828.577	17478
828.716	17600
828.855	17387
828.994	17288
829.134	17337
829.273	17265
829.412	17258
829.551	17239
829.69	17212
829.829	17311
829.968	17318
830.107	17280
830.246	17200
830.385	17181
830.524	17227
830.663	17174
830.802	16854
830.941	16828
831.08	16889
831.219	16987
831.357	16980
831.496	17060
831.635	16877
831.774	16698
831.913	16748
832.051	16630
832.19	16641
832.329	16660
832.467	16649
832.606	16622
832.744	16580
832.883	16618
833.022	16550
833.16	16588
833.299	16622
833.437	16615
833.576	16626
833.714	16573
833.852	16637
833.991	16744
834.129	16622
834.267	16656
834.406	16637
834.544	16679
834.682	16599
834.821	16550
834.959	16854
835.097	16656
835.235	16706
835.373	16660
835.511	16626
835.65	16489
835.788	16542
835.926	16375
836.064	16386
836.202	16352
836.34	16550
836.478	16672
836.615	16546
836.753	16523
836.891	16527
837.029	16493
837.167	16546
837.305	16462
837.443	16348
837.58	16299
837.718	16489
837.856	16451
837.993	16394
838.131	16367
838.269	16360
838.406	16367
838.544	16318
838.681	16215
838.819	16078
838.956	15972
839.094	16006
839.231	15975
839.369	16006
839.506	16394
839.643	16268
839.781	15911
839.918	15968
840.055	16013
840.193	16006
840.33	15964
840.467	15941
840.604	15941
840.742	16272
840.879	15964
841.016	15907
841.153	15960
841.29	16097
841.427	15972
841.564	15998
841.701	16071
841.838	15918
841.975	15842
842.112	15835
842.249	15755
842.385	15705
842.522	15949
842.659	15732
842.796	15610
842.933	15759
843.069	15736
843.206	15751
843.343	15846
843.479	15850
843.616	15838
843.752	15553
843.889	15561
844.025	15724
844.162	15564
844.298	15660
844.435	15428
844.571	15549
844.708	15656
844.844	15667
844.98	15690
845.117	15694
845.253	15591
845.389	15447
845.525	15545
845.661	15481
845.798	15249
845.934	15393
846.07	15226
846.206	15405
846.342	15477
846.478	15325
846.614	15188
846.75	15017
846.886	15047
847.022	15184
847.158	15085
847.294	15173
847.429	15135
847.565	15093
847.701	15397
847.837	14746
847.972	14823
848.108	14994
848.244	14849
848.379	14743
848.515	14758
848.65	14610
848.786	14746
848.921	14689
849.057	14785
849.192	14758
849.328	14712
849.463	14625
849.598	14636
849.734	14651
849.869	14590
850.004	14514
850.14	14499
850.275	14541
850.41	14374
850.545	14427
850.68	14434
850.815	14545
850.95	14408
851.085	14621
851.22	14556
851.355	14476
851.49	14503
851.625	14358
851.76	14404
851.895	14324
852.03	14339
852.165	14484
852.299	14530
852.434	14457
852.569	14495
852.703	14423
852.838	14549
852.973	14606
853.107	14617
853.242	14393
853.376	14438
853.511	14237
853.645	14275
853.78	14404
853.914	14313
854.048	14256
854.183	14339
854.317	14389
854.451	14492
854.585	14263
854.72	14294
854.854	14423
854.988	14275
855.122	14328
855.256	14301
855.39	14301
855.524	14434
855.658	14457
855.792	14358
855.926	14404
856.06	14431
856.194	14446
856.327	14336
856.461	14374
856.595	14267
856.729	14328
856.862	14317
856.996	14393
857.13	14415
857.263	14461
857.397	14469
857.53	14408
857.664	14358
857.797	14495
857.931	14427
858.064	14305
858.197	14423
858.331	14336
858.464	14324
858.597	14199
858.731	14404
858.864	14404
858.997	14282
859.13	14339
859.263	14263
859.396	14442
859.529	14324
859.662	14298
859.795	14271
859.928	14336
860.061	14499
860.194	14377
860.327	14339
860.46	14267
860.592	14404
860.725	14518
860.858	14419
860.99	14351
861.123	14282
861.256	14259
861.388	14301
861.521	14941
861.653	14221
861.786	14126
861.918	14206
862.05	14313
862.183	14313
862.315	14271
862.447	14389
862.58	14393
862.712	14050
862.844	14157
862.976	14168
863.108	14126
863.24	14568
863.372	14024
863.504	14065
863.636	14088
863.768	14145
863.9	14183
864.032	14054
864.164	14027
864.296	14145
864.428	14339
864.559	14267
864.691	14271
864.823	14199
864.954	14168
865.086	14153
865.217	14107
865.349	13986
865.48	14058
865.612	14035
865.743	14305
865.875	14084
866.006	14115
866.137	14092
866.269	14115
866.4	14065
866.531	14062
866.662	13989
866.793	14119
866.924	14058
867.055	14134
867.186	14084
867.317	14054
867.448	14031
867.579	13967
867.71	14008
867.841	13997
867.972	14050
868.103	14107
868.233	14168
868.364	14191
868.495	14305
868.625	14336
868.756	14358
868.886	14305
869.017	14343
869.147	14442
869.278	14434
869.408	14358
869.539	14377
869.669	14366
869.799	14385
869.929	14499
870.06	14469
870.19	14712
870.32	14625
870.45	14583
870.58	14754
870.71	14845
870.84	14906
870.97	14765
871.1	14781
871.23	14902
871.36	14941
871.489	14830
871.619	14853
871.749	14952
871.879	14948
872.008	15047
872.138	14960
872.267	14849
872.397	14853
872.526	14804
872.656	14823
872.785	14769
872.915	14967
873.044	15081
873.173	14979
873.303	14998
873.432	15032
873.561	15051
873.69	14982
873.819	15131
873.948	15108
874.077	15058
874.206	14960
874.335	15062
874.464	15245
874.593	15249
874.722	15176
874.851	15397
874.979	15317
875.108	15233
875.237	15226
875.365	15344
875.494	15279
875.623	15268
875.751	15287
875.88	15336
876.008	15443
876.136	15568
876.265	15682
876.393	15873
876.521	15751
876.65	15835
876.778	15724
876.906	15648
877.034	15648
877.162	15717
877.29	15576
877.418	15709
877.546	15736
877.674	15587
877.802	15774
877.93	15774
878.058	15652
878.185	15625
878.313	15728
878.441	15686
878.568	15663
878.696	15641
878.824	15747
878.951	15892
879.079	15903
879.206	16002
879.333	15876
879.461	15762
879.588	15884
879.715	15937
879.842	15998
879.97	15808
880.097	15599
880.224	15614
880.351	15580
880.478	15557
880.605	15530
880.732	15587
880.859	15747
880.986	15538
881.112	15686
881.239	15447
881.366	15336
881.493	15283
881.619	15218
881.746	15203
881.872	15287
881.999	15192
882.125	15226
882.252	15272
882.378	15279
882.505	15348
882.631	15176
882.757	15055
882.883	15085
883.01	15077
883.136	14998
883.262	14861
883.388	14914
883.514	15100
883.64	15154
883.766	15058
883.892	14861
884.018	14921
884.143	15043
884.269	15131
884.395	14750
884.52	14724
884.646	14697
884.772	14697
884.897	14682
885.023	14731
885.148	14891
885.274	14880
885.399	14842
885.524	14765
885.65	14792
885.775	14678
885.9	14781
886.025	14830
886.15	14804
886.275	14830
886.4	14617
886.525	14762
886.65	14735
886.775	14670
886.9	14823
887.025	14933
887.149	14750
887.274	14541
887.399	14488
887.523	14583
887.648	14541
887.773	14446
887.897	14682
888.021	14655
888.146	14579
888.27	14598
888.395	14663
888.519	14621
888.643	14632
888.767	14636
888.891	14465
889.015	14473
889.139	14488
889.263	14442
889.387	14556
889.511	14735
889.635	14549
889.759	14476
889.883	14522
890.006	14499
890.13	14625
890.254	14309
890.377	14419
890.501	14180
890.624	14237
890.748	14393
890.871	14244
890.995	14107
891.118	14024
891.241	14138
891.364	14157
891.488	14180
891.611	14164
891.734	14123
891.857	14191
891.98	14180
892.103	14290
892.226	14138
892.349	14081
892.471	13974
892.594	14035
892.717	14157
892.839	14107
892.962	14043
893.085	14084
893.207	14073
893.33	14123
893.452	14058
893.575	14237
893.697	14157
893.819	14191
893.941	14286
894.064	14298
894.186	14107
894.308	14107
894.43	14339
894.552	14294
894.674	14336
894.796	14065
894.918	14218
895.04	14164
895.161	14202
895.283	14248
895.405	14294
895.526	14225
895.648	14191
895.769	14229
895.891	14267
896.012	14309
896.134	14286
896.255	14294
896.376	14168
896.498	14294
896.619	14434
896.74	14336
896.861	14404
896.982	14724
897.103	14849
897.224	14575
897.345	14526
897.466	14507
897.587	14590
897.708	14659
897.828	14659
897.949	14560
898.07	14461
898.19	14484
898.311	14667
898.431	14571
898.552	14667
898.672	14720
898.792	14716
898.913	14811
899.033	14590
899.153	14606
899.273	14389
899.393	14438
899.513	14492
899.633	14507
899.753	14499
899.873	14549
899.993	14541
900.113	14442
900.232	14492
900.352	14537
900.472	14366
900.591	14305
900.711	14370
900.83	14313
900.95	14488
901.069	14461
901.189	14263
901.308	14103
901.427	13989
901.546	14054
901.665	14077
901.784	14050
901.904	13841
902.023	13940
902.141	13677
902.26	13537
902.379	13639
902.498	13681
902.617	13529
902.735	13639
902.854	13655
902.973	13556
903.091	13285
903.21	13331
903.328	13392
903.446	13354
903.565	13110
903.683	13270
903.801	13088
903.919	13171
904.038	13190
904.156	13053
904.274	13103
904.392	12993
904.51	12951
904.627	13027
904.745	13110
904.863	13019
904.981	12715
905.098	12623
905.216	12741
905.334	12673
905.451	12654
905.569	12646
905.686	12776
905.803	12772
905.921	12498
906.038	12566
906.155	12467
906.272	12441
906.389	12410
906.506	12308
906.623	12342
906.74	12273
906.857	12201
906.974	12228
907.091	12304
907.208	12464
907.324	12388
907.441	12247
907.557	12026
907.674	12030
907.79	12038
907.907	11977
908.023	12022
908.139	12022
908.256	11996
908.372	12076
908.488	11935
908.604	11828
908.72	11794
908.836	11805
908.952	11729
909.068	11866
909.184	11935
909.3	11824
909.415	11802
909.531	11805
909.647	11570
909.762	11566
909.878	11455
909.993	11573
910.108	11512
910.224	11532
910.339	11547
910.454	11474
910.57	11414
910.685	11356
910.8	11665
910.915	11600
911.03	11440
911.145	11379
911.259	11242
911.374	11284
911.489	11231
911.604	11147
911.718	11045
911.833	11064
911.947	10889
912.062	10904
912.176	11018
912.291	11010
912.405	11048
912.519	11216
912.633	11223
912.748	11067
912.862	11037
912.976	10957
913.09	10771
913.204	10904
913.318	10946
913.431	10949
913.545	10930
913.659	11010
913.772	10877
913.886	10812
914	10805
914.113	10908
914.226	10847
914.34	10843
914.453	10637
914.566	10900
914.68	10759
914.793	10736
914.906	10508
915.019	10504
915.132	10489
915.245	10508
915.358	10611
915.47	10550
915.583	10531
915.696	10615
915.809	10664
915.921	10702
916.034	10489
916.146	10504
916.259	10470
916.371	10603
916.483	10508
916.595	10466
916.708	10455
916.82	10382
916.932	10436
917.044	10417
917.156	10443
917.268	10265
917.38	10371
917.491	10367
917.603	10379
917.715	10424
917.826	10497
917.938	10344
918.049	10238
918.161	10322
918.272	10508
918.384	10428
918.495	10398
918.606	10234
918.717	10173
918.828	10253
918.939	10215
919.05	10143
919.161	10246
919.272	10048
919.383	10116
919.494	10287
919.604	10459
919.715	10227
919.826	10185
919.936	10204
920.047	10344
920.157	10276
920.267	10451
920.378	10333
920.488	10234
920.598	10489
920.708	10592
920.818	10390
920.928	10485
921.038	10672
921.148	10527
921.258	10268
921.368	10223
921.477	10051
921.587	10097
921.697	10010
921.806	10097
921.916	9972
922.025	9892
922.134	9793
922.244	9743
922.353	9888
922.462	9701
922.571	9663
922.68	9466
922.789	9466
922.898	9561
923.007	9428
923.116	9473
923.224	9466
923.333	9492
923.442	9370
923.55	9374
923.659	9431
923.767	9450
923.876	9340
923.984	9485
924.092	9428
924.201	9348
924.309	9340
924.417	9416
924.525	9321
924.633	9325
924.741	10253
924.849	9100
924.956	9329
925.064	9165
925.172	9085
925.279	9066
925.387	9142
925.494	9184
925.602	9344
925.709	9279
925.816	9039
925.924	9142
926.031	9283
926.138	9127
926.245	9207
926.352	9116
926.459	9325
926.566	9127
926.673	9047
926.779	8975
926.886	9047
926.993	8895
927.099	8842
927.206	8876
927.312	8872
927.419	8971
927.525	8853
927.631	8921
927.737	8792
927.843	8792
927.95	8735
928.056	8689
928.162	8811
928.267	8838
928.373	9306
928.479	8899
928.585	8602
928.69	8705
928.796	8842
928.901	8629
929.007	8530
929.112	8667
929.218	8640
929.323	8568
929.428	8606
929.533	8689
929.638	8571
929.743	8533
929.848	8625
929.953	8499
930.058	8507
930.163	8343
930.267	8358
930.372	8533
930.477	8248
930.581	8564
930.685	8499
930.79	8320
930.894	8218
930.998	8275
931.103	8469
931.207	8103
931.311	8005
931.415	7917
931.519	7833
931.623	7788
