Data from test_V78500241_1939.txt Node
Date: Fri Mar 25 14:47:12 CST 2022
User: usil
Spectrometer: V785-0024
Trigger mode: 0
Integration Time (sec): 4.000000E-1
Scans to average: 1
Nonlinearity correction enabled: false
Boxcar width: 0
Storing dark spectrum: false
XAxis mode: Wavelengths
Number of Pixels in Spectrum: 1024
>>>>>Begin Spectral Data<<<<<
801.071	21975
801.214	21934
801.356	21755
801.499	21549
801.641	21412
801.783	21435
801.926	21412
802.068	21351
802.211	21298
802.353	21245
802.496	20921
802.638	21047
802.78	20853
802.923	20823
803.065	20682
803.208	20750
803.35	20807
803.492	20807
803.635	21062
803.777	20689
803.919	20750
804.061	21028
804.204	20815
804.346	20632
804.488	20655
804.63	20750
804.773	20606
804.915	20697
805.057	20735
805.199	20655
805.341	20697
805.483	20834
805.626	20754
805.768	20701
805.91	20686
806.052	20640
806.194	20556
806.336	20864
806.478	20724
806.62	20545
806.762	20720
806.904	20883
807.046	21150
807.188	21089
807.33	21135
807.472	21070
807.614	20937
807.756	20800
807.898	20762
808.04	20788
808.182	20746
808.324	20826
808.465	20838
808.607	20781
808.749	21020
808.891	21127
809.033	21294
809.174	21081
809.316	21024
809.458	20937
809.6	20876
809.741	21218
809.883	21119
810.025	21249
810.166	21294
810.308	21154
810.45	21119
810.591	21051
810.733	20880
810.875	20773
811.016	20769
811.158	20743
811.299	20762
811.441	20937
811.582	20982
811.724	20960
811.865	20811
812.007	20781
812.148	20842
812.29	20823
812.431	20872
812.573	21043
812.714	21230
812.855	21386
812.997	21340
813.138	21515
813.279	21572
813.421	21268
813.562	21157
813.703	21070
813.845	21009
813.986	20769
814.127	20476
814.268	20400
814.41	20332
814.551	20370
814.692	20465
814.833	20317
814.974	20355
815.115	20347
815.256	20214
815.397	20290
815.539	20195
815.68	20138
815.821	20050
815.962	20157
816.103	20043
816.244	19795
816.385	19875
816.526	19822
816.666	19765
816.807	19480
816.948	19613
817.089	19674
817.23	19624
817.371	19438
817.512	19605
817.653	19563
817.793	19464
817.934	19449
818.075	19506
818.216	19514
818.356	19620
818.497	19384
818.638	19213
818.778	19240
818.919	19217
819.06	19156
819.2	19289
819.341	19434
819.481	19403
819.622	19502
819.762	19712
819.903	19609
820.043	19518
820.184	19521
820.324	19548
820.465	19499
820.605	19495
820.746	19369
820.886	19327
821.026	19506
821.167	19422
821.307	19529
821.447	19365
821.588	19339
821.728	19251
821.868	18985
822.008	18958
822.149	18920
822.289	18825
822.429	18760
822.569	18612
822.709	18604
822.849	18437
822.99	18273
823.13	18273
823.27	18399
823.41	18262
823.55	18235
823.69	18178
823.83	18144
823.97	18060
824.11	18003
824.25	18041
824.389	17977
824.529	18057
824.669	17942
824.809	17935
824.949	17961
825.089	17973
825.228	17904
825.368	17783
825.508	17824
825.648	17946
825.787	17764
825.927	17809
826.067	17707
826.206	17676
826.346	17798
826.485	17775
826.625	17653
826.765	17942
826.904	17824
827.044	17592
827.183	17573
827.323	17429
827.462	17482
827.601	17501
827.741	17505
827.88	17486
828.02	17269
828.159	17467
828.298	17425
828.437	17589
828.577	17391
828.716	17585
828.855	17463
828.994	17242
829.134	17277
829.273	17284
829.412	17193
829.551	17254
829.69	17197
829.829	17318
829.968	17212
830.107	17315
830.246	17185
830.385	17159
830.524	17090
830.663	17003
830.802	16980
830.941	16889
831.08	16805
831.219	16885
831.357	16820
831.496	17109
831.635	16725
831.774	16744
831.913	16656
832.051	16626
832.19	16721
832.329	16672
832.467	16531
832.606	16375
832.744	16565
832.883	16485
833.022	16527
833.16	16504
833.299	16611
833.437	16504
833.576	16618
833.714	16554
833.852	16580
833.991	16565
834.129	16561
834.267	16653
834.406	16504
834.544	16660
834.682	16554
834.821	16580
834.959	16824
835.097	16561
835.235	16744
835.373	16561
835.511	16550
835.65	16558
835.788	16485
835.926	16394
836.064	16253
836.202	16432
836.34	16664
836.478	16569
836.615	16500
836.753	16459
836.891	16649
837.029	16497
837.167	16459
837.305	16462
837.443	16474
837.58	16367
837.718	16409
837.856	16360
837.993	16284
838.131	16432
838.269	16295
838.406	16242
838.544	16246
838.681	16128
838.819	16093
838.956	15869
839.094	15816
839.231	15972
839.369	16196
839.506	16382
839.643	16219
839.781	15968
839.918	15922
840.055	15915
840.193	15907
840.33	15964
840.467	15945
840.604	15964
840.742	16242
840.879	15755
841.016	15918
841.153	15926
841.29	16036
841.427	15926
841.564	15968
841.701	15972
841.838	15869
841.975	15888
842.112	15835
842.249	15690
842.385	15713
842.522	15884
842.659	15774
842.796	15705
842.933	15675
843.069	15720
843.206	15701
843.343	15880
843.479	15781
843.616	15778
843.752	15519
843.889	15424
844.025	15625
844.162	15454
844.298	15633
844.435	15545
844.571	15553
844.708	15473
844.844	15770
844.98	15603
845.117	15675
845.253	15443
845.389	15397
845.525	15435
845.661	15450
845.798	15321
845.934	15393
846.07	15256
846.206	15321
846.342	15496
846.478	15325
846.614	15112
846.75	15055
846.886	14956
847.022	15249
847.158	15195
847.294	15108
847.429	15127
847.565	14986
847.701	15252
847.837	14773
847.972	14758
848.108	14853
848.244	14883
848.379	14712
848.515	14693
848.65	14651
848.786	14625
848.921	14644
849.057	14678
849.192	14842
849.328	14724
849.463	14708
849.598	14571
849.734	14705
849.869	14503
850.004	14412
850.14	14446
850.275	14442
850.41	14366
850.545	14400
850.68	14446
850.815	14499
850.95	14400
851.085	14602
851.22	14651
851.355	14370
851.49	14457
851.625	14282
851.76	14423
851.895	14313
852.03	14317
852.165	14522
852.299	14484
852.434	14465
852.569	14469
852.703	14389
852.838	14606
852.973	14640
853.107	14594
853.242	14454
853.376	14374
853.511	14206
853.645	14282
853.78	14377
853.914	14396
854.048	14336
854.183	14301
854.317	14278
854.451	14476
854.585	14317
854.72	14263
854.854	14393
854.988	14305
855.122	14343
855.256	14164
855.39	14294
855.524	14423
855.658	14377
855.792	14298
855.926	14358
856.06	14412
856.194	14434
856.327	14355
856.461	14282
856.595	14351
856.729	14358
856.862	14400
856.996	14271
857.13	14355
857.263	14446
857.397	14412
857.53	14301
857.664	14377
857.797	14412
857.931	14457
858.064	14396
858.197	14484
858.331	14332
858.464	14248
858.597	14157
858.731	14317
858.864	14347
858.997	14332
859.13	14362
859.263	14400
859.396	14412
859.529	14328
859.662	14294
859.795	14240
859.928	14370
860.061	14480
860.194	14526
860.327	14301
860.46	14214
860.592	14450
860.725	14419
860.858	14514
860.99	14343
861.123	14290
861.256	14332
861.388	14320
861.521	15104
861.653	14229
861.786	14134
861.918	14275
862.05	14244
862.183	14210
862.315	14313
862.447	14370
862.58	14305
862.712	14073
862.844	14107
862.976	14187
863.108	14233
863.24	14560
863.372	14065
863.504	14096
863.636	14073
863.768	14183
863.9	14069
864.032	14123
864.164	13982
864.296	14195
864.428	14138
864.559	14202
864.691	14183
864.823	14168
864.954	14134
865.086	14134
865.217	14134
865.349	14069
865.48	14054
865.612	14126
865.743	14286
865.875	14240
866.006	14096
866.137	14012
866.269	14096
866.4	14157
866.531	14077
866.662	13974
866.793	14058
866.924	14016
867.055	14107
867.186	14039
867.317	14024
867.448	14001
867.579	14058
867.71	13947
867.841	14035
867.972	14103
868.103	14065
868.233	14062
868.364	14100
868.495	14180
868.625	14282
868.756	14442
868.886	14191
869.017	14374
869.147	14461
869.278	14476
869.408	14355
869.539	14370
869.669	14343
869.799	14256
869.929	14438
870.06	14446
870.19	14602
870.32	14560
870.45	14701
870.58	14792
870.71	14750
870.84	14842
870.97	14861
871.1	14773
871.23	14883
871.36	14918
871.489	14880
871.619	14891
871.749	14929
871.879	15001
872.008	15100
872.138	14956
872.267	14982
872.397	14853
872.526	14758
872.656	14769
872.785	14746
872.915	14975
873.044	15051
873.173	15055
873.303	15036
873.432	15020
873.561	15119
873.69	15104
873.819	14910
873.948	15062
874.077	14899
874.206	15001
874.335	14986
874.464	15100
874.593	15260
874.722	15161
874.851	15378
874.979	15310
875.108	15351
875.237	15287
875.365	15237
875.494	15287
875.623	15389
875.751	15230
875.88	15378
876.008	15511
876.136	15462
876.265	15785
876.393	15861
876.521	15766
876.65	15743
876.778	15690
876.906	15682
877.034	15694
877.162	15690
877.29	15648
877.418	15778
877.546	15694
877.674	15675
877.802	15694
877.93	15713
878.058	15652
878.185	15610
878.313	15713
878.441	15656
878.568	15553
878.696	15705
878.824	15694
878.951	15724
879.079	15808
879.206	16063
879.333	15907
879.461	15762
879.588	15743
879.715	15876
879.842	15972
879.97	15812
880.097	15549
880.224	15443
880.351	15564
880.478	15660
880.605	15515
880.732	15507
880.859	15808
880.986	15519
881.112	15660
881.239	15389
881.366	15397
881.493	15291
881.619	15291
881.746	15287
881.872	15237
881.999	15222
882.125	15203
882.252	15283
882.378	15287
882.505	15389
882.631	15173
882.757	15070
882.883	15097
883.01	15070
883.136	14902
883.262	14944
883.388	14941
883.514	15089
883.64	15131
883.766	14963
883.892	14838
884.018	14804
884.143	15013
884.269	15150
884.395	14800
884.52	14731
884.646	14758
884.772	14731
884.897	14663
885.023	14765
885.148	14788
885.274	14982
885.399	14834
885.524	14819
885.65	14792
885.775	14849
885.9	14697
886.025	14788
886.15	14857
886.275	14636
886.4	14606
886.525	14644
886.65	14632
886.775	14602
886.9	14777
887.025	14842
887.149	14762
887.274	14541
887.399	14556
887.523	14530
887.648	14571
887.773	14488
887.897	14610
888.021	14598
888.146	14476
888.27	14735
888.395	14697
888.519	14594
888.643	14670
888.767	14693
888.891	14583
889.015	14415
889.139	14526
889.263	14488
889.387	14545
889.511	14655
889.635	14594
889.759	14362
889.883	14305
890.006	14446
890.13	14564
890.254	14381
890.377	14457
890.501	14259
890.624	14320
890.748	14366
890.871	14142
890.995	14054
891.118	14088
891.241	14176
891.364	14191
891.488	14275
891.611	14081
891.734	14218
891.857	14176
891.98	14096
892.103	14183
892.226	14126
892.349	14058
892.471	13902
892.594	14142
892.717	14138
892.839	14084
892.962	14161
893.085	14126
893.207	14145
893.33	13997
893.452	14062
893.575	14153
893.697	14119
893.819	14275
893.941	14381
894.064	14286
894.186	14031
894.308	14081
894.43	14138
894.552	14298
894.674	14317
894.796	14107
894.918	14039
895.04	14130
895.161	14256
895.283	14229
895.405	14142
895.526	14153
895.648	14259
895.769	14275
895.891	14374
896.012	14286
896.134	14263
896.255	14278
896.376	14267
896.498	14195
896.619	14339
896.74	14294
896.861	14339
896.982	14625
897.103	14781
897.224	14602
897.345	14495
897.466	14552
897.587	14511
897.708	14701
897.828	14511
897.949	14492
898.07	14393
898.19	14533
898.311	14644
898.431	14495
898.552	14606
898.672	14762
898.792	14746
898.913	14632
899.033	14602
899.153	14450
899.273	14237
899.393	14408
899.513	14526
899.633	14469
899.753	14621
899.873	14404
899.993	14568
900.113	14434
900.232	14549
900.352	14446
900.472	14450
900.591	14309
900.711	14404
900.83	14271
900.95	14336
901.069	14396
901.189	14263
901.308	13932
901.427	13951
901.546	14020
901.665	13959
901.784	14012
901.904	13974
902.023	13803
902.141	13719
902.26	13628
902.379	13666
902.498	13556
902.617	13552
902.735	13715
902.854	13616
902.973	13510
903.091	13331
903.21	13232
903.328	13301
903.446	13232
903.565	13202
903.683	13221
903.801	13027
903.919	13103
904.038	13126
904.156	13050
904.274	13027
904.392	12954
904.51	12913
904.627	12977
904.745	13046
904.863	13000
904.981	12844
905.098	12654
905.216	12654
905.334	12768
905.451	12734
905.569	12722
905.686	12722
905.803	12734
905.921	12525
906.038	12620
906.155	12506
906.272	12399
906.389	12437
906.506	12224
906.623	12334
906.74	12270
906.857	12190
906.974	12209
907.091	12300
907.208	12441
907.324	12285
907.441	12266
907.557	12083
907.674	11999
907.79	11969
907.907	11954
908.023	12057
908.139	12049
908.256	11935
908.372	11973
908.488	11920
908.604	11786
908.72	11729
908.836	11813
908.952	11752
909.068	11771
909.184	11843
909.3	11752
909.415	11882
909.531	11809
909.647	11524
909.762	11532
909.878	11547
909.993	11528
910.108	11482
910.224	11486
910.339	11543
910.454	11490
910.57	11425
910.685	11360
910.8	11638
910.915	11570
911.03	11387
911.145	11265
911.259	11273
911.374	11356
911.489	11124
911.604	11136
911.718	11033
911.833	11003
911.947	10824
912.062	10896
912.176	10904
912.291	10984
912.405	11102
912.519	11220
912.633	11220
912.748	11105
912.862	11029
912.976	10824
913.09	10755
913.204	10847
913.318	10889
913.431	10923
913.545	10942
913.659	11056
913.772	10965
913.886	10763
914	10721
914.113	10923
914.226	10889
914.34	10816
914.453	10717
914.566	10908
914.68	10771
914.793	10694
914.906	10470
915.019	10493
915.132	10428
915.245	10481
915.358	10466
915.47	10592
915.583	10580
915.696	10641
915.809	10607
915.921	10752
916.034	10561
916.146	10447
916.259	10413
916.371	10588
916.483	10500
916.595	10379
916.708	10512
916.82	10470
916.932	10363
917.044	10447
917.156	10497
917.268	10382
917.38	10375
917.491	10367
917.603	10325
917.715	10356
917.826	10436
917.938	10363
918.049	10177
918.161	10379
918.272	10512
918.384	10443
918.495	10371
918.606	10238
918.717	10105
918.828	10257
918.939	10265
919.05	10086
919.161	10246
919.272	9964
919.383	10120
919.494	10284
919.604	10538
919.715	10124
919.826	10169
919.936	10207
920.047	10360
920.157	10188
920.267	10413
920.378	10261
920.488	10234
920.598	10363
920.708	10615
920.818	10478
920.928	10462
921.038	10527
921.148	10542
921.258	10310
921.368	10162
921.477	10162
921.587	10029
921.697	9987
921.806	10128
921.916	10040
922.025	9778
922.134	9717
922.244	9778
922.353	9816
922.462	9603
922.571	9663
922.68	9496
922.789	9488
922.898	9515
923.007	9454
923.116	9538
923.224	9473
923.333	9435
923.442	9389
923.55	9351
923.659	9435
923.767	9397
923.876	9351
923.984	9447
924.092	9264
924.201	9412
924.309	9317
924.417	9412
924.525	9374
924.633	9367
924.741	10295
924.849	9180
924.956	9298
925.064	9138
925.172	9058
925.279	9131
925.387	9180
925.494	9135
925.602	9313
925.709	9207
925.816	9081
925.924	9173
926.031	9268
926.138	9188
926.245	9226
926.352	9112
926.459	9279
926.566	9268
926.673	9066
926.779	8986
926.886	9066
926.993	8902
927.099	8853
927.206	8845
927.312	8815
927.419	8967
927.525	8899
927.631	8941
927.737	8830
927.843	8872
927.95	8693
928.056	8785
928.162	8796
928.267	8838
928.373	9473
928.479	8880
928.585	8644
928.69	8785
928.796	8838
928.901	8670
929.007	8579
929.112	8697
929.218	8769
929.323	8594
929.428	8530
929.533	8731
929.638	8564
929.743	8537
929.848	8648
929.953	8571
930.058	8568
930.163	8438
930.267	8370
930.372	8564
930.477	8358
930.581	8651
930.685	8507
930.79	8324
930.894	8347
930.998	8343
931.103	8404
931.207	8161
931.311	8043
931.415	8027
931.519	7792
931.623	7826
