Data from test_V78500241_501.txt Node
Date: Fri Mar 25 14:37:12 CST 2022
User: usil
Spectrometer: V785-0024
Trigger mode: 0
Integration Time (sec): 4.000000E-1
Scans to average: 1
Nonlinearity correction enabled: false
Boxcar width: 0
Storing dark spectrum: false
XAxis mode: Wavelengths
Number of Pixels in Spectrum: 1024
>>>>>Begin Spectral Data<<<<<
801.071	26899
801.214	26731
801.356	26438
801.499	26419
801.641	26370
801.783	26168
801.926	26271
802.068	26084
802.211	25997
802.353	26012
802.496	25856
802.638	25734
802.78	25734
802.923	25628
803.065	25647
803.208	25628
803.35	25620
803.492	25727
803.635	25902
803.777	25552
803.919	25635
804.061	26058
804.204	25696
804.346	25590
804.488	25559
804.63	25567
804.773	25499
804.915	25586
805.057	25769
805.199	25681
805.341	25712
805.483	25643
805.626	25814
805.768	25628
805.91	25715
806.052	25780
806.194	25761
806.336	25700
806.478	25791
806.62	25712
806.762	25871
806.904	26027
807.046	26263
807.188	26176
807.33	26271
807.472	26210
807.614	26107
807.756	26161
807.898	26164
808.04	26271
808.182	26305
808.324	26530
808.465	26754
808.607	27032
808.749	27306
808.891	27515
809.033	27447
809.174	27332
809.316	27074
809.458	26872
809.6	26625
809.741	26705
809.883	26575
810.025	26644
810.166	26541
810.308	26533
810.45	26484
810.591	26389
810.733	26256
810.875	26054
811.016	26020
811.158	25944
811.299	26168
811.441	26240
811.582	26187
811.724	26103
811.865	26012
812.007	25986
812.148	26092
812.29	26027
812.431	26157
812.573	26347
812.714	26237
812.855	26495
812.997	26587
813.138	26697
813.279	26758
813.421	26587
813.562	26389
813.703	26267
813.845	26142
813.986	25951
814.127	25635
814.268	25506
814.41	25537
814.551	25441
814.692	25601
814.833	25518
814.974	25438
815.115	25544
815.256	25403
815.397	25388
815.539	25441
815.68	25270
815.821	25266
815.962	25160
816.103	25247
816.244	25042
816.385	25065
816.526	24890
816.666	24795
816.807	24681
816.948	24829
817.089	24688
817.23	24692
817.371	24589
817.512	24578
817.653	24703
817.793	24654
817.934	24589
818.075	24574
818.216	24486
818.356	24448
818.497	24456
818.638	24388
818.778	24327
818.919	24292
819.06	24338
819.2	24350
819.341	24456
819.481	24620
819.622	24635
819.762	24875
819.903	24681
820.043	24791
820.184	24608
820.324	24593
820.465	24707
820.605	24574
820.746	24563
820.886	24502
821.026	24467
821.167	24540
821.307	24608
821.447	24426
821.588	24228
821.728	24258
821.868	23984
822.008	23923
822.149	23897
822.289	23988
822.429	23695
822.569	23649
822.709	23627
822.849	23410
822.99	23433
823.13	23315
823.27	23349
823.41	23166
823.55	23128
823.69	23250
823.83	23250
823.97	23037
824.11	22972
824.25	22900
824.389	22934
824.529	23037
824.669	22934
824.809	23025
824.949	22892
825.089	22991
825.228	22946
825.368	22805
825.508	22869
825.648	22847
825.787	22763
825.927	22694
826.067	22725
826.206	22679
826.346	22877
826.485	22679
826.625	22771
826.765	22892
826.904	22672
827.044	22481
827.183	22466
827.323	22386
827.462	22500
827.601	22322
827.741	22379
827.88	22489
828.02	22249
828.159	22249
828.298	22371
828.437	22398
828.577	22287
828.716	22402
828.855	22325
828.994	22169
829.134	22158
829.273	22215
829.412	22109
829.551	21846
829.69	21934
829.829	21998
829.968	22173
830.107	22234
830.246	22063
830.385	22090
830.524	21991
830.663	21911
830.802	21869
830.941	21770
831.08	21549
831.219	21743
831.357	21709
831.496	21876
831.635	21519
831.774	21675
831.913	21534
832.051	21466
832.19	21435
832.329	21488
832.467	21275
832.606	21275
832.744	21260
832.883	21363
833.022	21378
833.16	21264
833.299	21386
833.437	21348
833.576	21321
833.714	21401
833.852	21374
833.991	21507
834.129	21450
834.267	21313
834.406	21336
834.544	21370
834.682	21420
834.821	21325
834.959	21515
835.097	21359
835.235	21401
835.373	21199
835.511	21408
835.65	21207
835.788	21150
835.926	21036
836.064	21039
836.202	21009
836.34	21135
836.478	21226
836.615	21146
836.753	21081
836.891	21169
837.029	21176
837.167	21093
837.305	21108
837.443	20998
837.58	21013
837.718	21096
837.856	20933
837.993	20982
838.131	21020
838.269	20902
838.406	20906
838.544	20941
838.681	20670
838.819	20667
838.956	20446
839.094	20431
839.231	20545
839.369	20629
839.506	20807
839.643	20609
839.781	20556
839.918	20343
840.055	20488
840.193	20351
840.33	20278
840.467	20393
840.604	20434
840.742	20590
840.879	20107
841.016	20393
841.153	20218
841.29	20514
841.427	20328
841.564	20457
841.701	20381
841.838	20210
841.975	20157
842.112	20233
842.249	20168
842.385	20008
842.522	20119
842.659	20065
842.796	20035
842.933	20096
843.069	20073
843.206	19970
843.343	20191
843.479	20111
843.616	20001
843.752	19883
843.889	19845
844.025	19986
844.162	19784
844.298	19909
844.435	19814
844.571	19746
844.708	19799
844.844	20119
844.98	20008
845.117	19955
845.253	20005
845.389	19940
845.525	20187
845.661	20351
845.798	20644
845.934	21039
846.07	21116
846.206	21150
846.342	20952
846.478	20415
846.614	20001
846.75	19616
846.886	19510
847.022	19537
847.158	19434
847.294	19411
847.429	19324
847.565	19373
847.701	19472
847.837	18989
847.972	19015
848.108	19141
848.244	19027
848.379	18924
848.515	18810
848.65	18920
848.786	18745
848.921	18825
849.057	18932
849.192	19015
849.328	18844
849.463	18821
849.598	18703
849.734	18764
849.869	18700
850.004	18544
850.14	18616
850.275	18494
850.41	18544
850.545	18574
850.68	18604
850.815	18631
850.95	18601
851.085	18707
851.22	18616
851.355	18585
851.49	18528
851.625	18540
851.76	18540
851.895	18452
852.03	18471
852.165	18566
852.299	18555
852.434	18627
852.569	18597
852.703	18528
852.838	18661
852.973	18684
853.107	18593
853.242	18578
853.376	18365
853.511	18247
853.645	18399
853.78	18563
853.914	18380
854.048	18391
854.183	18323
854.317	18486
854.451	18582
854.585	18380
854.72	18445
854.854	18483
854.988	18308
855.122	18540
855.256	18311
855.39	18433
855.524	18426
855.658	18380
855.792	18422
855.926	18346
856.06	18399
856.194	18475
856.327	18350
856.461	18281
856.595	18277
856.729	18304
856.862	18437
856.996	18338
857.13	18448
857.263	18433
857.397	18486
857.53	18342
857.664	18369
857.797	18422
857.931	18528
858.064	18441
858.197	18407
858.331	18334
858.464	18304
858.597	18235
858.731	18281
858.864	18224
858.997	18262
859.13	18327
859.263	18399
859.396	18384
859.529	18300
859.662	18182
859.795	18235
859.928	18380
860.061	18441
860.194	18445
860.327	18285
860.46	18266
860.592	18414
860.725	18384
860.858	18361
860.99	18350
861.123	18281
861.256	18167
861.388	18433
861.521	19046
861.653	18140
861.786	18098
861.918	18152
862.05	18403
862.183	18319
862.315	18403
862.447	18372
862.58	18289
862.712	18015
862.844	18053
862.976	18133
863.108	18163
863.24	18441
863.372	18011
863.504	18011
863.636	17935
863.768	18068
863.9	18098
864.032	18007
864.164	17961
864.296	18053
864.428	18072
864.559	17961
864.691	18171
864.823	18072
864.954	18007
865.086	18068
865.217	17992
865.349	17920
865.48	17988
865.612	18019
865.743	18019
865.875	17942
866.006	17923
866.137	17878
866.269	18045
866.4	17908
866.531	17813
866.662	17923
866.793	17874
866.924	17828
867.055	17897
867.186	17923
867.317	18026
867.448	17813
867.579	17863
867.71	17722
867.841	17760
867.972	17923
868.103	17965
868.233	17961
868.364	17893
868.495	17977
868.625	18171
868.756	18296
868.886	18045
869.017	18182
869.147	18292
869.278	18140
869.408	18209
869.539	18205
869.669	18117
869.799	18053
869.929	18266
870.06	18148
870.19	18464
870.32	18369
870.45	18467
870.58	18513
870.71	18593
870.84	18627
870.97	18509
871.1	18544
871.23	18635
871.36	18856
871.489	18566
871.619	18734
871.749	18741
871.879	18661
872.008	18829
872.138	18734
872.267	18730
872.397	18654
872.526	18612
872.656	18551
872.785	18589
872.915	18783
873.044	18867
873.173	18814
873.303	18798
873.432	18821
873.561	18772
873.69	18882
873.819	18821
873.948	18863
874.077	18779
874.206	18692
874.335	18753
874.464	18935
874.593	19072
874.722	19046
874.851	19061
874.979	19034
875.108	19118
875.237	18993
875.365	19031
875.494	19110
875.623	19190
875.751	19076
875.88	19168
876.008	19270
876.136	19308
876.265	19468
876.393	19605
876.521	19525
876.65	19552
876.778	19540
876.906	19476
877.034	19415
877.162	19510
877.29	19518
877.418	19529
877.546	19518
877.674	19502
877.802	19548
877.93	19518
878.058	19525
878.185	19400
878.313	19662
878.441	19624
878.568	19544
878.696	19476
878.824	19689
878.951	19731
879.079	19963
879.206	20187
879.333	20294
879.461	20225
879.588	20457
879.715	20374
879.842	20336
879.97	20058
880.097	19750
880.224	19693
880.351	19647
880.478	19480
880.605	19540
880.732	19472
880.859	19811
880.986	19563
881.112	19578
881.239	19468
881.366	19255
881.493	19137
881.619	19236
881.746	19148
881.872	19206
881.999	19031
882.125	19042
882.252	19217
882.378	19148
882.505	19217
882.631	19042
882.757	18905
882.883	18951
883.01	18817
883.136	18848
883.262	18772
883.388	18623
883.514	18905
883.64	18913
883.766	18814
883.892	18703
884.018	18779
884.143	18905
884.269	18947
884.395	18616
884.52	18506
884.646	18681
884.772	18437
884.897	18441
885.023	18650
885.148	18604
885.274	18745
885.399	18673
885.524	18574
885.65	18532
885.775	18578
885.9	18536
886.025	18559
886.15	18612
886.275	18471
886.4	18422
886.525	18460
886.65	18445
886.775	18418
886.9	18555
887.025	18669
887.149	18521
887.274	18327
887.399	18125
887.523	18251
887.648	18216
887.773	18091
887.897	18197
888.021	18224
888.146	18133
888.27	18209
888.395	18308
888.519	18228
888.643	18285
888.767	18273
888.891	18079
889.015	17878
889.139	18060
889.263	17988
889.387	17984
889.511	18102
889.635	18136
889.759	17939
889.883	17946
890.006	17950
890.13	18053
890.254	17980
890.377	17885
890.501	17779
890.624	17611
890.748	17748
890.871	17611
890.995	17608
891.118	17634
891.241	17596
891.364	17642
891.488	17695
891.611	17573
891.734	17604
891.857	17630
891.98	17627
892.103	17668
892.226	17680
892.349	17558
892.471	17463
892.594	17532
892.717	17520
892.839	17459
892.962	17551
893.085	17642
893.207	17558
893.33	17509
893.452	17463
893.575	17642
893.697	17471
893.819	17703
893.941	17642
894.064	17752
894.186	17505
894.308	17482
894.43	17611
894.552	17786
894.674	17562
894.796	17524
894.918	17573
895.04	17417
895.161	17684
895.283	17638
895.405	17490
895.526	17486
895.648	17573
895.769	17661
895.891	17604
896.012	17646
896.134	17562
896.255	17634
896.376	17649
896.498	17630
896.619	17756
896.74	17684
896.861	17638
896.982	17988
897.103	18060
897.224	17996
897.345	17885
897.466	17760
897.587	17885
897.708	17965
897.828	17870
897.949	17760
898.07	17786
898.19	17790
898.311	17847
898.431	17901
898.552	17786
898.672	17893
898.792	18007
898.913	17847
899.033	17695
899.153	17691
899.273	17589
899.393	17642
899.513	17665
899.633	17665
899.753	17714
899.873	17592
899.993	17695
900.113	17623
900.232	17672
900.352	17680
900.472	17627
900.591	17421
900.711	17467
900.83	17341
900.95	17661
901.069	17611
901.189	17433
901.308	17212
901.427	17159
901.546	17143
901.665	17090
901.784	17231
901.904	16896
902.023	16938
902.141	16687
902.26	16622
902.379	16679
902.498	16630
902.617	16569
902.735	16717
902.854	16489
902.973	16546
903.091	16318
903.21	16249
903.328	16344
903.446	16280
903.565	16196
903.683	16143
903.801	16021
903.919	16128
904.038	16105
904.156	15930
904.274	15835
904.392	15819
904.51	15854
904.627	15895
904.745	15903
904.863	15956
904.981	15804
905.098	15534
905.216	15492
905.334	15561
905.451	15553
905.569	15481
905.686	15553
905.803	15568
905.921	15233
906.038	15515
906.155	15428
906.272	15310
906.389	15195
906.506	15123
906.623	15085
906.74	15127
906.857	14948
906.974	14967
907.091	15070
907.208	15173
907.324	15001
907.441	15039
907.557	14883
907.674	14720
907.79	14815
907.907	14682
908.023	14788
908.139	14765
908.256	14739
908.372	14632
908.488	14659
908.604	14499
908.72	14503
908.836	14533
908.952	14492
909.068	14469
909.184	14602
909.3	14488
909.415	14514
909.531	14488
909.647	14172
909.762	14225
909.878	14161
909.993	14206
910.108	14210
910.224	14134
910.339	14233
910.454	14035
910.57	14081
910.685	13932
910.8	14248
910.915	14286
911.03	14065
911.145	13852
911.259	13784
911.374	13986
911.489	13776
911.604	13822
911.718	13552
911.833	13540
911.947	13514
912.062	13483
912.176	13601
912.291	13514
912.405	13556
912.519	13761
912.633	13685
912.748	13586
912.862	13563
912.976	13422
913.09	13350
913.204	13403
913.318	13392
913.431	13460
913.545	13460
913.659	13518
913.772	13384
913.886	13209
914	13270
914.113	13316
914.226	13403
914.34	13335
914.453	13175
914.566	13369
914.68	13137
914.793	13126
914.906	13019
915.019	12939
915.132	12924
915.245	13046
915.358	12905
915.47	12935
915.583	12958
915.696	12951
915.809	13069
915.921	13053
916.034	12867
916.146	12890
916.259	12814
916.371	12958
916.483	12840
916.595	12814
916.708	12798
916.82	12764
916.932	12783
917.044	12711
917.156	12730
917.268	12650
917.38	12715
917.491	12681
917.603	12692
917.715	12669
917.826	12719
917.938	12528
918.049	12540
918.161	12608
918.272	12810
918.384	12757
918.495	12608
918.606	12551
918.717	12384
918.828	12467
918.939	12540
919.05	12380
919.161	12388
919.272	12273
919.383	12334
919.494	12563
919.604	12658
919.715	12445
919.826	12277
919.936	12414
920.047	12471
920.157	12452
920.267	12479
920.378	12384
920.488	12410
920.598	12559
920.708	12696
920.818	12623
920.928	12532
921.038	12730
921.148	12623
921.258	12448
921.368	12254
921.477	12232
921.587	12228
921.697	12068
921.806	12213
921.916	12140
922.025	11977
922.134	11870
922.244	11832
922.353	11996
922.462	11699
922.571	11657
922.68	11558
922.789	11608
922.898	11554
923.007	11421
923.116	11642
923.224	11459
923.333	11497
923.442	11402
923.55	11315
923.659	11364
923.767	11463
923.876	11315
923.984	11471
924.092	11299
924.201	11376
924.309	11391
924.417	11387
924.525	11307
924.633	11318
924.741	12178
924.849	11121
924.956	11250
925.064	11056
925.172	10968
925.279	11098
925.387	11079
925.494	11083
925.602	11079
925.709	11235
925.816	11018
925.924	11010
926.031	11159
926.138	11018
926.245	11117
926.352	11006
926.459	11079
926.566	11132
926.673	10949
926.779	10873
926.886	10866
926.993	10778
927.099	10702
927.206	10691
927.312	10717
927.419	10748
927.525	10706
927.631	10717
927.737	10599
927.843	10607
927.95	10478
928.056	10565
928.162	10508
928.267	10584
928.373	11117
928.479	10694
928.585	10402
928.69	10478
928.796	10478
928.901	10478
929.007	10333
929.112	10462
929.218	10363
929.323	10325
929.428	10325
929.533	10459
929.638	10253
929.743	10314
929.848	10356
929.953	10306
930.058	10268
930.163	9956
930.267	10074
930.372	10150
930.477	9991
930.581	10242
930.685	10093
930.79	9987
930.894	9972
930.998	9907
931.103	10032
931.207	9766
931.311	9633
931.415	9610
931.519	9443
931.623	9439
