Data from test_V78500241_3190.txt Node
Date: Fri Mar 25 14:55:55 CST 2022
User: usil
Spectrometer: V785-0024
Trigger mode: 0
Integration Time (sec): 4.000000E-1
Scans to average: 1
Nonlinearity correction enabled: false
Boxcar width: 0
Storing dark spectrum: false
XAxis mode: Wavelengths
Number of Pixels in Spectrum: 1024
>>>>>Begin Spectral Data<<<<<
801.071	22109
801.214	22044
801.356	21622
801.499	21519
801.641	21477
801.783	21348
801.926	21389
802.068	21245
802.211	21351
802.353	21154
802.496	20971
802.638	20883
802.78	20838
802.923	20868
803.065	20724
803.208	20644
803.35	20708
803.492	20967
803.635	20914
803.777	20735
803.919	20720
804.061	21119
804.204	20716
804.346	20613
804.488	20644
804.63	20758
804.773	20697
804.915	20659
805.057	20667
805.199	20621
805.341	20701
805.483	20629
805.626	20636
805.768	20625
805.91	20670
806.052	20602
806.194	20484
806.336	20746
806.478	20526
806.62	20571
806.762	20769
806.904	20868
807.046	21047
807.188	20990
807.33	20963
807.472	20842
807.614	20887
807.756	20842
807.898	20701
808.04	20667
808.182	20762
808.324	20819
808.465	20830
808.607	20899
808.749	20979
808.891	21070
809.033	21203
809.174	21043
809.316	20944
809.458	20952
809.6	20937
809.741	20948
809.883	21081
810.025	21218
810.166	21142
810.308	21180
810.45	21013
810.591	21009
810.733	20868
810.875	20853
811.016	20731
811.158	20689
811.299	20712
811.441	20902
811.582	20868
811.724	20727
811.865	20765
812.007	20758
812.148	20712
812.29	20735
812.431	20910
812.573	21096
812.714	21066
812.855	21161
812.997	21397
813.138	21500
813.279	21336
813.421	21176
813.562	21058
813.703	20937
813.845	20967
813.986	20568
814.127	20461
814.268	20263
814.41	20237
814.551	20301
814.692	20389
814.833	20142
814.974	20168
815.115	20237
815.256	20031
815.397	20244
815.539	20138
815.68	20142
815.821	20065
815.962	20081
816.103	19955
816.244	19890
816.385	19822
816.526	19696
816.666	19460
816.807	19502
816.948	19457
817.089	19590
817.23	19518
817.371	19407
817.512	19312
817.653	19468
817.793	19316
817.934	19384
818.075	19476
818.216	19590
818.356	19384
818.497	19247
818.638	19107
818.778	19103
818.919	19088
819.06	19080
819.2	19206
819.341	19403
819.481	19396
819.622	19419
819.762	19548
819.903	19499
820.043	19510
820.184	19388
820.324	19388
820.465	19460
820.605	19400
820.746	19460
820.886	19278
821.026	19407
821.167	19354
821.307	19453
821.447	19247
821.588	19190
821.728	19164
821.868	18928
822.008	18772
822.149	18806
822.289	18764
822.429	18544
822.569	18483
822.709	18547
822.849	18315
822.99	18376
823.13	18171
823.27	18277
823.41	18144
823.55	18106
823.69	18083
823.83	18087
823.97	18110
824.11	17843
824.25	17821
824.389	17908
824.529	18041
824.669	17889
824.809	17859
824.949	17988
825.089	17847
825.228	17851
825.368	17695
825.508	17722
825.648	17699
825.787	17714
825.927	17695
826.067	17600
826.206	17634
826.346	17710
826.485	17680
826.625	17615
826.765	17783
826.904	17509
827.044	17421
827.183	17414
827.323	17379
827.462	17334
827.601	17383
827.741	17303
827.88	17292
828.02	17216
828.159	17345
828.298	17402
828.437	17452
828.577	17307
828.716	17478
828.855	17311
828.994	17098
829.134	17121
829.273	17124
829.412	17124
829.551	17006
829.69	17041
829.829	17128
829.968	17277
830.107	17052
830.246	17083
830.385	17105
830.524	16976
830.663	16930
830.802	16820
830.941	16596
831.08	16683
831.219	16736
831.357	16755
831.496	16980
831.635	16786
831.774	16508
831.913	16596
832.051	16580
832.19	16379
832.329	16569
832.467	16554
832.606	16325
832.744	16314
832.883	16447
833.022	16306
833.16	16405
833.299	16618
833.437	16466
833.576	16455
833.714	16478
833.852	16512
833.991	16531
834.129	16474
834.267	16573
834.406	16455
834.544	16523
834.682	16516
834.821	16375
834.959	16607
835.097	16440
835.235	16386
835.373	16516
835.511	16462
835.65	16322
835.788	16341
835.926	16303
836.064	16223
836.202	16268
836.34	16424
836.478	16394
836.615	16390
836.753	16398
836.891	16356
837.029	16363
837.167	16230
837.305	16333
837.443	16223
837.58	16192
837.718	16291
837.856	16120
837.993	16109
838.131	16318
838.269	16090
838.406	16131
838.544	16143
838.681	15945
838.819	15918
838.956	15717
839.094	15751
839.231	15922
839.369	15941
839.506	16211
839.643	16074
839.781	15831
839.918	15755
840.055	15762
840.193	15823
840.33	15663
840.467	15743
840.604	15831
840.742	16105
840.879	15690
841.016	15660
841.153	15644
841.29	15808
841.427	15873
841.564	15915
841.701	15728
841.838	15743
841.975	15743
842.112	15686
842.249	15568
842.385	15545
842.522	15724
842.659	15572
842.796	15538
842.933	15603
843.069	15553
843.206	15397
843.343	15557
843.479	15667
843.616	15610
843.752	15374
843.889	15298
844.025	15416
844.162	15355
844.298	15439
844.435	15351
844.571	15332
844.708	15408
844.844	15530
844.98	15523
845.117	15454
845.253	15370
845.389	15252
845.525	15348
845.661	15260
845.798	15100
845.934	15199
846.07	15138
846.206	15127
846.342	15268
846.478	15093
846.614	15032
846.75	14842
846.886	14929
847.022	15055
847.158	14990
847.294	14948
847.429	14986
847.565	14967
847.701	15199
847.837	14594
847.972	14606
848.108	14765
848.244	14682
848.379	14590
848.515	14507
848.65	14533
848.786	14522
848.921	14522
849.057	14514
849.192	14689
849.328	14606
849.463	14473
849.598	14442
849.734	14480
849.869	14473
850.004	14267
850.14	14332
850.275	14233
850.41	14202
850.545	14149
850.68	14362
850.815	14351
850.95	14298
851.085	14499
851.22	14423
851.355	14377
851.49	14206
851.625	14134
851.76	14271
851.895	14278
852.03	14176
852.165	14248
852.299	14450
852.434	14332
852.569	14313
852.703	14271
852.838	14336
852.973	14465
853.107	14454
853.242	14309
853.376	14256
853.511	14119
853.645	14134
853.78	14339
853.914	14202
854.048	14142
854.183	14149
854.317	14123
854.451	14298
854.585	14103
854.72	14153
854.854	14256
854.988	14024
855.122	14119
855.256	14005
855.39	14206
855.524	14301
855.658	14183
855.792	14103
855.926	14111
856.06	14237
856.194	14313
856.327	14168
856.461	14180
856.595	14103
856.729	14119
856.862	14248
856.996	14138
857.13	14313
857.263	14320
857.397	14339
857.53	14138
857.664	14237
857.797	14191
857.931	14282
858.064	14282
858.197	14263
858.331	14069
858.464	14107
858.597	14062
858.731	14088
858.864	14195
858.997	14100
859.13	14176
859.263	14221
859.396	14286
859.529	14149
859.662	14149
859.795	14138
859.928	14157
860.061	14301
860.194	14244
860.327	14202
860.46	14168
860.592	14259
860.725	14343
860.858	14256
860.99	14134
861.123	14027
861.256	14031
861.388	14138
861.521	14925
861.653	13982
861.786	14035
861.918	13982
862.05	14031
862.183	14123
862.315	14115
862.447	14191
862.58	14103
862.712	13963
862.844	13906
862.976	14031
863.108	13997
863.24	14271
863.372	13902
863.504	13921
863.636	13970
863.768	13986
863.9	14001
864.032	13902
864.164	13875
864.296	14008
864.428	14027
864.559	13993
864.691	14035
864.823	13963
864.954	14008
865.086	13917
865.217	13970
865.349	13830
865.48	13898
865.612	13986
865.743	14058
865.875	13970
866.006	13864
866.137	13989
866.269	13921
866.4	13921
866.531	13879
866.662	13837
866.793	13947
866.924	13871
867.055	13932
867.186	13909
867.317	13898
867.448	13811
867.579	13898
867.71	13841
867.841	13887
867.972	13989
868.103	14035
868.233	13959
868.364	14001
868.495	14024
868.625	14096
868.756	14252
868.886	14145
869.017	14115
869.147	14248
869.278	14309
869.408	14263
869.539	14199
869.669	14301
869.799	14161
869.929	14385
870.06	14240
870.19	14537
870.32	14450
870.45	14461
870.58	14640
870.71	14720
870.84	14788
870.97	14644
871.1	14575
871.23	14785
871.36	14857
871.489	14663
871.619	14826
871.749	14693
871.879	14876
872.008	14906
872.138	14830
872.267	14735
872.397	14682
872.526	14575
872.656	14598
872.785	14724
872.915	14902
873.044	14891
873.173	14872
873.303	14895
873.432	14872
873.561	14876
873.69	14895
873.819	14872
873.948	14914
874.077	14815
874.206	14891
874.335	14750
874.464	14994
874.593	15089
874.722	15157
874.851	15131
874.979	15032
875.108	15165
875.237	15127
875.365	15070
875.494	15123
875.623	15192
875.751	15104
875.88	15104
876.008	15237
876.136	15351
876.265	15595
876.393	15781
876.521	15644
876.65	15713
876.778	15545
876.906	15504
877.034	15515
877.162	15603
877.29	15473
877.418	15462
877.546	15549
877.674	15595
877.802	15530
877.93	15523
878.058	15545
878.185	15462
878.313	15542
878.441	15557
878.568	15428
878.696	15473
878.824	15580
878.951	15599
879.079	15682
879.206	15873
879.333	15720
879.461	15538
879.588	15652
879.715	15751
879.842	15842
879.97	15701
880.097	15389
880.224	15408
880.351	15466
880.478	15469
880.605	15389
880.732	15401
880.859	15603
880.986	15435
881.112	15462
881.239	15340
881.366	15237
881.493	15066
881.619	15039
881.746	15142
881.872	15058
881.999	15020
882.125	14971
882.252	15047
882.378	15028
882.505	15127
882.631	15020
882.757	14895
882.883	14952
883.01	14902
883.136	14826
883.262	14769
883.388	14667
883.514	14963
883.64	14891
883.766	14849
883.892	14708
884.018	14746
884.143	14933
884.269	15047
884.395	14636
884.52	14606
884.646	14590
884.772	14587
884.897	14545
885.023	14610
885.148	14716
885.274	14819
885.399	14716
885.524	14537
885.65	14499
885.775	14564
885.9	14568
886.025	14716
886.15	14659
886.275	14556
886.4	14522
886.525	14621
886.65	14530
886.775	14522
886.9	14678
887.025	14781
887.149	14568
887.274	14301
887.399	14396
887.523	14446
887.648	14408
887.773	14271
887.897	14514
888.021	14484
888.146	14347
888.27	14438
888.395	14590
888.519	14396
888.643	14518
888.767	14465
888.891	14385
889.015	14252
889.139	14377
889.263	14282
889.387	14446
889.511	14476
889.635	14423
889.759	14229
889.883	14240
890.006	14317
890.13	14393
890.254	14240
890.377	14298
890.501	14161
890.624	14111
890.748	14237
890.871	13989
890.995	13982
891.118	14005
891.241	13917
891.364	13970
891.488	14115
891.611	13986
891.734	13951
891.857	13951
891.98	13986
892.103	14062
892.226	14020
892.349	14001
892.471	13765
892.594	13887
892.717	14001
892.839	13944
892.962	14043
893.085	14020
893.207	14069
893.33	13803
893.452	13947
893.575	14062
893.697	13959
893.819	14123
893.941	14172
894.064	14164
894.186	13993
894.308	13959
894.43	14031
894.552	14221
894.674	14092
894.796	13856
894.918	14069
895.04	14054
895.161	14050
895.283	14161
895.405	13974
895.526	13986
895.648	14126
895.769	14195
895.891	14191
896.012	14237
896.134	14168
896.255	14161
896.376	14183
896.498	14119
896.619	14347
896.74	14210
896.861	14149
896.982	14522
897.103	14674
897.224	14465
897.345	14442
897.466	14336
897.587	14499
897.708	14552
897.828	14480
897.949	14389
898.07	14336
898.19	14412
898.311	14530
898.431	14427
898.552	14438
898.672	14568
898.792	14587
898.913	14670
899.033	14465
899.153	14339
899.273	14313
899.393	14358
899.513	14381
899.633	14385
899.753	14396
899.873	14358
899.993	14431
900.113	14305
900.232	14275
900.352	14347
900.472	14298
900.591	14206
900.711	14256
900.83	14252
900.95	14294
901.069	14415
901.189	14180
901.308	13955
901.427	13826
901.546	13959
901.665	13955
901.784	13963
901.904	13791
902.023	13742
902.141	13556
902.26	13559
902.379	13597
902.498	13567
902.617	13480
902.735	13597
902.854	13502
902.973	13415
903.091	13270
903.21	13198
903.328	13221
903.446	13160
903.565	13053
903.683	13076
903.801	12954
903.919	13053
904.038	13019
904.156	12859
904.274	12916
904.392	12810
904.51	12863
904.627	12882
904.745	12970
904.863	12951
904.981	12730
905.098	12616
905.216	12479
905.334	12585
905.451	12650
905.569	12486
905.686	12563
905.803	12555
905.921	12429
906.038	12479
906.155	12407
906.272	12213
906.389	12285
906.506	12266
906.623	12235
906.74	12144
906.857	12102
906.974	12144
907.091	12190
907.208	12330
907.324	12155
907.441	12095
907.557	11863
907.674	11939
907.79	11840
907.907	11950
908.023	11984
908.139	11977
908.256	11904
908.372	11809
908.488	11756
908.604	11714
908.72	11668
908.836	11714
908.952	11665
909.068	11627
909.184	11710
909.3	11688
909.415	11756
909.531	11691
909.647	11478
909.762	11558
909.878	11493
909.993	11585
910.108	11463
910.224	11372
910.339	11440
910.454	11353
910.57	11277
910.685	11220
910.8	11490
910.915	11516
911.03	11395
911.145	11132
911.259	11143
911.374	11189
911.489	11121
911.604	11140
911.718	10873
911.833	10984
911.947	10809
912.062	10782
912.176	10839
912.291	10869
912.405	10953
912.519	11102
912.633	11174
912.748	11029
912.862	10934
912.976	10721
913.09	10675
913.204	10740
913.318	10679
913.431	10942
913.545	10812
913.659	10866
913.772	10790
913.886	10656
914	10687
914.113	10786
914.226	10752
914.34	10664
914.453	10630
914.566	10679
914.68	10615
914.793	10607
914.906	10394
915.019	10417
915.132	10333
915.245	10409
915.358	10493
915.47	10417
915.583	10459
915.696	10516
915.809	10561
915.921	10630
916.034	10344
916.146	10428
916.259	10386
916.371	10405
916.483	10421
916.595	10371
916.708	10329
916.82	10360
916.932	10295
917.044	10352
917.156	10306
917.268	10234
917.38	10238
917.491	10219
917.603	10272
917.715	10295
917.826	10409
917.938	10287
918.049	10185
918.161	10280
918.272	10440
918.384	10341
918.495	10227
918.606	10131
918.717	10036
918.828	10090
918.939	10150
919.05	9975
919.161	10097
919.272	9915
919.383	9945
919.494	10169
919.604	10367
919.715	10112
919.826	10059
919.936	10082
920.047	10188
920.157	10177
920.267	10325
920.378	10242
920.488	10204
920.598	10356
920.708	10379
920.818	10344
920.928	10322
921.038	10489
921.148	10421
921.258	10185
921.368	10078
921.477	10013
921.587	10040
921.697	9865
921.806	10055
921.916	9934
922.025	9682
922.134	9720
922.244	9732
922.353	9766
922.462	9618
922.571	9530
922.68	9515
922.789	9397
922.898	9405
923.007	9310
923.116	9435
923.224	9488
923.333	9370
923.442	9313
923.55	9279
923.659	9294
923.767	9420
923.876	9222
923.984	9344
924.092	9207
924.201	9321
924.309	9298
924.417	9176
924.525	9226
924.633	9211
924.741	10135
924.849	9001
924.956	9241
925.064	9005
925.172	9039
925.279	8971
925.387	9047
925.494	9138
925.602	9207
925.709	9131
925.816	9070
925.924	9058
926.031	9100
926.138	9058
926.245	9058
926.352	8979
926.459	9089
926.566	9249
926.673	9028
926.779	8979
926.886	8845
926.993	8914
927.099	8769
927.206	8735
927.312	8735
927.419	8834
927.525	8788
927.631	8826
927.737	8712
927.843	8727
927.95	8522
928.056	8693
928.162	8731
928.267	8777
928.373	9256
928.479	8754
928.585	8514
928.69	8617
928.796	8640
928.901	8602
929.007	8469
929.112	8602
929.218	8533
929.323	8495
929.428	8415
929.533	8602
929.638	8412
929.743	8514
929.848	8492
929.953	8530
930.058	8465
930.163	8263
930.267	8279
930.372	8484
930.477	8202
930.581	8514
930.685	8313
930.79	8214
930.894	8248
930.998	8248
931.103	8366
931.207	8008
931.311	8012
931.415	7871
931.519	7696
931.623	7792
