Data from test_V78500241_3297.txt Node
Date: Fri Mar 25 14:56:40 CST 2022
User: usil
Spectrometer: V785-0024
Trigger mode: 0
Integration Time (sec): 4.000000E-1
Scans to average: 1
Nonlinearity correction enabled: false
Boxcar width: 0
Storing dark spectrum: false
XAxis mode: Wavelengths
Number of Pixels in Spectrum: 1024
>>>>>Begin Spectral Data<<<<<
801.071	21941
801.214	21888
801.356	21603
801.499	21599
801.641	21355
801.783	21283
801.926	21428
802.068	21161
802.211	21108
802.353	21165
802.496	20952
802.638	20910
802.78	20739
802.923	20731
803.065	20606
803.208	20530
803.35	20636
803.492	20788
803.635	20743
803.777	20727
803.919	20781
804.061	20838
804.204	20629
804.346	20541
804.488	20552
804.63	20560
804.773	20511
804.915	20492
805.057	20590
805.199	20632
805.341	20670
805.483	20724
805.626	20587
805.768	20499
805.91	20587
806.052	20663
806.194	20518
806.336	20640
806.478	20434
806.62	20571
806.762	20629
806.904	20682
807.046	21043
807.188	20872
807.33	20864
807.472	20952
807.614	20842
807.756	20720
807.898	20712
808.04	20629
808.182	20541
808.324	20739
808.465	20659
808.607	20750
808.749	20941
808.891	20986
809.033	21032
809.174	21005
809.316	20834
809.458	20864
809.6	20796
809.741	20849
809.883	20853
810.025	21096
810.166	20990
810.308	21009
810.45	21058
810.591	20849
810.733	20762
810.875	20765
811.016	20678
811.158	20568
811.299	20769
811.441	20914
811.582	20727
811.724	20613
811.865	20667
812.007	20602
812.148	20579
812.29	20686
812.431	20849
812.573	20891
812.714	21127
812.855	21203
812.997	21272
813.138	21321
813.279	21294
813.421	21093
813.562	21093
813.703	20883
813.845	20830
813.986	20564
814.127	20370
814.268	20263
814.41	20199
814.551	20100
814.692	20267
814.833	20069
814.974	20259
815.115	20172
815.256	20008
815.397	20172
815.539	20050
815.68	19906
815.821	19864
815.962	19925
816.103	19875
816.244	19700
816.385	19700
816.526	19674
816.666	19472
816.807	19339
816.948	19430
817.089	19499
817.23	19346
817.371	19365
817.512	19369
817.653	19308
817.793	19209
817.934	19392
818.075	19274
818.216	19324
818.356	19263
818.497	19346
818.638	18958
818.778	19053
818.919	19012
819.06	19050
819.2	19080
819.341	19137
819.481	19152
819.622	19293
819.762	19552
819.903	19381
820.043	19369
820.184	19308
820.324	19259
820.465	19400
820.605	19221
820.746	19164
820.886	19148
821.026	19335
821.167	19247
821.307	19331
821.447	19175
821.588	19187
821.728	19008
821.868	18859
822.008	18749
822.149	18730
822.289	18734
822.429	18506
822.569	18388
822.709	18410
822.849	18213
822.99	18205
823.13	18235
823.27	18159
823.41	18133
823.55	18136
823.69	18117
823.83	18072
823.97	18049
824.11	17863
824.25	17703
824.389	17817
824.529	17805
824.669	17901
824.809	17885
824.949	17859
825.089	17775
825.228	17836
825.368	17619
825.508	17668
825.648	17672
825.787	17714
825.927	17524
826.067	17615
826.206	17520
826.346	17596
826.485	17684
826.625	17649
826.765	17668
826.904	17726
827.044	17410
827.183	17364
827.323	17280
827.462	17368
827.601	17181
827.741	17204
827.88	17376
828.02	17254
828.159	17402
828.298	17364
828.437	17406
828.577	17277
828.716	17376
828.855	17280
828.994	17098
829.134	17071
829.273	17022
829.412	17018
829.551	17003
829.69	16965
829.829	17094
829.968	17269
830.107	17102
830.246	17178
830.385	17064
830.524	16953
830.663	16972
830.802	16797
830.941	16778
831.08	16713
831.219	16755
831.357	16759
831.496	16938
831.635	16691
831.774	16603
831.913	16573
832.051	16512
832.19	16402
832.329	16626
832.467	16451
832.606	16310
832.744	16417
832.883	16348
833.022	16367
833.16	16432
833.299	16421
833.437	16375
833.576	16451
833.714	16443
833.852	16466
833.991	16493
834.129	16577
834.267	16485
834.406	16398
834.544	16436
834.682	16451
834.821	16497
834.959	16626
835.097	16413
835.235	16538
835.373	16512
835.511	16424
835.65	16367
835.788	16344
835.926	16265
836.064	16101
836.202	16200
836.34	16299
836.478	16447
836.615	16428
836.753	16360
836.891	16481
837.029	16386
837.167	16249
837.305	16303
837.443	16185
837.58	16158
837.718	16261
837.856	16234
837.993	16131
838.131	16261
838.269	16131
838.406	16093
838.544	16116
838.681	15968
838.819	15956
838.956	15823
839.094	15713
839.231	15812
839.369	15953
839.506	16105
839.643	15998
839.781	15884
839.918	15804
840.055	15846
840.193	15812
840.33	15701
840.467	15682
840.604	15709
840.742	16010
840.879	15671
841.016	15713
841.153	15739
841.29	15876
841.427	15838
841.564	15804
841.701	15732
841.838	15717
841.975	15660
842.112	15751
842.249	15564
842.385	15587
842.522	15709
842.659	15610
842.796	15663
842.933	15477
843.069	15538
843.206	15591
843.343	15629
843.479	15496
843.616	15549
843.752	15435
843.889	15363
844.025	15431
844.162	15336
844.298	15351
844.435	15363
844.571	15268
844.708	15431
844.844	15500
844.98	15515
845.117	15466
845.253	15420
845.389	15192
845.525	15138
845.661	15256
845.798	15097
845.934	15222
846.07	15062
846.206	15207
846.342	15287
846.478	15028
846.614	15020
846.75	14883
846.886	14853
847.022	15085
847.158	14979
847.294	14975
847.429	15089
847.565	14891
847.701	15070
847.837	14735
847.972	14568
848.108	14777
848.244	14693
848.379	14640
848.515	14530
848.65	14442
848.786	14522
848.921	14514
849.057	14545
849.192	14602
849.328	14454
849.463	14507
849.598	14530
849.734	14450
849.869	14298
850.004	14313
850.14	14298
850.275	14294
850.41	14271
850.545	14267
850.68	14259
850.815	14305
850.95	14252
851.085	14473
851.22	14457
851.355	14225
851.49	14225
851.625	14282
851.76	14248
851.895	14176
852.03	14183
852.165	14347
852.299	14324
852.434	14320
852.569	14252
852.703	14355
852.838	14396
852.973	14415
853.107	14396
853.242	14275
853.376	14267
853.511	14187
853.645	14123
853.78	14355
853.914	14187
854.048	14081
854.183	14115
854.317	14225
854.451	14267
854.585	14183
854.72	14164
854.854	14142
854.988	14130
855.122	14191
855.256	13928
855.39	14195
855.524	14195
855.658	14199
855.792	14115
855.926	14244
856.06	14202
856.194	14301
856.327	14081
856.461	14142
856.595	14214
856.729	14100
856.862	14286
856.996	14180
857.13	14168
857.263	14221
857.397	14298
857.53	14145
857.664	14214
857.797	14237
857.931	14301
858.064	14240
858.197	14244
858.331	14187
858.464	14183
858.597	14050
858.731	14172
858.864	14164
858.997	14024
859.13	14153
859.263	14221
859.396	14298
859.529	14088
859.662	14138
859.795	14054
859.928	14252
860.061	14225
860.194	14343
860.327	14138
860.46	14172
860.592	14282
860.725	14377
860.858	14263
860.99	14172
861.123	14107
861.256	14024
861.388	14092
861.521	14967
861.653	14161
861.786	14005
861.918	13974
862.05	14103
862.183	14164
862.315	14180
862.447	14214
862.58	13982
862.712	14001
862.844	13906
862.976	13986
863.108	14043
863.24	14240
863.372	14012
863.504	13967
863.636	13868
863.768	14065
863.9	14058
864.032	13849
864.164	13928
864.296	13986
864.428	14088
864.559	13997
864.691	14016
864.823	14035
864.954	13959
865.086	13993
865.217	13947
865.349	13799
865.48	13959
865.612	13982
865.743	13955
865.875	13959
866.006	13997
866.137	13871
866.269	13818
866.4	13868
866.531	13811
866.662	13757
866.793	13875
866.924	13875
867.055	13997
867.186	13928
867.317	13909
867.448	13780
867.579	13898
867.71	13837
867.841	13898
867.972	13967
868.103	13959
868.233	14039
868.364	13925
868.495	14043
868.625	14168
868.756	14256
868.886	14142
869.017	14202
869.147	14248
869.278	14259
869.408	14195
869.539	14180
869.669	14221
869.799	14252
869.929	14324
870.06	14317
870.19	14412
870.32	14469
870.45	14556
870.58	14587
870.71	14640
870.84	14602
870.97	14549
871.1	14549
871.23	14731
871.36	14762
871.489	14617
871.619	14663
871.749	14762
871.879	14765
872.008	14845
872.138	14705
872.267	14743
872.397	14720
872.526	14606
872.656	14667
872.785	14610
872.915	14895
873.044	14948
873.173	14891
873.303	14872
873.432	14883
873.561	14925
873.69	14872
873.819	14838
873.948	14902
874.077	14845
874.206	14842
874.335	14868
874.464	14986
874.593	15066
874.722	15028
874.851	15157
874.979	15062
875.108	15184
875.237	15017
875.365	15055
875.494	15036
875.623	15237
875.751	15203
875.88	15237
876.008	15344
876.136	15412
876.265	15580
876.393	15751
876.521	15663
876.65	15625
876.778	15629
876.906	15542
877.034	15462
877.162	15587
877.29	15526
877.418	15641
877.546	15591
877.674	15660
877.802	15545
877.93	15534
878.058	15538
878.185	15363
878.313	15530
878.441	15576
878.568	15450
878.696	15519
878.824	15587
878.951	15739
879.079	15736
879.206	15861
879.333	15747
879.461	15568
879.588	15652
879.715	15724
879.842	15785
879.97	15564
880.097	15431
880.224	15275
880.351	15412
880.478	15439
880.605	15397
880.732	15363
880.859	15720
880.986	15355
881.112	15443
881.239	15389
881.366	15157
881.493	15131
881.619	15104
881.746	15116
881.872	15100
881.999	15039
882.125	15085
882.252	15184
882.378	15066
882.505	15199
882.631	15116
882.757	14895
882.883	14967
883.01	14849
883.136	14815
883.262	14785
883.388	14693
883.514	14918
883.64	14929
883.766	14902
883.892	14758
884.018	14758
884.143	14906
884.269	15055
884.395	14746
884.52	14514
884.646	14629
884.772	14522
884.897	14518
885.023	14621
885.148	14663
885.274	14724
885.399	14708
885.524	14568
885.65	14552
885.775	14727
885.9	14537
886.025	14670
886.15	14629
886.275	14518
886.4	14552
886.525	14518
886.65	14492
886.775	14541
886.9	14743
887.025	14804
887.149	14533
887.274	14499
887.399	14412
887.523	14389
887.648	14389
887.773	14320
887.897	14549
888.021	14507
888.146	14446
888.27	14385
888.395	14598
888.519	14431
888.643	14499
888.767	14514
888.891	14343
889.015	14396
889.139	14370
889.263	14278
889.387	14427
889.511	14530
889.635	14419
889.759	14271
889.883	14240
890.006	14320
890.13	14396
890.254	14195
890.377	14240
890.501	14240
890.624	14100
890.748	14149
890.871	13936
890.995	13989
891.118	13970
891.241	13997
891.364	13951
891.488	14164
891.611	13967
891.734	14081
891.857	14065
891.98	14115
892.103	14073
892.226	14054
892.349	13944
892.471	13864
892.594	13894
892.717	13947
892.839	13986
892.962	13940
893.085	14039
893.207	14024
893.33	13875
893.452	13967
893.575	14039
893.697	13940
893.819	14168
893.941	14248
894.064	14119
894.186	14005
894.308	14024
894.43	14107
894.552	14183
894.674	14153
894.796	13906
894.918	14016
895.04	13932
895.161	14119
895.283	14077
895.405	14001
895.526	14024
895.648	14145
895.769	14172
895.891	14142
896.012	14267
896.134	14153
896.255	14172
896.376	14069
896.498	14180
896.619	14202
896.74	14149
896.861	14267
896.982	14518
897.103	14579
897.224	14507
897.345	14408
897.466	14385
897.587	14374
897.708	14503
897.828	14518
897.949	14473
898.07	14301
898.19	14358
898.311	14636
898.431	14442
898.552	14442
898.672	14655
898.792	14602
898.913	14514
899.033	14465
899.153	14423
899.273	14233
899.393	14278
899.513	14400
899.633	14332
899.753	14317
899.873	14366
899.993	14370
900.113	14317
900.232	14309
900.352	14351
900.472	14248
900.591	14233
900.711	14214
900.83	14256
900.95	14377
901.069	14355
901.189	14172
901.308	13963
901.427	13852
901.546	13769
901.665	13959
901.784	13925
901.904	13856
902.023	13791
902.141	13529
902.26	13483
902.379	13578
902.498	13419
902.617	13411
902.735	13430
902.854	13468
902.973	13419
903.091	13244
903.21	13152
903.328	13179
903.446	13088
903.565	13019
903.683	13118
903.801	12985
903.919	13023
904.038	13091
904.156	12833
904.274	12909
904.392	12920
904.51	12897
904.627	12859
904.745	12905
904.863	12954
904.981	12696
905.098	12627
905.216	12570
905.334	12585
905.451	12616
905.569	12479
905.686	12604
905.803	12570
905.921	12372
906.038	12475
906.155	12384
906.272	12369
906.389	12251
906.506	12140
906.623	12083
906.74	12064
906.857	12087
906.974	12053
907.091	12148
907.208	12311
907.324	12186
907.441	12015
907.557	11889
907.674	11840
907.79	11863
907.907	11946
908.023	11908
908.139	11912
908.256	11866
908.372	11855
908.488	11821
908.604	11691
908.72	11600
908.836	11657
908.952	11630
909.068	11714
909.184	11779
909.3	11611
909.415	11729
909.531	11714
909.647	11448
909.762	11429
909.878	11402
909.993	11433
910.108	11444
910.224	11383
910.339	11478
910.454	11356
910.57	11353
910.685	11223
910.8	11547
910.915	11471
911.03	11345
911.145	11181
911.259	11132
911.374	11178
911.489	11086
911.604	10972
911.718	10972
911.833	10843
911.947	10831
912.062	10748
912.176	10934
912.291	10908
912.405	10923
912.519	11090
912.633	11075
912.748	10995
912.862	10923
912.976	10854
913.09	10607
913.204	10698
913.318	10858
913.431	10927
913.545	10911
913.659	10828
913.772	10790
913.886	10672
914	10687
914.113	10683
914.226	10881
914.34	10683
914.453	10546
914.566	10698
914.68	10611
914.793	10622
914.906	10428
915.019	10405
915.132	10348
915.245	10386
915.358	10394
915.47	10474
915.583	10489
915.696	10379
915.809	10577
915.921	10580
916.034	10421
916.146	10348
916.259	10325
916.371	10394
916.483	10436
916.595	10284
916.708	10379
916.82	10284
916.932	10291
917.044	10310
917.156	10386
917.268	10207
917.38	10215
917.491	10234
917.603	10227
917.715	10333
917.826	10428
917.938	10188
918.049	10086
918.161	10200
918.272	10390
918.384	10432
918.495	10276
918.606	10181
918.717	10017
918.828	10124
918.939	10196
919.05	10071
919.161	10109
919.272	9956
919.383	9945
919.494	10105
919.604	10386
919.715	10162
919.826	10010
919.936	10166
920.047	10227
920.157	10207
920.267	10375
920.378	10166
920.488	10101
920.598	10329
920.708	10470
920.818	10341
920.928	10284
921.038	10481
921.148	10584
921.258	10093
921.368	10090
921.477	9987
921.587	9934
921.697	9892
921.806	9994
921.916	9979
922.025	9751
922.134	9720
922.244	9663
922.353	9804
922.462	9606
922.571	9542
922.68	9393
922.789	9325
922.898	9473
923.007	9386
923.116	9428
923.224	9408
923.333	9283
923.442	9321
923.55	9245
923.659	9260
923.767	9283
923.876	9249
923.984	9321
924.092	9283
924.201	9249
924.309	9272
924.417	9336
924.525	9287
924.633	9161
924.741	10223
924.849	9017
924.956	9176
925.064	9097
925.172	8960
925.279	9005
925.387	9032
925.494	9074
925.602	9142
925.709	9127
925.816	8990
925.924	9051
926.031	9173
926.138	9005
926.245	9043
926.352	8967
926.459	9081
926.566	9154
926.673	8963
926.779	8990
926.886	8948
926.993	8739
927.099	8781
927.206	8762
927.312	8777
927.419	8834
927.525	8746
927.631	8826
927.737	8712
927.843	8712
927.95	8587
928.056	8632
928.162	8689
928.267	8655
928.373	9245
928.479	8868
928.585	8541
928.69	8655
928.796	8746
928.901	8564
929.007	8461
929.112	8552
929.218	8545
929.323	8514
929.428	8492
929.533	8625
929.638	8400
929.743	8568
929.848	8492
929.953	8537
930.058	8389
930.163	8229
930.267	8263
930.372	8446
930.477	8202
930.581	8552
930.685	8271
930.79	8248
930.894	8183
930.998	8218
931.103	8396
931.207	8031
931.311	7951
931.415	7879
931.519	7628
931.623	7681
