Data from test_V78500241_2916.txt Node
Date: Fri Mar 25 14:54:01 CST 2022
User: usil
Spectrometer: V785-0024
Trigger mode: 0
Integration Time (sec): 4.000000E-1
Scans to average: 1
Nonlinearity correction enabled: false
Boxcar width: 0
Storing dark spectrum: false
XAxis mode: Wavelengths
Number of Pixels in Spectrum: 1024
>>>>>Begin Spectral Data<<<<<
801.071	22158
801.214	21991
801.356	21850
801.499	21618
801.641	21561
801.783	21466
801.926	21435
802.068	21344
802.211	21416
802.353	21367
802.496	21020
802.638	20956
802.78	20906
802.923	20876
803.065	20727
803.208	20670
803.35	20781
803.492	20971
803.635	20819
803.777	20720
803.919	20849
804.061	21241
804.204	20834
804.346	20693
804.488	20606
804.63	20777
804.773	20621
804.915	20705
805.057	20716
805.199	20758
805.341	20834
805.483	20781
805.626	20769
805.768	20602
805.91	20697
806.052	20804
806.194	20636
806.336	20849
806.478	20659
806.62	20644
806.762	20731
806.904	20804
807.046	21020
807.188	21108
807.33	20914
807.472	21157
807.614	20941
807.756	20899
807.898	20758
808.04	20750
808.182	20765
808.324	20674
808.465	20754
808.607	20971
808.749	21009
808.891	21230
809.033	21150
809.174	21138
809.316	21104
809.458	21039
809.6	20948
809.741	21226
809.883	21032
810.025	21230
810.166	21256
810.308	21310
810.45	21165
810.591	21108
810.733	20986
810.875	20929
811.016	20811
811.158	20697
811.299	20842
811.441	20902
811.582	20918
811.724	20838
811.865	20868
812.007	20735
812.148	20800
812.29	20914
812.431	20979
812.573	21146
812.714	21249
812.855	21424
812.997	21351
813.138	21641
813.279	21477
813.421	21443
813.562	21188
813.703	21165
813.845	20899
813.986	20716
814.127	20473
814.268	20438
814.41	20473
814.551	20404
814.692	20370
814.833	20199
814.974	20374
815.115	20317
815.256	20244
815.397	20237
815.539	20195
815.68	20092
815.821	20176
815.962	20180
816.103	20027
816.244	19917
816.385	19769
816.526	19753
816.666	19666
816.807	19407
816.948	19563
817.089	19639
817.23	19605
817.371	19571
817.512	19521
817.653	19571
817.793	19400
817.934	19514
818.075	19457
818.216	19525
818.356	19460
818.497	19331
818.638	19091
818.778	19156
818.919	19293
819.06	19244
819.2	19358
819.341	19350
819.481	19377
819.622	19586
819.762	19639
819.903	19613
820.043	19525
820.184	19571
820.324	19476
820.465	19521
820.605	19571
820.746	19426
820.886	19301
821.026	19480
821.167	19464
821.307	19411
821.447	19419
821.588	19400
821.728	19183
821.868	19031
822.008	18852
822.149	18897
822.289	18875
822.429	18692
822.569	18681
822.709	18585
822.849	18384
822.99	18376
823.13	18369
823.27	18346
823.41	18224
823.55	18133
823.69	18197
823.83	18079
823.97	18114
824.11	17977
824.25	17950
824.389	17916
824.529	18053
824.669	18022
824.809	18068
824.949	18041
825.089	18034
825.228	18041
825.368	17707
825.508	17767
825.648	17729
825.787	17824
825.927	17802
826.067	17714
826.206	17729
826.346	17786
826.485	17794
826.625	17779
826.765	17813
826.904	17783
827.044	17577
827.183	17524
827.323	17372
827.462	17490
827.601	17379
827.741	17429
827.88	17452
828.02	17315
828.159	17425
828.298	17478
828.437	17558
828.577	17440
828.716	17444
828.855	17440
828.994	17261
829.134	17140
829.273	17254
829.412	17204
829.551	17181
829.69	17185
829.829	17151
829.968	17273
830.107	17269
830.246	17140
830.385	17124
830.524	17216
830.663	16999
830.802	16938
830.941	16809
831.08	16767
831.219	16866
831.357	16828
831.496	17109
831.635	16904
831.774	16740
831.913	16694
832.051	16634
832.19	16565
832.329	16702
832.467	16432
832.606	16497
832.744	16523
832.883	16493
833.022	16516
833.16	16405
833.299	16546
833.437	16607
833.576	16577
833.714	16466
833.852	16440
833.991	16599
834.129	16565
834.267	16649
834.406	16569
834.544	16546
834.682	16558
834.821	16618
834.959	16721
835.097	16550
835.235	16626
835.373	16558
835.511	16531
835.65	16512
835.788	16493
835.926	16417
836.064	16242
836.202	16379
836.34	16489
836.478	16668
836.615	16440
836.753	16519
836.891	16474
837.029	16516
837.167	16440
837.305	16295
837.443	16253
837.58	16219
837.718	16402
837.856	16348
837.993	16333
838.131	16314
838.269	16242
838.406	16249
838.544	16135
838.681	16021
838.819	16002
838.956	15926
839.094	15835
839.231	15842
839.369	16032
839.506	16234
839.643	16131
839.781	15880
839.918	15781
840.055	15880
840.193	15823
840.33	15774
840.467	15838
840.604	15876
840.742	16006
840.879	15698
841.016	15846
841.153	15751
841.29	15937
841.427	15884
841.564	15930
841.701	15816
841.838	15846
841.975	15751
842.112	15846
842.249	15747
842.385	15580
842.522	15770
842.659	15701
842.796	15610
842.933	15736
843.069	15652
843.206	15637
843.343	15709
843.479	15622
843.616	15686
843.752	15443
843.889	15374
844.025	15515
844.162	15473
844.298	15542
844.435	15488
844.571	15332
844.708	15496
844.844	15591
844.98	15591
845.117	15557
845.253	15302
845.389	15317
845.525	15424
845.661	15450
845.798	15195
845.934	15272
846.07	15180
846.206	15306
846.342	15325
846.478	15230
846.614	15070
846.75	14929
846.886	14948
847.022	15135
847.158	15074
847.294	14990
847.429	14906
847.565	14975
847.701	15294
847.837	14701
847.972	14686
848.108	14792
848.244	14823
848.379	14625
848.515	14594
848.65	14514
848.786	14488
848.921	14560
849.057	14701
849.192	14625
849.328	14712
849.463	14530
849.598	14518
849.734	14476
849.869	14503
850.004	14374
850.14	14385
850.275	14366
850.41	14244
850.545	14317
850.68	14305
850.815	14282
850.95	14389
851.085	14488
851.22	14423
851.355	14412
851.49	14332
851.625	14362
851.76	14237
851.895	14286
852.03	14317
852.165	14290
852.299	14412
852.434	14461
852.569	14450
852.703	14385
852.838	14442
852.973	14556
853.107	14434
853.242	14404
853.376	14256
853.511	14123
853.645	14206
853.78	14313
853.914	14252
854.048	14153
854.183	14278
854.317	14271
854.451	14389
854.585	14214
854.72	14271
854.854	14320
854.988	14138
855.122	14187
855.256	14050
855.39	14164
855.524	14309
855.658	14286
855.792	14221
855.926	14290
856.06	14271
856.194	14305
856.327	14168
856.461	14218
856.595	14240
856.729	14256
856.862	14309
856.996	14225
857.13	14278
857.263	14278
857.397	14339
857.53	14267
857.664	14374
857.797	14355
857.931	14328
858.064	14240
858.197	14343
858.331	14263
858.464	14123
858.597	14077
858.731	14237
858.864	14271
858.997	14168
859.13	14225
859.263	14233
859.396	14358
859.529	14164
859.662	14221
859.795	14138
859.928	14237
860.061	14412
860.194	14351
860.327	14313
860.46	14267
860.592	14324
860.725	14294
860.858	14301
860.99	14130
861.123	14168
861.256	14111
861.388	14244
861.521	14963
861.653	14111
861.786	14096
861.918	14073
862.05	14142
862.183	14164
862.315	14183
862.447	14233
862.58	14126
862.712	14039
862.844	13970
862.976	14016
863.108	14005
863.24	14351
863.372	13978
863.504	13932
863.636	14008
863.768	13989
863.9	13989
864.032	13925
864.164	13906
864.296	14050
864.428	14202
864.559	14225
864.691	14180
864.823	14046
864.954	14073
865.086	13959
865.217	14008
865.349	13932
865.48	13955
865.612	14043
865.743	14153
865.875	13936
866.006	14050
866.137	13963
866.269	13963
866.4	14008
866.531	13959
866.662	13860
866.793	13898
866.924	13970
867.055	14065
867.186	14008
867.317	14027
867.448	13921
867.579	13887
867.71	13856
867.841	13959
867.972	13997
868.103	14088
868.233	13955
868.364	14043
868.495	14035
868.625	14161
868.756	14366
868.886	14103
869.017	14149
869.147	14324
869.278	14298
869.408	14244
869.539	14313
869.669	14324
869.799	14328
869.929	14404
870.06	14374
870.19	14552
870.32	14537
870.45	14511
870.58	14632
870.71	14674
870.84	14750
870.97	14617
871.1	14594
871.23	14807
871.36	14823
871.489	14739
871.619	14807
871.749	14842
871.879	14861
872.008	14899
872.138	14807
872.267	14731
872.397	14610
872.526	14682
872.656	14575
872.785	14743
872.915	14868
873.044	14956
873.173	14853
873.303	14868
873.432	14895
873.561	15020
873.69	14929
873.819	14914
873.948	14963
874.077	14883
874.206	14853
874.335	14990
874.464	14990
874.593	15211
874.722	15089
874.851	15180
874.979	15173
875.108	15287
875.237	15119
875.365	15127
875.494	15074
875.623	15154
875.751	15230
875.88	15252
876.008	15298
876.136	15466
876.265	15614
876.393	15705
876.521	15557
876.65	15591
876.778	15606
876.906	15549
877.034	15496
877.162	15629
877.29	15439
877.418	15705
877.546	15526
877.674	15599
877.802	15599
877.93	15511
878.058	15584
878.185	15530
878.313	15553
878.441	15644
878.568	15564
878.696	15622
878.824	15663
878.951	15660
879.079	15827
879.206	16017
879.333	15766
879.461	15648
879.588	15743
879.715	15770
879.842	15937
879.97	15747
880.097	15538
880.224	15485
880.351	15496
880.478	15492
880.605	15481
880.732	15526
880.859	15576
880.986	15504
881.112	15401
881.239	15310
881.366	15211
881.493	15176
881.619	15009
881.746	15127
881.872	15085
881.999	15074
882.125	15066
882.252	15085
882.378	15146
882.505	15370
882.631	15074
882.757	14876
882.883	15020
883.01	14933
883.136	14819
883.262	14769
883.388	14701
883.514	14990
883.64	14998
883.766	14861
883.892	14716
884.018	14857
884.143	14967
884.269	14960
884.395	14708
884.52	14594
884.646	14636
884.772	14568
884.897	14514
885.023	14663
885.148	14720
885.274	14762
885.399	14811
885.524	14674
885.65	14632
885.775	14659
885.9	14568
886.025	14769
886.15	14705
886.275	14568
886.4	14480
886.525	14579
886.65	14644
886.775	14651
886.9	14788
887.025	14792
887.149	14617
887.274	14488
887.399	14374
887.523	14484
887.648	14434
887.773	14370
887.897	14564
888.021	14488
888.146	14545
888.27	14549
888.395	14564
888.519	14568
888.643	14549
888.767	14594
888.891	14408
889.015	14309
889.139	14396
889.263	14252
889.387	14412
889.511	14545
889.635	14400
889.759	14305
889.883	14256
890.006	14294
890.13	14355
890.254	14328
890.377	14343
890.501	14123
890.624	14115
890.748	14218
890.871	14077
890.995	14008
891.118	13974
891.241	14058
891.364	14084
891.488	14111
891.611	14103
891.734	14069
891.857	14153
891.98	14035
892.103	14123
892.226	14050
892.349	14043
892.471	13940
892.594	13925
892.717	14077
892.839	14024
892.962	14046
893.085	14107
893.207	13997
893.33	13921
893.452	14001
893.575	14058
893.697	14024
893.819	14107
893.941	14263
894.064	14119
894.186	14077
894.308	13940
894.43	14176
894.552	14328
894.674	14221
894.796	14088
894.918	14043
895.04	14100
895.161	14206
895.283	14248
895.405	14062
895.526	14142
895.648	14081
895.769	14195
895.891	14256
896.012	14286
896.134	14259
896.255	14240
896.376	14130
896.498	14172
896.619	14267
896.74	14221
896.861	14366
896.982	14495
897.103	14773
897.224	14480
897.345	14431
897.466	14457
897.587	14473
897.708	14564
897.828	14579
897.949	14465
898.07	14328
898.19	14434
898.311	14606
898.431	14511
898.552	14499
898.672	14632
898.792	14686
898.913	14526
899.033	14442
899.153	14492
899.273	14415
899.393	14480
899.513	14480
899.633	14473
899.753	14461
899.873	14385
899.993	14358
900.113	14381
900.232	14514
900.352	14442
900.472	14336
900.591	14233
900.711	14370
900.83	14218
900.95	14393
901.069	14286
901.189	14320
901.308	13944
901.427	13940
901.546	13993
901.665	14008
901.784	13944
901.904	13833
902.023	13776
902.141	13616
902.26	13533
902.379	13472
902.498	13499
902.617	13468
902.735	13582
902.854	13472
902.973	13510
903.091	13266
903.21	13289
903.328	13221
903.446	13274
903.565	13095
903.683	13236
903.801	12970
903.919	13118
904.038	13061
904.156	13042
904.274	13034
904.392	12821
904.51	12886
904.627	12954
904.745	12920
904.863	12897
904.981	12669
905.098	12642
905.216	12623
905.334	12627
905.451	12650
905.569	12585
905.686	12616
905.803	12650
905.921	12460
906.038	12528
906.155	12536
906.272	12300
906.389	12437
906.506	12152
906.623	12140
906.74	12213
906.857	12068
906.974	12144
907.091	12334
907.208	12403
907.324	12201
907.441	12098
907.557	12003
907.674	11950
907.79	11912
907.907	11923
908.023	11984
908.139	11984
908.256	11908
908.372	11885
908.488	11813
908.604	11764
908.72	11600
908.836	11741
908.952	11672
909.068	11665
909.184	11813
909.3	11726
909.415	11771
909.531	11767
909.647	11478
909.762	11478
909.878	11421
909.993	11497
910.108	11398
910.224	11436
910.339	11493
910.454	11299
910.57	11303
910.685	11227
910.8	11520
910.915	11471
911.03	11356
911.145	11227
911.259	11121
911.374	11239
911.489	11086
911.604	11037
911.718	10987
911.833	10934
911.947	10835
912.062	10778
912.176	10877
912.291	10942
912.405	10934
912.519	11128
912.633	11227
912.748	10949
912.862	11014
912.976	10877
913.09	10721
913.204	10714
913.318	10809
913.431	10877
913.545	10877
913.659	10919
913.772	10847
913.886	10637
914	10592
914.113	10790
914.226	10778
914.34	10767
914.453	10744
914.566	10839
914.68	10653
914.793	10645
914.906	10489
915.019	10371
915.132	10325
915.245	10386
915.358	10462
915.47	10440
915.583	10561
915.696	10462
915.809	10523
915.921	10580
916.034	10424
916.146	10405
916.259	10375
916.371	10455
916.483	10405
916.595	10390
916.708	10379
916.82	10390
916.932	10322
917.044	10333
917.156	10375
917.268	10280
917.38	10287
917.491	10257
917.603	10287
917.715	10352
917.826	10390
917.938	10303
918.049	10154
918.161	10322
918.272	10447
918.384	10417
918.495	10280
918.606	10162
918.717	10059
918.828	10169
918.939	10158
919.05	10036
919.161	10055
919.272	9968
919.383	10055
919.494	10211
919.604	10356
919.715	10109
919.826	10112
919.936	10158
920.047	10230
920.157	10192
920.267	10421
920.378	10219
920.488	10188
920.598	10470
920.708	10497
920.818	10356
920.928	10348
921.038	10573
921.148	10504
921.258	10265
921.368	10154
921.477	9979
921.587	10082
921.697	9915
921.806	10086
921.916	9987
922.025	9778
922.134	9808
922.244	9705
922.353	9747
922.462	9671
922.571	9580
922.68	9466
922.789	9412
922.898	9469
923.007	9367
923.116	9424
923.224	9393
923.333	9443
923.442	9321
923.55	9245
923.659	9367
923.767	9363
923.876	9237
923.984	9363
924.092	9195
924.201	9332
924.309	9325
924.417	9233
924.525	9161
924.633	9188
924.741	10177
924.849	9127
924.956	9237
925.064	9077
925.172	8982
925.279	9028
925.387	9104
925.494	9070
925.602	9203
925.709	9150
925.816	9066
925.924	9116
926.031	9154
926.138	9043
926.245	9123
926.352	8998
926.459	9169
926.566	9180
926.673	9043
926.779	8876
926.886	8929
926.993	8876
927.099	8830
927.206	8758
927.312	8727
927.419	8880
927.525	8796
927.631	8891
927.737	8762
927.843	8667
927.95	8575
928.056	8648
928.162	8739
928.267	8727
928.373	9344
928.479	8823
928.585	8552
928.69	8754
928.796	8674
928.901	8587
929.007	8511
929.112	8648
929.218	8602
929.323	8541
929.428	8537
929.533	8655
929.638	8488
929.743	8507
929.848	8575
929.953	8461
930.058	8423
930.163	8263
930.267	8309
930.372	8465
930.477	8282
930.581	8526
930.685	8355
930.79	8237
930.894	8366
930.998	8305
931.103	8389
931.207	8039
931.311	8058
931.415	7921
931.519	7765
931.623	7788
