Data from test_V78500241_1529.txt Node
Date: Fri Mar 25 14:44:21 CST 2022
User: usil
Spectrometer: V785-0024
Trigger mode: 0
Integration Time (sec): 4.000000E-1
Scans to average: 1
Nonlinearity correction enabled: false
Boxcar width: 0
Storing dark spectrum: false
XAxis mode: Wavelengths
Number of Pixels in Spectrum: 1024
>>>>>Begin Spectral Data<<<<<
801.071	22421
801.214	22352
801.356	22029
801.499	21930
801.641	21728
801.783	21713
801.926	21781
802.068	21709
802.211	21587
802.353	21466
802.496	21291
802.638	21283
802.78	21203
802.923	21138
803.065	21169
803.208	21108
803.35	21249
803.492	21214
803.635	21180
803.777	21077
803.919	21294
804.061	21466
804.204	21127
804.346	21150
804.488	21089
804.63	21127
804.773	21066
804.915	20986
805.057	21096
805.199	21085
805.341	21119
805.483	21252
805.626	21165
805.768	20979
805.91	21028
806.052	21096
806.194	20960
806.336	21112
806.478	20986
806.62	20910
806.762	21150
806.904	21192
807.046	21397
807.188	21389
807.33	21405
807.472	21454
807.614	21325
807.756	21378
807.898	21344
808.04	21066
808.182	21230
808.324	21287
808.465	21310
808.607	21511
808.749	21564
808.891	21705
809.033	21800
809.174	21762
809.316	21526
809.458	21622
809.6	21507
809.741	21545
809.883	21507
810.025	21629
810.166	21686
810.308	21652
810.45	21595
810.591	21443
810.733	21374
810.875	21203
811.016	21195
811.158	21195
811.299	21306
811.441	21344
811.582	21351
811.724	21348
811.865	21218
812.007	21237
812.148	21119
812.29	21245
812.431	21469
812.573	21587
812.714	21534
812.855	21724
812.997	21766
813.138	21831
813.279	21861
813.421	21720
813.562	21641
813.703	21496
813.845	21256
813.986	21024
814.127	20944
814.268	20925
814.41	20872
814.551	20689
814.692	20823
814.833	20697
814.974	20819
815.115	20686
815.256	20708
815.397	20609
815.539	20507
815.68	20511
815.821	20286
815.962	20522
816.103	20507
816.244	20400
816.385	20202
816.526	20218
816.666	20077
816.807	19925
816.948	20024
817.089	20149
817.23	20016
817.371	19852
817.512	19894
817.653	19997
817.793	19932
817.934	19993
818.075	19989
818.216	19921
818.356	19906
818.497	19708
818.638	19651
818.778	19647
818.919	19670
819.06	19613
819.2	19731
819.341	19780
819.481	19791
819.622	19967
819.762	20111
819.903	20035
820.043	19947
820.184	19852
820.324	19830
820.465	19906
820.605	19811
820.746	19951
820.886	19837
821.026	19849
821.167	19769
821.307	19871
821.447	19849
821.588	19772
821.728	19525
821.868	19460
822.008	19228
822.149	19247
822.289	19270
822.429	18981
822.569	18981
822.709	19023
822.849	18840
822.99	18867
823.13	18764
823.27	18787
823.41	18589
823.55	18540
823.69	18631
823.83	18604
823.97	18441
824.11	18380
824.25	18410
824.389	18334
824.529	18441
824.669	18251
824.809	18498
824.949	18460
825.089	18410
825.228	18247
825.368	18311
825.508	18155
825.648	18243
825.787	18140
825.927	18273
826.067	18072
826.206	18098
826.346	18121
826.485	18095
826.625	18076
826.765	18353
826.904	18178
827.044	17923
827.183	17828
827.323	17843
827.462	17783
827.601	17817
827.741	17718
827.88	17859
828.02	17691
828.159	17745
828.298	17920
828.437	17923
828.577	17889
828.716	17942
828.855	17767
828.994	17680
829.134	17539
829.273	17646
829.412	17463
829.551	17509
829.69	17467
829.829	17661
829.968	17657
830.107	17608
830.246	17558
830.385	17459
830.524	17372
830.663	17379
830.802	17288
830.941	17246
831.08	17132
831.219	17250
831.357	17261
831.496	17440
831.635	17143
831.774	17056
831.913	17098
832.051	16911
832.19	16930
832.329	16946
832.467	16858
832.606	16805
832.744	16816
832.883	16710
833.022	16771
833.16	16896
833.299	16843
833.437	16885
833.576	16949
833.714	16858
833.852	16919
833.991	16968
834.129	17033
834.267	17052
834.406	16896
834.544	17018
834.682	16824
834.821	16854
834.959	17056
835.097	16892
835.235	16999
835.373	16980
835.511	16896
835.65	16908
835.788	16858
835.926	16687
836.064	16694
836.202	16588
836.34	16744
836.478	16915
836.615	16771
836.753	16847
836.891	16858
837.029	16774
837.167	16759
837.305	16733
837.443	16618
837.58	16668
837.718	16786
837.856	16683
837.993	16550
838.131	16634
838.269	16565
838.406	16611
838.544	16527
838.681	16409
838.819	16398
838.956	16204
839.094	16219
839.231	16219
839.369	16314
839.506	16558
839.643	16375
839.781	16196
839.918	16097
840.055	16265
840.193	16223
840.33	16181
840.467	16200
840.604	16360
840.742	16512
840.879	16124
841.016	16116
841.153	16059
841.29	16371
841.427	16382
841.564	16268
841.701	16253
841.838	16101
841.975	16074
842.112	16044
842.249	15975
842.385	16013
842.522	16200
842.659	16044
842.796	15945
842.933	15964
843.069	15979
843.206	15987
843.343	16181
843.479	15998
843.616	15937
843.752	15823
843.889	15724
844.025	16059
844.162	15663
844.298	15895
844.435	15797
844.571	15713
844.708	15812
844.844	15876
844.98	15956
845.117	15876
845.253	15816
845.389	15686
845.525	15660
845.661	15751
845.798	15713
845.934	15770
846.07	15713
846.206	15732
846.342	15850
846.478	15637
846.614	15477
846.75	15272
846.886	15317
847.022	15428
847.158	15485
847.294	15302
847.429	15367
847.565	15275
847.701	15576
847.837	15108
847.972	15036
848.108	15184
848.244	15256
848.379	14944
848.515	14963
848.65	14811
848.786	15024
848.921	14853
849.057	14963
849.192	15055
849.328	14963
849.463	14891
849.598	14918
849.734	14834
849.869	14845
850.004	14804
850.14	14735
850.275	14750
850.41	14617
850.545	14701
850.68	14617
850.815	14697
850.95	14632
851.085	14941
851.22	14708
851.355	14678
851.49	14686
851.625	14663
851.76	14613
851.895	14484
852.03	14610
852.165	14636
852.299	14613
852.434	14849
852.569	14811
852.703	14682
852.838	14842
852.973	14788
853.107	14944
853.242	14667
853.376	14522
853.511	14530
853.645	14526
853.78	14670
853.914	14575
854.048	14522
854.183	14541
854.317	14431
854.451	14708
854.585	14503
854.72	14507
854.854	14621
854.988	14434
855.122	14511
855.256	14404
855.39	14461
855.524	14598
855.658	14621
855.792	14613
855.926	14530
856.06	14571
856.194	14579
856.327	14530
856.461	14423
856.595	14587
856.729	14522
856.862	14720
856.996	14602
857.13	14682
857.263	14674
857.397	14705
857.53	14564
857.664	14610
857.797	14731
857.931	14769
858.064	14682
858.197	14663
858.331	14484
858.464	14526
858.597	14412
858.731	14507
858.864	14530
858.997	14480
859.13	14530
859.263	14583
859.396	14632
859.529	14522
859.662	14575
859.795	14484
859.928	14571
860.061	14693
860.194	14693
860.327	14541
860.46	14476
860.592	14659
860.725	14644
860.858	14693
860.99	14454
861.123	14450
861.256	14492
861.388	14568
861.521	15150
861.653	14362
861.786	14415
861.918	14294
862.05	14412
862.183	14556
862.315	14457
862.447	14644
862.58	14499
862.712	14362
862.844	14332
862.976	14457
863.108	14339
863.24	14777
863.372	14298
863.504	14332
863.636	14347
863.768	14377
863.9	14400
864.032	14259
864.164	14320
864.296	14370
864.428	14355
864.559	14393
864.691	14404
864.823	14389
864.954	14286
865.086	14438
865.217	14393
865.349	14278
865.48	14290
865.612	14438
865.743	14537
865.875	14393
866.006	14180
866.137	14446
866.269	14275
866.4	14320
866.531	14187
866.662	14229
866.793	14317
866.924	14301
867.055	14324
867.186	14267
867.317	14271
867.448	14256
867.579	14248
867.71	14252
867.841	14324
867.972	14347
868.103	14275
868.233	14324
868.364	14305
868.495	14347
868.625	14564
868.756	14556
868.886	14526
869.017	14476
869.147	14678
869.278	14621
869.408	14606
869.539	14545
869.669	14640
869.799	14655
869.929	14716
870.06	14750
870.19	14910
870.32	14876
870.45	14921
870.58	15013
870.71	15043
870.84	15131
870.97	14933
871.1	14952
871.23	15077
871.36	15070
871.489	14918
871.619	15062
871.749	15116
871.879	15199
872.008	15298
872.138	15173
872.267	15154
872.397	15112
872.526	14971
872.656	14967
872.785	14960
872.915	15245
873.044	15351
873.173	15108
873.303	15260
873.432	15272
873.561	15389
873.69	15195
873.819	15226
873.948	15264
874.077	15260
874.206	15214
874.335	15260
874.464	15416
874.593	15485
874.722	15458
874.851	15481
874.979	15462
875.108	15473
875.237	15405
875.365	15408
875.494	15485
875.623	15568
875.751	15374
875.88	15595
876.008	15652
876.136	15633
876.265	15953
876.393	16150
876.521	16059
876.65	15937
876.778	15941
876.906	15823
877.034	15842
877.162	15964
877.29	15888
877.418	16006
877.546	15892
877.674	15930
877.802	15895
877.93	15861
878.058	15907
878.185	15827
878.313	15991
878.441	15922
878.568	15857
878.696	15831
878.824	16013
878.951	15972
879.079	16143
879.206	16314
879.333	16169
879.461	16025
879.588	16116
879.715	16158
879.842	16299
879.97	16059
880.097	15781
880.224	15911
880.351	15953
880.478	15831
880.605	15800
880.732	15701
880.859	16109
880.986	15797
881.112	15884
881.239	15755
881.366	15679
881.493	15488
881.619	15435
881.746	15397
881.872	15355
881.999	15534
882.125	15428
882.252	15454
882.378	15515
882.505	15526
882.631	15443
882.757	15226
882.883	15374
883.01	15298
883.136	15275
883.262	15154
883.388	15138
883.514	15264
883.64	15211
883.766	15180
883.892	15085
884.018	15180
884.143	15119
884.269	15332
884.395	14910
884.52	14872
884.646	15028
884.772	14921
884.897	14880
885.023	14952
885.148	14998
885.274	15154
885.399	15123
885.524	15039
885.65	14941
885.775	15081
885.9	15013
886.025	15047
886.15	14971
886.275	14895
886.4	14834
886.525	14887
886.65	14876
886.775	14781
886.9	15036
887.025	15233
887.149	14823
887.274	14716
887.399	14743
887.523	14849
887.648	14754
887.773	14640
887.897	14929
888.021	14842
888.146	14807
888.27	14773
888.395	14830
888.519	14724
888.643	14838
888.767	14811
888.891	14667
889.015	14678
889.139	14724
889.263	14640
889.387	14842
889.511	14849
889.635	14811
889.759	14651
889.883	14651
890.006	14617
890.13	14678
890.254	14583
890.377	14708
890.501	14454
890.624	14492
890.748	14522
890.871	14381
890.995	14244
891.118	14275
891.241	14351
891.364	14328
891.488	14488
891.611	14259
891.734	14366
891.857	14389
891.98	14370
892.103	14400
892.226	14396
892.349	14290
892.471	14161
892.594	14351
892.717	14305
892.839	14347
892.962	14339
893.085	14442
893.207	14355
893.33	14214
893.452	14271
893.575	14389
893.697	14248
893.819	14442
893.941	14571
894.064	14339
894.186	14256
894.308	14256
894.43	14381
894.552	14461
894.674	14400
894.796	14343
894.918	14324
895.04	14309
895.161	14404
895.283	14499
895.405	14324
895.526	14495
895.648	14549
895.769	14450
895.891	14499
896.012	14484
896.134	14522
896.255	14533
896.376	14473
896.498	14507
896.619	14484
896.74	14488
896.861	14610
896.982	14788
897.103	14979
897.224	14819
897.345	14743
897.466	14773
897.587	14781
897.708	14868
897.828	14819
897.949	14800
898.07	14655
898.19	14705
898.311	14785
898.431	14845
898.552	14872
898.672	14910
898.792	15001
898.913	14872
899.033	14792
899.153	14682
899.273	14655
899.393	14701
899.513	14739
899.633	14663
899.753	14640
899.873	14686
899.993	14651
900.113	14727
900.232	14724
900.352	14640
900.472	14598
900.591	14499
900.711	14598
900.83	14514
900.95	14663
901.069	14769
901.189	14552
901.308	14404
901.427	14218
901.546	14225
901.665	14320
901.784	14374
901.904	14103
902.023	14046
902.141	13852
902.26	13811
902.379	13917
902.498	13780
902.617	13753
902.735	13780
902.854	13833
902.973	13624
903.091	13563
903.21	13483
903.328	13537
903.446	13407
903.565	13445
903.683	13415
903.801	13297
903.919	13247
904.038	13377
904.156	13331
904.274	13255
904.392	13145
904.51	13213
904.627	13160
904.745	13129
904.863	13126
904.981	13019
905.098	12913
905.216	12909
905.334	12875
905.451	12897
905.569	12814
905.686	12875
905.803	12882
905.921	12650
906.038	12772
906.155	12623
906.272	12623
906.389	12604
906.506	12467
906.623	12445
906.74	12479
906.857	12350
906.974	12285
907.091	12452
907.208	12608
907.324	12486
907.441	12327
907.557	12311
907.674	12243
907.79	12091
907.907	12133
908.023	12205
908.139	12216
908.256	12068
908.372	12155
908.488	12057
908.604	12034
908.72	11901
908.836	11912
908.952	11901
909.068	11935
909.184	12098
909.3	11999
909.415	12079
909.531	11927
909.647	11794
909.762	11722
909.878	11596
909.993	11783
910.108	11665
910.224	11714
910.339	11733
910.454	11665
910.57	11619
910.685	11490
910.8	11752
910.915	11691
911.03	11581
911.145	11444
911.259	11448
911.374	11471
911.489	11368
911.604	11402
911.718	11113
911.833	11208
911.947	11045
912.062	10991
912.176	11098
912.291	11155
912.405	11174
912.519	11341
912.633	11353
912.748	11242
912.862	11189
912.976	11086
913.09	10927
913.204	11014
913.318	11064
913.431	11090
913.545	11147
913.659	11239
913.772	11113
913.886	10953
914	10847
914.113	10980
914.226	10999
914.34	10946
914.453	10839
914.566	10976
914.68	10843
914.793	10809
914.906	10660
915.019	10702
915.132	10577
915.245	10592
915.358	10637
915.47	10664
915.583	10706
915.696	10755
915.809	10809
915.921	10816
916.034	10729
916.146	10584
916.259	10637
916.371	10698
916.483	10702
916.595	10550
916.708	10584
916.82	10565
916.932	10584
917.044	10546
917.156	10542
917.268	10470
917.38	10512
917.491	10531
917.603	10531
917.715	10550
917.826	10558
917.938	10489
918.049	10348
918.161	10462
918.272	10558
918.384	10538
918.495	10451
918.606	10440
918.717	10166
918.828	10314
918.939	10405
919.05	10291
919.161	10348
919.272	10196
919.383	10211
919.494	10504
919.604	10611
919.715	10341
919.826	10325
919.936	10310
920.047	10424
920.157	10432
920.267	10630
920.378	10462
920.488	10329
920.598	10558
920.708	10729
920.818	10561
920.928	10565
921.038	10664
921.148	10694
921.258	10409
921.368	10356
921.477	10268
921.587	10249
921.697	10124
921.806	10215
921.916	10055
922.025	9918
922.134	9941
922.244	9865
922.353	9934
922.462	9816
922.571	9759
922.68	9614
922.789	9648
922.898	9618
923.007	9511
923.116	9720
923.224	9618
923.333	9564
923.442	9496
923.55	9428
923.659	9488
923.767	9500
923.876	9481
923.984	9530
924.092	9386
924.201	9492
924.309	9458
924.417	9496
924.525	9447
924.633	9481
924.741	10344
924.849	9275
924.956	9370
925.064	9264
925.172	9138
925.279	9203
925.387	9367
925.494	9260
925.602	9447
925.709	9313
925.816	9188
925.924	9222
926.031	9374
926.138	9329
926.245	9260
926.352	9226
926.459	9329
926.566	9351
926.673	9218
926.779	9146
926.886	9100
926.993	8960
927.099	8937
927.206	8975
927.312	8937
927.419	9001
927.525	8956
927.631	9009
927.737	8921
927.843	8918
927.95	8735
928.056	8811
928.162	8895
928.267	8921
928.373	9481
928.479	8971
928.585	8727
928.69	8872
928.796	8952
928.901	8826
929.007	8606
929.112	8781
929.218	8727
929.323	8708
929.428	8727
929.533	8838
929.638	8625
929.743	8648
929.848	8754
929.953	8651
930.058	8610
930.163	8431
930.267	8438
930.372	8613
930.477	8400
930.581	8610
930.685	8530
930.79	8370
930.894	8400
930.998	8358
931.103	8560
931.207	8195
931.311	8153
931.415	8077
931.519	7898
931.623	7822
