Data from test_V78500241_2096.txt Node
Date: Fri Mar 25 14:48:18 CST 2022
User: usil
Spectrometer: V785-0024
Trigger mode: 0
Integration Time (sec): 4.000000E-1
Scans to average: 1
Nonlinearity correction enabled: false
Boxcar width: 0
Storing dark spectrum: false
XAxis mode: Wavelengths
Number of Pixels in Spectrum: 1024
>>>>>Begin Spectral Data<<<<<
801.071	22090
801.214	21979
801.356	21770
801.499	21762
801.641	21549
801.783	21443
801.926	21454
802.068	21428
802.211	21329
802.353	21351
802.496	21032
802.638	20990
802.78	21058
802.923	20891
803.065	20739
803.208	20712
803.35	20792
803.492	20800
803.635	20880
803.777	20792
803.919	20902
804.061	21108
804.204	20815
804.346	20746
804.488	20583
804.63	20731
804.773	20735
804.915	20769
805.057	20861
805.199	20754
805.341	20838
805.483	20800
805.626	20849
805.768	20651
805.91	20777
806.052	20727
806.194	20590
806.336	20876
806.478	20826
806.62	20556
806.762	20746
806.904	20982
807.046	21123
807.188	21020
807.33	21108
807.472	21058
807.614	20914
807.756	21013
807.898	20906
808.04	20811
808.182	21005
808.324	20845
808.465	20769
808.607	21119
808.749	21100
808.891	21096
809.033	21256
809.174	21268
809.316	21112
809.458	21066
809.6	20998
809.741	21264
809.883	21207
810.025	21279
810.166	21237
810.308	21340
810.45	21321
810.591	21146
810.733	21058
810.875	20895
811.016	20765
811.158	20708
811.299	20796
811.441	20975
811.582	20941
811.724	20792
811.865	20804
812.007	20895
812.148	20868
812.29	20857
812.431	20952
812.573	21157
812.714	21237
812.855	21435
812.997	21485
813.138	21671
813.279	21519
813.421	21378
813.562	21306
813.703	21218
813.845	21017
813.986	20651
814.127	20655
814.268	20492
814.41	20427
814.551	20495
814.692	20457
814.833	20191
814.974	20370
815.115	20492
815.256	20244
815.397	20259
815.539	20237
815.68	20176
815.821	20065
815.962	20157
816.103	20111
816.244	19970
816.385	19944
816.526	19833
816.666	19761
816.807	19544
816.948	19613
817.089	19761
817.23	19559
817.371	19525
817.512	19616
817.653	19426
817.793	19491
817.934	19529
818.075	19590
818.216	19514
818.356	19426
818.497	19411
818.638	19206
818.778	19335
818.919	19236
819.06	19312
819.2	19270
819.341	19426
819.481	19514
819.622	19635
819.762	19803
819.903	19666
820.043	19685
820.184	19510
820.324	19472
820.465	19616
820.605	19578
820.746	19582
820.886	19362
821.026	19499
821.167	19472
821.307	19514
821.447	19396
821.588	19400
821.728	19308
821.868	19069
822.008	18977
822.149	18867
822.289	18905
822.429	18578
822.569	18574
822.709	18612
822.849	18460
822.99	18525
823.13	18384
823.27	18369
823.41	18281
823.55	18125
823.69	18323
823.83	18346
823.97	18258
824.11	18053
824.25	17950
824.389	18079
824.529	18144
824.669	18049
824.809	18190
824.949	18022
825.089	18148
825.228	18015
825.368	17809
825.508	17794
825.648	17927
825.787	17847
825.927	17783
826.067	17748
826.206	17676
826.346	17859
826.485	17821
826.625	17851
826.765	17923
826.904	17863
827.044	17649
827.183	17505
827.323	17547
827.462	17611
827.601	17448
827.741	17433
827.88	17573
828.02	17284
828.159	17505
828.298	17471
828.437	17585
828.577	17501
828.716	17608
828.855	17482
828.994	17227
829.134	17250
829.273	17337
829.412	17280
829.551	17208
829.69	17200
829.829	17174
829.968	17235
830.107	17223
830.246	17307
830.385	17170
830.524	17181
830.663	17071
830.802	16991
830.941	16790
831.08	16820
831.219	16862
831.357	16953
831.496	17018
831.635	17041
831.774	16736
831.913	16805
832.051	16683
832.19	16653
832.329	16835
832.467	16455
832.606	16512
832.744	16588
832.883	16607
833.022	16497
833.16	16580
833.299	16542
833.437	16535
833.576	16607
833.714	16679
833.852	16744
833.991	16664
834.129	16630
834.267	16626
834.406	16660
834.544	16694
834.682	16569
834.821	16546
834.959	16790
835.097	16478
835.235	16672
835.373	16611
835.511	16653
835.65	16554
835.788	16584
835.926	16348
836.064	16428
836.202	16402
836.34	16584
836.478	16580
836.615	16580
836.753	16561
836.891	16653
837.029	16523
837.167	16481
837.305	16478
837.443	16451
837.58	16291
837.718	16512
837.856	16375
837.993	16329
838.131	16474
838.269	16249
838.406	16287
838.544	16310
838.681	16063
838.819	16071
838.956	15998
839.094	16010
839.231	15983
839.369	16059
839.506	16386
839.643	16116
839.781	15968
839.918	15922
840.055	15854
840.193	15903
840.33	15876
840.467	15998
840.604	15975
840.742	16188
840.879	15827
841.016	15835
841.153	15873
841.29	15922
841.427	15972
841.564	15960
841.701	15937
841.838	15934
841.975	15846
842.112	15884
842.249	15625
842.385	15732
842.522	15895
842.659	15747
842.796	15671
842.933	15701
843.069	15686
843.206	15698
843.343	15770
843.479	15698
843.616	15633
843.752	15538
843.889	15469
844.025	15622
844.162	15458
844.298	15587
844.435	15496
844.571	15500
844.708	15618
844.844	15739
844.98	15637
845.117	15545
845.253	15450
845.389	15393
845.525	15534
845.661	15405
845.798	15260
845.934	15348
846.07	15279
846.206	15439
846.342	15401
846.478	15268
846.614	15218
846.75	15024
846.886	15051
847.022	15157
847.158	15097
847.294	15108
847.429	15047
847.565	15081
847.701	15329
847.837	14712
847.972	14788
848.108	14918
848.244	14887
848.379	14682
848.515	14590
848.65	14686
848.786	14583
848.921	14590
849.057	14834
849.192	14773
849.328	14686
849.463	14682
849.598	14716
849.734	14640
849.869	14560
850.004	14503
850.14	14518
850.275	14457
850.41	14351
850.545	14423
850.68	14339
850.815	14526
850.95	14454
851.085	14598
851.22	14499
851.355	14454
851.49	14473
851.625	14434
851.76	14423
851.895	14275
852.03	14328
852.165	14381
852.299	14533
852.434	14594
852.569	14415
852.703	14473
852.838	14507
852.973	14629
853.107	14625
853.242	14408
853.376	14282
853.511	14157
853.645	14298
853.78	14454
853.914	14309
854.048	14320
854.183	14282
854.317	14336
854.451	14419
854.585	14294
854.72	14229
854.854	14377
854.988	14210
855.122	14313
855.256	14199
855.39	14267
855.524	14294
855.658	14377
855.792	14309
855.926	14336
856.06	14366
856.194	14438
856.327	14214
856.461	14233
856.595	14286
856.729	14214
856.862	14389
856.996	14317
857.13	14431
857.263	14457
857.397	14385
857.53	14434
857.664	14396
857.797	14389
857.931	14366
858.064	14408
858.197	14442
858.331	14309
858.464	14377
858.597	14214
858.731	14339
858.864	14259
858.997	14271
859.13	14259
859.263	14324
859.396	14305
859.529	14267
859.662	14294
859.795	14233
859.928	14317
860.061	14434
860.194	14629
860.327	14278
860.46	14412
860.592	14431
860.725	14427
860.858	14404
860.99	14218
861.123	14210
861.256	14290
861.388	14347
861.521	14899
861.653	14126
861.786	14039
861.918	14195
862.05	14298
862.183	14317
862.315	14271
862.447	14351
862.58	14187
862.712	14024
862.844	13993
862.976	14164
863.108	14142
863.24	14442
863.372	14084
863.504	14081
863.636	14035
863.768	14142
863.9	14123
864.032	13993
864.164	14008
864.296	14157
864.428	14168
864.559	14176
864.691	14248
864.823	14096
864.954	14027
865.086	14111
865.217	14027
865.349	13951
865.48	14130
865.612	14130
865.743	14278
865.875	14024
866.006	13944
866.137	14077
866.269	14100
866.4	14043
866.531	14062
866.662	14065
866.793	14008
866.924	13993
867.055	14126
867.186	14050
867.317	14119
867.448	13978
867.579	14031
867.71	14020
867.841	14012
867.972	14130
868.103	14081
868.233	14115
868.364	14119
868.495	14107
868.625	14355
868.756	14465
868.886	14263
869.017	14271
869.147	14434
869.278	14465
869.408	14332
869.539	14351
869.669	14434
869.799	14374
869.929	14454
870.06	14499
870.19	14648
870.32	14632
870.45	14697
870.58	14769
870.71	14792
870.84	14792
870.97	14705
871.1	14708
871.23	14876
871.36	14906
871.489	14823
871.619	14849
871.749	14849
871.879	14929
872.008	14933
872.138	14960
872.267	14899
872.397	14781
872.526	14811
872.656	14720
872.785	14712
872.915	14975
873.044	14929
873.173	15036
873.303	14933
873.432	15005
873.561	14952
873.69	14979
873.819	14906
873.948	15112
874.077	14899
874.206	14956
874.335	15036
874.464	15097
874.593	15313
874.722	15214
874.851	15211
874.979	15256
875.108	15294
875.237	15165
875.365	15287
875.494	15241
875.623	15428
875.751	15256
875.88	15382
876.008	15447
876.136	15511
876.265	15679
876.393	15827
876.521	15888
876.65	15816
876.778	15724
876.906	15732
877.034	15663
877.162	15701
877.29	15644
877.418	15705
877.546	15686
877.674	15675
877.802	15736
877.93	15751
878.058	15736
878.185	15572
878.313	15739
878.441	15701
878.568	15591
878.696	15671
878.824	15728
878.951	15629
879.079	15865
879.206	15987
879.333	15994
879.461	15778
879.588	15804
879.715	15842
879.842	16025
879.97	15762
880.097	15572
880.224	15523
880.351	15511
880.478	15526
880.605	15466
880.732	15526
880.859	15698
880.986	15549
881.112	15644
881.239	15568
881.366	15408
881.493	15226
881.619	15146
881.746	15264
881.872	15154
881.999	15222
882.125	15184
882.252	15283
882.378	15359
882.505	15359
882.631	15192
882.757	14998
882.883	15005
883.01	15108
883.136	14944
883.262	14845
883.388	14830
883.514	15036
883.64	15104
883.766	14967
883.892	14849
884.018	14864
884.143	15036
884.269	15089
884.395	14792
884.52	14796
884.646	14762
884.772	14754
884.897	14632
885.023	14720
885.148	14838
885.274	14872
885.399	14811
885.524	14743
885.65	14724
885.775	14727
885.9	14773
886.025	14849
886.15	14727
886.275	14636
886.4	14541
886.525	14640
886.65	14632
886.775	14636
886.9	14842
887.025	14948
887.149	14731
887.274	14571
887.399	14549
887.523	14518
887.648	14492
887.773	14438
887.897	14579
888.021	14602
888.146	14568
888.27	14716
888.395	14621
888.519	14530
888.643	14674
888.767	14606
888.891	14511
889.015	14476
889.139	14442
889.263	14355
889.387	14465
889.511	14613
889.635	14598
889.759	14446
889.883	14305
890.006	14339
890.13	14625
890.254	14362
890.377	14366
890.501	14218
890.624	14210
890.748	14267
890.871	14149
890.995	14100
891.118	13982
891.241	14088
891.364	14107
891.488	14210
891.611	14084
891.734	14111
891.857	14267
891.98	14046
892.103	14244
892.226	14123
892.349	14065
892.471	13871
892.594	14088
892.717	14107
892.839	14130
892.962	14142
893.085	14221
893.207	14054
893.33	14065
893.452	14039
893.575	14138
893.697	14119
893.819	14275
893.941	14339
894.064	14206
894.186	14111
894.308	14103
894.43	14252
894.552	14362
894.674	14278
894.796	14149
894.918	14199
895.04	14282
895.161	14328
895.283	14290
895.405	14225
895.526	14286
895.648	14237
895.769	14267
895.891	14221
896.012	14294
896.134	14248
896.255	14237
896.376	14244
896.498	14301
896.619	14271
896.74	14301
896.861	14362
896.982	14602
897.103	14754
897.224	14632
897.345	14473
897.466	14454
897.587	14545
897.708	14636
897.828	14564
897.949	14522
898.07	14381
898.19	14484
898.311	14689
898.431	14640
898.552	14606
898.672	14716
898.792	14769
898.913	14625
899.033	14473
899.153	14476
899.273	14351
899.393	14339
899.513	14549
899.633	14484
899.753	14568
899.873	14518
899.993	14526
900.113	14412
900.232	14537
900.352	14438
900.472	14408
900.591	14290
900.711	14438
900.83	14393
900.95	14465
901.069	14431
901.189	14290
901.308	14221
901.427	13963
901.546	14103
901.665	14069
901.784	14107
901.904	13970
902.023	13890
902.141	13670
902.26	13662
902.379	13689
902.498	13693
902.617	13514
902.735	13582
902.854	13548
902.973	13510
903.091	13384
903.21	13240
903.328	13247
903.446	13354
903.565	13145
903.683	13198
903.801	13046
903.919	13221
904.038	13168
904.156	13000
904.274	13042
904.392	12977
904.51	12985
904.627	12913
904.745	12970
904.863	13027
904.981	12779
905.098	12783
905.216	12700
905.334	12779
905.451	12741
905.569	12623
905.686	12696
905.803	12703
905.921	12475
906.038	12566
906.155	12502
906.272	12418
906.389	12460
906.506	12270
906.623	12224
906.74	12213
906.857	12243
906.974	12209
907.091	12380
907.208	12391
907.324	12334
907.441	12186
907.557	11980
907.674	11939
907.79	11973
907.907	11946
908.023	12003
908.139	12034
908.256	11988
908.372	11874
908.488	11973
908.604	11874
908.72	11794
908.836	11745
908.952	11642
909.068	11805
909.184	11878
909.3	11805
909.415	11805
909.531	11859
909.647	11604
909.762	11581
909.878	11570
909.993	11573
910.108	11528
910.224	11501
910.339	11573
910.454	11376
910.57	11387
910.685	11322
910.8	11619
910.915	11524
911.03	11467
911.145	11288
911.259	11223
911.374	11265
911.489	11132
911.604	11185
911.718	11014
911.833	10908
911.947	10911
912.062	10889
912.176	10923
912.291	11052
912.405	10938
912.519	11204
912.633	11235
912.748	11086
912.862	10968
912.976	10889
913.09	10816
913.204	10812
913.318	10915
913.431	10972
913.545	11006
913.659	10999
913.772	10812
913.886	10774
914	10748
914.113	10782
914.226	10927
914.34	10919
914.453	10687
914.566	10835
914.68	10679
914.793	10740
914.906	10470
915.019	10466
915.132	10405
915.245	10478
915.358	10523
915.47	10550
915.583	10577
915.696	10546
915.809	10721
915.921	10729
916.034	10432
916.146	10413
916.259	10462
916.371	10596
916.483	10558
916.595	10451
916.708	10500
916.82	10455
916.932	10455
917.044	10390
917.156	10363
917.268	10318
917.38	10314
917.491	10284
917.603	10421
917.715	10356
917.826	10375
917.938	10303
918.049	10177
918.161	10303
918.272	10440
918.384	10424
918.495	10443
918.606	10249
918.717	10173
918.828	10227
918.939	10223
919.05	10082
919.161	10162
919.272	10051
919.383	10093
919.494	10249
919.604	10459
919.715	10268
919.826	10135
919.936	10215
920.047	10219
920.157	10238
920.267	10459
920.378	10276
920.488	10238
920.598	10478
920.708	10607
920.818	10436
920.928	10421
921.038	10611
921.148	10596
921.258	10230
921.368	10230
921.477	10086
921.587	10025
921.697	10036
921.806	10135
921.916	9960
922.025	9816
922.134	9770
922.244	9755
922.353	9819
922.462	9797
922.571	9610
922.68	9469
922.789	9477
922.898	9424
923.007	9389
923.116	9564
923.224	9515
923.333	9477
923.442	9378
923.55	9283
923.659	9302
923.767	9462
923.876	9378
923.984	9595
924.092	9268
924.201	9351
924.309	9363
924.417	9397
924.525	9291
924.633	9294
924.741	10257
924.849	9161
924.956	9351
925.064	9123
925.172	9017
925.279	9116
925.387	9173
925.494	9165
925.602	9310
925.709	9230
925.816	9089
925.924	9108
926.031	9241
926.138	9146
926.245	9184
926.352	9017
926.459	9241
926.566	9230
926.673	9047
926.779	9020
926.886	8956
926.993	8925
927.099	8876
927.206	8743
927.312	8804
927.419	8796
927.525	8914
927.631	8902
927.737	8746
927.843	8781
927.95	8613
928.056	8731
928.162	8758
928.267	8826
928.373	9435
928.479	8842
928.585	8621
928.69	8746
928.796	8811
928.901	8663
929.007	8526
929.112	8644
929.218	8644
929.323	8560
929.428	8571
929.533	8708
929.638	8541
929.743	8514
929.848	8613
929.953	8514
930.058	8450
930.163	8339
930.267	8438
930.372	8484
930.477	8320
930.581	8556
930.685	8393
930.79	8301
930.894	8351
930.998	8248
931.103	8446
931.207	8058
931.311	8005
931.415	7944
931.519	7811
931.623	7757
