Data from test_V78500241_1347.txt Node
Date: Fri Mar 25 14:43:05 CST 2022
User: usil
Spectrometer: V785-0024
Trigger mode: 0
Integration Time (sec): 4.000000E-1
Scans to average: 1
Nonlinearity correction enabled: false
Boxcar width: 0
Storing dark spectrum: false
XAxis mode: Wavelengths
Number of Pixels in Spectrum: 1024
>>>>>Begin Spectral Data<<<<<
801.071	22428
801.214	22246
801.356	22158
801.499	21956
801.641	21770
801.783	21827
801.926	21838
802.068	21709
802.211	21698
802.353	21564
802.496	21367
802.638	21192
802.78	21249
802.923	21146
803.065	21131
803.208	21032
803.35	21176
803.492	21268
803.635	21313
803.777	21100
803.919	21272
804.061	21431
804.204	21184
804.346	21123
804.488	20982
804.63	21104
804.773	20994
804.915	21119
805.057	21214
805.199	20986
805.341	21066
805.483	21241
805.626	21070
805.768	20876
805.91	21001
806.052	21104
806.194	20941
806.336	21355
806.478	21032
806.62	20925
806.762	21146
806.904	21310
807.046	21481
807.188	21424
807.33	21420
807.472	21454
807.614	21283
807.756	21412
807.898	21283
808.04	21161
808.182	21294
808.324	21291
808.465	21348
808.607	21603
808.749	21644
808.891	21785
809.033	21751
809.174	21728
809.316	21610
809.458	21523
809.6	21629
809.741	21515
809.883	21644
810.025	21587
810.166	21736
810.308	21606
810.45	21572
810.591	21431
810.733	21466
810.875	21329
811.016	21116
811.158	21119
811.299	21249
811.441	21401
811.582	21401
811.724	21230
811.865	21230
812.007	21146
812.148	21291
812.29	21382
812.431	21469
812.573	21435
812.714	21709
812.855	21633
812.997	21755
813.138	21869
813.279	21838
813.421	21793
813.562	21576
813.703	21469
813.845	21386
813.986	21207
814.127	20868
814.268	20853
814.41	20819
814.551	20739
814.692	20834
814.833	20648
814.974	20731
815.115	20769
815.256	20526
815.397	20632
815.539	20564
815.68	20476
815.821	20332
815.962	20503
816.103	20514
816.244	20396
816.385	20248
816.526	20301
816.666	20035
816.807	19989
816.948	20043
817.089	19928
817.23	20016
817.371	19967
817.512	19944
817.653	19925
817.793	19791
817.934	19868
818.075	19959
818.216	20012
818.356	19864
818.497	19791
818.638	19556
818.778	19677
818.919	19655
819.06	19681
819.2	19708
819.341	19791
819.481	19795
819.622	19944
819.762	20084
819.903	20096
820.043	19909
820.184	20008
820.324	19887
820.465	20054
820.605	19906
820.746	19852
820.886	19757
821.026	19913
821.167	19921
821.307	19841
821.447	19890
821.588	19715
821.728	19658
821.868	19373
822.008	19293
822.149	19297
822.289	19225
822.429	19103
822.569	18993
822.709	19000
822.849	18897
822.99	18867
823.13	18814
823.27	18787
823.41	18555
823.55	18566
823.69	18650
823.83	18528
823.97	18654
824.11	18311
824.25	18323
824.389	18372
824.529	18426
824.669	18292
824.809	18456
824.949	18422
825.089	18376
825.228	18395
825.368	18239
825.508	18277
825.648	18178
825.787	18148
825.927	18194
826.067	18041
826.206	18163
826.346	18277
826.485	18171
826.625	18148
826.765	18266
826.904	18178
827.044	17996
827.183	17977
827.323	17805
827.462	17950
827.601	17889
827.741	17760
827.88	17988
828.02	17821
828.159	17752
828.298	17950
828.437	17870
828.577	17817
828.716	17908
828.855	17874
828.994	17604
829.134	17638
829.273	17570
829.412	17638
829.551	17554
829.69	17585
829.829	17573
829.968	17646
830.107	17554
830.246	17646
830.385	17634
830.524	17592
830.663	17360
830.802	17398
830.941	17280
831.08	17174
831.219	17296
831.357	17315
831.496	17440
831.635	17200
831.774	17208
831.913	17155
832.051	17060
832.19	17071
832.329	17178
832.467	17029
832.606	16961
832.744	16801
832.883	16957
833.022	16919
833.16	16908
833.299	16965
833.437	17014
833.576	16968
833.714	16911
833.852	17052
833.991	17037
834.129	17060
834.267	17128
834.406	17071
834.544	17060
834.682	17052
834.821	16835
834.959	17151
835.097	17014
835.235	16995
835.373	16927
835.511	16881
835.65	16896
835.788	17006
835.926	16702
836.064	16668
836.202	16736
836.34	16866
836.478	17003
836.615	16820
836.753	16900
836.891	16919
837.029	16881
837.167	16850
837.305	16771
837.443	16771
837.58	16809
837.718	16839
837.856	16763
837.993	16736
838.131	16691
838.269	16717
838.406	16778
838.544	16592
838.681	16466
838.819	16379
838.956	16363
839.094	16333
839.231	16394
839.369	16466
839.506	16542
839.643	16459
839.781	16314
839.918	16261
840.055	16337
840.193	16261
840.33	16173
840.467	16390
840.604	16196
840.742	16527
840.879	16230
841.016	16318
841.153	16238
841.29	16417
841.427	16348
841.564	16367
841.701	16268
841.838	16310
841.975	16196
842.112	16215
842.249	16010
842.385	16032
842.522	16276
842.659	16112
842.796	16090
842.933	16090
843.069	15964
843.206	16086
843.343	16173
843.479	16002
843.616	16002
843.752	15797
843.889	15865
844.025	16013
844.162	15793
844.298	16013
844.435	15941
844.571	15835
844.708	15926
844.844	16112
844.98	16032
845.117	15911
845.253	15789
845.389	15770
845.525	15994
845.661	15873
845.798	15762
845.934	15934
846.07	15945
846.206	16021
846.342	16048
846.478	15823
846.614	15504
846.75	15431
846.886	15450
847.022	15625
847.158	15504
847.294	15424
847.429	15428
847.565	15412
847.701	15667
847.837	15195
847.972	15097
848.108	15283
848.244	15268
848.379	15074
848.515	15047
848.65	15017
848.786	15009
848.921	15051
849.057	15112
849.192	15192
849.328	15024
849.463	15104
849.598	15005
849.734	14883
849.869	14910
850.004	14815
850.14	14845
850.275	14899
850.41	14708
850.545	14731
850.68	14788
850.815	14872
850.95	14773
851.085	14952
851.22	14781
851.355	14720
851.49	14743
851.625	14743
851.76	14826
851.895	14621
852.03	14674
852.165	14682
852.299	14868
852.434	14937
852.569	14762
852.703	14689
852.838	14872
852.973	14941
853.107	14830
853.242	14777
853.376	14617
853.511	14583
853.645	14621
853.78	14785
853.914	14701
854.048	14678
854.183	14610
854.317	14663
854.451	14758
854.585	14560
854.72	14697
854.854	14697
854.988	14587
855.122	14613
855.256	14434
855.39	14678
855.524	14823
855.658	14686
855.792	14674
855.926	14663
856.06	14659
856.194	14670
856.327	14594
856.461	14670
856.595	14533
856.729	14655
856.862	14724
856.996	14686
857.13	14701
857.263	14724
857.397	14724
857.53	14659
857.664	14724
857.797	14743
857.931	14670
858.064	14758
858.197	14701
858.331	14587
858.464	14731
858.597	14530
858.731	14602
858.864	14674
858.997	14594
859.13	14617
859.263	14727
859.396	14754
859.529	14640
859.662	14583
859.795	14617
859.928	14663
860.061	14842
860.194	14788
860.327	14762
860.46	14655
860.592	14705
860.725	14758
860.858	14663
860.99	14629
861.123	14492
861.256	14575
861.388	14655
861.521	15370
861.653	14434
861.786	14537
861.918	14522
862.05	14579
862.183	14575
862.315	14651
862.447	14727
862.58	14667
862.712	14385
862.844	14343
862.976	14552
863.108	14450
863.24	14853
863.372	14339
863.504	14358
863.636	14366
863.768	14469
863.9	14400
864.032	14377
864.164	14351
864.296	14503
864.428	14480
864.559	14499
864.691	14541
864.823	14473
864.954	14484
865.086	14461
865.217	14419
865.349	14400
865.48	14347
865.612	14473
865.743	14545
865.875	14438
866.006	14400
866.137	14385
866.269	14336
866.4	14351
866.531	14427
866.662	14328
866.793	14400
866.924	14427
867.055	14358
867.186	14355
867.317	14389
867.448	14358
867.579	14267
867.71	14275
867.841	14320
867.972	14313
868.103	14351
868.233	14434
868.364	14465
868.495	14404
868.625	14636
868.756	14724
868.886	14526
869.017	14651
869.147	14807
869.278	14834
869.408	14716
869.539	14727
869.669	14769
869.799	14705
869.929	14857
870.06	14796
870.19	14834
870.32	14975
870.45	15005
870.58	15028
870.71	15104
870.84	15116
870.97	15077
871.1	14960
871.23	15222
871.36	15199
871.489	15222
871.619	15207
871.749	15245
871.879	15218
872.008	15355
872.138	15245
872.267	15184
872.397	15112
872.526	15036
872.656	15154
872.785	15032
872.915	15207
873.044	15359
873.173	15291
873.303	15241
873.432	15378
873.561	15363
873.69	15351
873.819	15252
873.948	15397
874.077	15321
874.206	15241
874.335	15348
874.464	15367
874.593	15496
874.722	15526
874.851	15576
874.979	15641
875.108	15667
875.237	15580
875.365	15485
875.494	15553
875.623	15663
875.751	15485
875.88	15610
876.008	15705
876.136	15899
876.265	15968
876.393	16032
876.521	16036
876.65	16059
876.778	16048
876.906	15956
877.034	15956
877.162	16063
877.29	15972
877.418	16044
877.546	15975
877.674	15991
877.802	15922
877.93	15979
878.058	15991
878.185	15915
878.313	16032
878.441	16044
878.568	15903
878.696	16071
878.824	15964
878.951	16211
879.079	16223
879.206	16417
879.333	16215
879.461	16112
879.588	16185
879.715	16348
879.842	16474
879.97	16287
880.097	15911
880.224	16006
880.351	15915
880.478	15869
880.605	15937
880.732	15934
880.859	16188
880.986	15987
881.112	15884
881.239	15778
881.366	15739
881.493	15637
881.619	15576
881.746	15606
881.872	15564
881.999	15545
882.125	15572
882.252	15629
882.378	15530
882.505	15606
882.631	15462
882.757	15363
882.883	15401
883.01	15443
883.136	15287
883.262	15222
883.388	15230
883.514	15507
883.64	15405
883.766	15298
883.892	15214
884.018	15157
884.143	15412
884.269	15408
884.395	15188
884.52	15001
884.646	15108
884.772	14982
884.897	14880
885.023	15146
885.148	15062
885.274	15260
885.399	15173
885.524	14956
885.65	14986
885.775	15097
885.9	14986
886.025	15112
886.15	15154
886.275	15070
886.4	14914
886.525	15043
886.65	14948
886.775	15013
886.9	15188
887.025	15226
887.149	15032
887.274	14952
887.399	14857
887.523	14823
887.648	14853
887.773	14792
887.897	14937
888.021	14921
888.146	14830
888.27	15100
888.395	15039
888.519	14990
888.643	14902
888.767	14891
888.891	14861
889.015	14640
889.139	14804
889.263	14724
889.387	14800
889.511	14952
889.635	14826
889.759	14769
889.883	14583
890.006	14804
890.13	14796
890.254	14556
890.377	14625
890.501	14598
890.624	14488
890.748	14571
890.871	14503
890.995	14385
891.118	14366
891.241	14358
891.364	14495
891.488	14522
891.611	14454
891.734	14370
891.857	14434
891.98	14465
892.103	14431
892.226	14537
892.349	14374
892.471	14187
892.594	14431
892.717	14385
892.839	14366
892.962	14355
893.085	14560
893.207	14396
893.33	14415
893.452	14351
893.575	14461
893.697	14457
893.819	14640
893.941	14617
894.064	14499
894.186	14366
894.308	14298
894.43	14545
894.552	14602
894.674	14526
894.796	14431
894.918	14476
895.04	14434
895.161	14621
895.283	14396
895.405	14343
895.526	14476
895.648	14427
895.769	14488
895.891	14583
896.012	14575
896.134	14522
896.255	14507
896.376	14594
896.498	14602
896.619	14686
896.74	14556
896.861	14602
896.982	14849
897.103	15161
897.224	14861
897.345	14792
897.466	14693
897.587	14788
897.708	14948
897.828	14823
897.949	14758
898.07	14769
898.19	14773
898.311	14971
898.431	14792
898.552	14876
898.672	14998
898.792	15024
898.913	14914
899.033	14960
899.153	14731
899.273	14716
899.393	14735
899.513	14819
899.633	14800
899.753	14804
899.873	14773
899.993	14887
900.113	14785
900.232	14830
900.352	14765
900.472	14644
900.591	14526
900.711	14625
900.83	14560
900.95	14743
901.069	14727
901.189	14530
901.308	14347
901.427	14237
901.546	14305
901.665	14278
901.784	14332
901.904	14157
902.023	14069
902.141	13986
902.26	13799
902.379	13864
902.498	13814
902.617	13772
902.735	13906
902.854	13883
902.973	13830
903.091	13567
903.21	13567
903.328	13620
903.446	13491
903.565	13350
903.683	13388
903.801	13263
903.919	13362
904.038	13430
904.156	13164
904.274	13270
904.392	13141
904.51	13236
904.627	13152
904.745	13228
904.863	13327
904.981	13034
905.098	12981
905.216	12981
905.334	12996
905.451	12966
905.569	12867
905.686	12970
905.803	12943
905.921	12726
906.038	12856
906.155	12703
906.272	12635
906.389	12658
906.506	12467
906.623	12494
906.74	12513
906.857	12460
906.974	12441
907.091	12574
907.208	12631
907.324	12612
907.441	12426
907.557	12232
907.674	12224
907.79	12213
907.907	12281
908.023	12319
908.139	12216
908.256	12197
908.372	12076
908.488	12102
908.604	12053
908.72	11942
908.836	12026
908.952	12007
909.068	11931
909.184	12163
909.3	11996
909.415	12102
909.531	11931
909.647	11912
909.762	11805
909.878	11680
909.993	11756
910.108	11688
910.224	11756
910.339	11767
910.454	11680
910.57	11642
910.685	11554
910.8	11870
910.915	11805
911.03	11619
911.145	11490
911.259	11474
911.374	11452
911.489	11486
911.604	11356
911.718	11269
911.833	11246
911.947	11041
912.062	11014
912.176	11315
912.291	11246
912.405	11261
912.519	11459
912.633	11364
912.748	11318
912.862	11220
912.976	11090
913.09	10927
913.204	11071
913.318	11041
913.431	11227
913.545	11124
913.659	11204
913.772	11109
913.886	10938
914	10930
914.113	11056
914.226	11140
914.34	11014
914.453	10900
914.566	11060
914.68	10930
914.793	10877
914.906	10759
915.019	10675
915.132	10596
915.245	10733
915.358	10733
915.47	10736
915.583	10767
915.696	10801
915.809	10847
915.921	10858
916.034	10668
916.146	10656
916.259	10641
916.371	10748
916.483	10733
916.595	10584
916.708	10618
916.82	10596
916.932	10637
917.044	10577
917.156	10596
917.268	10554
917.38	10516
917.491	10523
917.603	10508
917.715	10603
917.826	10641
917.938	10504
918.049	10459
918.161	10447
918.272	10694
918.384	10683
918.495	10584
918.606	10413
918.717	10310
918.828	10390
918.939	10474
919.05	10405
919.161	10310
919.272	10234
919.383	10196
919.494	10596
919.604	10596
919.715	10417
919.826	10318
919.936	10405
920.047	10504
920.157	10470
920.267	10584
920.378	10462
920.488	10455
920.598	10668
920.708	10706
920.818	10577
920.928	10611
921.038	10771
921.148	10721
921.258	10417
921.368	10394
921.477	10238
921.587	10291
921.697	10143
921.806	10242
921.916	10147
922.025	10055
922.134	10044
922.244	9926
922.353	9934
922.462	9823
922.571	9838
922.68	9644
922.789	9648
922.898	9679
923.007	9622
923.116	9690
923.224	9637
923.333	9656
923.442	9557
923.55	9549
923.659	9549
923.767	9618
923.876	9458
923.984	9534
924.092	9462
924.201	9481
924.309	9553
924.417	9576
924.525	9511
924.633	9500
924.741	10394
924.849	9294
924.956	9545
925.064	9340
925.172	9222
925.279	9260
925.387	9294
925.494	9313
925.602	9397
925.709	9393
925.816	9237
925.924	9317
926.031	9401
926.138	9260
926.245	9378
926.352	9241
926.459	9397
926.566	9386
926.673	9260
926.779	9173
926.886	9116
926.993	8994
927.099	9005
927.206	8948
927.312	8998
927.419	8990
927.525	9013
927.631	9085
927.737	8872
927.843	8918
927.95	8849
928.056	8857
928.162	8906
928.267	8956
928.373	9557
928.479	9013
928.585	8785
928.69	8899
928.796	8872
928.901	8785
929.007	8708
929.112	8895
929.218	8750
929.323	8708
929.428	8705
929.533	8864
929.638	8727
929.743	8735
929.848	8796
929.953	8689
930.058	8674
930.163	8396
930.267	8507
930.372	8686
930.477	8480
930.581	8682
930.685	8648
930.79	8381
930.894	8465
930.998	8396
931.103	8564
931.207	8210
931.311	8180
931.415	8134
931.519	7894
931.623	7947
