Data from test_V78500241_3168.txt Node
Date: Fri Mar 25 14:55:46 CST 2022
User: usil
Spectrometer: V785-0024
Trigger mode: 0
Integration Time (sec): 4.000000E-1
Scans to average: 1
Nonlinearity correction enabled: false
Boxcar width: 0
Storing dark spectrum: false
XAxis mode: Wavelengths
Number of Pixels in Spectrum: 1024
>>>>>Begin Spectral Data<<<<<
801.071	22074
801.214	22025
801.356	21755
801.499	21549
801.641	21447
801.783	21374
801.926	21420
802.068	21287
802.211	21313
802.353	21279
802.496	20994
802.638	21001
802.78	20941
802.923	20842
803.065	20777
803.208	20678
803.35	20735
803.492	20929
803.635	20918
803.777	20632
803.919	20716
804.061	21104
804.204	20746
804.346	20686
804.488	20541
804.63	20659
804.773	20655
804.915	20697
805.057	20883
805.199	20705
805.341	20613
805.483	20746
805.626	20796
805.768	20739
805.91	20644
806.052	20697
806.194	20549
806.336	20754
806.478	20602
806.62	20552
806.762	20781
806.904	20902
807.046	21070
807.188	20990
807.33	20982
807.472	21112
807.614	20868
807.756	20986
807.898	20735
808.04	20655
808.182	20636
808.324	20701
808.465	20902
808.607	20933
808.749	21032
808.891	21096
809.033	21245
809.174	21024
809.316	21047
809.458	20952
809.6	20902
809.741	21077
809.883	21081
810.025	21146
810.166	21135
810.308	21089
810.45	21070
810.591	20967
810.733	20765
810.875	20777
811.016	20644
811.158	20640
811.299	20906
811.441	20845
811.582	20868
811.724	20773
811.865	20648
812.007	20838
812.148	20929
812.29	20819
812.431	21017
812.573	21218
812.714	21180
812.855	21313
812.997	21294
813.138	21534
813.279	21351
813.421	21192
813.562	21195
813.703	21032
813.845	20918
813.986	20644
814.127	20514
814.268	20381
814.41	20336
814.551	20294
814.692	20355
814.833	20180
814.974	20221
815.115	20336
815.256	20267
815.397	20202
815.539	20046
815.68	20157
815.821	19989
815.962	20145
816.103	19951
816.244	19959
816.385	19803
816.526	19799
816.666	19578
816.807	19457
816.948	19632
817.089	19605
817.23	19521
817.371	19430
817.512	19487
817.653	19594
817.793	19460
817.934	19358
818.075	19457
818.216	19419
818.356	19434
818.497	19289
818.638	19160
818.778	19168
818.919	19194
819.06	19198
819.2	19225
819.341	19255
819.481	19266
819.622	19514
819.762	19712
819.903	19552
820.043	19502
820.184	19358
820.324	19476
820.465	19476
820.605	19419
820.746	19392
820.886	19282
821.026	19384
821.167	19403
821.307	19510
821.447	19301
821.588	19316
821.728	19061
821.868	18989
822.008	18791
822.149	18909
822.289	18833
822.429	18563
822.569	18502
822.709	18513
822.849	18376
822.99	18376
823.13	18319
823.27	18220
823.41	18281
823.55	18045
823.69	18041
823.83	18144
823.97	18140
824.11	17927
824.25	17836
824.389	17870
824.529	18015
824.669	17897
824.809	17980
824.949	17977
825.089	18011
825.228	17794
825.368	17707
825.508	17668
825.648	17619
825.787	17619
825.927	17703
826.067	17539
826.206	17551
826.346	17718
826.485	17661
826.625	17528
826.765	17802
826.904	17699
827.044	17429
827.183	17440
827.323	17440
827.462	17535
827.601	17414
827.741	17360
827.88	17368
828.02	17258
828.159	17376
828.298	17288
828.437	17463
828.577	17296
828.716	17562
828.855	17311
828.994	17159
829.134	17162
829.273	17159
829.412	17113
829.551	17003
829.69	17174
829.829	17181
829.968	17166
830.107	17128
830.246	17033
830.385	17022
830.524	17037
830.663	16972
830.802	16828
830.941	16713
831.08	16763
831.219	16733
831.357	16736
831.496	16881
831.635	16752
831.774	16767
831.913	16519
832.051	16611
832.19	16443
832.329	16481
832.467	16375
832.606	16375
832.744	16363
832.883	16329
833.022	16348
833.16	16405
833.299	16493
833.437	16417
833.576	16573
833.714	16462
833.852	16428
833.991	16436
834.129	16588
834.267	16596
834.406	16348
834.544	16519
834.682	16504
834.821	16432
834.959	16599
835.097	16485
835.235	16565
835.373	16569
835.511	16481
835.65	16363
835.788	16382
835.926	16219
836.064	16173
836.202	16200
836.34	16421
836.478	16459
836.615	16344
836.753	16337
836.891	16402
837.029	16417
837.167	16257
837.305	16234
837.443	16352
837.58	16177
837.718	16398
837.856	16226
837.993	16169
838.131	16306
838.269	16265
838.406	16166
838.544	16188
838.681	15918
838.819	15941
838.956	15759
839.094	15816
839.231	15804
839.369	15812
839.506	16223
839.643	16101
839.781	15789
839.918	15797
840.055	15781
840.193	15778
840.33	15739
840.467	15785
840.604	15804
840.742	16032
840.879	15576
841.016	15675
841.153	15736
841.29	15972
841.427	15793
841.564	15823
841.701	15793
841.838	15671
841.975	15755
842.112	15606
842.249	15622
842.385	15595
842.522	15701
842.659	15599
842.796	15553
842.933	15652
843.069	15526
843.206	15485
843.343	15762
843.479	15568
843.616	15591
843.752	15408
843.889	15260
844.025	15603
844.162	15310
844.298	15367
844.435	15321
844.571	15329
844.708	15431
844.844	15553
844.98	15534
845.117	15492
845.253	15336
845.389	15298
845.525	15294
845.661	15279
845.798	15142
845.934	15123
846.07	15138
846.206	15116
846.342	15222
846.478	15188
846.614	15013
846.75	14868
846.886	14883
847.022	15001
847.158	14960
847.294	14941
847.429	14956
847.565	14902
847.701	15249
847.837	14731
847.972	14678
848.108	14754
848.244	14777
848.379	14552
848.515	14522
848.65	14488
848.786	14514
848.921	14526
849.057	14606
849.192	14610
849.328	14495
849.463	14564
849.598	14511
849.734	14374
849.869	14324
850.004	14415
850.14	14370
850.275	14282
850.41	14267
850.545	14317
850.68	14278
850.815	14320
850.95	14358
851.085	14518
851.22	14381
851.355	14278
851.49	14252
851.625	14233
851.76	14221
851.895	14298
852.03	14153
852.165	14214
852.299	14221
852.434	14362
852.569	14290
852.703	14332
852.838	14385
852.973	14457
853.107	14454
853.242	14317
853.376	14202
853.511	14176
853.645	14043
853.78	14237
853.914	14157
854.048	14233
854.183	14240
854.317	14237
854.451	14355
854.585	14202
854.72	14145
854.854	14233
854.988	14058
855.122	14210
855.256	14001
855.39	14077
855.524	14195
855.658	14183
855.792	14164
855.926	14210
856.06	14259
856.194	14351
856.327	14157
856.461	14050
856.595	14103
856.729	14081
856.862	14343
856.996	14191
857.13	14267
857.263	14229
857.397	14298
857.53	14172
857.664	14157
857.797	14294
857.931	14286
858.064	14218
858.197	14282
858.331	14183
858.464	14168
858.597	14073
858.731	14206
858.864	14153
858.997	14210
859.13	14115
859.263	14199
859.396	14191
859.529	14210
859.662	14214
859.795	14088
859.928	14286
860.061	14317
860.194	14298
860.327	14157
860.46	14084
860.592	14214
860.725	14328
860.858	14252
860.99	14153
861.123	14161
861.256	13982
861.388	14233
861.521	14826
861.653	14134
861.786	13970
861.918	14031
862.05	14081
862.183	14084
862.315	14202
862.447	14324
862.58	14119
862.712	13921
862.844	13959
862.976	13947
863.108	14012
863.24	14233
863.372	13856
863.504	13894
863.636	13894
863.768	13947
863.9	13963
864.032	13833
864.164	13909
864.296	13936
864.428	13963
864.559	13997
864.691	14024
864.823	14008
864.954	14008
865.086	14065
865.217	13932
865.349	13917
865.48	13951
865.612	13986
865.743	14054
865.875	13894
866.006	13871
866.137	13963
866.269	13913
866.4	13936
866.531	13879
866.662	13864
866.793	13845
866.924	13967
867.055	13845
867.186	13978
867.317	13868
867.448	13849
867.579	13811
867.71	13833
867.841	13879
867.972	13963
868.103	13989
868.233	13951
868.364	14031
868.495	14058
868.625	14244
868.756	14282
868.886	14024
869.017	14096
869.147	14259
869.278	14328
869.408	14187
869.539	14214
869.669	14317
869.799	14244
869.929	14332
870.06	14362
870.19	14457
870.32	14469
870.45	14404
870.58	14514
870.71	14731
870.84	14811
870.97	14693
871.1	14434
871.23	14693
871.36	14762
871.489	14655
871.619	14796
871.749	14724
871.879	14807
872.008	14872
872.138	14823
872.267	14720
872.397	14667
872.526	14613
872.656	14606
872.785	14629
872.915	14853
873.044	14883
873.173	14811
873.303	14804
873.432	14826
873.561	14952
873.69	14842
873.819	14872
873.948	14944
874.077	14819
874.206	14796
874.335	14872
874.464	15009
874.593	15066
874.722	15074
874.851	15230
874.979	15135
875.108	15199
875.237	15123
875.365	15051
875.494	15047
875.623	15260
875.751	15138
875.88	15218
876.008	15245
876.136	15321
876.265	15557
876.393	15679
876.521	15675
876.65	15580
876.778	15717
876.906	15584
877.034	15500
877.162	15572
877.29	15496
877.418	15523
877.546	15511
877.674	15549
877.802	15641
877.93	15545
878.058	15572
878.185	15412
878.313	15492
878.441	15564
878.568	15351
878.696	15450
878.824	15519
878.951	15686
879.079	15675
879.206	15838
879.333	15804
879.461	15614
879.588	15610
879.715	15770
879.842	15800
879.97	15584
880.097	15435
880.224	15321
880.351	15393
880.478	15477
880.605	15367
880.732	15374
880.859	15709
880.986	15336
881.112	15443
881.239	15214
881.366	15176
881.493	15097
881.619	15058
881.746	15074
881.872	15142
881.999	15058
882.125	14994
882.252	15097
882.378	15070
882.505	15135
882.631	15028
882.757	14826
882.883	14982
883.01	14826
883.136	14853
883.262	14788
883.388	14655
883.514	14956
883.64	14906
883.766	14804
883.892	14765
884.018	14693
884.143	14842
884.269	14948
884.395	14705
884.52	14621
884.646	14651
884.772	14579
884.897	14533
885.023	14712
885.148	14777
885.274	14655
885.399	14651
885.524	14610
885.65	14583
885.775	14655
885.9	14537
886.025	14750
886.15	14724
886.275	14549
886.4	14541
886.525	14564
886.65	14545
886.775	14564
886.9	14682
887.025	14826
887.149	14587
887.274	14396
887.399	14446
887.523	14469
887.648	14336
887.773	14339
887.897	14431
888.021	14537
888.146	14446
888.27	14549
888.395	14560
888.519	14476
888.643	14438
888.767	14575
888.891	14393
889.015	14370
889.139	14355
889.263	14183
889.387	14347
889.511	14457
889.635	14370
889.759	14347
889.883	14157
890.006	14385
890.13	14358
890.254	14218
890.377	14244
890.501	14100
890.624	14107
890.748	14138
890.871	14043
890.995	13967
891.118	13890
891.241	14008
891.364	13921
891.488	14062
891.611	13978
891.734	13989
891.857	14039
891.98	14062
892.103	14084
892.226	14020
892.349	13947
892.471	13909
892.594	14054
892.717	14001
892.839	14031
892.962	14020
893.085	14073
893.207	13928
893.33	13921
893.452	13944
893.575	14126
893.697	13928
893.819	14065
893.941	14240
894.064	14123
894.186	13909
894.308	14012
894.43	14027
894.552	14244
894.674	14092
894.796	14020
894.918	14088
895.04	14016
895.161	14183
895.283	14016
895.405	13993
895.526	14077
895.648	14096
895.769	14271
895.891	14103
896.012	14237
896.134	14244
896.255	14164
896.376	14210
896.498	14115
896.619	14229
896.74	14115
896.861	14199
896.982	14492
897.103	14606
897.224	14495
897.345	14366
897.466	14370
897.587	14473
897.708	14579
897.828	14518
897.949	14495
898.07	14358
898.19	14461
898.311	14705
898.431	14427
898.552	14514
898.672	14571
898.792	14613
898.913	14594
899.033	14530
899.153	14469
899.273	14286
899.393	14377
899.513	14358
899.633	14339
899.753	14389
899.873	14298
899.993	14442
900.113	14457
900.232	14339
900.352	14404
900.472	14336
900.591	14130
900.711	14199
900.83	14233
900.95	14355
901.069	14404
901.189	14176
901.308	14024
901.427	13883
901.546	13837
901.665	13917
901.784	13978
901.904	13811
902.023	13632
902.141	13556
902.26	13540
902.379	13590
902.498	13518
902.617	13460
902.735	13491
902.854	13426
902.973	13445
903.091	13324
903.21	13152
903.328	13217
903.446	13304
903.565	13034
903.683	13110
903.801	12977
903.919	13050
904.038	13042
904.156	12954
904.274	13004
904.392	12840
904.51	12886
904.627	12928
904.745	12913
904.863	12894
904.981	12692
905.098	12597
905.216	12585
905.334	12555
905.451	12620
905.569	12475
905.686	12597
905.803	12662
905.921	12448
906.038	12506
906.155	12403
906.272	12372
906.389	12319
906.506	12152
906.623	12190
906.74	12079
906.857	12072
906.974	12110
907.091	12213
907.208	12304
907.324	12136
907.441	12106
907.557	11920
907.674	11840
907.79	11843
907.907	11859
908.023	11859
908.139	11817
908.256	11908
908.372	11866
908.488	11855
908.604	11726
908.72	11668
908.836	11752
908.952	11661
909.068	11653
909.184	11733
909.3	11672
909.415	11680
909.531	11733
909.647	11402
909.762	11417
909.878	11433
909.993	11433
910.108	11345
910.224	11429
910.339	11383
910.454	11330
910.57	11284
910.685	11193
910.8	11535
910.915	11509
911.03	11269
911.145	11113
911.259	11102
911.374	11136
911.489	11029
911.604	11010
911.718	10976
911.833	10911
911.947	10797
912.062	10733
912.176	10873
912.291	10915
912.405	10904
912.519	11094
912.633	11204
912.748	10984
912.862	10957
912.976	10740
913.09	10656
913.204	10702
913.318	10881
913.431	10835
913.545	10949
913.659	10930
913.772	10778
913.886	10645
914	10710
914.113	10698
914.226	10767
914.34	10717
914.453	10596
914.566	10729
914.68	10622
914.793	10626
914.906	10394
915.019	10356
915.132	10341
915.245	10337
915.358	10432
915.47	10367
915.583	10344
915.696	10462
915.809	10694
915.921	10599
916.034	10363
916.146	10352
916.259	10421
916.371	10485
916.483	10432
916.595	10306
916.708	10352
916.82	10280
916.932	10299
917.044	10360
917.156	10325
917.268	10211
917.38	10253
917.491	10257
917.603	10196
917.715	10352
917.826	10246
917.938	10261
918.049	10120
918.161	10322
918.272	10337
918.384	10394
918.495	10268
918.606	10101
918.717	10055
918.828	10116
918.939	10067
919.05	10032
919.161	10219
919.272	9941
919.383	10002
919.494	10139
919.604	10363
919.715	10120
919.826	9998
919.936	10124
920.047	10265
920.157	10112
920.267	10356
920.378	10192
920.488	10204
920.598	10303
920.708	10485
920.818	10363
920.928	10344
921.038	10459
921.148	10508
921.258	10185
921.368	10150
921.477	10093
921.587	10025
921.697	9835
921.806	10040
921.916	9941
922.025	9819
922.134	9740
922.244	9675
922.353	9808
922.462	9618
922.571	9564
922.68	9416
922.789	9287
922.898	9408
923.007	9454
923.116	9412
923.224	9412
923.333	9393
923.442	9355
923.55	9264
923.659	9310
923.767	9450
923.876	9401
923.984	9488
924.092	9256
924.201	9317
924.309	9298
924.417	9306
924.525	9222
924.633	9291
924.741	10196
924.849	9154
924.956	9222
925.064	9074
925.172	9043
925.279	9009
925.387	9131
925.494	9100
925.602	9249
925.709	9154
925.816	9070
925.924	9093
926.031	9245
926.138	9062
926.245	9169
926.352	9039
926.459	9184
926.566	9249
926.673	9039
926.779	8952
926.886	8986
926.993	8887
927.099	8819
927.206	8735
927.312	8773
927.419	8849
927.525	8834
927.631	8826
927.737	8701
927.843	8777
927.95	8629
928.056	8750
928.162	8743
928.267	8804
928.373	9256
928.479	8830
928.585	8632
928.69	8769
928.796	8739
928.901	8632
929.007	8511
929.112	8674
929.218	8606
929.323	8495
929.428	8644
929.533	8648
929.638	8522
929.743	8537
929.848	8541
929.953	8530
930.058	8404
930.163	8214
930.267	8400
930.372	8412
930.477	8202
930.581	8571
930.685	8412
930.79	8252
930.894	8298
930.998	8225
931.103	8374
931.207	7997
931.311	7986
931.415	7909
931.519	7780
931.623	7753
