Data from test_V78500241_3473.txt Node
Date: Fri Mar 25 14:57:54 CST 2022
User: usil
Spectrometer: V785-0024
Trigger mode: 0
Integration Time (sec): 4.000000E-1
Scans to average: 1
Nonlinearity correction enabled: false
Boxcar width: 0
Storing dark spectrum: false
XAxis mode: Wavelengths
Number of Pixels in Spectrum: 1024
>>>>>Begin Spectral Data<<<<<
801.071	21865
801.214	21717
801.356	21618
801.499	21344
801.641	21340
801.783	21211
801.926	21313
802.068	21245
802.211	21104
802.353	20971
802.496	20769
802.638	20773
802.78	20830
802.923	20640
803.065	20552
803.208	20640
803.35	20568
803.492	20701
803.635	20743
803.777	20678
803.919	20701
804.061	20914
804.204	20625
804.346	20613
804.488	20427
804.63	20568
804.773	20366
804.915	20579
805.057	20613
805.199	20450
805.341	20549
805.483	20682
805.626	20526
805.768	20309
805.91	20545
806.052	20606
806.194	20427
806.336	20785
806.478	20396
806.62	20377
806.762	20537
806.904	20606
807.046	20910
807.188	20785
807.33	20891
807.472	20910
807.614	20632
807.756	20857
807.898	20663
808.04	20552
808.182	20503
808.324	20552
808.465	20568
808.607	20670
808.749	20887
808.891	20868
809.033	21089
809.174	20906
809.316	20876
809.458	20914
809.6	20807
809.741	20883
809.883	20880
810.025	21009
810.166	20998
810.308	21104
810.45	20982
810.591	20826
810.733	20762
810.875	20632
811.016	20473
811.158	20617
811.299	20670
811.441	20769
811.582	20697
811.724	20560
811.865	20514
812.007	20571
812.148	20606
812.29	20682
812.431	20853
812.573	20925
812.714	20967
812.855	21127
812.997	21157
813.138	21313
813.279	21313
813.421	21024
813.562	21028
813.703	20845
813.845	20788
813.986	20609
814.127	20438
814.268	20267
814.41	20210
814.551	20100
814.692	20206
814.833	20149
814.974	20069
815.115	20096
815.256	20065
815.397	20016
815.539	20008
815.68	19890
815.821	19708
815.962	19894
816.103	19856
816.244	19765
816.385	19708
816.526	19525
816.666	19487
816.807	19263
816.948	19331
817.089	19430
817.23	19407
817.371	19293
817.512	19251
817.653	19407
817.793	19335
817.934	19301
818.075	19335
818.216	19263
818.356	19164
818.497	19053
818.638	19023
818.778	19107
818.919	19023
819.06	19091
819.2	19175
819.341	19225
819.481	19118
819.622	19263
819.762	19487
819.903	19369
820.043	19392
820.184	19358
820.324	19232
820.465	19354
820.605	19187
820.746	19168
820.886	19213
821.026	19282
821.167	19209
821.307	19304
821.447	19244
821.588	19031
821.728	18935
821.868	18852
822.008	18578
822.149	18684
822.289	18665
822.429	18471
822.569	18285
822.709	18369
822.849	18262
822.99	18216
823.13	18174
823.27	18155
823.41	17954
823.55	17885
823.69	18034
823.83	17965
823.97	17954
824.11	17840
824.25	17619
824.389	17726
824.529	17855
824.669	17817
824.809	17866
824.949	17840
825.089	17885
825.228	17779
825.368	17752
825.508	17566
825.648	17463
825.787	17623
825.927	17558
826.067	17535
826.206	17436
826.346	17608
826.485	17558
826.625	17532
826.765	17615
826.904	17589
827.044	17360
827.183	17311
827.323	17197
827.462	17334
827.601	17288
827.741	17269
827.88	17269
828.02	17105
828.159	17075
828.298	17227
828.437	17258
828.577	17178
828.716	17402
828.855	17124
828.994	17090
829.134	16987
829.273	17018
829.412	16991
829.551	16934
829.69	17029
829.829	16942
829.968	17094
830.107	17052
830.246	17086
830.385	16900
830.524	16873
830.663	16900
830.802	16706
830.941	16645
831.08	16565
831.219	16653
831.357	16672
831.496	16740
831.635	16660
831.774	16603
831.913	16504
832.051	16402
832.19	16367
832.329	16375
832.467	16276
832.606	16390
832.744	16337
832.883	16268
833.022	16268
833.16	16253
833.299	16352
833.437	16379
833.576	16348
833.714	16303
833.852	16356
833.991	16455
834.129	16447
834.267	16405
834.406	16344
834.544	16394
834.682	16352
834.821	16341
834.959	16603
835.097	16329
835.235	16390
835.373	16421
835.511	16356
835.65	16310
835.788	16341
835.926	16128
836.064	16093
836.202	16105
836.34	16344
836.478	16363
836.615	16303
836.753	16261
836.891	16322
837.029	16284
837.167	16181
837.305	16234
837.443	16219
837.58	16185
837.718	16306
837.856	16223
837.993	16128
838.131	16196
838.269	16074
838.406	16166
838.544	15987
838.681	16013
838.819	15899
838.956	15846
839.094	15732
839.231	15781
839.369	15884
839.506	16162
839.643	15972
839.781	15793
839.918	15660
840.055	15720
840.193	15698
840.33	15751
840.467	15713
840.604	15812
840.742	15983
840.879	15652
841.016	15675
841.153	15694
841.29	15846
841.427	15717
841.564	15778
841.701	15816
841.838	15641
841.975	15568
842.112	15644
842.249	15507
842.385	15477
842.522	15656
842.659	15523
842.796	15458
842.933	15469
843.069	15492
843.206	15561
843.343	15591
843.479	15500
843.616	15439
843.752	15306
843.889	15313
844.025	15424
844.162	15203
844.298	15397
844.435	15321
844.571	15237
844.708	15428
844.844	15382
844.98	15428
845.117	15389
845.253	15298
845.389	15119
845.525	15226
845.661	15294
845.798	15093
845.934	15146
846.07	15051
846.206	15173
846.342	15116
846.478	15180
846.614	14933
846.75	14902
846.886	14830
847.022	14960
847.158	14887
847.294	14819
847.429	14883
847.565	14910
847.701	15211
847.837	14632
847.972	14651
848.108	14708
848.244	14712
848.379	14522
848.515	14454
848.65	14495
848.786	14526
848.921	14457
849.057	14667
849.192	14705
849.328	14621
849.463	14488
849.598	14480
849.734	14423
849.869	14324
850.004	14237
850.14	14290
850.275	14164
850.41	14123
850.545	14233
850.68	14252
850.815	14123
850.95	14172
851.085	14358
851.22	14396
851.355	14267
851.49	14263
851.625	14149
851.76	14134
851.895	14183
852.03	14081
852.165	14305
852.299	14393
852.434	14305
852.569	14324
852.703	14256
852.838	14309
852.973	14419
853.107	14252
853.242	14214
853.376	14081
853.511	13951
853.645	14054
853.78	14267
853.914	14180
854.048	14027
854.183	14065
854.317	14126
854.451	14320
854.585	14058
854.72	14103
854.854	14244
854.988	14073
855.122	14103
855.256	14031
855.39	13989
855.524	14248
855.658	14111
855.792	14111
855.926	14096
856.06	14191
856.194	14172
856.327	14046
856.461	14001
856.595	14027
856.729	14130
856.862	14195
856.996	14145
857.13	14180
857.263	14244
857.397	14309
857.53	14134
857.664	14149
857.797	14275
857.931	14301
858.064	14054
858.197	14244
858.331	14043
858.464	14130
858.597	14065
858.731	14073
858.864	14077
858.997	14020
859.13	14164
859.263	14073
859.396	14187
859.529	14069
859.662	14168
859.795	14043
859.928	14153
860.061	14286
860.194	14332
860.327	14145
860.46	14073
860.592	14172
860.725	14305
860.858	14275
860.99	14084
861.123	13997
861.256	14126
861.388	14062
861.521	14811
861.653	13947
861.786	13940
861.918	13959
862.05	14153
862.183	13993
862.315	14107
862.447	14123
862.58	14058
862.712	13909
862.844	13814
862.976	13932
863.108	14020
863.24	14324
863.372	13841
863.504	13860
863.636	13894
863.768	13944
863.9	13970
864.032	13894
864.164	13868
864.296	13883
864.428	13982
864.559	13947
864.691	14050
864.823	13913
864.954	13982
865.086	13925
865.217	13860
865.349	13845
865.48	13875
865.612	13849
865.743	14058
865.875	13947
866.006	13822
866.137	13830
866.269	13894
866.4	13906
866.531	13860
866.662	13845
866.793	13906
866.924	13944
867.055	13932
867.186	13894
867.317	13928
867.448	13761
867.579	13818
867.71	13795
867.841	13860
867.972	13913
868.103	13883
868.233	13818
868.364	13940
868.495	14020
868.625	14153
868.756	14176
868.886	14062
869.017	14164
869.147	14237
869.278	14278
869.408	14157
869.539	14081
869.669	14290
869.799	14225
869.929	14240
870.06	14355
870.19	14343
870.32	14446
870.45	14564
870.58	14571
870.71	14678
870.84	14701
870.97	14454
871.1	14507
871.23	14792
871.36	14705
871.489	14621
871.619	14720
871.749	14686
871.879	14868
872.008	14800
872.138	14769
872.267	14667
872.397	14693
872.526	14427
872.656	14564
872.785	14598
872.915	14750
873.044	14773
873.173	14800
873.303	14807
873.432	14842
873.561	14963
873.69	14758
873.819	14800
873.948	14899
874.077	14861
874.206	14754
874.335	14815
874.464	14975
874.593	15146
874.722	15047
874.851	15173
874.979	15112
875.108	15100
875.237	15089
875.365	15119
875.494	14971
875.623	15203
875.751	15039
875.88	15169
876.008	15272
876.136	15428
876.265	15534
876.393	15675
876.521	15572
876.65	15568
876.778	15507
876.906	15473
877.034	15397
877.162	15439
877.29	15420
877.418	15534
877.546	15431
877.674	15477
877.802	15488
877.93	15591
878.058	15526
878.185	15405
878.313	15492
878.441	15477
878.568	15291
878.696	15405
878.824	15595
878.951	15603
879.079	15720
879.206	15895
879.333	15686
879.461	15610
879.588	15595
879.715	15720
879.842	15915
879.97	15671
880.097	15485
880.224	15431
880.351	15450
880.478	15408
880.605	15340
880.732	15336
880.859	15614
880.986	15367
881.112	15351
881.239	15306
881.366	15112
881.493	15116
881.619	15043
881.746	15093
881.872	15032
881.999	15070
882.125	15028
882.252	15195
882.378	15097
882.505	15184
882.631	15013
882.757	14781
882.883	14956
883.01	14910
883.136	14777
883.262	14735
883.388	14758
883.514	14910
883.64	14941
883.766	14857
883.892	14788
884.018	14796
884.143	14864
884.269	14979
884.395	14568
884.52	14476
884.646	14571
884.772	14537
884.897	14488
885.023	14533
885.148	14693
885.274	14674
885.399	14674
885.524	14526
885.65	14568
885.775	14560
885.9	14575
886.025	14655
886.15	14625
886.275	14625
886.4	14442
886.525	14526
886.65	14564
886.775	14514
886.9	14621
887.025	14678
887.149	14503
887.274	14351
887.399	14301
887.523	14362
887.648	14237
887.773	14301
887.897	14427
888.021	14492
888.146	14362
888.27	14465
888.395	14545
888.519	14442
888.643	14488
888.767	14537
888.891	14396
889.015	14210
889.139	14233
889.263	14195
889.387	14370
889.511	14530
889.635	14374
889.759	14191
889.883	14225
890.006	14290
890.13	14347
890.254	14145
890.377	14145
890.501	14065
890.624	13967
890.748	14191
890.871	13970
890.995	13875
891.118	13963
891.241	13932
891.364	13963
891.488	14168
891.611	13970
891.734	13974
891.857	13970
891.98	13967
892.103	14069
892.226	14024
892.349	13951
892.471	13871
892.594	13944
892.717	14012
892.839	13890
892.962	13940
893.085	14005
893.207	13963
893.33	13871
893.452	13860
893.575	13963
893.697	13963
893.819	14187
893.941	14138
894.064	14115
894.186	13947
894.308	13890
894.43	14077
894.552	14294
894.674	14073
894.796	13928
894.918	14016
895.04	13974
895.161	14115
895.283	14103
895.405	14046
895.526	14119
895.648	14115
895.769	14103
895.891	14126
896.012	14218
896.134	14126
896.255	14130
896.376	14115
896.498	14161
896.619	14202
896.74	14111
896.861	14286
896.982	14419
897.103	14610
897.224	14454
897.345	14484
897.466	14419
897.587	14549
897.708	14526
897.828	14488
897.949	14450
898.07	14172
898.19	14408
898.311	14526
898.431	14389
898.552	14514
898.672	14610
898.792	14564
898.913	14507
899.033	14473
899.153	14301
899.273	14275
899.393	14324
899.513	14438
899.633	14366
899.753	14385
899.873	14381
899.993	14423
900.113	14221
900.232	14484
900.352	14210
900.472	14172
900.591	14218
900.711	14237
900.83	14107
900.95	14419
901.069	14343
901.189	14240
901.308	14001
901.427	13841
901.546	13837
901.665	13925
901.784	13830
901.904	13712
902.023	13700
902.141	13506
902.26	13457
902.379	13533
902.498	13426
902.617	13377
902.735	13483
902.854	13476
902.973	13396
903.091	13213
903.21	13194
903.328	13152
903.446	13031
903.565	13012
903.683	13046
903.801	13027
903.919	12981
904.038	12958
904.156	12916
904.274	12916
904.392	12840
904.51	12817
904.627	12787
904.745	12875
904.863	12817
904.981	12669
905.098	12460
905.216	12532
905.334	12555
905.451	12532
905.569	12563
905.686	12677
905.803	12578
905.921	12365
906.038	12433
906.155	12467
906.272	12304
906.389	12277
906.506	12057
906.623	12182
906.74	12190
906.857	12072
906.974	12015
907.091	12136
907.208	12285
907.324	12186
907.441	12011
907.557	11893
907.674	11790
907.79	11741
907.907	11821
908.023	11904
908.139	11923
908.256	11805
908.372	11874
908.488	11824
908.604	11707
908.72	11619
908.836	11627
908.952	11589
909.068	11684
909.184	11798
909.3	11661
909.415	11703
909.531	11611
909.647	11436
909.762	11467
909.878	11387
909.993	11455
910.108	11425
910.224	11337
910.339	11395
910.454	11250
910.57	11239
910.685	11189
910.8	11459
910.915	11349
911.03	11364
911.145	11136
911.259	11056
911.374	11090
911.489	11025
911.604	10987
911.718	10900
911.833	10900
911.947	10797
912.062	10687
912.176	10854
912.291	10908
912.405	10911
912.519	11041
912.633	11025
912.748	10923
912.862	10854
912.976	10755
913.09	10717
913.204	10706
913.318	10736
913.431	10831
913.545	10847
913.659	10942
913.772	10850
913.886	10634
914	10649
914.113	10687
914.226	10782
914.34	10786
914.453	10542
914.566	10736
914.68	10656
914.793	10580
914.906	10333
915.019	10398
915.132	10386
915.245	10371
915.358	10398
915.47	10455
915.583	10409
915.696	10466
915.809	10508
915.921	10584
916.034	10341
916.146	10314
916.259	10242
916.371	10394
916.483	10440
916.595	10337
916.708	10341
916.82	10284
916.932	10215
917.044	10356
917.156	10303
917.268	10105
917.38	10227
917.491	10097
917.603	10238
917.715	10276
917.826	10379
917.938	10185
918.049	10112
918.161	10246
918.272	10402
918.384	10310
918.495	10295
918.606	10139
918.717	10025
918.828	10067
918.939	10188
919.05	10112
919.161	10120
919.272	9968
919.383	9968
919.494	10207
919.604	10306
919.715	10185
919.826	10059
919.936	10090
920.047	10135
920.157	10188
920.267	10322
920.378	10128
920.488	10185
920.598	10382
920.708	10459
920.818	10272
920.928	10329
921.038	10436
921.148	10459
921.258	10234
921.368	10032
921.477	9979
921.587	10021
921.697	9857
921.806	9983
921.916	9838
922.025	9732
922.134	9732
922.244	9667
922.353	9709
922.462	9660
922.571	9534
922.68	9412
922.789	9340
922.898	9428
923.007	9275
923.116	9450
923.224	9298
923.333	9336
923.442	9302
923.55	9176
923.659	9321
923.767	9378
923.876	9249
923.984	9351
924.092	9154
924.201	9230
924.309	9279
924.417	9302
924.525	9195
924.633	9157
924.741	10112
924.849	9043
924.956	9058
925.064	8998
925.172	9005
925.279	8967
925.387	9066
925.494	9077
925.602	9249
925.709	9066
925.816	9001
925.924	9047
926.031	9154
926.138	9020
926.245	9097
926.352	8918
926.459	9112
926.566	9116
926.673	8986
926.779	8883
926.886	8921
926.993	8883
927.099	8750
927.206	8743
927.312	8655
927.419	8864
927.525	8746
927.631	8823
927.737	8720
927.843	8663
927.95	8610
928.056	8571
928.162	8663
928.267	8762
928.373	9260
928.479	8708
928.585	8454
928.69	8663
928.796	8743
928.901	8514
929.007	8469
929.112	8583
929.218	8511
929.323	8530
929.428	8461
929.533	8613
929.638	8412
929.743	8552
929.848	8507
929.953	8522
930.058	8328
930.163	8214
930.267	8332
930.372	8412
930.477	8210
930.581	8503
930.685	8336
930.79	8256
930.894	8248
930.998	8259
931.103	8225
931.207	7993
931.311	7909
931.415	7894
931.519	7712
931.623	7666
