Data from test_V78500241_2444.txt Node
Date: Fri Mar 25 14:50:43 CST 2022
User: usil
Spectrometer: V785-0024
Trigger mode: 0
Integration Time (sec): 4.000000E-1
Scans to average: 1
Nonlinearity correction enabled: false
Boxcar width: 0
Storing dark spectrum: false
XAxis mode: Wavelengths
Number of Pixels in Spectrum: 1024
>>>>>Begin Spectral Data<<<<<
801.071	22177
801.214	22063
801.356	21694
801.499	21751
801.641	21515
801.783	21397
801.926	21595
802.068	21344
802.211	21268
802.353	21241
802.496	21142
802.638	21036
802.78	20967
802.923	20857
803.065	20727
803.208	20777
803.35	20792
803.492	20925
803.635	21043
803.777	20777
803.919	20899
804.061	21173
804.204	20880
804.346	20724
804.488	20674
804.63	20834
804.773	20651
804.915	20765
805.057	20754
805.199	20686
805.341	20716
805.483	20857
805.626	20788
805.768	20754
805.91	20785
806.052	20845
806.194	20617
806.336	21009
806.478	20769
806.62	20602
806.762	20849
806.904	20948
807.046	21089
807.188	21058
807.33	21150
807.472	21180
807.614	20971
807.756	20986
807.898	20765
808.04	20800
808.182	20838
808.324	20689
808.465	20902
808.607	21104
808.749	21108
808.891	21222
809.033	21317
809.174	21180
809.316	21039
809.458	21184
809.6	21070
809.741	21245
809.883	21169
810.025	21348
810.166	21241
810.308	21294
810.45	21252
810.591	21062
810.733	20937
810.875	20918
811.016	20659
811.158	20777
811.299	20891
811.441	21024
811.582	21055
811.724	20830
811.865	20876
812.007	20849
812.148	20857
812.29	20895
812.431	21081
812.573	21089
812.714	21173
812.855	21370
812.997	21549
813.138	21561
813.279	21428
813.421	21226
813.562	21329
813.703	21135
813.845	21074
813.986	20762
814.127	20556
814.268	20457
814.41	20480
814.551	20541
814.692	20389
814.833	20377
814.974	20408
815.115	20419
815.256	20339
815.397	20294
815.539	20278
815.68	20092
815.821	20237
815.962	20195
816.103	20100
816.244	19940
816.385	19883
816.526	19921
816.666	19696
816.807	19582
816.948	19693
817.089	19651
817.23	19628
817.371	19590
817.512	19567
817.653	19597
817.793	19460
817.934	19457
818.075	19609
818.216	19514
818.356	19491
818.497	19369
818.638	19232
818.778	19274
818.919	19350
819.06	19293
819.2	19324
819.341	19362
819.481	19438
819.622	19464
819.762	19795
819.903	19719
820.043	19510
820.184	19430
820.324	19575
820.465	19537
820.605	19506
820.746	19483
820.886	19422
821.026	19426
821.167	19529
821.307	19502
821.447	19388
821.588	19415
821.728	19255
821.868	19152
822.008	19000
822.149	18966
822.289	18875
822.429	18623
822.569	18547
822.709	18620
822.849	18475
822.99	18445
823.13	18308
823.27	18357
823.41	18201
823.55	18262
823.69	18308
823.83	18262
823.97	18133
824.11	18034
824.25	18030
824.389	17980
824.529	17988
824.669	17988
824.809	18083
824.949	18087
825.089	18114
825.228	18041
825.368	17843
825.508	17866
825.648	17923
825.787	17878
825.927	17863
826.067	17634
826.206	17672
826.346	17752
826.485	17748
826.625	17627
826.765	17786
826.904	17809
827.044	17573
827.183	17547
827.323	17455
827.462	17524
827.601	17463
827.741	17417
827.88	17512
828.02	17162
828.159	17410
828.298	17406
828.437	17566
828.577	17505
828.716	17558
828.855	17376
828.994	17189
829.134	17178
829.273	17204
829.412	17212
829.551	17147
829.69	17151
829.829	17174
829.968	17315
830.107	17121
830.246	17254
830.385	17140
830.524	17147
830.663	16972
830.802	16911
830.941	16752
831.08	16831
831.219	16805
831.357	16881
831.496	17060
831.635	16843
831.774	16816
831.913	16797
832.051	16691
832.19	16535
832.329	16679
832.467	16489
832.606	16500
832.744	16554
832.883	16478
833.022	16390
833.16	16455
833.299	16615
833.437	16500
833.576	16577
833.714	16607
833.852	16622
833.991	16596
834.129	16656
834.267	16596
834.406	16535
834.544	16656
834.682	16596
834.821	16546
834.959	16626
835.097	16531
835.235	16611
835.373	16538
835.511	16637
835.65	16493
835.788	16565
835.926	16284
836.064	16363
836.202	16325
836.34	16565
836.478	16580
836.615	16447
836.753	16485
836.891	16592
837.029	16508
837.167	16375
837.305	16409
837.443	16390
837.58	16303
837.718	16375
837.856	16333
837.993	16314
838.131	16341
838.269	16280
838.406	16299
838.544	16249
838.681	15979
838.819	15926
838.956	15846
839.094	15892
839.231	16040
839.369	16090
839.506	16230
839.643	16154
839.781	15873
839.918	15842
840.055	15983
840.193	15934
840.33	15857
840.467	15892
840.604	15953
840.742	16196
840.879	15751
841.016	15698
841.153	15819
841.29	15960
841.427	15960
841.564	15903
841.701	15895
841.838	15846
841.975	15766
842.112	15812
842.249	15717
842.385	15675
842.522	15922
842.659	15751
842.796	15663
842.933	15717
843.069	15663
843.206	15671
843.343	15705
843.479	15652
843.616	15755
843.752	15458
843.889	15401
844.025	15549
844.162	15523
844.298	15637
844.435	15439
844.571	15439
844.708	15534
844.844	15553
844.98	15667
845.117	15534
845.253	15344
845.389	15294
845.525	15405
845.661	15355
845.798	15161
845.934	15317
846.07	15291
846.206	15313
846.342	15374
846.478	15275
846.614	15036
846.75	15051
846.886	14929
847.022	15150
847.158	15112
847.294	15081
847.429	15032
847.565	14994
847.701	15176
847.837	14785
847.972	14739
848.108	14842
848.244	14887
848.379	14648
848.515	14617
848.65	14674
848.786	14762
848.921	14621
849.057	14697
849.192	14746
849.328	14613
849.463	14621
849.598	14613
849.734	14469
849.869	14602
850.004	14427
850.14	14526
850.275	14442
850.41	14214
850.545	14415
850.68	14419
850.815	14385
850.95	14389
851.085	14541
851.22	14499
851.355	14461
851.49	14332
851.625	14381
851.76	14393
851.895	14202
852.03	14252
852.165	14347
852.299	14427
852.434	14465
852.569	14495
852.703	14545
852.838	14423
852.973	14537
853.107	14541
853.242	14305
853.376	14153
853.511	14145
853.645	14256
853.78	14396
853.914	14244
854.048	14278
854.183	14214
854.317	14313
854.451	14381
854.585	14214
854.72	14225
854.854	14290
854.988	14172
855.122	14221
855.256	14084
855.39	14221
855.524	14366
855.658	14309
855.792	14298
855.926	14366
856.06	14252
856.194	14434
856.327	14221
856.461	14233
856.595	14172
856.729	14191
856.862	14366
856.996	14317
857.13	14351
857.263	14309
857.397	14412
857.53	14271
857.664	14336
857.797	14313
857.931	14320
858.064	14339
858.197	14381
858.331	14218
858.464	14229
858.597	14126
858.731	14206
858.864	14275
858.997	14187
859.13	14278
859.263	14275
859.396	14248
859.529	14271
859.662	14176
859.795	14267
859.928	14271
860.061	14362
860.194	14374
860.327	14347
860.46	14256
860.592	14339
860.725	14484
860.858	14374
860.99	14244
861.123	14206
861.256	14183
861.388	14240
861.521	14883
861.653	14180
861.786	14092
861.918	14111
862.05	14149
862.183	14206
862.315	14218
862.447	14206
862.58	14271
862.712	14084
862.844	14024
862.976	14202
863.108	14050
863.24	14290
863.372	14001
863.504	14096
863.636	13951
863.768	14126
863.9	14001
864.032	14016
864.164	14065
864.296	14062
864.428	14149
864.559	14103
864.691	14100
864.823	14199
864.954	14005
865.086	14115
865.217	13894
865.349	13993
865.48	13993
865.612	13986
865.743	14130
865.875	13993
866.006	14100
866.137	14126
866.269	13963
866.4	13982
866.531	13978
866.662	13986
866.793	13921
866.924	14005
867.055	14058
867.186	13982
867.317	14031
867.448	13803
867.579	13940
867.71	13944
867.841	13852
867.972	13993
868.103	14073
868.233	14020
868.364	14035
868.495	14027
868.625	14275
868.756	14404
868.886	14206
869.017	14202
869.147	14347
869.278	14476
869.408	14298
869.539	14229
869.669	14343
869.799	14282
869.929	14446
870.06	14415
870.19	14625
870.32	14629
870.45	14678
870.58	14712
870.71	14689
870.84	14807
870.97	14678
871.1	14693
871.23	14792
871.36	14815
871.489	14708
871.619	14720
871.749	14826
871.879	14880
872.008	14925
872.138	14849
872.267	14921
872.397	14743
872.526	14735
872.656	14655
872.785	14716
872.915	14910
873.044	14956
873.173	14849
873.303	14994
873.432	15017
873.561	14994
873.69	14975
873.819	14986
873.948	14967
874.077	14963
874.206	14845
874.335	14937
874.464	15085
874.593	15226
874.722	15097
874.851	15214
874.979	15256
875.108	15260
875.237	15150
875.365	15161
875.494	15207
875.623	15321
875.751	15268
875.88	15203
876.008	15443
876.136	15389
876.265	15637
876.393	15812
876.521	15720
876.65	15819
876.778	15675
876.906	15614
877.034	15584
877.162	15663
877.29	15660
877.418	15671
877.546	15641
877.674	15622
877.802	15618
877.93	15690
878.058	15584
878.185	15511
878.313	15526
878.441	15671
878.568	15492
878.696	15454
878.824	15538
878.951	15743
879.079	15850
879.206	15960
879.333	15785
879.461	15633
879.588	15793
879.715	15789
879.842	15899
879.97	15618
880.097	15488
880.224	15408
880.351	15519
880.478	15538
880.605	15351
880.732	15462
880.859	15793
880.986	15523
881.112	15591
881.239	15344
881.366	15298
881.493	15264
881.619	15108
881.746	15264
881.872	15150
881.999	15146
882.125	15024
882.252	15116
882.378	15093
882.505	15306
882.631	15161
882.757	14963
882.883	15043
883.01	14918
883.136	14872
883.262	14849
883.388	14838
883.514	15024
883.64	14971
883.766	14864
883.892	14864
884.018	14887
884.143	14982
884.269	15013
884.395	14678
884.52	14678
884.646	14655
884.772	14571
884.897	14575
885.023	14765
885.148	14644
885.274	14788
885.399	14716
885.524	14712
885.65	14689
885.775	14750
885.9	14644
886.025	14792
886.15	14712
886.275	14560
886.4	14598
886.525	14655
886.65	14625
886.775	14545
886.9	14743
887.025	14853
887.149	14659
887.274	14541
887.399	14454
887.523	14476
887.648	14476
887.773	14400
887.897	14442
888.021	14480
888.146	14590
888.27	14602
888.395	14583
888.519	14492
888.643	14575
888.767	14537
888.891	14351
889.015	14377
889.139	14374
889.263	14339
889.387	14434
889.511	14469
889.635	14507
889.759	14408
889.883	14339
890.006	14419
890.13	14465
890.254	14282
890.377	14332
890.501	14138
890.624	14123
890.748	14164
890.871	14111
890.995	14039
891.118	13947
891.241	14176
891.364	14092
891.488	14180
891.611	14073
891.734	14088
891.857	14202
891.98	14092
892.103	14168
892.226	14119
892.349	14012
892.471	13955
892.594	14008
892.717	14077
892.839	14088
892.962	14077
893.085	14096
893.207	14046
893.33	14005
893.452	14069
893.575	14103
893.697	14088
893.819	14180
893.941	14248
894.064	14183
894.186	14016
894.308	14111
894.43	14111
894.552	14355
894.674	14126
894.796	14077
894.918	14073
895.04	14077
895.161	14202
895.283	14214
895.405	14149
895.526	14240
895.648	14153
895.769	14294
895.891	14161
896.012	14271
896.134	14294
896.255	14282
896.376	14138
896.498	14195
896.619	14248
896.74	14282
896.861	14305
896.982	14670
897.103	14689
897.224	14549
897.345	14374
897.466	14377
897.587	14518
897.708	14716
897.828	14579
897.949	14484
898.07	14320
898.19	14514
898.311	14720
898.431	14549
898.552	14526
898.672	14750
898.792	14746
898.913	14636
899.033	14450
899.153	14495
899.273	14377
899.393	14377
899.513	14438
899.633	14476
899.753	14484
899.873	14362
899.993	14507
900.113	14446
900.232	14469
900.352	14412
900.472	14366
900.591	14271
900.711	14400
900.83	14294
900.95	14454
901.069	14415
901.189	14218
901.308	14039
901.427	13913
901.546	14012
901.665	14027
901.784	13974
901.904	13894
902.023	13822
902.141	13689
902.26	13620
902.379	13696
902.498	13624
902.617	13533
902.735	13590
902.854	13571
902.973	13525
903.091	13346
903.21	13343
903.328	13308
903.446	13126
903.565	13095
903.683	13107
903.801	13069
903.919	13088
904.038	13061
904.156	12996
904.274	13008
904.392	12928
904.51	13015
904.627	12901
904.745	12970
904.863	12989
904.981	12738
905.098	12585
905.216	12635
905.334	12642
905.451	12616
905.569	12688
905.686	12681
905.803	12627
905.921	12448
906.038	12528
906.155	12433
906.272	12376
906.389	12346
906.506	12251
906.623	12285
906.74	12258
906.857	12121
906.974	12197
907.091	12220
907.208	12384
907.324	12247
907.441	12110
907.557	12087
907.674	11931
907.79	11908
907.907	11889
908.023	11931
908.139	11977
908.256	11916
908.372	11977
908.488	11904
908.604	11809
908.72	11718
908.836	11764
908.952	11741
909.068	11710
909.184	11843
909.3	11745
909.415	11676
909.531	11691
909.647	11562
909.762	11501
909.878	11501
909.993	11516
910.108	11501
910.224	11444
910.339	11490
910.454	11421
910.57	11356
910.685	11292
910.8	11528
910.915	11478
911.03	11326
911.145	11227
911.259	11220
911.374	11273
911.489	11132
911.604	11105
911.718	10923
911.833	11006
911.947	10831
912.062	10820
912.176	10904
912.291	11010
912.405	10923
912.519	11136
912.633	11170
912.748	10991
912.862	11041
912.976	10866
913.09	10729
913.204	10774
913.318	10835
913.431	10961
913.545	10946
913.659	10980
913.772	10858
913.886	10729
914	10736
914.113	10843
914.226	10862
914.34	10839
914.453	10664
914.566	10793
914.68	10683
914.793	10622
914.906	10550
915.019	10470
915.132	10402
915.245	10489
915.358	10432
915.47	10428
915.583	10565
915.696	10512
915.809	10618
915.921	10618
916.034	10443
916.146	10390
916.259	10398
916.371	10519
916.483	10485
916.595	10417
916.708	10451
916.82	10443
916.932	10382
917.044	10280
917.156	10322
917.268	10249
917.38	10246
917.491	10310
917.603	10329
917.715	10398
917.826	10447
917.938	10227
918.049	10230
918.161	10204
918.272	10478
918.384	10390
918.495	10257
918.606	10215
918.717	10139
918.828	10230
918.939	10242
919.05	10055
919.161	10211
919.272	9991
919.383	10059
919.494	10299
919.604	10356
919.715	10215
919.826	10101
919.936	10105
920.047	10227
920.157	10257
920.267	10386
920.378	10227
920.488	10227
920.598	10314
920.708	10584
920.818	10390
920.928	10325
921.038	10512
921.148	10550
921.258	10234
921.368	10082
921.477	10120
921.587	10071
921.697	9956
921.806	10105
921.916	9876
922.025	9827
922.134	9720
922.244	9671
922.353	9781
922.462	9660
922.571	9557
922.68	9469
922.789	9424
922.898	9485
923.007	9428
923.116	9443
923.224	9454
923.333	9416
923.442	9359
923.55	9306
923.659	9340
923.767	9386
923.876	9268
923.984	9317
924.092	9203
924.201	9275
924.309	9336
924.417	9351
924.525	9218
924.633	9275
924.741	9991
924.849	9112
924.956	9237
925.064	9043
925.172	8990
925.279	9058
925.387	9062
925.494	9066
925.602	9226
925.709	9195
925.816	9058
925.924	9077
926.031	9214
926.138	9093
926.245	9127
926.352	9089
926.459	9184
926.566	9218
926.673	9093
926.779	8929
926.886	8914
926.993	8887
927.099	8788
927.206	8792
927.312	8788
927.419	8868
927.525	8769
927.631	8842
927.737	8815
927.843	8705
927.95	8583
928.056	8727
928.162	8705
928.267	8735
928.373	9378
928.479	8826
928.585	8541
928.69	8701
928.796	8739
928.901	8613
929.007	8473
929.112	8682
929.218	8655
929.323	8518
929.428	8530
929.533	8594
929.638	8556
929.743	8526
929.848	8610
929.953	8450
930.058	8480
930.163	8248
930.267	8362
930.372	8492
930.477	8309
930.581	8552
930.685	8347
930.79	8237
930.894	8332
930.998	8237
931.103	8370
931.207	8065
931.311	7997
931.415	7967
931.519	7765
931.623	7731
