Data from test_V78500241_3074.txt Node
Date: Fri Mar 25 14:55:07 CST 2022
User: usil
Spectrometer: V785-0024
Trigger mode: 0
Integration Time (sec): 4.000000E-1
Scans to average: 1
Nonlinearity correction enabled: false
Boxcar width: 0
Storing dark spectrum: false
XAxis mode: Wavelengths
Number of Pixels in Spectrum: 1024
>>>>>Begin Spectral Data<<<<<
801.071	22006
801.214	22025
801.356	21671
801.499	21580
801.641	21393
801.783	21412
801.926	21393
802.068	21325
802.211	21363
802.353	21119
802.496	21085
802.638	20937
802.78	20948
802.923	20960
803.065	20754
803.208	20590
803.35	20823
803.492	20845
803.635	20925
803.777	20807
803.919	20807
804.061	21142
804.204	20941
804.346	20571
804.488	20686
804.63	20674
804.773	20735
804.915	20651
805.057	20838
805.199	20674
805.341	20716
805.483	20686
805.626	20838
805.768	20682
805.91	20750
806.052	20762
806.194	20533
806.336	20743
806.478	20705
806.62	20606
806.762	20678
806.904	20891
807.046	21108
807.188	21013
807.33	20960
807.472	21081
807.614	20906
807.756	20975
807.898	20902
808.04	20739
808.182	20762
808.324	20769
808.465	20868
808.607	20963
808.749	21062
808.891	21268
809.033	21321
809.174	21184
809.316	20933
809.458	21039
809.6	20990
809.741	21176
809.883	21165
810.025	21222
810.166	21180
810.308	21195
810.45	21161
810.591	21051
810.733	20807
810.875	20910
811.016	20720
811.158	20735
811.299	20864
811.441	21028
811.582	20967
811.724	20765
811.865	20895
812.007	20785
812.148	20823
812.29	20845
812.431	20960
812.573	21074
812.714	21188
812.855	21313
812.997	21401
813.138	21526
813.279	21397
813.421	21431
813.562	21321
813.703	21093
813.845	21055
813.986	20659
814.127	20526
814.268	20412
814.41	20347
814.551	20396
814.692	20351
814.833	20305
814.974	20332
815.115	20415
815.256	20206
815.397	20195
815.539	20058
815.68	20092
815.821	20031
815.962	19989
816.103	20176
816.244	20001
816.385	19852
816.526	19871
816.666	19647
816.807	19430
816.948	19586
817.089	19616
817.23	19495
817.371	19438
817.512	19529
817.653	19597
817.793	19441
817.934	19552
818.075	19460
818.216	19624
818.356	19472
818.497	19270
818.638	19187
818.778	19198
818.919	19156
819.06	19187
819.2	19350
819.341	19453
819.481	19381
819.622	19476
819.762	19738
819.903	19639
820.043	19601
820.184	19369
820.324	19472
820.465	19586
820.605	19441
820.746	19460
820.886	19217
821.026	19346
821.167	19407
821.307	19571
821.447	19514
821.588	19422
821.728	19168
821.868	19050
822.008	18806
822.149	18985
822.289	18772
822.429	18620
822.569	18544
822.709	18517
822.849	18342
822.99	18296
823.13	18376
823.27	18441
823.41	18254
823.55	18220
823.69	18251
823.83	18228
823.97	18155
824.11	17950
824.25	17977
824.389	18030
824.529	17984
824.669	17935
824.809	18026
824.949	18053
825.089	17923
825.228	17935
825.368	17718
825.508	17760
825.648	17760
825.787	17790
825.927	17756
826.067	17805
826.206	17649
826.346	17783
826.485	17809
826.625	17630
826.765	17783
826.904	17680
827.044	17459
827.183	17509
827.323	17349
827.462	17562
827.601	17433
827.741	17337
827.88	17448
828.02	17364
828.159	17406
828.298	17452
828.437	17337
828.577	17368
828.716	17486
828.855	17455
828.994	17094
829.134	17121
829.273	17235
829.412	16995
829.551	17124
829.69	17181
829.829	17212
829.968	17174
830.107	17261
830.246	17220
830.385	17075
830.524	17109
830.663	16957
830.802	16889
830.941	16733
831.08	16759
831.219	16896
831.357	16873
831.496	16976
831.635	16736
831.774	16691
831.913	16679
832.051	16618
832.19	16592
832.329	16527
832.467	16497
832.606	16253
832.744	16337
832.883	16440
833.022	16382
833.16	16504
833.299	16474
833.437	16485
833.576	16436
833.714	16462
833.852	16394
833.991	16504
834.129	16618
834.267	16489
834.406	16542
834.544	16516
834.682	16569
834.821	16466
834.959	16645
835.097	16402
835.235	16694
835.373	16618
835.511	16573
835.65	16379
835.788	16417
835.926	16272
836.064	16234
836.202	16246
836.34	16428
836.478	16447
836.615	16322
836.753	16421
836.891	16436
837.029	16394
837.167	16409
837.305	16318
837.443	16257
837.58	16253
837.718	16333
837.856	16306
837.993	16291
838.131	16253
838.269	16143
838.406	16188
838.544	16158
838.681	15964
838.819	15899
838.956	15816
839.094	15850
839.231	15827
839.369	16029
839.506	16314
839.643	16131
839.781	15816
839.918	15827
840.055	15797
840.193	15808
840.33	15797
840.467	15838
840.604	15789
840.742	16093
840.879	15614
841.016	15759
841.153	15675
841.29	15941
841.427	15854
841.564	15846
841.701	15808
841.838	15759
841.975	15770
842.112	15625
842.249	15564
842.385	15523
842.522	15793
842.659	15701
842.796	15545
842.933	15507
843.069	15549
843.206	15431
843.343	15557
843.479	15614
843.616	15606
843.752	15401
843.889	15325
844.025	15500
844.162	15443
844.298	15389
844.435	15332
844.571	15260
844.708	15363
844.844	15462
844.98	15534
845.117	15485
845.253	15252
845.389	15252
845.525	15272
845.661	15294
845.798	15214
845.934	15233
846.07	15207
846.206	15180
846.342	15256
846.478	15142
846.614	14990
846.75	14998
846.886	14849
847.022	15001
847.158	14845
847.294	14910
847.429	15089
847.565	14891
847.701	15222
847.837	14769
847.972	14686
848.108	14792
848.244	14689
848.379	14552
848.515	14488
848.65	14507
848.786	14598
848.921	14556
849.057	14720
849.192	14708
849.328	14579
849.463	14526
849.598	14503
849.734	14461
849.869	14389
850.004	14294
850.14	14381
850.275	14385
850.41	14221
850.545	14324
850.68	14393
850.815	14336
850.95	14282
851.085	14488
851.22	14434
851.355	14309
851.49	14263
851.625	14290
851.76	14317
851.895	14176
852.03	14214
852.165	14275
852.299	14332
852.434	14408
852.569	14381
852.703	14347
852.838	14347
852.973	14465
853.107	14480
853.242	14244
853.376	14168
853.511	14031
853.645	14077
853.78	14275
853.914	14153
854.048	14153
854.183	14096
854.317	14077
854.451	14351
854.585	14115
854.72	14126
854.854	14301
854.988	14107
855.122	14199
855.256	14035
855.39	14081
855.524	14259
855.658	14309
855.792	14145
855.926	14187
856.06	14210
856.194	14282
856.327	14161
856.461	14100
856.595	14123
856.729	14214
856.862	14278
856.996	14240
857.13	14252
857.263	14313
857.397	14263
857.53	14199
857.664	14233
857.797	14221
857.931	14240
858.064	14172
858.197	14381
858.331	14191
858.464	14115
858.597	14107
858.731	14214
858.864	14145
858.997	14115
859.13	14218
859.263	14214
859.396	14267
859.529	14107
859.662	14164
859.795	14092
859.928	14187
860.061	14358
860.194	14389
860.327	14149
860.46	14210
860.592	14218
860.725	14298
860.858	14301
860.99	14172
861.123	14115
861.256	14115
861.388	14172
861.521	14826
861.653	14138
861.786	14043
861.918	14031
862.05	14149
862.183	14157
862.315	14157
862.447	14218
862.58	14149
862.712	14024
862.844	13917
862.976	14039
863.108	13951
863.24	14271
863.372	13936
863.504	13811
863.636	13955
863.768	14031
863.9	13955
864.032	13963
864.164	13986
864.296	13997
864.428	14054
864.559	14088
864.691	13978
864.823	14035
864.954	13970
865.086	13970
865.217	13963
865.349	13913
865.48	13970
865.612	13959
865.743	14126
865.875	13932
866.006	13868
866.137	13860
866.269	14054
866.4	13982
866.531	13925
866.662	13822
866.793	13871
866.924	13917
867.055	13959
867.186	13970
867.317	13894
867.448	13902
867.579	13833
867.71	13864
867.841	13799
867.972	13940
868.103	13925
868.233	13993
868.364	14012
868.495	14008
868.625	14103
868.756	14237
868.886	14027
869.017	14183
869.147	14290
869.278	14339
869.408	14164
869.539	14134
869.669	14339
869.799	14195
869.929	14240
870.06	14256
870.19	14583
870.32	14438
870.45	14469
870.58	14636
870.71	14674
870.84	14670
870.97	14503
871.1	14499
871.23	14682
871.36	14769
871.489	14678
871.619	14811
871.749	14853
871.879	14906
872.008	14971
872.138	14918
872.267	14800
872.397	14575
872.526	14636
872.656	14644
872.785	14606
872.915	14773
873.044	14891
873.173	14785
873.303	14910
873.432	14868
873.561	15005
873.69	14819
873.819	14853
873.948	14937
874.077	14887
874.206	14769
874.335	14876
874.464	14929
874.593	15207
874.722	15070
874.851	15287
874.979	15199
875.108	15245
875.237	15123
875.365	15192
875.494	15066
875.623	15291
875.751	15169
875.88	15150
876.008	15317
876.136	15473
876.265	15625
876.393	15644
876.521	15698
876.65	15587
876.778	15610
876.906	15591
877.034	15534
877.162	15507
877.29	15523
877.418	15599
877.546	15637
877.674	15519
877.802	15656
877.93	15542
878.058	15557
878.185	15496
878.313	15610
878.441	15526
878.568	15431
878.696	15473
878.824	15557
878.951	15660
879.079	15766
879.206	15888
879.333	15800
879.461	15663
879.588	15736
879.715	15831
879.842	15861
879.97	15641
880.097	15458
880.224	15431
880.351	15401
880.478	15351
880.605	15435
880.732	15393
880.859	15679
880.986	15496
881.112	15542
881.239	15310
881.366	15245
881.493	15085
881.619	15085
881.746	15009
881.872	15070
881.999	15043
882.125	15005
882.252	15077
882.378	15089
882.505	15291
882.631	15077
882.757	14971
882.883	14979
883.01	14902
883.136	14792
883.262	14686
883.388	14686
883.514	14937
883.64	14883
883.766	14853
883.892	14724
884.018	14758
884.143	14902
884.269	14952
884.395	14655
884.52	14514
884.646	14651
884.772	14602
884.897	14518
885.023	14606
885.148	14765
885.274	14765
885.399	14769
885.524	14667
885.65	14598
885.775	14746
885.9	14522
886.025	14701
886.15	14678
886.275	14602
886.4	14552
886.525	14545
886.65	14507
886.775	14518
886.9	14781
887.025	14857
887.149	14602
887.274	14396
887.399	14438
887.523	14393
887.648	14317
887.773	14339
887.897	14450
888.021	14454
888.146	14389
888.27	14495
888.395	14511
888.519	14419
888.643	14499
888.767	14522
888.891	14351
889.015	14206
889.139	14305
889.263	14256
889.387	14355
889.511	14492
889.635	14431
889.759	14343
889.883	14240
890.006	14377
890.13	14431
890.254	14183
890.377	14358
890.501	14111
890.624	14046
890.748	14206
890.871	14134
890.995	13951
891.118	13936
891.241	13993
891.364	13932
891.488	14210
891.611	13970
891.734	13959
891.857	14020
891.98	14050
892.103	13997
892.226	14035
892.349	14024
892.471	13898
892.594	13997
892.717	13951
892.839	13982
892.962	14020
893.085	14031
893.207	13997
893.33	13959
893.452	13902
893.575	14103
893.697	14058
893.819	14202
893.941	14244
894.064	14168
894.186	13974
894.308	13890
894.43	14107
894.552	14172
894.674	14111
894.796	14008
894.918	14031
895.04	14024
895.161	14096
895.283	14195
895.405	14054
895.526	14084
895.648	14027
895.769	14153
895.891	14164
896.012	14161
896.134	14153
896.255	14077
896.376	14149
896.498	14176
896.619	14073
896.74	14240
896.861	14191
896.982	14507
897.103	14750
897.224	14408
897.345	14385
897.466	14408
897.587	14469
897.708	14549
897.828	14492
897.949	14313
898.07	14301
898.19	14362
898.311	14522
898.431	14415
898.552	14480
898.672	14587
898.792	14590
898.913	14583
899.033	14488
899.153	14408
899.273	14305
899.393	14309
899.513	14412
899.633	14377
899.753	14419
899.873	14438
899.993	14484
900.113	14301
900.232	14492
900.352	14309
900.472	14351
900.591	14206
900.711	14248
900.83	14214
900.95	14320
901.069	14385
901.189	14214
901.308	14088
901.427	14027
901.546	13849
901.665	14024
901.784	14016
901.904	13868
902.023	13765
902.141	13567
902.26	13449
902.379	13658
902.498	13430
902.617	13358
902.735	13567
902.854	13518
902.973	13438
903.091	13244
903.21	13259
903.328	13274
903.446	13213
903.565	13133
903.683	13084
903.801	13023
903.919	13122
904.038	13156
904.156	12913
904.274	12958
904.392	12894
904.51	12932
904.627	12848
904.745	12954
904.863	12989
904.981	12741
905.098	12593
905.216	12604
905.334	12642
905.451	12677
905.569	12494
905.686	12616
905.803	12589
905.921	12380
906.038	12437
906.155	12422
906.272	12315
906.389	12327
906.506	12159
906.623	12216
906.74	12079
906.857	12087
906.974	12091
907.091	12235
907.208	12182
907.324	12262
907.441	12022
907.557	11847
907.674	11958
907.79	11878
907.907	11904
908.023	11874
908.139	11977
908.256	11851
908.372	11863
908.488	11832
908.604	11699
908.72	11638
908.836	11657
908.952	11646
909.068	11748
909.184	11733
909.3	11688
909.415	11672
909.531	11688
909.647	11452
909.762	11532
909.878	11459
909.993	11429
910.108	11379
910.224	11372
910.339	11410
910.454	11387
910.57	11353
910.685	11235
910.8	11543
910.915	11493
911.03	11372
911.145	11189
911.259	11201
911.374	11132
911.489	11090
911.604	10984
911.718	10930
911.833	10934
911.947	10854
912.062	10797
912.176	10869
912.291	10835
912.405	10904
912.519	11117
912.633	11067
912.748	11014
912.862	10873
912.976	10767
913.09	10645
913.204	10717
913.318	10812
913.431	10908
913.545	10869
913.659	10892
913.772	10866
913.886	10675
914	10664
914.113	10752
914.226	10824
914.34	10714
914.453	10577
914.566	10759
914.68	10611
914.793	10596
914.906	10459
915.019	10318
915.132	10367
915.245	10386
915.358	10402
915.47	10371
915.583	10519
915.696	10474
915.809	10550
915.921	10565
916.034	10447
916.146	10344
916.259	10379
916.371	10432
916.483	10451
916.595	10329
916.708	10417
916.82	10337
916.932	10379
917.044	10318
917.156	10287
917.268	10211
917.38	10348
917.491	10246
917.603	10223
917.715	10356
917.826	10325
917.938	10238
918.049	10147
918.161	10230
918.272	10409
918.384	10341
918.495	10261
918.606	10207
918.717	10055
918.828	10158
918.939	10109
919.05	10116
919.161	10086
919.272	9934
919.383	10017
919.494	10112
919.604	10375
919.715	10173
919.826	10063
919.936	10112
920.047	10215
920.157	10116
920.267	10462
920.378	10207
920.488	10162
920.598	10306
920.708	10546
920.818	10325
920.928	10325
921.038	10497
921.148	10504
921.258	10211
921.368	10093
921.477	10059
921.587	10059
921.697	9972
921.806	10074
921.916	9915
922.025	9698
922.134	9774
922.244	9667
922.353	9770
922.462	9553
922.571	9568
922.68	9336
922.789	9344
922.898	9435
923.007	9306
923.116	9462
923.224	9416
923.333	9420
923.442	9359
923.55	9245
923.659	9351
923.767	9340
923.876	9279
923.984	9317
924.092	9283
924.201	9222
924.309	9256
924.417	9310
924.525	9165
924.633	9291
924.741	10181
924.849	9055
924.956	9157
925.064	9173
925.172	9009
925.279	9017
925.387	9138
925.494	9055
925.602	9127
925.709	9180
925.816	9055
925.924	9058
926.031	9176
926.138	9077
926.245	9135
926.352	8979
926.459	9047
926.566	9256
926.673	9020
926.779	8921
926.886	8971
926.993	8811
927.099	8724
927.206	8739
927.312	8678
927.419	8823
927.525	8781
927.631	8773
927.737	8716
927.843	8739
927.95	8629
928.056	8636
928.162	8705
928.267	8716
928.373	9195
928.479	8739
928.585	8533
928.69	8682
928.796	8773
928.901	8560
929.007	8442
929.112	8617
929.218	8602
929.323	8575
929.428	8552
929.533	8708
929.638	8488
929.743	8465
929.848	8507
929.953	8526
930.058	8370
930.163	8183
930.267	8267
930.372	8473
930.477	8244
930.581	8457
930.685	8374
930.79	8134
930.894	8240
930.998	8214
931.103	8294
931.207	8031
931.311	8001
931.415	7883
931.519	7685
931.623	7731
