Data from test_V78500241_2097.txt Node
Date: Fri Mar 25 14:48:18 CST 2022
User: usil
Spectrometer: V785-0024
Trigger mode: 0
Integration Time (sec): 4.000000E-1
Scans to average: 1
Nonlinearity correction enabled: false
Boxcar width: 0
Storing dark spectrum: false
XAxis mode: Wavelengths
Number of Pixels in Spectrum: 1024
>>>>>Begin Spectral Data<<<<<
801.071	22120
801.214	22013
801.356	21812
801.499	21591
801.641	21545
801.783	21420
801.926	21454
802.068	21408
802.211	21428
802.353	21287
802.496	21100
802.638	21081
802.78	20921
802.923	20868
803.065	20693
803.208	20823
803.35	20895
803.492	20986
803.635	20899
803.777	20773
803.919	20975
804.061	21173
804.204	20868
804.346	20804
804.488	20686
804.63	20899
804.773	20636
804.915	20838
805.057	20785
805.199	20678
805.341	20815
805.483	20952
805.626	20792
805.768	20712
805.91	20708
806.052	20796
806.194	20636
806.336	20944
806.478	20826
806.62	20648
806.762	20804
806.904	20941
807.046	21199
807.188	21062
807.33	21116
807.472	21116
807.614	20967
807.756	21070
807.898	20986
808.04	20678
808.182	20800
808.324	20876
808.465	20830
808.607	20967
808.749	21051
808.891	21291
809.033	21351
809.174	21222
809.316	21017
809.458	21096
809.6	21161
809.741	21310
809.883	21264
810.025	21344
810.166	21275
810.308	21298
810.45	21313
810.591	21131
810.733	21028
810.875	20902
811.016	20910
811.158	20796
811.299	20967
811.441	21062
811.582	20960
811.724	20845
811.865	20830
812.007	20800
812.148	20899
812.29	20868
812.431	21032
812.573	21245
812.714	21192
812.855	21344
812.997	21557
813.138	21625
813.279	21530
813.421	21447
813.562	21428
813.703	21317
813.845	21013
813.986	20826
814.127	20571
814.268	20503
814.41	20446
814.551	20457
814.692	20488
814.833	20454
814.974	20374
815.115	20419
815.256	20351
815.397	20301
815.539	20294
815.68	20084
815.821	20081
815.962	20225
816.103	20138
816.244	20001
816.385	19807
816.526	19921
816.666	19738
816.807	19495
816.948	19719
817.089	19761
817.23	19624
817.371	19616
817.512	19655
817.653	19533
817.793	19438
817.934	19521
818.075	19696
818.216	19655
818.356	19571
818.497	19327
818.638	19126
818.778	19297
818.919	19255
819.06	19274
819.2	19365
819.341	19483
819.481	19449
819.622	19651
819.762	19765
819.903	19757
820.043	19651
820.184	19674
820.324	19594
820.465	19533
820.605	19502
820.746	19476
820.886	19354
821.026	19438
821.167	19521
821.307	19537
821.447	19464
821.588	19411
821.728	19221
821.868	19053
822.008	18977
822.149	18951
822.289	18916
822.429	18703
822.569	18673
822.709	18642
822.849	18426
822.99	18498
823.13	18483
823.27	18407
823.41	18334
823.55	18251
823.69	18254
823.83	18216
823.97	18262
824.11	17988
824.25	17999
824.389	17965
824.529	18068
824.669	18087
824.809	18117
824.949	18155
825.089	18007
825.228	18003
825.368	17775
825.508	17923
825.648	17828
825.787	17893
825.927	17855
826.067	17665
826.206	17882
826.346	17695
826.485	17821
826.625	17733
826.765	17828
826.904	17882
827.044	17619
827.183	17581
827.323	17459
827.462	17646
827.601	17577
827.741	17554
827.88	17558
828.02	17493
828.159	17509
828.298	17493
828.437	17566
828.577	17387
828.716	17573
828.855	17459
828.994	17368
829.134	17299
829.273	17410
829.412	17174
829.551	17242
829.69	17204
829.829	17349
829.968	17303
830.107	17292
830.246	17231
830.385	17140
830.524	17102
830.663	17113
830.802	17037
830.941	16866
831.08	16812
831.219	16987
831.357	16919
831.496	17136
831.635	16801
831.774	16725
831.913	16744
832.051	16664
832.19	16668
832.329	16763
832.467	16500
832.606	16527
832.744	16535
832.883	16500
833.022	16626
833.16	16538
833.299	16607
833.437	16584
833.576	16573
833.714	16485
833.852	16660
833.991	16675
834.129	16668
834.267	16721
834.406	16584
834.544	16645
834.682	16599
834.821	16561
834.959	16755
835.097	16569
835.235	16729
835.373	16630
835.511	16706
835.65	16596
835.788	16504
835.926	16375
836.064	16276
836.202	16436
836.34	16569
836.478	16607
836.615	16405
836.753	16493
836.891	16675
837.029	16641
837.167	16462
837.305	16421
837.443	16382
837.58	16481
837.718	16443
837.856	16466
837.993	16382
838.131	16421
838.269	16322
838.406	16306
838.544	16238
838.681	16032
838.819	16090
838.956	15934
839.094	15918
839.231	15991
839.369	16078
839.506	16303
839.643	16219
839.781	16036
839.918	15930
840.055	15968
840.193	15865
840.33	15850
840.467	16051
840.604	15854
840.742	16207
840.879	15892
841.016	15850
841.153	15804
841.29	16048
841.427	15911
841.564	16013
841.701	16032
841.838	15876
841.975	15926
842.112	15850
842.249	15766
842.385	15675
842.522	15922
842.659	15781
842.796	15686
842.933	15622
843.069	15720
843.206	15648
843.343	15671
843.479	15804
843.616	15778
843.752	15576
843.889	15595
844.025	15648
844.162	15538
844.298	15660
844.435	15477
844.571	15599
844.708	15591
844.844	15625
844.98	15637
845.117	15610
845.253	15439
845.389	15374
845.525	15416
845.661	15359
845.798	15317
845.934	15367
846.07	15298
846.206	15424
846.342	15431
846.478	15199
846.614	15169
846.75	14982
846.886	15097
847.022	15180
847.158	15173
847.294	15135
847.429	15150
847.565	15093
847.701	15325
847.837	14872
847.972	14773
848.108	14868
848.244	14819
848.379	14788
848.515	14697
848.65	14750
848.786	14735
848.921	14773
849.057	14735
849.192	14823
849.328	14727
849.463	14804
849.598	14648
849.734	14590
849.869	14526
850.004	14396
850.14	14488
850.275	14389
850.41	14328
850.545	14415
850.68	14438
850.815	14415
850.95	14446
851.085	14644
851.22	14518
851.355	14476
851.49	14530
851.625	14438
851.76	14484
851.895	14423
852.03	14290
852.165	14480
852.299	14488
852.434	14541
852.569	14476
852.703	14412
852.838	14564
852.973	14495
853.107	14636
853.242	14438
853.376	14374
853.511	14275
853.645	14347
853.78	14511
853.914	14362
854.048	14374
854.183	14317
854.317	14309
854.451	14541
854.585	14298
854.72	14355
854.854	14469
854.988	14278
855.122	14271
855.256	14119
855.39	14256
855.524	14389
855.658	14309
855.792	14400
855.926	14339
856.06	14446
856.194	14438
856.327	14286
856.461	14298
856.595	14320
856.729	14240
856.862	14385
856.996	14374
857.13	14499
857.263	14404
857.397	14450
857.53	14347
857.664	14381
857.797	14396
857.931	14385
858.064	14347
858.197	14347
858.331	14301
858.464	14305
858.597	14210
858.731	14370
858.864	14400
858.997	14290
859.13	14221
859.263	14347
859.396	14434
859.529	14199
859.662	14275
859.795	14259
859.928	14336
860.061	14400
860.194	14522
860.327	14377
860.46	14301
860.592	14385
860.725	14396
860.858	14495
860.99	14286
861.123	14183
861.256	14218
861.388	14199
861.521	14891
861.653	14195
861.786	14092
861.918	14225
862.05	14214
862.183	14324
862.315	14206
862.447	14351
862.58	14301
862.712	14138
862.844	13963
862.976	14187
863.108	14103
863.24	14431
863.372	14073
863.504	14054
863.636	14084
863.768	14153
863.9	14088
864.032	14016
864.164	14088
864.296	14172
864.428	14305
864.559	14157
864.691	14157
864.823	14218
864.954	14077
865.086	14176
865.217	14077
865.349	13978
865.48	14157
865.612	14100
865.743	14206
865.875	14172
866.006	14043
866.137	14100
866.269	14062
866.4	13974
866.531	14020
866.662	14016
866.793	14054
866.924	14103
867.055	14058
867.186	14073
867.317	14100
867.448	13932
867.579	14092
867.71	13974
867.841	14065
867.972	14115
868.103	14043
868.233	14043
868.364	14119
868.495	14119
868.625	14195
868.756	14454
868.886	14267
869.017	14320
869.147	14415
869.278	14431
869.408	14294
869.539	14309
869.669	14377
869.799	14366
869.929	14503
870.06	14541
870.19	14686
870.32	14625
870.45	14640
870.58	14777
870.71	14819
870.84	14739
870.97	14708
871.1	14640
871.23	14785
871.36	14952
871.489	14815
871.619	14990
871.749	14899
871.879	14933
872.008	15112
872.138	14933
872.267	14979
872.397	14857
872.526	14849
872.656	14701
872.785	14792
872.915	14914
873.044	15013
873.173	14864
873.303	14998
873.432	15097
873.561	14982
873.69	14971
873.819	14979
873.948	14960
874.077	14975
874.206	14921
874.335	15024
874.464	15051
874.593	15298
874.722	15207
874.851	15294
874.979	15302
875.108	15355
875.237	15218
875.365	15173
875.494	15252
875.623	15412
875.751	15260
875.88	15329
876.008	15393
876.136	15572
876.265	15747
876.393	15930
876.521	15857
876.65	15755
876.778	15633
876.906	15637
877.034	15686
877.162	15724
877.29	15637
877.418	15766
877.546	15652
877.674	15709
877.802	15694
877.93	15595
878.058	15603
878.185	15568
878.313	15724
878.441	15774
878.568	15622
878.696	15603
878.824	15789
878.951	15793
879.079	15816
879.206	16013
879.333	15819
879.461	15739
879.588	15736
879.715	15865
879.842	16029
879.97	15743
880.097	15545
880.224	15469
880.351	15568
880.478	15557
880.605	15584
880.732	15435
880.859	15797
880.986	15614
881.112	15561
881.239	15450
881.366	15306
881.493	15298
881.619	15207
881.746	15123
881.872	15237
881.999	15237
882.125	15245
882.252	15332
882.378	15302
882.505	15329
882.631	15127
882.757	15112
882.883	15093
883.01	15104
883.136	15024
883.262	14948
883.388	14887
883.514	15047
883.64	15039
883.766	14994
883.892	14792
884.018	14906
884.143	15100
884.269	15043
884.395	14826
884.52	14720
884.646	14788
884.772	14720
884.897	14678
885.023	14739
885.148	14876
885.274	14941
885.399	14777
885.524	14800
885.65	14712
885.775	14781
885.9	14796
886.025	14788
886.15	14716
886.275	14697
886.4	14632
886.525	14724
886.65	14613
886.775	14667
886.9	14823
887.025	14925
887.149	14815
887.274	14590
887.399	14541
887.523	14488
887.648	14393
887.773	14484
887.897	14621
888.021	14659
888.146	14526
888.27	14617
888.395	14655
888.519	14560
888.643	14716
888.767	14693
888.891	14526
889.015	14336
889.139	14590
889.263	14355
889.387	14495
889.511	14610
889.635	14583
889.759	14415
889.883	14415
890.006	14427
890.13	14442
890.254	14393
890.377	14385
890.501	14286
890.624	14157
890.748	14301
890.871	14142
890.995	14077
891.118	14043
891.241	14183
891.364	14180
891.488	14195
891.611	14126
891.734	14161
891.857	14225
891.98	14142
892.103	14168
892.226	14267
892.349	14092
892.471	14043
892.594	14157
892.717	14218
892.839	14218
892.962	14145
893.085	14153
893.207	14210
893.33	13932
893.452	14065
893.575	14168
893.697	14172
893.819	14259
893.941	14374
894.064	14252
894.186	14065
894.308	14134
894.43	14256
894.552	14248
894.674	14317
894.796	14073
894.918	14187
895.04	14153
895.161	14317
895.283	14278
895.405	14202
895.526	14244
895.648	14244
895.769	14214
895.891	14328
896.012	14385
896.134	14328
896.255	14206
896.376	14199
896.498	14320
896.619	14366
896.74	14317
896.861	14332
896.982	14648
897.103	14750
897.224	14648
897.345	14469
897.466	14419
897.587	14476
897.708	14632
897.828	14587
897.949	14518
898.07	14362
898.19	14461
898.311	14769
898.431	14537
898.552	14754
898.672	14727
898.792	14735
898.913	14727
899.033	14640
899.153	14571
899.273	14423
899.393	14518
899.513	14514
899.633	14530
899.753	14514
899.873	14473
899.993	14560
900.113	14526
900.232	14530
900.352	14530
900.472	14366
900.591	14286
900.711	14400
900.83	14343
900.95	14442
901.069	14461
901.189	14275
901.308	14119
901.427	14084
901.546	14054
901.665	14016
901.784	14092
901.904	13932
902.023	13818
902.141	13639
902.26	13620
902.379	13750
902.498	13586
902.617	13540
902.735	13620
902.854	13552
902.973	13525
903.091	13289
903.21	13339
903.328	13388
903.446	13202
903.565	13171
903.683	13221
903.801	13023
903.919	13168
904.038	13202
904.156	13076
904.274	13110
904.392	12951
904.51	12935
904.627	13072
904.745	12977
904.863	13057
904.981	12859
905.098	12642
905.216	12669
905.334	12779
905.451	12711
905.569	12741
905.686	12707
905.803	12726
905.921	12570
906.038	12719
906.155	12475
906.272	12395
906.389	12384
906.506	12311
906.623	12308
906.74	12300
906.857	12129
906.974	12220
907.091	12376
907.208	12426
907.324	12407
907.441	12220
907.557	12019
907.674	11889
907.79	11939
907.907	12007
908.023	11999
908.139	12049
908.256	11999
908.372	11954
908.488	11874
908.604	11802
908.72	11638
908.836	11748
908.952	11783
909.068	11821
909.184	11866
909.3	11809
909.415	11805
909.531	11828
909.647	11581
909.762	11535
909.878	11604
909.993	11570
910.108	11497
910.224	11505
910.339	11566
910.454	11395
910.57	11383
910.685	11353
910.8	11623
910.915	11589
911.03	11417
911.145	11250
911.259	11246
911.374	11231
911.489	11170
911.604	11121
911.718	11132
911.833	10980
911.947	10877
912.062	10854
912.176	11006
912.291	10995
912.405	11033
912.519	11235
912.633	11246
912.748	11090
912.862	11075
912.976	10965
913.09	10797
913.204	10854
913.318	10908
913.431	11041
913.545	11056
913.659	10984
913.772	10889
913.886	10782
914	10763
914.113	10889
914.226	10820
914.34	10812
914.453	10687
914.566	10877
914.68	10752
914.793	10668
914.906	10481
915.019	10474
915.132	10451
915.245	10443
915.358	10535
915.47	10531
915.583	10542
915.696	10554
915.809	10622
915.921	10596
916.034	10527
916.146	10428
916.259	10466
916.371	10611
916.483	10538
916.595	10424
916.708	10436
916.82	10538
916.932	10421
917.044	10375
917.156	10432
917.268	10405
917.38	10341
917.491	10261
917.603	10291
917.715	10527
917.826	10523
917.938	10303
918.049	10276
918.161	10325
918.272	10443
918.384	10470
918.495	10371
918.606	10128
918.717	10131
918.828	10204
918.939	10295
919.05	10124
919.161	10223
919.272	10078
919.383	10101
919.494	10253
919.604	10417
919.715	10272
919.826	10116
919.936	10257
920.047	10287
920.157	10249
920.267	10371
920.378	10306
920.488	10280
920.598	10459
920.708	10573
920.818	10497
920.928	10363
921.038	10653
921.148	10588
921.258	10272
921.368	10177
921.477	10116
921.587	10074
921.697	9994
921.806	10116
921.916	9979
922.025	9842
922.134	9804
922.244	9762
922.353	9869
922.462	9747
922.571	9587
922.68	9500
922.789	9481
922.898	9549
923.007	9469
923.116	9534
923.224	9492
923.333	9481
923.442	9344
923.55	9363
923.659	9325
923.767	9504
923.876	9397
923.984	9450
924.092	9340
924.201	9332
924.309	9389
924.417	9378
924.525	9287
924.633	9256
924.741	10341
924.849	9150
924.956	9176
925.064	9108
925.172	9085
925.279	9157
925.387	9154
925.494	9127
925.602	9310
925.709	9279
925.816	9089
925.924	9138
926.031	9226
926.138	9093
926.245	9226
926.352	9108
926.459	9138
926.566	9237
926.673	9157
926.779	9024
926.886	8998
926.993	8868
927.099	8811
927.206	8785
927.312	8773
927.419	8975
927.525	8819
927.631	8918
927.737	8758
927.843	8762
927.95	8659
928.056	8743
928.162	8678
928.267	8823
928.373	9424
928.479	8845
928.585	8571
928.69	8807
928.796	8823
928.901	8667
929.007	8556
929.112	8720
929.218	8625
929.323	8655
929.428	8545
929.533	8678
929.638	8537
929.743	8545
929.848	8632
929.953	8537
930.058	8446
930.163	8294
930.267	8396
930.372	8454
930.477	8298
930.581	8518
930.685	8396
930.79	8252
930.894	8305
930.998	8229
931.103	8393
931.207	8119
931.311	8043
931.415	7940
931.519	7765
931.623	7883
