Data from test_V78500241_833.txt Node
Date: Fri Mar 25 14:39:31 CST 2022
User: usil
Spectrometer: V785-0024
Trigger mode: 0
Integration Time (sec): 4.000000E-1
Scans to average: 1
Nonlinearity correction enabled: false
Boxcar width: 0
Storing dark spectrum: false
XAxis mode: Wavelengths
Number of Pixels in Spectrum: 1024
>>>>>Begin Spectral Data<<<<<
801.071	26161
801.214	25982
801.356	25746
801.499	25563
801.641	25605
801.783	25476
801.926	25403
802.068	25453
802.211	25381
802.353	25282
802.496	25034
802.638	24962
802.78	24890
802.923	24749
803.065	24741
803.208	24894
803.35	24920
803.492	25057
803.635	25038
803.777	24981
803.919	25118
804.061	25426
804.204	25057
804.346	25034
804.488	24954
804.63	25038
804.773	25076
804.915	25114
805.057	25293
805.199	25202
805.341	25430
805.483	25365
805.626	25384
805.768	25381
805.91	25483
806.052	25540
806.194	25491
806.336	25822
806.478	25814
806.62	25970
806.762	26161
806.904	26625
807.046	26914
807.188	27024
807.33	27313
807.472	27732
807.614	28097
807.756	28801
807.898	29414
808.04	30239
808.182	31590
808.324	33226
808.465	35067
808.607	37316
808.749	39279
808.891	40344
809.033	40474
809.174	39233
809.316	37506
809.458	35288
809.6	33135
809.741	31445
809.883	29939
810.025	29204
810.166	28466
810.308	27892
810.45	27507
810.591	27195
810.733	26731
810.875	26511
811.016	26278
811.158	26145
811.299	26210
811.441	26195
811.582	25966
811.724	25757
811.865	25750
812.007	25582
812.148	25677
812.29	25696
812.431	25769
812.573	25966
812.714	25826
812.855	25841
812.997	25974
813.138	26168
813.279	25932
813.421	25795
813.562	25791
813.703	25597
813.845	25365
813.986	25088
814.127	25012
814.268	24681
814.41	24833
814.551	24738
814.692	24661
814.833	24642
814.974	24669
815.115	24639
815.256	24445
815.397	24426
815.539	24429
815.68	24372
815.821	24292
815.962	24182
816.103	24117
816.244	24125
816.385	23942
816.526	23954
816.666	23832
816.807	23653
816.948	23729
817.089	23714
817.23	23714
817.371	23604
817.512	23646
817.653	23497
817.793	23516
817.934	23581
818.075	23497
818.216	23543
818.356	23452
818.497	23459
818.638	23197
818.778	23315
818.919	23296
819.06	23307
819.2	23543
819.341	23467
819.481	23467
819.622	23551
819.762	23786
819.903	23699
820.043	23592
820.184	23421
820.324	23433
820.465	23570
820.605	23467
820.746	23516
820.886	23174
821.026	23368
821.167	23440
821.307	23482
821.447	23235
821.588	23288
821.728	22987
821.868	22949
822.008	22843
822.149	22809
822.289	22748
822.429	22455
822.569	22421
822.709	22352
822.849	22238
822.99	22181
823.13	22044
823.27	22006
823.41	21945
823.55	21869
823.69	22010
823.83	22135
823.97	21975
824.11	21797
824.25	21709
824.389	21770
824.529	21770
824.669	21728
824.809	21903
824.949	21823
825.089	21850
825.228	21633
825.368	21629
825.508	21561
825.648	21519
825.787	21523
825.927	21663
826.067	21515
826.206	21481
826.346	21466
826.485	21660
826.625	21500
826.765	21625
826.904	21458
827.044	21412
827.183	21291
827.323	21081
827.462	21192
827.601	21173
827.741	21127
827.88	21211
828.02	21123
828.159	21230
828.298	21074
828.437	21165
828.577	21154
828.716	21313
828.855	21211
828.994	20823
829.134	20773
829.273	20994
829.412	20823
829.551	20773
829.69	20769
829.829	20861
829.968	20895
830.107	20891
830.246	20807
830.385	20876
830.524	20720
830.663	20659
830.802	20579
830.941	20366
831.08	20423
831.219	20522
831.357	20503
831.496	20781
831.635	20526
831.774	20461
831.913	20423
832.051	20294
832.19	20339
832.329	20278
832.467	20336
832.606	20229
832.744	20176
832.883	20404
833.022	20377
833.16	20332
833.299	20469
833.437	20571
833.576	20678
833.714	20724
833.852	20800
833.991	20963
834.129	21028
834.267	20979
834.406	20830
834.544	20838
834.682	20754
834.821	20659
834.959	20823
835.097	20492
835.235	20564
835.373	20431
835.511	20431
835.65	20202
835.788	20309
835.926	20039
836.064	19887
836.202	19997
836.34	20065
836.478	20225
836.615	19951
836.753	19989
836.891	20092
837.029	19986
837.167	19871
837.305	19951
837.443	19883
837.58	19852
837.718	19849
837.856	19856
837.993	19769
838.131	19818
838.269	19670
838.406	19788
838.544	19639
838.681	19426
838.819	19430
838.956	19289
839.094	19312
839.231	19285
839.369	19445
839.506	19594
839.643	19491
839.781	19324
839.918	19190
840.055	19270
840.193	19274
840.33	19316
840.467	19160
840.604	19168
840.742	19480
840.879	19050
841.016	19042
841.153	19175
841.29	19308
841.427	19221
841.564	19247
841.701	19148
841.838	19145
841.975	19152
842.112	19095
842.249	19012
842.385	18943
842.522	19183
842.659	19038
842.796	19050
842.933	18932
843.069	19031
843.206	19129
843.343	19084
843.479	19148
843.616	19187
843.752	18829
843.889	18939
844.025	19221
844.162	19091
844.298	19308
844.435	19164
844.571	19339
844.708	19597
844.844	19772
844.98	20016
845.117	20507
845.253	20918
845.389	22055
845.525	24209
845.661	27751
845.798	31986
845.934	35551
846.07	36840
846.206	36235
846.342	33287
846.478	29041
846.614	25110
846.75	22763
846.886	21062
847.022	20351
847.158	19715
847.294	19285
847.429	19084
847.565	18791
847.701	19023
847.837	18426
847.972	18353
848.108	18243
848.244	18391
848.379	18205
848.515	17939
848.65	18019
848.786	18064
848.921	17946
849.057	18106
849.192	17988
849.328	17946
849.463	17920
849.598	17901
849.734	17901
849.869	17832
850.004	17672
850.14	17741
850.275	17627
850.41	17566
850.545	17600
850.68	17699
850.815	17771
850.95	17672
851.085	17691
851.22	17771
851.355	17714
851.49	17566
851.625	17577
851.76	17657
851.895	17589
852.03	17474
852.165	17604
852.299	17684
852.434	17657
852.569	17680
852.703	17676
852.838	17752
852.973	17897
853.107	17870
853.242	17653
853.376	17589
853.511	17684
853.645	17615
853.78	17847
853.914	17691
854.048	17691
854.183	17714
854.317	17733
854.451	17908
854.585	17756
854.72	17760
854.854	17726
854.988	17585
855.122	17707
855.256	17532
855.39	17657
855.524	17760
855.658	17619
855.792	17608
855.926	17703
856.06	17524
856.194	17615
856.327	17493
856.461	17436
856.595	17497
856.729	17444
856.862	17570
856.996	17448
857.13	17554
857.263	17608
857.397	17558
857.53	17425
857.664	17539
857.797	17471
857.931	17436
858.064	17387
858.197	17566
858.331	17364
858.464	17379
858.597	17250
858.731	17387
858.864	17383
858.997	17410
859.13	17299
859.263	17364
859.396	17474
859.529	17345
859.662	17379
859.795	17330
859.928	17398
860.061	17554
860.194	17497
860.327	17356
860.46	17364
860.592	17471
860.725	17471
860.858	17535
860.99	17349
861.123	17269
861.256	17311
861.388	17288
861.521	17916
861.653	17174
861.786	17174
861.918	17140
862.05	17299
862.183	17353
862.315	17440
862.447	17368
862.58	17360
862.712	17018
862.844	17003
862.976	17140
863.108	17060
863.24	17330
863.372	17045
863.504	17045
863.636	17048
863.768	17060
863.9	17094
864.032	17025
864.164	17014
864.296	17094
864.428	17140
864.559	17128
864.691	17200
864.823	17033
864.954	17018
865.086	17086
865.217	17056
865.349	16923
865.48	17052
865.612	16991
865.743	17121
865.875	17037
866.006	16995
866.137	17037
866.269	16987
866.4	17056
866.531	16911
866.662	16995
866.793	16900
866.924	16930
867.055	16980
867.186	17003
867.317	16915
867.448	16850
867.579	16866
867.71	16843
867.841	16771
867.972	16953
868.103	16961
868.233	17090
868.364	16980
868.495	17048
868.625	17315
868.756	17311
868.886	17159
869.017	17242
869.147	17288
869.278	17261
869.408	17223
869.539	17216
869.669	17277
869.799	17273
869.929	17410
870.06	17402
870.19	17623
870.32	17558
870.45	17608
870.58	17638
870.71	17866
870.84	17733
870.97	17676
871.1	17638
871.23	17737
871.36	17840
871.489	17855
871.619	17790
871.749	17885
871.879	17897
872.008	18030
872.138	17916
872.267	17901
872.397	17817
872.526	17802
872.656	17729
872.785	17889
872.915	18011
873.044	18133
873.173	18098
873.303	18133
873.432	18205
873.561	18136
873.69	18239
873.819	18117
873.948	18216
874.077	18079
874.206	17969
874.335	18114
874.464	18270
874.593	18479
874.722	18353
874.851	18559
874.979	18498
875.108	18635
875.237	18555
875.365	18494
875.494	18620
875.623	18665
875.751	18570
875.88	18703
876.008	18783
876.136	18935
876.265	19175
876.393	19388
876.521	19289
876.65	19301
876.778	19335
876.906	19354
877.034	19320
877.162	19434
877.29	19384
877.418	19563
877.546	19590
877.674	19628
877.802	19807
877.93	19856
878.058	19909
878.185	19925
878.313	20168
878.441	20545
878.568	20568
878.696	20880
878.824	21641
878.951	22322
879.079	23356
879.206	24703
879.333	25879
879.461	27093
879.588	27804
879.715	27739
879.842	27370
879.97	26024
880.097	24376
880.224	23364
880.351	22694
880.478	22105
880.605	21614
880.732	21492
880.859	21595
880.986	21310
881.112	21203
881.239	21013
881.366	20857
881.493	20864
881.619	20830
881.746	20823
881.872	20800
881.999	20849
882.125	20785
882.252	20910
882.378	20948
882.505	21020
882.631	20815
882.757	20781
882.883	20712
883.01	20659
883.136	20617
883.262	20541
883.388	20549
883.514	20651
883.64	20701
883.766	20613
883.892	20476
884.018	20609
884.143	20678
884.269	20659
884.395	20556
884.52	20404
884.646	20461
884.772	20282
884.897	20294
885.023	20339
885.148	20343
885.274	20556
885.399	20427
885.524	20187
885.65	20206
885.775	20020
885.9	20035
886.025	19959
886.15	19883
886.275	19643
886.4	19480
886.525	19495
886.65	19514
886.775	19346
886.9	19521
887.025	19499
887.149	19282
887.274	19095
887.399	18973
887.523	18901
887.648	18875
887.773	18642
887.897	18802
888.021	18681
888.146	18555
888.27	18753
888.395	18658
888.519	18639
888.643	18604
888.767	18570
888.891	18292
889.015	18148
889.139	18353
889.263	18220
889.387	18292
889.511	18323
889.635	18338
889.759	18095
889.883	18095
890.006	18178
890.13	18201
890.254	17939
890.377	18030
890.501	17710
890.624	17783
890.748	17885
890.871	17722
890.995	17467
891.118	17471
891.241	17551
891.364	17417
891.488	17646
891.611	17459
891.734	17532
891.857	17543
891.98	17444
892.103	17570
892.226	17467
892.349	17395
892.471	17231
892.594	17292
892.717	17379
892.839	17265
892.962	17269
893.085	17292
893.207	17242
893.33	17140
893.452	17083
893.575	17292
893.697	17140
893.819	17322
893.941	17269
894.064	17239
894.186	17029
894.308	17045
894.43	17143
894.552	17181
894.674	17128
894.796	16965
894.918	16953
895.04	16999
895.161	17223
895.283	17075
895.405	16968
895.526	16957
895.648	17071
895.769	17018
895.891	17052
896.012	17029
896.134	17109
896.255	16919
896.376	16877
896.498	17083
896.619	16991
896.74	17052
896.861	17098
896.982	17345
897.103	17493
897.224	17288
897.345	17303
897.466	17170
897.587	17220
897.708	17277
897.828	17299
897.949	17223
898.07	17029
898.19	17105
898.311	17208
898.431	17170
898.552	17220
898.672	17307
898.792	17239
898.913	17307
899.033	17128
899.153	17056
899.273	16968
899.393	17071
899.513	17143
899.633	17033
899.753	17052
899.873	16980
899.993	17086
900.113	17048
900.232	17117
900.352	17033
900.472	16946
900.591	16816
900.711	16915
900.83	16858
900.95	16961
901.069	16881
901.189	16790
901.308	16630
901.427	16481
901.546	16508
901.665	16474
901.784	16497
901.904	16470
902.023	16200
902.141	16040
902.26	15968
902.379	16078
902.498	15998
902.617	15918
902.735	15998
902.854	15979
902.973	15861
903.091	15682
903.21	15675
903.328	15648
903.446	15564
903.565	15416
903.683	15336
903.801	15336
903.919	15450
904.038	15310
904.156	15313
904.274	15294
904.392	15218
904.51	15195
904.627	15237
904.745	15237
904.863	15211
904.981	14990
905.098	14887
905.216	14933
905.334	14982
905.451	14807
905.569	14826
905.686	14864
905.803	14876
905.921	14655
906.038	14720
906.155	14564
906.272	14674
906.389	14476
906.506	14374
906.623	14423
906.74	14351
906.857	14355
906.974	14225
907.091	14358
907.208	14465
907.324	14427
907.441	14313
907.557	14123
907.674	14058
907.79	13963
907.907	14058
908.023	14119
908.139	14134
908.256	13963
908.372	14043
908.488	13974
908.604	13807
908.72	13738
908.836	13856
908.952	13719
909.068	13849
909.184	13909
909.3	13757
909.415	13833
909.531	13818
909.647	13552
909.762	13605
909.878	13502
909.993	13643
910.108	13605
910.224	13483
910.339	13449
910.454	13464
910.57	13400
910.685	13255
910.8	13655
910.915	13521
911.03	13392
911.145	13304
911.259	13141
911.374	13228
911.489	13129
911.604	13057
911.718	12958
911.833	13072
911.947	12981
912.062	12719
912.176	12894
912.291	12886
912.405	13019
912.519	13114
912.633	13190
912.748	12993
912.862	12890
912.976	12734
913.09	12620
913.204	12715
913.318	12844
913.431	12871
913.545	12928
913.659	12886
913.772	12772
913.886	12646
914	12650
914.113	12719
914.226	12814
914.34	12677
914.453	12536
914.566	12711
914.68	12574
914.793	12604
914.906	12388
915.019	12372
915.132	12289
915.245	12426
915.358	12296
915.47	12429
915.583	12369
915.696	12464
915.809	12551
915.921	12578
916.034	12372
916.146	12254
916.259	12311
916.371	12433
916.483	12330
916.595	12251
916.708	12342
916.82	12289
916.932	12228
917.044	12308
917.156	12251
917.268	12190
917.38	12213
917.491	12057
917.603	12163
917.715	12213
917.826	12224
917.938	12235
918.049	12034
918.161	12060
918.272	12239
918.384	12232
918.495	12159
918.606	11935
918.717	11821
918.828	12041
918.939	11996
919.05	11878
919.161	11935
919.272	11710
919.383	11771
919.494	12095
919.604	12095
919.715	11988
919.826	11817
919.936	11866
920.047	11939
920.157	11882
920.267	12060
920.378	11958
920.488	11847
920.598	12121
920.708	12232
920.818	12098
920.928	12057
921.038	12243
921.148	12190
921.258	11904
921.368	11828
921.477	11745
921.587	11733
921.697	11604
921.806	11752
921.916	11608
922.025	11433
922.134	11417
922.244	11425
922.353	11387
922.462	11265
922.571	11189
922.68	10987
922.789	11109
922.898	11006
923.007	10957
923.116	11048
923.224	11025
923.333	11010
923.442	10927
923.55	10866
923.659	10942
923.767	10976
923.876	10839
923.984	10885
924.092	10793
924.201	10900
924.309	10869
924.417	10934
924.525	10729
924.633	10820
924.741	11798
924.849	10607
924.956	10778
925.064	10675
925.172	10561
925.279	10542
925.387	10653
925.494	10649
925.602	10740
925.709	10763
925.816	10466
925.924	10611
926.031	10599
926.138	10573
926.245	10683
926.352	10500
926.459	10653
926.566	10691
926.673	10569
926.779	10405
926.886	10390
926.993	10261
927.099	10181
927.206	10219
927.312	10265
927.419	10261
927.525	10287
927.631	10287
927.737	10215
927.843	10143
927.95	9975
928.056	10063
928.162	10112
928.267	10169
928.373	10793
928.479	10223
928.585	9979
928.69	10131
928.796	10128
928.901	10071
929.007	9907
929.112	10013
929.218	10006
929.323	9930
929.428	9895
929.533	10040
929.638	9812
929.743	9983
929.848	9907
929.953	9861
930.058	9732
930.163	9648
930.267	9743
930.372	9766
930.477	9667
930.581	9835
930.685	9709
930.79	9538
930.894	9572
930.998	9557
931.103	9682
931.207	9367
931.311	9203
931.415	9264
931.519	9055
931.623	9036
