Data from test_V78500241_3304.txt Node
Date: Fri Mar 25 14:56:43 CST 2022
User: usil
Spectrometer: V785-0024
Trigger mode: 0
Integration Time (sec): 4.000000E-1
Scans to average: 1
Nonlinearity correction enabled: false
Boxcar width: 0
Storing dark spectrum: false
XAxis mode: Wavelengths
Number of Pixels in Spectrum: 1024
>>>>>Begin Spectral Data<<<<<
801.071	22036
801.214	21842
801.356	21724
801.499	21545
801.641	21412
801.783	21317
801.926	21359
802.068	21416
802.211	21294
802.353	21127
802.496	20956
802.638	20887
802.78	20804
802.923	20659
803.065	20587
803.208	20632
803.35	20777
803.492	20743
803.635	20781
803.777	20743
803.919	20800
804.061	20872
804.204	20758
804.346	20545
804.488	20514
804.63	20629
804.773	20526
804.915	20568
805.057	20667
805.199	20507
805.341	20606
805.483	20674
805.626	20636
805.768	20488
805.91	20571
806.052	20670
806.194	20511
806.336	20697
806.478	20514
806.62	20522
806.762	20590
806.904	20769
807.046	21055
807.188	20876
807.33	20914
807.472	20941
807.614	20781
807.756	20876
807.898	20762
808.04	20583
808.182	20488
808.324	20678
808.465	20678
808.607	20845
808.749	20902
808.891	21051
809.033	21024
809.174	20982
809.316	20826
809.458	20948
809.6	20845
809.741	20895
809.883	20883
810.025	21089
810.166	21100
810.308	21020
810.45	21017
810.591	20975
810.733	20796
810.875	20720
811.016	20674
811.158	20644
811.299	20720
811.441	20758
811.582	20815
811.724	20526
811.865	20587
812.007	20640
812.148	20743
812.29	20716
812.431	20872
812.573	21013
812.714	21074
812.855	21093
812.997	21302
813.138	21428
813.279	21207
813.421	21241
813.562	21043
813.703	21104
813.845	20762
813.986	20689
814.127	20332
814.268	20221
814.41	20237
814.551	20233
814.692	20199
814.833	20225
814.974	20103
815.115	20122
815.256	20142
815.397	20176
815.539	20065
815.68	19989
815.821	19791
815.962	20054
816.103	19963
816.244	19734
816.385	19742
816.526	19712
816.666	19578
816.807	19411
816.948	19499
817.089	19499
817.23	19358
817.371	19350
817.512	19335
817.653	19346
817.793	19358
817.934	19324
818.075	19346
818.216	19350
818.356	19308
818.497	19213
818.638	18924
818.778	19099
818.919	18916
819.06	19084
819.2	19213
819.341	19133
819.481	19263
819.622	19556
819.762	19597
819.903	19419
820.043	19415
820.184	19308
820.324	19381
820.465	19396
820.605	19415
820.746	19400
820.886	19164
821.026	19266
821.167	19266
821.307	19312
821.447	19206
821.588	19095
821.728	19046
821.868	18916
822.008	18795
822.149	18814
822.289	18650
822.429	18418
822.569	18578
822.709	18388
822.849	18323
822.99	18178
823.13	18205
823.27	18247
823.41	18167
823.55	18038
823.69	18072
823.83	18038
823.97	17893
824.11	17798
824.25	17752
824.389	17836
824.529	17897
824.669	17805
824.809	17859
824.949	17798
825.089	17897
825.228	17695
825.368	17608
825.508	17672
825.648	17630
825.787	17786
825.927	17509
826.067	17619
826.206	17573
826.346	17592
826.485	17775
826.625	17459
826.765	17657
826.904	17573
827.044	17448
827.183	17349
827.323	17208
827.462	17410
827.601	17360
827.741	17337
827.88	17277
828.02	17242
828.159	17269
828.298	17311
828.437	17296
828.577	17277
828.716	17402
828.855	17299
828.994	17071
829.134	17018
829.273	17132
829.412	16915
829.551	17113
829.69	17018
829.829	17102
829.968	17170
830.107	17079
830.246	17185
830.385	16987
830.524	16915
830.663	16843
830.802	16786
830.941	16592
831.08	16641
831.219	16797
831.357	16672
831.496	16835
831.635	16713
831.774	16622
831.913	16523
832.051	16474
832.19	16523
832.329	16516
832.467	16360
832.606	16348
832.744	16356
832.883	16360
833.022	16421
833.16	16447
833.299	16447
833.437	16436
833.576	16318
833.714	16493
833.852	16436
833.991	16352
834.129	16462
834.267	16485
834.406	16462
834.544	16409
834.682	16489
834.821	16314
834.959	16573
835.097	16337
835.235	16535
835.373	16390
835.511	16447
835.65	16432
835.788	16333
835.926	16299
836.064	16147
836.202	16211
836.34	16447
836.478	16462
836.615	16356
836.753	16333
836.891	16367
837.029	16291
837.167	16337
837.305	16318
837.443	16280
837.58	16116
837.718	16360
837.856	16226
837.993	16131
838.131	16238
838.269	16139
838.406	16055
838.544	16071
838.681	15918
838.819	15964
838.956	15827
839.094	15732
839.231	15930
839.369	15884
839.506	16177
839.643	15968
839.781	15679
839.918	15732
840.055	15808
840.193	15713
840.33	15736
840.467	15789
840.604	15663
840.742	16116
840.879	15564
841.016	15717
841.153	15625
841.29	15873
841.427	15648
841.564	15759
841.701	15838
841.838	15675
841.975	15713
842.112	15625
842.249	15469
842.385	15519
842.522	15637
842.659	15553
842.796	15481
842.933	15462
843.069	15401
843.206	15401
843.343	15682
843.479	15523
843.616	15561
843.752	15291
843.889	15332
844.025	15530
844.162	15256
844.298	15397
844.435	15306
844.571	15249
844.708	15332
844.844	15504
844.98	15481
845.117	15515
845.253	15252
845.389	15192
845.525	15329
845.661	15294
845.798	15150
845.934	15180
846.07	14944
846.206	15184
846.342	15252
846.478	15150
846.614	14883
846.75	14876
846.886	14880
847.022	14975
847.158	14925
847.294	14963
847.429	14876
847.565	14861
847.701	15058
847.837	14773
847.972	14689
848.108	14701
848.244	14712
848.379	14526
848.515	14514
848.65	14431
848.786	14469
848.921	14488
849.057	14598
849.192	14621
849.328	14514
849.463	14575
849.598	14484
849.734	14358
849.869	14301
850.004	14286
850.14	14275
850.275	14294
850.41	14210
850.545	14218
850.68	14237
850.815	14343
850.95	14309
851.085	14442
851.22	14404
851.355	14358
851.49	14278
851.625	14233
851.76	14351
851.895	14180
852.03	14206
852.165	14202
852.299	14324
852.434	14381
852.569	14267
852.703	14336
852.838	14396
852.973	14457
853.107	14457
853.242	14161
853.376	14126
853.511	14020
853.645	14073
853.78	14271
853.914	14187
854.048	14103
854.183	14103
854.317	14073
854.451	14343
854.585	14164
854.72	14138
854.854	14142
854.988	14103
855.122	14126
855.256	14035
855.39	14088
855.524	14286
855.658	14221
855.792	14103
855.926	14157
856.06	14259
856.194	14187
856.327	14123
856.461	14195
856.595	14096
856.729	14252
856.862	14244
856.996	14256
857.13	14195
857.263	14259
857.397	14320
857.53	14092
857.664	14199
857.797	14214
857.931	14275
858.064	14187
858.197	14252
858.331	14263
858.464	14073
858.597	14001
858.731	14100
858.864	14164
858.997	14096
859.13	14115
859.263	14183
859.396	14138
859.529	14142
859.662	14172
859.795	14054
859.928	14176
860.061	14317
860.194	14351
860.327	14210
860.46	14138
860.592	14275
860.725	14267
860.858	14400
860.99	14096
861.123	14134
861.256	14126
861.388	14145
861.521	14918
861.653	14008
861.786	14016
861.918	14058
862.05	14065
862.183	13982
862.315	14138
862.447	14221
862.58	14123
862.712	13982
862.844	13845
862.976	13944
863.108	13967
863.24	14343
863.372	13822
863.504	13963
863.636	13830
863.768	13986
863.9	13871
864.032	13864
864.164	13830
864.296	13909
864.428	13963
864.559	14001
864.691	14012
864.823	13879
864.954	14012
865.086	13917
865.217	13883
865.349	13947
865.48	13947
865.612	13894
865.743	14016
865.875	13947
866.006	13890
866.137	13970
866.269	13890
866.4	13902
866.531	13833
866.662	13864
866.793	13921
866.924	13803
867.055	13947
867.186	13898
867.317	13845
867.448	13860
867.579	13811
867.71	13818
867.841	13898
867.972	13921
868.103	13906
868.233	13944
868.364	13967
868.495	14027
868.625	14149
868.756	14275
868.886	14183
869.017	14096
869.147	14396
869.278	14256
869.408	14206
869.539	14157
869.669	14210
869.799	14278
869.929	14290
870.06	14278
870.19	14541
870.32	14442
870.45	14530
870.58	14583
870.71	14727
870.84	14648
870.97	14617
871.1	14571
871.23	14830
871.36	14697
871.489	14735
871.619	14708
871.749	14693
871.879	14754
872.008	14902
872.138	14792
872.267	14743
872.397	14659
872.526	14602
872.656	14598
872.785	14659
872.915	14762
873.044	14864
873.173	14785
873.303	14868
873.432	14826
873.561	14921
873.69	14876
873.819	14712
873.948	14826
874.077	14773
874.206	14788
874.335	14849
874.464	14990
874.593	15135
874.722	15127
874.851	15230
874.979	15207
875.108	15233
875.237	15123
875.365	15036
875.494	15184
875.623	15283
875.751	15161
875.88	15127
876.008	15275
876.136	15355
876.265	15534
876.393	15762
876.521	15614
876.65	15686
876.778	15473
876.906	15526
877.034	15473
877.162	15447
877.29	15473
877.418	15454
877.546	15591
877.674	15507
877.802	15553
877.93	15591
878.058	15496
878.185	15336
878.313	15580
878.441	15504
878.568	15420
878.696	15473
878.824	15564
878.951	15526
879.079	15671
879.206	15842
879.333	15717
879.461	15679
879.588	15652
879.715	15808
879.842	15831
879.97	15663
880.097	15477
880.224	15416
880.351	15492
880.478	15405
880.605	15443
880.732	15420
880.859	15622
880.986	15424
881.112	15504
881.239	15329
881.366	15142
881.493	15180
881.619	15146
881.746	15047
881.872	15165
881.999	15017
882.125	14998
882.252	15100
882.378	15104
882.505	15214
882.631	15017
882.757	14830
882.883	14929
883.01	14941
883.136	14963
883.262	14731
883.388	14762
883.514	14849
883.64	14921
883.766	14819
883.892	14857
884.018	14758
884.143	14899
884.269	15024
884.395	14537
884.52	14522
884.646	14579
884.772	14526
884.897	14484
885.023	14590
885.148	14735
885.274	14682
885.399	14815
885.524	14617
885.65	14636
885.775	14594
885.9	14522
886.025	14686
886.15	14632
886.275	14556
886.4	14492
886.525	14560
886.65	14522
886.775	14541
886.9	14735
887.025	14834
887.149	14587
887.274	14450
887.399	14423
887.523	14431
887.648	14328
887.773	14320
887.897	14560
888.021	14469
888.146	14355
888.27	14495
888.395	14526
888.519	14514
888.643	14427
888.767	14488
888.891	14404
889.015	14195
889.139	14374
889.263	14233
889.387	14294
889.511	14434
889.635	14427
889.759	14210
889.883	14214
890.006	14218
890.13	14454
890.254	14176
890.377	14142
890.501	14065
890.624	14084
890.748	14172
890.871	14005
890.995	13974
891.118	13852
891.241	14046
891.364	14088
891.488	14187
891.611	14054
891.734	14054
891.857	14016
891.98	14084
892.103	14111
892.226	14020
892.349	13967
892.471	13784
892.594	13978
892.717	13967
892.839	13970
892.962	13986
893.085	14145
893.207	14005
893.33	13883
893.452	13959
893.575	14111
893.697	14031
893.819	14149
893.941	14138
894.064	14123
894.186	13879
894.308	13951
894.43	14210
894.552	14259
894.674	14130
894.796	13898
894.918	14024
895.04	14039
895.161	14092
895.283	14084
895.405	14046
895.526	14126
895.648	14130
895.769	14111
895.891	14221
896.012	14298
896.134	14202
896.255	14092
896.376	14062
896.498	14229
896.619	14225
896.74	14084
896.861	14115
896.982	14621
897.103	14777
897.224	14484
897.345	14396
897.466	14320
897.587	14457
897.708	14469
897.828	14355
897.949	14328
898.07	14317
898.19	14355
898.311	14590
898.431	14450
898.552	14522
898.672	14587
898.792	14659
898.913	14549
899.033	14507
899.153	14396
899.273	14275
899.393	14400
899.513	14377
899.633	14389
899.753	14492
899.873	14355
899.993	14408
900.113	14332
900.232	14362
900.352	14328
900.472	14347
900.591	14229
900.711	14199
900.83	14191
900.95	14313
901.069	14313
901.189	14161
901.308	13993
901.427	13932
901.546	13879
901.665	13898
901.784	13932
901.904	13772
902.023	13708
902.141	13571
902.26	13506
902.379	13464
902.498	13487
902.617	13407
902.735	13480
902.854	13438
902.973	13354
903.091	13202
903.21	13225
903.328	13301
903.446	13198
903.565	13000
903.683	13114
903.801	12962
903.919	13076
904.038	13008
904.156	12829
904.274	12916
904.392	12882
904.51	12871
904.627	12901
904.745	12848
904.863	12928
904.981	12791
905.098	12654
905.216	12574
905.334	12627
905.451	12582
905.569	12585
905.686	12544
905.803	12570
905.921	12407
906.038	12471
906.155	12441
906.272	12266
906.389	12285
906.506	12148
906.623	12148
906.74	12159
906.857	12026
906.974	12087
907.091	12201
907.208	12323
907.324	12155
907.441	12038
907.557	11889
907.674	11870
907.79	11851
907.907	11931
908.023	11927
908.139	11882
908.256	11836
908.372	11802
908.488	11809
908.604	11710
908.72	11680
908.836	11676
908.952	11649
909.068	11596
909.184	11745
909.3	11653
909.415	11771
909.531	11642
909.647	11547
909.762	11398
909.878	11410
909.993	11459
910.108	11326
910.224	11417
910.339	11474
910.454	11299
910.57	11254
910.685	11197
910.8	11547
910.915	11463
911.03	11231
911.145	11159
911.259	11022
911.374	11162
911.489	11071
911.604	10976
911.718	10892
911.833	10908
911.947	10847
912.062	10698
912.176	10911
912.291	10831
912.405	10892
912.519	11086
912.633	11117
912.748	10957
912.862	10889
912.976	10763
913.09	10645
913.204	10706
913.318	10759
913.431	10831
913.545	10850
913.659	10911
913.772	10771
913.886	10668
914	10630
914.113	10740
914.226	10782
914.34	10763
914.453	10535
914.566	10710
914.68	10569
914.793	10664
914.906	10455
915.019	10394
915.132	10375
915.245	10367
915.358	10459
915.47	10409
915.583	10413
915.696	10478
915.809	10596
915.921	10531
916.034	10409
916.146	10382
916.259	10417
916.371	10481
916.483	10329
916.595	10363
916.708	10394
916.82	10348
916.932	10291
917.044	10337
917.156	10310
917.268	10215
917.38	10219
917.491	10154
917.603	10272
917.715	10394
917.826	10367
917.938	10181
918.049	10120
918.161	10314
918.272	10356
918.384	10348
918.495	10265
918.606	10128
918.717	10158
918.828	10154
918.939	10143
919.05	10006
919.161	10074
919.272	9934
919.383	10010
919.494	10177
919.604	10348
919.715	10181
919.826	10048
919.936	10196
920.047	10268
920.157	10112
920.267	10432
920.378	10177
920.488	10215
920.598	10303
920.708	10592
920.818	10367
920.928	10341
921.038	10554
921.148	10508
921.258	10139
921.368	10124
921.477	10002
921.587	9998
921.697	9869
921.806	10048
921.916	9854
922.025	9694
922.134	9743
922.244	9648
922.353	9740
922.462	9561
922.571	9519
922.68	9424
922.789	9408
922.898	9420
923.007	9310
923.116	9500
923.224	9370
923.333	9348
923.442	9268
923.55	9272
923.659	9313
923.767	9283
923.876	9226
923.984	9256
924.092	9256
924.201	9291
924.309	9336
924.417	9264
924.525	9230
924.633	9173
924.741	10112
924.849	9039
924.956	9192
925.064	9039
925.172	8960
925.279	9009
925.387	9089
925.494	9047
925.602	9127
925.709	9127
925.816	8982
925.924	8971
926.031	9135
926.138	9017
926.245	9116
926.352	8975
926.459	9157
926.566	9150
926.673	9024
926.779	8937
926.886	8918
926.993	8845
927.099	8891
927.206	8766
927.312	8651
927.419	8804
927.525	8762
927.631	8819
927.737	8739
927.843	8689
927.95	8568
928.056	8648
928.162	8670
928.267	8651
928.373	9416
928.479	8743
928.585	8594
928.69	8682
928.796	8743
928.901	8541
929.007	8362
929.112	8556
929.218	8526
929.323	8499
929.428	8503
929.533	8598
929.638	8476
929.743	8461
929.848	8514
929.953	8514
930.058	8396
930.163	8244
930.267	8199
930.372	8362
930.477	8298
930.581	8465
930.685	8324
930.79	8172
930.894	8244
930.998	8187
931.103	8336
931.207	7947
931.311	7921
931.415	7913
931.519	7715
931.623	7655
