Data from test_V78500241_903.txt Node
Date: Fri Mar 25 14:40:00 CST 2022
User: usil
Spectrometer: V785-0024
Trigger mode: 0
Integration Time (sec): 4.000000E-1
Scans to average: 1
Nonlinearity correction enabled: false
Boxcar width: 0
Storing dark spectrum: false
XAxis mode: Wavelengths
Number of Pixels in Spectrum: 1024
>>>>>Begin Spectral Data<<<<<
801.071	25031
801.214	24958
801.356	24738
801.499	24521
801.641	24445
801.783	24467
801.926	24369
802.068	24239
802.211	24251
802.353	24129
802.496	23790
802.638	23847
802.78	23817
802.923	23821
803.065	23722
803.208	23646
803.35	23722
803.492	23824
803.635	23821
803.777	23790
803.919	23718
804.061	24110
804.204	23794
804.346	23737
804.488	23676
804.63	23775
804.773	23615
804.915	23745
805.057	23794
805.199	23824
805.341	23813
805.483	23771
805.626	23878
805.768	23722
805.91	23745
806.052	23851
806.194	23710
806.336	24110
806.478	23984
806.62	23954
806.762	24239
806.904	24254
807.046	24757
807.188	24738
807.33	24707
807.472	24878
807.614	25008
807.756	25179
807.898	25202
808.04	25575
808.182	25993
808.324	26590
808.465	27108
808.607	28078
808.749	28615
808.891	29128
809.033	29132
809.174	28611
809.316	27914
809.458	27329
809.6	26503
809.741	26039
809.883	25712
810.025	25453
810.166	25384
810.308	25072
810.45	24947
810.591	24837
810.733	24684
810.875	24391
811.016	24308
811.158	24228
811.299	24273
811.441	24353
811.582	24251
811.724	24159
811.865	24247
812.007	24144
812.148	24045
812.29	24102
812.431	24232
812.573	24460
812.714	24467
812.855	24486
812.997	24604
813.138	24806
813.279	24646
813.421	24407
813.562	24426
813.703	24197
813.845	24190
813.986	23961
814.127	23767
814.268	23623
814.41	23558
814.551	23478
814.692	23577
814.833	23433
814.974	23551
815.115	23398
815.256	23299
815.397	23402
815.539	23356
815.68	23223
815.821	23231
815.962	23200
816.103	23102
816.244	23094
816.385	22908
816.526	22873
816.666	22729
816.807	22500
816.948	22793
817.089	22706
817.23	22577
817.371	22679
817.512	22618
817.653	22512
817.793	22493
817.934	22550
818.075	22626
818.216	22577
818.356	22527
818.497	22440
818.638	22162
818.778	22398
818.919	22295
819.06	22215
819.2	22421
819.341	22447
819.481	22371
819.622	22634
819.762	22816
819.903	22611
820.043	22607
820.184	22440
820.324	22489
820.465	22679
820.605	22531
820.746	22489
820.886	22379
821.026	22451
821.167	22394
821.307	22455
821.447	22375
821.588	22173
821.728	22131
821.868	21972
822.008	21747
822.149	21800
822.289	21865
822.429	21519
822.569	21526
822.709	21511
822.849	21268
822.99	21332
823.13	21306
823.27	21268
823.41	21100
823.55	20944
823.69	21081
823.83	21108
823.97	20956
824.11	20921
824.25	20819
824.389	20834
824.529	20933
824.669	20807
824.809	21028
824.949	20887
825.089	20887
825.228	20883
825.368	20621
825.508	20678
825.648	20606
825.787	20769
825.927	20773
826.067	20739
826.206	20655
826.346	20693
826.485	20659
826.625	20499
826.765	20777
826.904	20602
827.044	20457
827.183	20431
827.323	20332
827.462	20275
827.601	20298
827.741	20370
827.88	20351
828.02	20103
828.159	20183
828.298	20290
828.437	20309
828.577	20237
828.716	20427
828.855	20176
828.994	20020
829.134	20008
829.273	20134
829.412	19940
829.551	19982
829.69	19959
829.829	19970
829.968	20035
830.107	19993
830.246	19982
830.385	19970
830.524	19944
830.663	19753
830.802	19814
830.941	19693
831.08	19628
831.219	19616
831.357	19772
831.496	19662
831.635	19487
831.774	19506
831.913	19339
832.051	19225
832.19	19480
832.329	19487
832.467	19377
832.606	19175
832.744	19365
832.883	19217
833.022	19335
833.16	19365
833.299	19403
833.437	19373
833.576	19506
833.714	19540
833.852	19575
833.991	19628
834.129	19521
834.267	19601
834.406	19548
834.544	19518
834.682	19487
834.821	19419
834.959	19616
835.097	19411
835.235	19529
835.373	19289
835.511	19343
835.65	19133
835.788	19232
835.926	19046
836.064	18935
836.202	18909
836.34	19141
836.478	19232
836.615	19152
836.753	19126
836.891	19141
837.029	19084
837.167	19084
837.305	18981
837.443	18985
837.58	18901
837.718	19099
837.856	18970
837.993	19069
838.131	18886
838.269	18916
838.406	18901
838.544	18840
838.681	18616
838.819	18547
838.956	18528
839.094	18521
839.231	18513
839.369	18566
839.506	18848
839.643	18589
839.781	18410
839.918	18437
840.055	18304
840.193	18395
840.33	18414
840.467	18327
840.604	18502
840.742	18608
840.879	18292
841.016	18330
841.153	18213
841.29	18506
841.427	18418
841.564	18460
841.701	18410
841.838	18342
841.975	18247
842.112	18300
842.249	18106
842.385	18197
842.522	18384
842.659	18152
842.796	18003
842.933	18121
843.069	18034
843.206	18167
843.343	18254
843.479	18232
843.616	18277
843.752	17950
843.889	18026
844.025	18125
844.162	17927
844.298	18064
844.435	18015
844.571	18041
844.708	18224
844.844	18304
844.98	18369
845.117	18528
845.253	18631
845.389	18920
845.525	19483
845.661	20655
845.798	21895
845.934	23083
846.07	23714
846.206	23539
846.342	22740
846.478	21085
846.614	19750
846.75	18840
846.886	18346
847.022	18125
847.158	17809
847.294	17726
847.429	17726
847.565	17600
847.701	17756
847.837	17372
847.972	17265
848.108	17299
848.244	17311
848.379	17064
848.515	17174
848.65	17022
848.786	17067
848.921	17025
849.057	17223
849.192	17136
849.328	17117
849.463	17105
849.598	17010
849.734	16965
849.869	16915
850.004	16835
850.14	16729
850.275	16774
850.41	16744
850.545	16672
850.68	16713
850.815	16816
850.95	16736
851.085	16892
851.22	16755
851.355	16653
851.49	16759
851.625	16729
851.76	16664
851.895	16603
852.03	16653
852.165	16763
852.299	16809
852.434	16774
852.569	16812
852.703	16717
852.838	16854
852.973	16805
853.107	16885
853.242	16721
853.376	16687
853.511	16527
853.645	16611
853.78	16748
853.914	16710
854.048	16588
854.183	16592
854.317	16816
854.451	16809
854.585	16546
854.72	16599
854.854	16740
854.988	16584
855.122	16630
855.256	16519
855.39	16580
855.524	16649
855.658	16630
855.792	16641
855.926	16573
856.06	16618
856.194	16778
856.327	16649
856.461	16573
856.595	16417
856.729	16554
856.862	16733
856.996	16637
857.13	16611
857.263	16683
857.397	16748
857.53	16641
857.664	16637
857.797	16702
857.931	16748
858.064	16691
858.197	16637
858.331	16592
858.464	16512
858.597	16386
858.731	16546
858.864	16485
858.997	16538
859.13	16656
859.263	16561
859.396	16656
859.529	16516
859.662	16603
859.795	16428
859.928	16493
860.061	16771
860.194	16702
860.327	16550
860.46	16519
860.592	16713
860.725	16713
860.858	16637
860.99	16516
861.123	16424
861.256	16462
861.388	16512
861.521	17178
861.653	16455
861.786	16382
861.918	16405
862.05	16413
862.183	16485
862.315	16470
862.447	16512
862.58	16424
862.712	16295
862.844	16204
862.976	16329
863.108	16265
863.24	16683
863.372	16249
863.504	16257
863.636	16371
863.768	16318
863.9	16185
864.032	16177
864.164	16219
864.296	16280
864.428	16310
864.559	16405
864.691	16325
864.823	16352
864.954	16371
865.086	16234
865.217	16226
865.349	16090
865.48	16303
865.612	16200
865.743	16363
865.875	16295
866.006	16181
866.137	16333
866.269	16280
866.4	16310
866.531	16131
866.662	16188
866.793	16154
866.924	16265
867.055	16242
867.186	16257
867.317	16185
867.448	16143
867.579	16188
867.71	16173
867.841	15994
867.972	16287
868.103	16154
868.233	16234
868.364	16196
868.495	16242
868.625	16504
868.756	16504
868.886	16398
869.017	16356
869.147	16519
869.278	16462
869.408	16363
869.539	16485
869.669	16592
869.799	16531
869.929	16561
870.06	16508
870.19	16778
870.32	16755
870.45	16812
870.58	16869
870.71	16934
870.84	16942
870.97	16839
871.1	16793
871.23	17041
871.36	17014
871.489	16923
871.619	16999
871.749	17071
871.879	17083
872.008	17109
872.138	16987
872.267	17083
872.397	17025
872.526	16942
872.656	16927
872.785	17060
872.915	17090
873.044	17147
873.173	17113
873.303	17140
873.432	17273
873.561	17174
873.69	17140
873.819	17166
873.948	17296
874.077	17060
874.206	17140
874.335	17193
874.464	17292
874.593	17486
874.722	17356
874.851	17570
874.979	17478
875.108	17505
875.237	17402
875.365	17421
875.494	17440
875.623	17566
875.751	17425
875.88	17528
876.008	17733
876.136	17752
876.265	17916
876.393	18034
876.521	18015
876.65	18026
876.778	17996
876.906	17988
877.034	17961
877.162	18098
877.29	18026
877.418	18034
877.546	18041
877.674	18243
877.802	18186
877.93	18129
878.058	18171
878.185	18095
878.313	18243
878.441	18315
878.568	18365
878.696	18494
878.824	18623
878.951	19061
879.079	19468
879.206	19917
879.333	20187
879.461	20484
879.588	20826
879.715	20914
879.842	20819
879.97	20122
880.097	19563
880.224	19206
880.351	18989
880.478	18810
880.605	18639
880.732	18540
880.859	18734
880.986	18448
881.112	18498
881.239	18410
881.366	18247
881.493	18228
881.619	18026
881.746	18098
881.872	18182
881.999	18114
882.125	18159
882.252	18254
882.378	18144
882.505	18228
882.631	18045
882.757	17980
882.883	17988
883.01	18045
883.136	17882
883.262	17832
883.388	17790
883.514	17999
883.64	17927
883.766	17851
883.892	17699
884.018	17733
884.143	17969
884.269	17920
884.395	17630
884.52	17528
884.646	17710
884.772	17577
884.897	17512
885.023	17684
885.148	17684
885.274	17699
885.399	17562
885.524	17474
885.65	17604
885.775	17516
885.9	17543
886.025	17570
886.15	17551
886.275	17337
886.4	17395
886.525	17284
886.65	17265
886.775	17246
886.9	17379
887.025	17497
887.149	17303
887.274	16976
887.399	16957
887.523	17075
887.648	16965
887.773	16961
887.897	17067
888.021	17052
888.146	16877
888.27	16984
888.395	16980
888.519	17014
888.643	16953
888.767	17025
888.891	16915
889.015	16782
889.139	16801
889.263	16736
889.387	16744
889.511	16843
889.635	16736
889.759	16706
889.883	16687
890.006	16668
890.13	16713
890.254	16546
890.377	16664
890.501	16527
890.624	16432
890.748	16607
890.871	16257
890.995	16261
891.118	16135
891.241	16185
891.364	16291
891.488	16299
891.611	16109
891.734	16268
891.857	16314
891.98	16230
892.103	16280
892.226	16299
892.349	16215
892.471	16078
892.594	16154
892.717	16219
892.839	16158
892.962	16238
893.085	16265
893.207	16074
893.33	16086
893.452	16086
893.575	16162
893.697	16158
893.819	16207
893.941	16322
894.064	16291
894.186	16013
894.308	16105
894.43	16276
894.552	16295
894.674	16192
894.796	16093
894.918	16086
895.04	16116
895.161	16234
895.283	16188
895.405	16044
895.526	16234
895.648	16192
895.769	16230
895.891	16261
896.012	16280
896.134	16093
896.255	16154
896.376	16246
896.498	16284
896.619	16166
896.74	16192
896.861	16226
896.982	16603
897.103	16615
897.224	16527
897.345	16500
897.466	16447
897.587	16459
897.708	16713
897.828	16531
897.949	16428
898.07	16386
898.19	16424
898.311	16523
898.431	16268
898.552	16390
898.672	16603
898.792	16603
898.913	16577
899.033	16375
899.153	16402
899.273	16253
899.393	16402
899.513	16459
899.633	16379
899.753	16329
899.873	16268
899.993	16348
900.113	16257
900.232	16402
900.352	16329
900.472	16246
900.591	16219
900.711	16215
900.83	16116
900.95	16348
901.069	16390
901.189	16200
901.308	15972
901.427	15846
901.546	15819
901.665	15861
901.784	15876
901.904	15679
902.023	15610
902.141	15412
902.26	15389
902.379	15523
902.498	15428
902.617	15302
902.735	15325
902.854	15317
902.973	15260
903.091	15074
903.21	15100
903.328	15146
903.446	14910
903.565	14845
903.683	14937
903.801	14731
903.919	14914
904.038	14849
904.156	14568
904.274	14804
904.392	14610
904.51	14781
904.627	14659
904.745	14674
904.863	14587
904.981	14457
905.098	14256
905.216	14434
905.334	14263
905.451	14309
905.569	14320
905.686	14351
905.803	14267
905.921	14142
906.038	14298
906.155	14138
906.272	13921
906.389	13982
906.506	13830
906.623	13830
906.74	13811
906.857	13723
906.974	13704
907.091	13989
907.208	13963
907.324	13864
907.441	13734
907.557	13540
907.674	13586
907.79	13411
907.907	13514
908.023	13624
908.139	13559
908.256	13537
908.372	13472
908.488	13403
908.604	13339
908.72	13270
908.836	13240
908.952	13263
909.068	13221
909.184	13324
909.3	13335
909.415	13327
909.531	13289
909.647	13091
909.762	13065
909.878	12989
909.993	13042
910.108	12966
910.224	13046
910.339	13080
910.454	12916
910.57	12791
910.685	12787
910.8	13103
910.915	13015
911.03	12871
911.145	12730
911.259	12715
911.374	12597
911.489	12623
911.604	12593
911.718	12471
911.833	12498
911.947	12315
912.062	12258
912.176	12338
912.291	12494
912.405	12437
912.519	12593
912.633	12582
912.748	12448
912.862	12441
912.976	12273
913.09	12152
913.204	12216
913.318	12262
913.431	12304
913.545	12403
913.659	12395
913.772	12254
913.886	12133
914	12057
914.113	12159
914.226	12289
914.34	12201
914.453	12057
914.566	12186
914.68	11977
914.793	12015
914.906	11859
915.019	11813
915.132	11817
915.245	11798
915.358	11897
915.47	11866
915.583	11874
915.696	11885
915.809	12007
915.921	11908
916.034	11813
916.146	11809
916.259	11756
916.371	11901
916.483	11893
916.595	11752
916.708	11710
916.82	11741
916.932	11752
917.044	11786
917.156	11733
917.268	11623
917.38	11714
917.491	11573
917.603	11642
917.715	11737
917.826	11661
917.938	11577
918.049	11562
918.161	11627
918.272	11775
918.384	11722
918.495	11680
918.606	11436
918.717	11467
918.828	11512
918.939	11440
919.05	11410
919.161	11455
919.272	11197
919.383	11372
919.494	11440
919.604	11619
919.715	11532
919.826	11345
919.936	11474
920.047	11482
920.157	11516
920.267	11554
920.378	11505
920.488	11452
920.598	11596
920.708	11760
920.818	11718
920.928	11512
921.038	11691
921.148	11764
921.258	11444
921.368	11356
921.477	11322
921.587	11273
921.697	11132
921.806	11242
921.916	11162
922.025	11048
922.134	10946
922.244	10896
922.353	10946
922.462	10873
922.571	10831
922.68	10622
922.789	10653
922.898	10694
923.007	10588
923.116	10744
923.224	10580
923.333	10516
923.442	10512
923.55	10523
923.659	10500
923.767	10550
923.876	10466
923.984	10500
924.092	10329
924.201	10478
924.309	10516
924.417	10417
924.525	10394
924.633	10417
924.741	11117
924.849	10196
924.956	10329
925.064	10196
925.172	10227
925.279	10188
925.387	10234
925.494	10333
925.602	10280
925.709	10310
925.816	10158
925.924	10196
926.031	10382
926.138	10192
926.245	10253
926.352	10139
926.459	10261
926.566	10219
926.673	10147
926.779	10078
926.886	10082
926.993	9945
927.099	9899
927.206	9743
927.312	9713
927.419	9926
927.525	9915
927.631	10017
927.737	9766
927.843	9785
927.95	9686
928.056	9762
928.162	9816
928.267	9785
928.373	10379
928.479	9819
928.585	9671
928.69	9785
928.796	9766
928.901	9663
929.007	9557
929.112	9743
929.218	9633
929.323	9656
929.428	9523
929.533	9614
929.638	9488
929.743	9450
929.848	9576
929.953	9542
930.058	9439
930.163	9302
930.267	9336
930.372	9408
930.477	9279
930.581	9587
930.685	9405
930.79	9256
930.894	9268
930.998	9184
931.103	9317
931.207	9009
931.311	8944
931.415	8891
931.519	8708
931.623	8754
