Data from test_V78500241_1117.txt Node
Date: Fri Mar 25 14:41:29 CST 2022
User: usil
Spectrometer: V785-0024
Trigger mode: 0
Integration Time (sec): 4.000000E-1
Scans to average: 1
Nonlinearity correction enabled: false
Boxcar width: 0
Storing dark spectrum: false
XAxis mode: Wavelengths
Number of Pixels in Spectrum: 1024
>>>>>Begin Spectral Data<<<<<
801.071	22656
801.214	22462
801.356	22329
801.499	22177
801.641	22006
801.783	21934
801.926	21922
802.068	21956
802.211	21876
802.353	21838
802.496	21450
802.638	21614
802.78	21473
802.923	21515
803.065	21363
803.208	21367
803.35	21447
803.492	21420
803.635	21431
803.777	21279
803.919	21378
804.061	21641
804.204	21439
804.346	21279
804.488	21291
804.63	21351
804.773	21169
804.915	21344
805.057	21260
805.199	21260
805.341	21389
805.483	21447
805.626	21325
805.768	21237
805.91	21249
806.052	21363
806.194	21203
806.336	21458
806.478	21325
806.62	21230
806.762	21249
806.904	21416
807.046	21652
807.188	21698
807.33	21743
807.472	21656
807.614	21587
807.756	21762
807.898	21587
808.04	21492
808.182	21488
808.324	21705
808.465	21663
808.607	21797
808.749	22135
808.891	22063
809.033	22196
809.174	21930
809.316	21812
809.458	21846
809.6	21770
809.741	21743
809.883	21797
810.025	21964
810.166	21926
810.308	21979
810.45	21895
810.591	21808
810.733	21663
810.875	21553
811.016	21359
811.158	21348
811.299	21477
811.441	21599
811.582	21568
811.724	21458
811.865	21477
812.007	21431
812.148	21450
812.29	21549
812.431	21682
812.573	21812
812.714	21941
812.855	21972
812.997	22025
813.138	22215
813.279	22112
813.421	21899
813.562	21903
813.703	21778
813.845	21580
813.986	21355
814.127	21100
814.268	21096
814.41	20979
814.551	21001
814.692	21055
814.833	20941
814.974	20899
815.115	20880
815.256	20895
815.397	20758
815.539	20937
815.68	20750
815.821	20697
815.962	20697
816.103	20769
816.244	20571
816.385	20590
816.526	20446
816.666	20278
816.807	20244
816.948	20263
817.089	20298
817.23	20237
817.371	20145
817.512	20084
817.653	19997
817.793	20084
817.934	20180
818.075	20358
818.216	20191
818.356	20046
818.497	19982
818.638	19894
818.778	19856
818.919	19830
819.06	19898
819.2	19986
819.341	19970
819.481	20005
819.622	20115
819.762	20362
819.903	20317
820.043	20225
820.184	20157
820.324	20142
820.465	20320
820.605	20142
820.746	20062
820.886	20073
821.026	20092
821.167	20008
821.307	20122
821.447	20081
821.588	19955
821.728	19826
821.868	19601
822.008	19502
822.149	19502
822.289	19537
822.429	19255
822.569	19228
822.709	19217
822.849	18973
822.99	18962
823.13	19027
823.27	18954
823.41	18878
823.55	18753
823.69	18939
823.83	18882
823.97	18798
824.11	18566
824.25	18574
824.389	18616
824.529	18654
824.669	18612
824.809	18734
824.949	18620
825.089	18623
825.228	18677
825.368	18479
825.508	18418
825.648	18399
825.787	18403
825.927	18437
826.067	18346
826.206	18388
826.346	18445
826.485	18467
826.625	18330
826.765	18479
826.904	18407
827.044	18220
827.183	18224
827.323	18083
827.462	18106
827.601	18133
827.741	18152
827.88	18110
828.02	18041
828.159	18167
828.298	18110
828.437	18133
828.577	18083
828.716	18117
828.855	17977
828.994	17897
829.134	17958
829.273	17885
829.412	17805
829.551	17893
829.69	17790
829.829	17893
829.968	17950
830.107	17813
830.246	17893
830.385	17893
830.524	17684
830.663	17745
830.802	17611
830.941	17474
831.08	17512
831.219	17474
831.357	17585
831.496	17710
831.635	17532
831.774	17341
831.913	17395
832.051	17231
832.19	17208
832.329	17372
832.467	17200
832.606	17159
832.744	17166
832.883	17151
833.022	17143
833.16	17204
833.299	17246
833.437	17216
833.576	17159
833.714	17269
833.852	17330
833.991	17269
834.129	17318
834.267	17288
834.406	17185
834.544	17326
834.682	17208
834.821	17258
834.959	17383
835.097	17162
835.235	17292
835.373	17136
835.511	17242
835.65	17143
835.788	17193
835.926	17045
836.064	16968
836.202	16949
836.34	17128
836.478	17212
836.615	17181
836.753	17071
836.891	17204
837.029	17140
837.167	17022
837.305	17124
837.443	17048
837.58	16934
837.718	17151
837.856	17060
837.993	16934
838.131	16934
838.269	16885
838.406	16961
838.544	16873
838.681	16656
838.819	16645
838.956	16466
839.094	16615
839.231	16626
839.369	16622
839.506	16957
839.643	16710
839.781	16550
839.918	16409
840.055	16554
840.193	16653
840.33	16546
840.467	16493
840.604	16504
840.742	16847
840.879	16341
841.016	16485
841.153	16367
841.29	16630
841.427	16516
841.564	16554
841.701	16497
841.838	16474
841.975	16455
842.112	16478
842.249	16382
842.385	16196
842.522	16432
842.659	16356
842.796	16207
842.933	16310
843.069	16246
843.206	16318
843.343	16360
843.479	16322
843.616	16322
843.752	16086
843.889	16147
844.025	16234
844.162	16090
844.298	16287
844.435	16139
844.571	16040
844.708	16188
844.844	16291
844.98	16284
845.117	16253
845.253	15998
845.389	15998
845.525	16063
845.661	16219
845.798	16105
845.934	16306
846.07	16291
846.206	16322
846.342	16348
846.478	16192
846.614	15823
846.75	15736
846.886	15656
847.022	15759
847.158	15679
847.294	15728
847.429	15713
847.565	15633
847.701	15998
847.837	15389
847.972	15359
848.108	15386
848.244	15477
848.379	15302
848.515	15180
848.65	15195
848.786	15272
848.921	15310
849.057	15370
849.192	15291
849.328	15264
849.463	15329
849.598	15123
849.734	15135
849.869	15138
850.004	15039
850.14	14963
850.275	14998
850.41	14948
850.545	14967
850.68	14914
850.815	14979
850.95	14948
851.085	15123
851.22	15074
851.355	15032
851.49	15005
851.625	15028
851.76	15150
851.895	14899
852.03	14792
852.165	14880
852.299	15066
852.434	15112
852.569	15032
852.703	15062
852.838	15066
852.973	15142
853.107	15032
853.242	14982
853.376	14887
853.511	14701
853.645	14781
853.78	14914
853.914	14861
854.048	14838
854.183	14773
854.317	14971
854.451	15043
854.585	14857
854.72	14792
854.854	14910
854.988	14842
855.122	14925
855.256	14689
855.39	14785
855.524	14925
855.658	14891
855.792	14876
855.926	14876
856.06	14948
856.194	14998
856.327	14792
856.461	14735
856.595	14769
856.729	14910
856.862	14971
856.996	14891
857.13	14910
857.263	15001
857.397	14933
857.53	14906
857.664	14994
857.797	14849
857.931	14876
858.064	14902
858.197	15001
858.331	14819
858.464	14876
858.597	14754
858.731	14830
858.864	14918
858.997	14819
859.13	14830
859.263	14891
859.396	14971
859.529	14845
859.662	14872
859.795	14838
859.928	14834
860.061	15009
860.194	15058
860.327	14937
860.46	14861
860.592	14952
860.725	15036
860.858	15058
860.99	14876
861.123	14777
861.256	14819
861.388	14815
861.521	15568
861.653	14804
861.786	14705
861.918	14769
862.05	14826
862.183	14845
862.315	14857
862.447	14921
862.58	14811
862.712	14594
862.844	14629
862.976	14678
863.108	14659
863.24	15131
863.372	14530
863.504	14629
863.636	14651
863.768	14682
863.9	14617
864.032	14514
864.164	14625
864.296	14716
864.428	14807
864.559	14674
864.691	14697
864.823	14640
864.954	14663
865.086	14670
865.217	14598
865.349	14556
865.48	14613
865.612	14678
865.743	14724
865.875	14727
866.006	14583
866.137	14705
866.269	14625
866.4	14651
866.531	14602
866.662	14499
866.793	14659
866.924	14682
867.055	14602
867.186	14636
867.317	14469
867.448	14507
867.579	14610
867.71	14514
867.841	14514
867.972	14583
868.103	14575
868.233	14640
868.364	14617
868.495	14758
868.625	14754
868.756	14971
868.886	14724
869.017	14952
869.147	14921
869.278	14925
869.408	14918
869.539	14891
869.669	14933
869.799	14971
869.929	15028
870.06	15036
870.19	15070
870.32	15108
870.45	15264
870.58	15321
870.71	15321
870.84	15370
870.97	15237
871.1	15195
871.23	15458
871.36	15412
871.489	15321
871.619	15408
871.749	15473
871.879	15564
872.008	15576
872.138	15466
872.267	15488
872.397	15325
872.526	15245
872.656	15351
872.785	15298
872.915	15408
873.044	15500
873.173	15431
873.303	15599
873.432	15591
873.561	15523
873.69	15599
873.819	15591
873.948	15606
874.077	15519
874.206	15454
874.335	15545
874.464	15720
874.593	15793
874.722	15690
874.851	15873
874.979	15835
875.108	15793
875.237	15728
875.365	15762
875.494	15800
875.623	15922
875.751	15781
875.88	15865
876.008	15899
876.136	16021
876.265	16181
876.393	16325
876.521	16310
876.65	16299
876.778	16299
876.906	16261
877.034	16147
877.162	16169
877.29	16242
877.418	16299
877.546	16261
877.674	16200
877.802	16276
877.93	16303
878.058	16181
878.185	16135
878.313	16306
878.441	16188
878.568	15987
878.696	16135
878.824	16348
878.951	16303
879.079	16474
879.206	16611
879.333	16622
879.461	16519
879.588	16596
879.715	16668
879.842	16740
879.97	16421
880.097	16188
880.224	16150
880.351	16135
880.478	16257
880.605	16101
880.732	16109
880.859	16348
880.986	16169
881.112	16139
881.239	16067
881.366	15956
881.493	15937
881.619	15774
881.746	15774
881.872	15709
881.999	15736
882.125	15728
882.252	15816
882.378	15816
882.505	15861
882.631	15869
882.757	15549
882.883	15644
883.01	15667
883.136	15549
883.262	15584
883.388	15496
883.514	15553
883.64	15629
883.766	15572
883.892	15363
884.018	15416
884.143	15538
884.269	15652
884.395	15291
884.52	15199
884.646	15306
884.772	15211
884.897	15165
885.023	15329
885.148	15405
885.274	15526
885.399	15313
885.524	15214
885.65	15222
885.775	15310
885.9	15207
886.025	15389
886.15	15386
886.275	15302
886.4	15237
886.525	15264
886.65	15203
886.775	15279
886.9	15462
887.025	15580
887.149	15260
887.274	15024
887.399	15047
887.523	15066
887.648	15074
887.773	15020
887.897	15214
888.021	15199
888.146	15051
888.27	15157
888.395	15252
888.519	15138
888.643	15195
888.767	15146
888.891	15066
889.015	14944
889.139	15043
889.263	14830
889.387	15093
889.511	15047
889.635	15024
889.759	14921
889.883	14929
890.006	14937
890.13	15085
890.254	14887
890.377	14796
890.501	14750
890.624	14765
890.748	14750
890.871	14644
890.995	14712
891.118	14575
891.241	14507
891.364	14636
891.488	14853
891.611	14579
891.734	14636
891.857	14625
891.98	14583
892.103	14712
892.226	14678
892.349	14587
892.471	14434
892.594	14575
892.717	14621
892.839	14537
892.962	14598
893.085	14636
893.207	14560
893.33	14518
893.452	14488
893.575	14701
893.697	14648
893.819	14792
893.941	14857
894.064	14758
894.186	14648
894.308	14629
894.43	14720
894.552	14891
894.674	14682
894.796	14556
894.918	14617
895.04	14651
895.161	14708
895.283	14811
895.405	14663
895.526	14606
895.648	14693
895.769	14689
895.891	14727
896.012	14819
896.134	14746
896.255	14743
896.376	14731
896.498	14670
896.619	14724
896.74	14819
896.861	14853
896.982	15222
897.103	15173
897.224	14948
897.345	15039
897.466	14990
897.587	14902
897.708	15180
897.828	14990
897.949	15013
898.07	14899
898.19	14914
898.311	15131
898.431	14967
898.552	15100
898.672	15211
898.792	15241
898.913	15123
899.033	15077
899.153	14971
899.273	14834
899.393	14971
899.513	14948
899.633	15020
899.753	14975
899.873	14998
899.993	14925
900.113	14887
900.232	15051
900.352	14899
900.472	14868
900.591	14765
900.711	14834
900.83	14811
900.95	14933
901.069	14902
901.189	14746
901.308	14583
901.427	14476
901.546	14438
901.665	14423
901.784	14526
901.904	14423
902.023	14290
902.141	14077
902.26	14001
902.379	14081
902.498	14050
902.617	14016
902.735	14111
902.854	14043
902.973	14027
903.091	13803
903.21	13731
903.328	13788
903.446	13628
903.565	13632
903.683	13628
903.801	13422
903.919	13559
904.038	13487
904.156	13362
904.274	13514
904.392	13419
904.51	13430
904.627	13396
904.745	13472
904.863	13434
904.981	13145
905.098	13004
905.216	13023
905.334	13107
905.451	13015
905.569	13057
905.686	13042
905.803	13072
905.921	12962
906.038	12935
906.155	12886
906.272	12779
906.389	12913
906.506	12722
906.623	12711
906.74	12665
906.857	12650
906.974	12612
907.091	12669
907.208	12829
907.324	12669
907.441	12582
907.557	12445
907.674	12532
907.79	12327
907.907	12460
908.023	12384
908.139	12433
908.256	12380
908.372	12445
908.488	12388
908.604	12163
908.72	12247
908.836	12197
908.952	12140
909.068	12140
909.184	12270
909.3	12205
909.415	12114
909.531	12167
909.647	11973
909.762	11939
909.878	11935
909.993	11999
910.108	11859
910.224	11904
910.339	11843
910.454	11798
910.57	11866
910.685	11741
910.8	11988
910.915	11984
911.03	11775
911.145	11566
911.259	11600
911.374	11615
911.489	11532
911.604	11493
911.718	11353
911.833	11383
911.947	11318
912.062	11174
912.176	11429
912.291	11410
912.405	11349
912.519	11547
912.633	11604
912.748	11349
912.862	11368
912.976	11208
913.09	11170
913.204	11204
913.318	11201
913.431	11402
913.545	11379
913.659	11398
913.772	11258
913.886	11159
914	11166
914.113	11181
914.226	11318
914.34	11117
914.453	11105
914.566	11269
914.68	11014
914.793	11174
914.906	10911
915.019	10812
915.132	10793
915.245	10812
915.358	10904
915.47	10919
915.583	10904
915.696	10896
915.809	10927
915.921	10972
916.034	10771
916.146	10831
916.259	10691
916.371	10946
916.483	10869
916.595	10809
916.708	10889
916.82	10706
916.932	10824
917.044	10679
917.156	10801
917.268	10611
917.38	10755
917.491	10580
917.603	10702
917.715	10752
917.826	10710
917.938	10653
918.049	10516
918.161	10637
918.272	10786
918.384	10740
918.495	10702
918.606	10508
918.717	10512
918.828	10603
918.939	10542
919.05	10485
919.161	10481
919.272	10329
919.383	10466
919.494	10618
919.604	10744
919.715	10504
919.826	10455
919.936	10569
920.047	10615
920.157	10596
920.267	10717
920.378	10584
920.488	10592
920.598	10744
920.708	10873
920.818	10679
920.928	10717
921.038	10908
921.148	10854
921.258	10569
921.368	10500
921.477	10474
921.587	10363
921.697	10242
921.806	10375
921.916	10272
922.025	10120
922.134	10124
922.244	10044
922.353	10120
922.462	9994
922.571	9968
922.68	9778
922.789	9835
922.898	9800
923.007	9778
923.116	9846
923.224	9819
923.333	9800
923.442	9720
923.55	9709
923.659	9606
923.767	9743
923.876	9622
923.984	9675
924.092	9625
924.201	9675
924.309	9675
924.417	9713
924.525	9519
924.633	9637
924.741	10398
924.849	9428
924.956	9595
925.064	9515
925.172	9272
925.279	9408
925.387	9450
925.494	9389
925.602	9576
925.709	9530
925.816	9325
925.924	9477
926.031	9553
926.138	9431
926.245	9462
926.352	9321
926.459	9526
926.566	9469
926.673	9428
926.779	9321
926.886	9348
926.993	9154
927.099	9230
927.206	9123
927.312	9192
927.419	9165
927.525	9150
927.631	9119
927.737	9119
927.843	9039
927.95	8857
928.056	9013
928.162	9005
928.267	9070
928.373	9740
928.479	9066
928.585	8853
928.69	9024
928.796	9028
928.901	8986
929.007	8796
929.112	9028
929.218	8872
929.323	8845
929.428	8807
929.533	9032
929.638	8777
929.743	8868
929.848	8823
929.953	8830
930.058	8716
930.163	8522
930.267	8625
930.372	8689
930.477	8621
930.581	8823
930.685	8644
930.79	8560
930.894	8583
930.998	8571
931.103	8606
931.207	8328
931.311	8206
931.415	8252
931.519	8016
931.623	7993
