Data from test_V78500241_882.txt Node
Date: Fri Mar 25 14:39:51 CST 2022
User: usil
Spectrometer: V785-0024
Trigger mode: 0
Integration Time (sec): 4.000000E-1
Scans to average: 1
Nonlinearity correction enabled: false
Boxcar width: 0
Storing dark spectrum: false
XAxis mode: Wavelengths
Number of Pixels in Spectrum: 1024
>>>>>Begin Spectral Data<<<<<
801.071	25430
801.214	25282
801.356	24958
801.499	24920
801.641	24802
801.783	24764
801.926	24753
802.068	24703
802.211	24593
802.353	24631
802.496	24357
802.638	24315
802.78	24121
802.923	24285
803.065	24114
803.208	24140
803.35	24144
803.492	24308
803.635	24266
803.777	24194
803.919	24266
804.061	24532
804.204	24292
804.346	24114
804.488	24087
804.63	24270
804.773	23965
804.915	24182
805.057	24361
805.199	24205
805.341	24232
805.483	24410
805.626	24391
805.768	24319
805.91	24475
806.052	24441
806.194	24456
806.336	24612
806.478	24658
806.62	24635
806.762	24726
806.904	25099
807.046	25365
807.188	25324
807.33	25422
807.472	25731
807.614	25875
807.756	26183
807.898	26408
808.04	26918
808.182	27477
808.324	28356
808.465	29216
808.607	30365
808.749	31457
808.891	31898
809.033	31875
809.174	31282
809.316	30216
809.458	29181
809.6	28070
809.741	27641
809.883	26834
810.025	26663
810.166	26237
810.308	25883
810.45	25674
810.591	25499
810.733	25430
810.875	25080
811.016	24909
811.158	24791
811.299	24859
811.441	24867
811.582	24867
811.724	24703
811.865	24509
812.007	24582
812.148	24597
812.29	24631
812.431	24646
812.573	24966
812.714	24935
812.855	24992
812.997	24977
813.138	25133
813.279	24966
813.421	25042
813.562	24897
813.703	24726
813.845	24604
813.986	24319
814.127	24045
814.268	24049
814.41	24102
814.551	24003
814.692	24060
814.833	23847
814.974	23863
815.115	23946
815.256	23729
815.397	23630
815.539	23775
815.68	23619
815.821	23463
815.962	23623
816.103	23528
816.244	23406
816.385	23269
816.526	23273
816.666	23155
816.807	23033
816.948	23166
817.089	23014
817.23	22972
817.371	22896
817.512	22999
817.653	22946
817.793	22946
817.934	22957
818.075	23018
818.216	22961
818.356	22908
818.497	22763
818.638	22706
818.778	22630
818.919	22645
819.06	22679
819.2	22850
819.341	22809
819.481	22831
819.622	22938
819.762	23204
819.903	23025
820.043	22896
820.184	22858
820.324	22942
820.465	22942
820.605	22900
820.746	22858
820.886	22668
821.026	22915
821.167	22885
821.307	22797
821.447	22733
821.588	22588
821.728	22474
821.868	22329
822.008	22272
822.149	22124
822.289	22131
822.429	21899
822.569	21869
822.709	21827
822.849	21770
822.99	21603
823.13	21717
823.27	21526
823.41	21519
823.55	21450
823.69	21572
823.83	21386
823.97	21389
824.11	21272
824.25	21180
824.389	21302
824.529	21310
824.669	21275
824.809	21443
824.949	21268
825.089	21272
825.228	21283
825.368	21093
825.508	20929
825.648	20994
825.787	21096
825.927	21096
826.067	20986
826.206	20925
826.346	21074
826.485	21009
826.625	20914
826.765	21245
826.904	21028
827.044	20678
827.183	20663
827.323	20674
827.462	20731
827.601	20469
827.741	20514
827.88	20598
828.02	20522
828.159	20651
828.298	20651
828.437	20640
828.577	20594
828.716	20697
828.855	20564
828.994	20457
829.134	20332
829.273	20381
829.412	20271
829.551	20362
829.69	20225
829.829	20294
829.968	20351
830.107	20298
830.246	20370
830.385	20271
830.524	20145
830.663	20073
830.802	20069
830.941	20024
831.08	19917
831.219	19963
831.357	19986
831.496	20065
831.635	19944
831.774	19951
831.913	19879
832.051	19761
832.19	19746
832.329	19769
832.467	19704
832.606	19620
832.744	19693
832.883	19795
833.022	19776
833.16	19674
833.299	19780
833.437	19860
833.576	19868
833.714	19928
833.852	19963
833.991	20008
834.129	20035
834.267	20027
834.406	19963
834.544	19963
834.682	19955
834.821	19765
834.959	19871
835.097	19788
835.235	19826
835.373	19826
835.511	19696
835.65	19571
835.788	19578
835.926	19464
836.064	19373
836.202	19400
836.34	19628
836.478	19445
836.615	19453
836.753	19499
836.891	19510
837.029	19430
837.167	19422
837.305	19304
837.443	19285
837.58	19365
837.718	19430
837.856	19316
837.993	19168
838.131	19266
838.269	19183
838.406	19209
838.544	19148
838.681	18913
838.819	18928
838.956	18703
839.094	18745
839.231	18829
839.369	18924
839.506	19103
839.643	19061
839.781	18738
839.918	18738
840.055	18791
840.193	18802
840.33	18749
840.467	18798
840.604	18734
840.742	18928
840.879	18585
841.016	18620
841.153	18627
841.29	18837
841.427	18738
841.564	18738
841.701	18730
841.838	18646
841.975	18574
842.112	18570
842.249	18456
842.385	18475
842.522	18665
842.659	18608
842.796	18452
842.933	18441
843.069	18426
843.206	18506
843.343	18658
843.479	18604
843.616	18544
843.752	18395
843.889	18361
844.025	18502
844.162	18315
844.298	18506
844.435	18376
844.571	18448
844.708	18593
844.844	18795
844.98	18951
845.117	19118
845.253	19274
845.389	19620
845.525	20678
845.661	22398
845.798	24308
845.934	26107
846.07	26804
846.206	26678
846.342	25263
846.478	23071
846.614	21180
846.75	19807
846.886	19118
847.022	18768
847.158	18369
847.294	18152
847.429	18133
847.565	17912
847.701	18155
847.837	17680
847.972	17585
848.108	17676
848.244	17691
848.379	17463
848.515	17410
848.65	17398
848.786	17364
848.921	17364
849.057	17433
849.192	17463
849.328	17444
849.463	17372
849.598	17353
849.734	17212
849.869	17185
850.004	17124
850.14	17159
850.275	17037
850.41	17045
850.545	16961
850.68	16949
850.815	17033
850.95	17075
851.085	17193
851.22	17140
851.355	17079
851.49	17147
851.625	17094
851.76	17048
851.895	17037
852.03	16972
852.165	17109
852.299	17098
852.434	17147
852.569	17159
852.703	17064
852.838	17208
852.973	17360
853.107	17200
853.242	17014
853.376	16946
853.511	16812
853.645	16934
853.78	17105
853.914	17052
854.048	17045
854.183	16984
854.317	16999
854.451	17197
854.585	17033
854.72	16972
854.854	16965
854.988	17045
855.122	16972
855.256	16778
855.39	16987
855.524	17003
855.658	17022
855.792	17041
855.926	17033
856.06	17033
856.194	17102
856.327	17022
856.461	16896
856.595	16847
856.729	16957
856.862	17185
856.996	17048
857.13	16972
857.263	17052
857.397	17071
857.53	16820
857.664	16900
857.797	16976
857.931	16946
858.064	17041
858.197	17014
858.331	16930
858.464	16896
858.597	16748
858.731	16835
858.864	16904
858.997	16755
859.13	16885
859.263	16850
859.396	16938
859.529	16771
859.662	16828
859.795	16771
859.928	16923
860.061	16866
860.194	17033
860.327	16835
860.46	16915
860.592	16980
860.725	16911
860.858	17003
860.99	16771
861.123	16694
861.256	16828
861.388	16793
861.521	17532
861.653	16774
861.786	16645
861.918	16683
862.05	16866
862.183	16843
862.315	16843
862.447	16809
862.58	16877
862.712	16672
862.844	16538
862.976	16634
863.108	16622
863.24	17033
863.372	16500
863.504	16626
863.636	16569
863.768	16561
863.9	16618
864.032	16554
864.164	16523
864.296	16519
864.428	16584
864.559	16653
864.691	16626
864.823	16565
864.954	16500
865.086	16687
865.217	16523
865.349	16333
865.48	16531
865.612	16470
865.743	16748
865.875	16519
866.006	16455
866.137	16615
866.269	16630
866.4	16459
866.531	16478
866.662	16462
866.793	16421
866.924	16535
867.055	16481
867.186	16512
867.317	16443
867.448	16394
867.579	16527
867.71	16413
867.841	16356
867.972	16508
868.103	16493
868.233	16478
868.364	16508
868.495	16538
868.625	16771
868.756	16774
868.886	16615
869.017	16702
869.147	16927
869.278	16866
869.408	16778
869.539	16672
869.669	16881
869.799	16733
869.929	16862
870.06	16854
870.19	17052
870.32	17067
870.45	17117
870.58	17170
870.71	17307
870.84	17284
870.97	17159
871.1	17136
871.23	17368
871.36	17307
871.489	17227
871.619	17398
871.749	17204
871.879	17379
872.008	17436
872.138	17433
872.267	17303
872.397	17299
872.526	17178
872.656	17170
872.785	17292
872.915	17471
873.044	17532
873.173	17436
873.303	17455
873.432	17406
873.561	17539
873.69	17471
873.819	17425
873.948	17486
874.077	17577
874.206	17444
874.335	17554
874.464	17649
874.593	17824
874.722	17691
874.851	17794
874.979	17855
875.108	17973
875.237	17828
875.365	17798
875.494	17931
875.623	17950
875.751	17920
875.88	17980
876.008	18136
876.136	18209
876.265	18380
876.393	18566
876.521	18388
876.65	18437
876.778	18422
876.906	18319
877.034	18361
877.162	18391
877.29	18448
877.418	18597
877.546	18597
877.674	18612
877.802	18506
877.93	18627
878.058	18608
878.185	18620
878.313	18837
878.441	18924
878.568	18920
878.696	19171
878.824	19537
878.951	19769
879.079	20370
879.206	21081
879.333	21690
879.461	22265
879.588	22584
879.715	22577
879.842	22436
879.97	21694
880.097	20746
880.224	20282
880.351	19940
880.478	19613
880.605	19464
880.732	19415
880.859	19457
880.986	19095
881.112	19232
881.239	19118
881.366	18973
881.493	18935
881.619	18810
881.746	18863
881.872	18840
881.999	18768
882.125	18844
882.252	19000
882.378	18981
882.505	19008
882.631	18745
882.757	18700
882.883	18707
883.01	18829
883.136	18639
883.262	18642
883.388	18608
883.514	18711
883.64	18688
883.766	18566
883.892	18547
884.018	18486
884.143	18582
884.269	18741
884.395	18426
884.52	18384
884.646	18437
884.772	18190
884.897	18338
885.023	18437
885.148	18578
885.274	18452
885.399	18490
885.524	18330
885.65	18270
885.775	18224
885.9	18194
886.025	18338
886.15	18167
886.275	18015
886.4	17882
886.525	17996
886.65	17889
886.775	17805
886.9	18041
887.025	18022
887.149	17859
887.274	17566
887.399	17558
887.523	17448
887.648	17516
887.773	17448
887.897	17528
888.021	17379
888.146	17345
888.27	17558
888.395	17501
888.519	17467
888.643	17398
888.767	17395
888.891	17242
889.015	17162
889.139	17246
889.263	17166
889.387	17261
889.511	17345
889.635	17269
889.759	17056
889.883	17014
890.006	17022
890.13	17140
890.254	16995
890.377	17029
890.501	16774
890.624	16820
890.748	16835
890.871	16744
890.995	16641
891.118	16645
891.241	16656
891.364	16588
891.488	16672
891.611	16634
891.734	16584
891.857	16687
891.98	16645
892.103	16710
892.226	16691
892.349	16675
892.471	16519
892.594	16481
892.717	16596
892.839	16512
892.962	16504
893.085	16527
893.207	16527
893.33	16379
893.452	16466
893.575	16531
893.697	16466
893.819	16596
893.941	16668
894.064	16618
894.186	16318
894.308	16371
894.43	16546
894.552	16645
894.674	16611
894.796	16405
894.918	16363
895.04	16405
895.161	16569
895.283	16565
895.405	16440
895.526	16455
895.648	16268
895.769	16531
895.891	16443
896.012	16607
896.134	16531
896.255	16535
896.376	16497
896.498	16489
896.619	16493
896.74	16470
896.861	16626
896.982	16843
897.103	17022
897.224	16793
897.345	16706
897.466	16702
897.587	16694
897.708	16812
897.828	16828
897.949	16725
898.07	16611
898.19	16736
898.311	16820
898.431	16653
898.552	16782
898.672	16919
898.792	16839
898.913	16744
899.033	16607
899.153	16664
899.273	16516
899.393	16611
899.513	16626
899.633	16637
899.753	16698
899.873	16641
899.993	16721
900.113	16596
900.232	16618
900.352	16565
900.472	16538
900.591	16466
900.711	16519
900.83	16527
900.95	16611
901.069	16481
901.189	16428
901.308	16154
901.427	16036
901.546	16071
901.665	16097
901.784	16124
901.904	16017
902.023	15823
902.141	15690
902.26	15644
902.379	15660
902.498	15625
902.617	15530
902.735	15694
902.854	15614
902.973	15477
903.091	15283
903.21	15211
903.328	15283
903.446	15317
903.565	15135
903.683	15188
903.801	15017
903.919	14914
904.038	15020
904.156	14895
904.274	14986
904.392	14777
904.51	14811
904.627	14815
904.745	14895
904.863	14921
904.981	14590
905.098	14541
905.216	14423
905.334	14518
905.451	14511
905.569	14492
905.686	14514
905.803	14533
905.921	14339
906.038	14366
906.155	14320
906.272	14263
906.389	14286
906.506	14088
906.623	14115
906.74	14027
906.857	13955
906.974	13955
907.091	14058
907.208	14130
907.324	14054
907.441	13959
907.557	13784
907.674	13757
907.79	13700
907.907	13780
908.023	13753
908.139	13818
908.256	13723
908.372	13639
908.488	13700
908.604	13533
908.72	13483
908.836	13472
908.952	13441
909.068	13487
909.184	13567
909.3	13521
909.415	13506
909.531	13445
909.647	13263
909.762	13225
909.878	13190
909.993	13206
910.108	13156
910.224	13190
910.339	13282
910.454	13088
910.57	13031
910.685	13027
910.8	13293
910.915	13228
911.03	13027
911.145	12920
911.259	12897
911.374	12844
911.489	12833
911.604	12829
911.718	12734
911.833	12658
911.947	12498
912.062	12445
912.176	12563
912.291	12673
912.405	12612
912.519	12764
912.633	12764
912.748	12669
912.862	12544
912.976	12509
913.09	12350
913.204	12384
913.318	12498
913.431	12597
913.545	12559
913.659	12544
913.772	12479
913.886	12281
914	12334
914.113	12418
914.226	12342
914.34	12467
914.453	12190
914.566	12319
914.68	12258
914.793	12205
914.906	12087
915.019	12049
915.132	12053
915.245	12015
915.358	12079
915.47	12072
915.583	12079
915.696	12140
915.809	12232
915.921	12209
916.034	12007
916.146	12034
916.259	11980
916.371	12129
916.483	11996
916.595	11946
916.708	11984
916.82	11863
916.932	11927
917.044	11958
917.156	11935
917.268	11779
917.38	11916
917.491	11805
917.603	11843
917.715	11863
917.826	11878
917.938	11718
918.049	11676
918.161	11847
918.272	11996
918.384	11920
918.495	11836
918.606	11638
918.717	11634
918.828	11638
918.939	11691
919.05	11558
919.161	11642
919.272	11417
919.383	11512
919.494	11646
919.604	11786
919.715	11653
919.826	11577
919.936	11589
920.047	11707
920.157	11615
920.267	11809
920.378	11611
920.488	11554
920.598	11760
920.708	11946
920.818	11821
920.928	11764
921.038	11920
921.148	12007
921.258	11615
921.368	11570
921.477	11440
921.587	11391
921.697	11414
921.806	11425
921.916	11391
922.025	11166
922.134	11178
922.244	10984
922.353	11086
922.462	10980
922.571	10911
922.68	10915
922.789	10752
922.898	10828
923.007	10782
923.116	10805
923.224	10729
923.333	10786
923.442	10656
923.55	10649
923.659	10687
923.767	10740
923.876	10626
923.984	10656
924.092	10508
924.201	10596
924.309	10660
924.417	10561
924.525	10550
924.633	10561
924.741	11273
924.849	10310
924.956	10558
925.064	10428
925.172	10306
925.279	10306
925.387	10440
925.494	10314
925.602	10489
925.709	10470
925.816	10371
925.924	10409
926.031	10386
926.138	10261
926.245	10405
926.352	10188
926.459	10405
926.566	10478
926.673	10223
926.779	10162
926.886	10215
926.993	10055
927.099	9941
927.206	10059
927.312	9987
927.419	10090
927.525	10067
927.631	10021
927.737	9907
927.843	9903
927.95	9755
928.056	9869
928.162	9918
928.267	9895
928.373	10550
928.479	9960
928.585	9755
928.69	9865
928.796	9930
928.901	9766
929.007	9686
929.112	9793
929.218	9774
929.323	9709
929.428	9671
929.533	9827
929.638	9671
929.743	9686
929.848	9762
929.953	9614
930.058	9622
930.163	9397
930.267	9443
930.372	9610
930.477	9332
930.581	9686
930.685	9435
930.79	9340
930.894	9367
930.998	9306
931.103	9473
931.207	9108
931.311	9081
931.415	8929
931.519	8785
931.623	8807
