Data from test_V78500241_323.txt Node
Date: Fri Mar 25 14:35:58 CST 2022
User: usil
Spectrometer: V785-0024
Trigger mode: 0
Integration Time (sec): 4.000000E-1
Scans to average: 1
Nonlinearity correction enabled: false
Boxcar width: 0
Storing dark spectrum: false
XAxis mode: Wavelengths
Number of Pixels in Spectrum: 1024
>>>>>Begin Spectral Data<<<<<
801.071	27005
801.214	26918
801.356	26716
801.499	26655
801.641	26514
801.783	26400
801.926	26419
802.068	26324
802.211	26374
802.353	26286
802.496	25993
802.638	26176
802.78	25993
802.923	25906
803.065	25913
803.208	25830
803.35	26043
803.492	25944
803.635	26027
803.777	25986
803.919	26122
804.061	26309
804.204	25966
804.346	25928
804.488	25830
804.63	25959
804.773	25845
804.915	25932
805.057	25993
805.199	25822
805.341	26027
805.483	26069
805.626	25989
805.768	25928
805.91	25947
806.052	26012
806.194	25830
806.336	26164
806.478	25913
806.62	25997
806.762	26001
806.904	26187
807.046	26438
807.188	26431
807.33	26218
807.472	26453
807.614	26278
807.756	26313
807.898	26199
808.04	26081
808.182	25986
808.324	26195
808.465	26149
808.607	26298
808.749	26408
808.891	26499
809.033	26697
809.174	26583
809.316	26511
809.458	26621
809.6	26427
809.741	26514
809.883	26518
810.025	26670
810.166	26693
810.308	26598
810.45	26632
810.591	26530
810.733	26514
810.875	26362
811.016	26267
811.158	26259
811.299	26347
811.441	26381
811.582	26267
811.724	26366
811.865	26393
812.007	26320
812.148	26419
812.29	26362
812.431	26453
812.573	26655
812.714	26632
812.855	26887
812.997	26902
813.138	26883
813.279	26940
813.421	26796
813.562	26781
813.703	26533
813.845	26560
813.986	26161
814.127	26084
814.268	25887
814.41	25970
814.551	25795
814.692	25898
814.833	25757
814.974	26001
815.115	25852
815.256	25757
815.397	25685
815.539	25799
815.68	25685
815.821	25506
815.962	25537
816.103	25662
816.244	25483
816.385	25422
816.526	25365
816.666	25179
816.807	25152
816.948	25004
817.089	25107
817.23	25069
817.371	25057
817.512	24909
817.653	24977
817.793	24856
817.934	24871
818.075	24943
818.216	24985
818.356	24905
818.497	24916
818.638	24544
818.778	24639
818.919	24719
819.06	24722
819.2	24840
819.341	24878
819.481	24882
819.622	24973
819.762	25206
819.903	25183
820.043	24882
820.184	24992
820.324	24947
820.465	25099
820.605	24973
820.746	24901
820.886	24848
821.026	24749
821.167	24909
821.307	24924
821.447	24981
821.588	24798
821.728	24669
821.868	24494
822.008	24277
822.149	24376
822.289	24254
822.429	24060
822.569	23920
822.709	23969
822.849	23783
822.99	23741
823.13	23824
823.27	23524
823.41	23600
823.55	23429
823.69	23573
823.83	23520
823.97	23448
824.11	23360
824.25	23258
824.389	23250
824.529	23345
824.669	23322
824.809	23520
824.949	23406
825.089	23391
825.228	23406
825.368	23113
825.508	23216
825.648	23113
825.787	23090
825.927	23246
826.067	23079
826.206	22953
826.346	23105
826.485	23220
826.625	23041
826.765	23246
826.904	23159
827.044	22839
827.183	22877
827.323	22748
827.462	22774
827.601	22820
827.741	22691
827.88	22820
828.02	22725
828.159	22812
828.298	22736
828.437	22828
828.577	22782
828.716	22831
828.855	22679
828.994	22500
829.134	22512
829.273	22474
829.412	22550
829.551	22447
829.69	22443
829.829	22637
829.968	22561
830.107	22527
830.246	22436
830.385	22333
830.524	22459
830.663	22246
830.802	22150
830.941	22196
831.08	21873
831.219	22131
831.357	22188
831.496	22295
831.635	21998
831.774	21895
831.913	21884
832.051	21854
832.19	21816
832.329	21934
832.467	21724
832.606	21789
832.744	21644
832.883	21717
833.022	21770
833.16	21717
833.299	21660
833.437	21728
833.576	21762
833.714	21682
833.852	21831
833.991	21781
834.129	21819
834.267	21766
834.406	21793
834.544	21724
834.682	21781
834.821	21694
834.959	21888
835.097	21618
835.235	21770
835.373	21515
835.511	21690
835.65	21545
835.788	21549
835.926	21557
836.064	21447
836.202	21435
836.34	21534
836.478	21656
836.615	21500
836.753	21485
836.891	21663
837.029	21583
837.167	21477
837.305	21450
837.443	21367
837.58	21477
837.718	21454
837.856	21386
837.993	21245
838.131	21367
838.269	21287
838.406	21306
838.544	21298
838.681	20906
838.819	21058
838.956	20823
839.094	20861
839.231	20880
839.369	21024
839.506	21237
839.643	21089
839.781	20804
839.918	20758
840.055	20750
840.193	20773
840.33	20712
840.467	20864
840.604	20762
840.742	20937
840.879	20712
841.016	20674
841.153	20636
841.29	20842
841.427	20785
841.564	20857
841.701	20655
841.838	20800
841.975	20629
842.112	20689
842.249	20518
842.385	20431
842.522	20648
842.659	20469
842.796	20434
842.933	20552
843.069	20473
843.206	20476
843.343	20530
843.479	20473
843.616	20461
843.752	20252
843.889	20210
844.025	20396
844.162	20157
844.298	20347
844.435	20161
844.571	20187
844.708	20301
844.844	20511
844.98	20457
845.117	20324
845.253	20180
845.389	20084
845.525	20229
845.661	20043
845.798	20024
845.934	20134
846.07	20035
846.206	20172
846.342	20100
846.478	20024
846.614	19860
846.75	19750
846.886	19753
847.022	19757
847.158	19791
847.294	19734
847.429	19632
847.565	19601
847.701	19841
847.837	19426
847.972	19316
848.108	19544
848.244	19407
848.379	19346
848.515	19278
848.65	19236
848.786	19206
848.921	19327
849.057	19369
849.192	19312
849.328	19320
849.463	19297
849.598	19198
849.734	19099
849.869	18996
850.004	19046
850.14	18981
850.275	19053
850.41	18932
850.545	19012
850.68	18939
850.815	18935
850.95	18989
851.085	18973
851.22	19069
851.355	19019
851.49	18947
851.625	18951
851.76	19019
851.895	18882
852.03	18913
852.165	18859
852.299	18924
852.434	18939
852.569	18958
852.703	18939
852.838	19145
852.973	19141
853.107	19061
853.242	18783
853.376	18783
853.511	18703
853.645	18745
853.78	18958
853.914	18852
854.048	18715
854.183	18707
854.317	18776
854.451	18905
854.585	18722
854.72	18783
854.854	18863
854.988	18658
855.122	18814
855.256	18665
855.39	18848
855.524	18730
855.658	18768
855.792	18852
855.926	18821
856.06	18791
856.194	18951
856.327	18768
856.461	18741
856.595	18665
856.729	18681
856.862	18993
856.996	18798
857.13	18776
857.263	18913
857.397	18852
857.53	18764
857.664	18707
857.797	18772
857.931	18928
858.064	18715
858.197	18905
858.331	18734
858.464	18639
858.597	18620
858.731	18741
858.864	18738
858.997	18833
859.13	18677
859.263	18665
859.396	18810
859.529	18719
859.662	18715
859.795	18639
859.928	18673
860.061	18878
860.194	18852
860.327	18814
860.46	18741
860.592	18871
860.725	18924
860.858	18890
860.99	18601
861.123	18585
861.256	18612
861.388	18627
861.521	19358
861.653	18597
861.786	18433
861.918	18661
862.05	18631
862.183	18760
862.315	18798
862.447	18867
862.58	18707
862.712	18517
862.844	18418
862.976	18525
863.108	18547
863.24	18886
863.372	18384
863.504	18448
863.636	18426
863.768	18540
863.9	18445
864.032	18395
864.164	18365
864.296	18433
864.428	18566
864.559	18506
864.691	18544
864.823	18471
864.954	18429
865.086	18372
865.217	18342
865.349	18353
865.48	18365
865.612	18395
865.743	18464
865.875	18380
866.006	18388
866.137	18296
866.269	18422
866.4	18277
866.531	18308
866.662	18258
866.793	18247
866.924	18323
867.055	18220
867.186	18342
867.317	18262
867.448	18209
867.579	18277
867.71	18163
867.841	18292
867.972	18330
868.103	18251
868.233	18334
868.364	18285
868.495	18384
868.625	18445
868.756	18623
868.886	18494
869.017	18525
869.147	18665
869.278	18608
869.408	18521
869.539	18494
869.669	18544
869.799	18776
869.929	18631
870.06	18711
870.19	18810
870.32	18840
870.45	18833
870.58	19015
870.71	18977
870.84	19019
870.97	18947
871.1	18882
871.23	19012
871.36	19107
871.489	19008
871.619	19042
871.749	19110
871.879	19213
872.008	19289
872.138	19209
872.267	19152
872.397	19072
872.526	18996
872.656	18833
872.785	18966
872.915	19095
873.044	19255
873.173	19190
873.303	19266
873.432	19160
873.561	19202
873.69	19225
873.819	19160
873.948	19209
874.077	19183
874.206	19091
874.335	19156
874.464	19206
874.593	19369
874.722	19350
874.851	19415
874.979	19445
875.108	19460
875.237	19362
875.365	19282
875.494	19411
875.623	19548
875.751	19320
875.88	19346
876.008	19628
876.136	19613
876.265	19837
876.393	19951
876.521	19822
876.65	19883
876.778	19822
876.906	19814
877.034	19700
877.162	19944
877.29	19780
877.418	19814
877.546	19871
877.674	19761
877.802	19712
877.93	19700
878.058	19746
878.185	19723
878.313	19807
878.441	19841
878.568	19635
878.696	19776
878.824	19875
878.951	19928
879.079	20012
879.206	20122
879.333	20081
879.461	19879
879.588	19959
879.715	19955
879.842	20084
879.97	19837
880.097	19696
880.224	19708
880.351	19765
880.478	19712
880.605	19586
880.732	19616
880.859	19822
880.986	19658
881.112	19727
881.239	19464
881.366	19480
881.493	19381
881.619	19091
881.746	19324
881.872	19221
881.999	19255
882.125	19312
882.252	19358
882.378	19396
882.505	19449
882.631	19099
882.757	19114
882.883	19110
883.01	19069
883.136	18962
883.262	18996
883.388	18882
883.514	19141
883.64	19031
883.766	18947
883.892	18795
884.018	18871
884.143	19012
884.269	19050
884.395	18871
884.52	18745
884.646	18730
884.772	18711
884.897	18639
885.023	18616
885.148	18825
885.274	18779
885.399	18894
885.524	18692
885.65	18726
885.775	18783
885.9	18757
886.025	18825
886.15	18616
886.275	18635
886.4	18631
886.525	18627
886.65	18555
886.775	18525
886.9	18715
887.025	18844
887.149	18650
887.274	18422
887.399	18483
887.523	18429
887.648	18292
887.773	18410
887.897	18437
888.021	18517
888.146	18418
888.27	18563
888.395	18547
888.519	18589
888.643	18429
888.767	18593
888.891	18357
889.015	18262
889.139	18323
889.263	18182
889.387	18315
889.511	18604
889.635	18437
889.759	18296
889.883	18273
890.006	18372
890.13	18292
890.254	18228
890.377	18190
890.501	18136
890.624	18079
890.748	18129
890.871	17809
890.995	17992
891.118	17767
891.241	17821
891.364	17897
891.488	18060
891.611	17904
891.734	17897
891.857	17878
891.98	17912
892.103	17794
892.226	17893
892.349	17821
892.471	17726
892.594	17855
892.717	17946
892.839	17813
892.962	17805
893.085	18019
893.207	17855
893.33	17676
893.452	17699
893.575	17870
893.697	17863
893.819	17836
893.941	17961
894.064	17984
894.186	17729
894.308	17733
894.43	17939
894.552	17904
894.674	17939
894.796	17752
894.918	17828
895.04	17786
895.161	17912
895.283	17859
895.405	17790
895.526	17786
895.648	17836
895.769	17961
895.891	17870
896.012	17980
896.134	17878
896.255	17870
896.376	17813
896.498	17855
896.619	18015
896.74	17927
896.861	18022
896.982	18216
897.103	18403
897.224	18300
897.345	18144
897.466	18057
897.587	18133
897.708	18357
897.828	18144
897.949	18098
898.07	17893
898.19	17992
898.311	18136
898.431	18117
898.552	18098
898.672	18220
898.792	18197
898.913	18064
899.033	17969
899.153	17935
899.273	17843
899.393	17954
899.513	17832
899.633	17901
899.753	17859
899.873	17836
899.993	17882
900.113	17969
900.232	17889
900.352	17950
900.472	17840
900.591	17707
900.711	17691
900.83	17729
900.95	17912
901.069	17790
901.189	17745
901.308	17387
901.427	17463
901.546	17269
901.665	17417
901.784	17467
901.904	17200
902.023	17277
902.141	16881
902.26	16919
902.379	17056
902.498	16892
902.617	16755
902.735	16949
902.854	16835
902.973	16877
903.091	16519
903.21	16649
903.328	16481
903.446	16462
903.565	16459
903.683	16443
903.801	16352
903.919	16348
904.038	16295
904.156	16226
904.274	16303
904.392	16158
904.51	16082
904.627	16097
904.745	16242
904.863	16078
904.981	15895
905.098	15789
905.216	15770
905.334	15812
905.451	15918
905.569	15713
905.686	15838
905.803	15816
905.921	15534
906.038	15743
906.155	15648
906.272	15424
906.389	15603
906.506	15405
906.623	15428
906.74	15359
906.857	15272
906.974	15283
907.091	15431
907.208	15519
907.324	15340
907.441	15370
907.557	15100
907.674	15112
907.79	15157
907.907	15112
908.023	15085
908.139	14918
908.256	14967
908.372	14899
908.488	14952
908.604	14891
908.72	14731
908.836	14804
908.952	14708
909.068	14815
909.184	14819
909.3	14769
909.415	14777
909.531	14777
909.647	14484
909.762	14495
909.878	14427
909.993	14640
910.108	14408
910.224	14400
910.339	14457
910.454	14450
910.57	14324
910.685	14313
910.8	14495
910.915	14438
911.03	14263
911.145	14126
911.259	14088
911.374	14111
911.489	14130
911.604	13936
911.718	13879
911.833	13879
911.947	13780
912.062	13757
912.176	13879
912.291	13883
912.405	13799
912.519	14065
912.633	13989
912.748	13894
912.862	13849
912.976	13666
913.09	13605
913.204	13685
913.318	13685
913.431	13860
913.545	13731
913.659	13769
913.772	13727
913.886	13472
914	13495
914.113	13537
914.226	13632
914.34	13651
914.453	13434
914.566	13529
914.68	13441
914.793	13384
914.906	13255
915.019	13190
915.132	13190
915.245	13156
915.358	13194
915.47	13160
915.583	13278
915.696	13194
915.809	13362
915.921	13358
916.034	13129
916.146	13141
916.259	13061
916.371	13156
916.483	13118
916.595	13099
916.708	13012
916.82	13000
916.932	13023
917.044	12993
917.156	13072
917.268	12871
917.38	12894
917.491	12878
917.603	12913
917.715	12962
917.826	12993
917.938	12837
918.049	12738
918.161	12875
918.272	13012
918.384	13050
918.495	12840
918.606	12684
918.717	12681
918.828	12658
918.939	12696
919.05	12631
919.161	12757
919.272	12460
919.383	12574
919.494	12707
919.604	12833
919.715	12719
919.826	12601
919.936	12620
920.047	12757
920.157	12616
920.267	12810
920.378	12669
920.488	12677
920.598	12810
920.708	12958
920.818	12787
920.928	12810
921.038	12932
921.148	12996
921.258	12601
921.368	12536
921.477	12498
921.587	12388
921.697	12342
921.806	12361
921.916	12365
922.025	12159
922.134	12079
922.244	12057
922.353	12133
922.462	11984
922.571	11893
922.68	11805
922.789	11767
922.898	11748
923.007	11737
923.116	11832
923.224	11771
923.333	11657
923.442	11562
923.55	11600
923.659	11573
923.767	11703
923.876	11516
923.984	11646
924.092	11551
924.201	11627
924.309	11532
924.417	11524
924.525	11566
924.633	11562
924.741	12243
924.849	11322
924.956	11520
925.064	11318
925.172	11208
925.279	11277
925.387	11337
925.494	11364
925.602	11353
925.709	11322
925.816	11208
925.924	11246
926.031	11318
926.138	11231
926.245	11318
926.352	11239
926.459	11284
926.566	11261
926.673	11174
926.779	11098
926.886	11022
926.993	10976
927.099	10911
927.206	10771
927.312	10877
927.419	10866
927.525	10892
927.631	10896
927.737	10786
927.843	10790
927.95	10645
928.056	10771
928.162	10793
928.267	10801
928.373	11292
928.479	10793
928.585	10561
928.69	10759
928.796	10748
928.901	10588
929.007	10379
929.112	10618
929.218	10577
929.323	10497
929.428	10527
929.533	10603
929.638	10558
929.743	10447
929.848	10455
929.953	10451
930.058	10363
930.163	10257
930.267	10200
930.372	10382
930.477	10124
930.581	10398
930.685	10341
930.79	10116
930.894	10135
930.998	10059
931.103	10185
931.207	9903
931.311	9785
931.415	9827
931.519	9564
931.623	9538
