Data from test_V78500241_632.txt Node
Date: Fri Mar 25 14:38:07 CST 2022
User: usil
Spectrometer: V785-0024
Trigger mode: 0
Integration Time (sec): 4.000000E-1
Scans to average: 1
Nonlinearity correction enabled: false
Boxcar width: 0
Storing dark spectrum: false
XAxis mode: Wavelengths
Number of Pixels in Spectrum: 1024
>>>>>Begin Spectral Data<<<<<
801.071	27956
801.214	27960
801.356	27557
801.499	27526
801.641	27374
801.783	27340
801.926	27466
802.068	27344
802.211	27233
802.353	27184
802.496	26914
802.638	26807
802.78	26902
802.923	26636
803.065	26701
803.208	26746
803.35	26899
803.492	26944
803.635	27020
803.777	26925
803.919	27066
804.061	27249
804.204	27032
804.346	26929
804.488	26895
804.63	27032
804.773	27020
804.915	26963
805.057	27089
805.199	27085
805.341	27325
805.483	27549
805.626	27488
805.768	27336
805.91	27427
806.052	27671
806.194	27549
806.336	27930
806.478	28006
806.62	28120
806.762	28325
806.904	28866
807.046	29227
807.188	29341
807.33	29836
807.472	30308
807.614	30608
807.756	31289
807.898	32374
808.04	33534
808.182	35105
808.324	37167
808.465	39583
808.607	42228
808.749	44404
808.891	45846
809.033	46105
809.174	44651
809.316	42178
809.458	39530
809.6	36848
809.741	34729
809.883	33116
810.025	31906
810.166	31000
810.308	30372
810.45	29851
810.591	29368
810.733	29025
810.875	28801
811.016	28405
811.158	28200
811.299	28173
811.441	28166
811.582	28044
811.724	27831
811.865	27816
812.007	27823
812.148	27633
812.29	27572
812.431	27724
812.573	27709
812.714	27857
812.855	27956
812.997	28154
813.138	27983
813.279	28036
813.421	27907
813.562	27823
813.703	27591
813.845	27389
813.986	27112
814.127	26891
814.268	26708
814.41	26686
814.551	26545
814.692	26705
814.833	26465
814.974	26625
815.115	26606
815.256	26362
815.397	26305
815.539	26362
815.68	26221
815.821	26122
815.962	26271
816.103	26191
816.244	26122
816.385	25879
816.526	25978
816.666	25719
816.807	25529
816.948	25685
817.089	25632
817.23	25674
817.371	25537
817.512	25495
817.653	25487
817.793	25411
817.934	25472
818.075	25381
818.216	25346
818.356	25308
818.497	25187
818.638	25183
818.778	25091
818.919	25122
819.06	25091
819.2	25198
819.341	25324
819.481	25259
819.622	25540
819.762	25586
819.903	25533
820.043	25548
820.184	25434
820.324	25377
820.465	25388
820.605	25289
820.746	25278
820.886	25183
821.026	25206
821.167	25240
821.307	25354
821.447	25304
821.588	25080
821.728	24875
821.868	24688
822.008	24711
822.149	24498
822.289	24505
822.429	24258
822.569	24258
822.709	24201
822.849	24026
822.99	24038
823.13	23958
823.27	23927
823.41	23714
823.55	23707
823.69	23851
823.83	23832
823.97	23767
824.11	23493
824.25	23604
824.389	23638
824.529	23551
824.669	23600
824.809	23665
824.949	23653
825.089	23695
825.228	23672
825.368	23398
825.508	23261
825.648	23395
825.787	23368
825.927	23398
826.067	23288
826.206	23254
826.346	23398
826.485	23421
826.625	23242
826.765	23356
826.904	23334
827.044	23018
827.183	23037
827.323	22953
827.462	23079
827.601	23018
827.741	22900
827.88	22995
828.02	22862
828.159	22877
828.298	22972
828.437	22896
828.577	22900
828.716	23079
828.855	22847
828.994	22733
829.134	22679
829.273	22755
829.412	22535
829.551	22622
829.69	22580
829.829	22554
829.968	22725
830.107	22679
830.246	22634
830.385	22599
830.524	22504
830.663	22470
830.802	22352
830.941	22192
831.08	22238
831.219	22360
831.357	22253
831.496	22531
831.635	22253
831.774	22192
831.913	22143
832.051	22040
832.19	22029
832.329	22074
832.467	21956
832.606	21922
832.744	21979
832.883	22177
833.022	22223
833.16	22200
833.299	22363
833.437	22466
833.576	22504
833.714	22523
833.852	22828
833.991	22790
834.129	23025
834.267	23041
834.406	22801
834.544	22812
834.682	22675
834.821	22691
834.959	22637
835.097	22325
835.235	22459
835.373	22188
835.511	22196
835.65	21991
835.788	21968
835.926	21781
836.064	21644
836.202	21785
836.34	21762
836.478	21873
836.615	21755
836.753	21732
836.891	21850
837.029	21728
837.167	21743
837.305	21698
837.443	21679
837.58	21705
837.718	21751
837.856	21595
837.993	21515
838.131	21576
838.269	21405
838.406	21408
838.544	21317
838.681	21108
838.819	21188
838.956	21009
839.094	20876
839.231	21207
839.369	21100
839.506	21382
839.643	21218
839.781	20933
839.918	20937
840.055	20914
840.193	20971
840.33	20914
840.467	20944
840.604	20899
840.742	21188
840.879	20819
841.016	20834
841.153	20720
841.29	21005
841.427	20868
841.564	20861
841.701	20933
841.838	20823
841.975	20921
842.112	20918
842.249	20693
842.385	20655
842.522	20716
842.659	20667
842.796	20724
842.933	20739
843.069	20739
843.206	20765
843.343	20876
843.479	20872
843.616	20746
843.752	20625
843.889	20701
844.025	20857
844.162	20845
844.298	20941
844.435	20956
844.571	21074
844.708	21397
844.844	21622
844.98	22002
845.117	22538
845.253	23311
845.389	24578
845.525	27481
845.661	31906
845.798	37422
845.934	41391
846.07	43080
846.206	42152
846.342	38556
846.478	33131
846.614	28272
846.75	25118
846.886	23254
847.022	22242
847.158	21667
847.294	21104
847.429	20811
847.565	20469
847.701	20609
847.837	20084
847.972	19978
848.108	20043
848.244	20088
848.379	19803
848.515	19803
848.65	19769
848.786	19696
848.921	19643
849.057	19788
849.192	19571
849.328	19731
849.463	19597
849.598	19400
849.734	19438
849.869	19468
850.004	19331
850.14	19381
850.275	19274
850.41	19331
850.545	19209
850.68	19164
850.815	19282
850.95	19270
851.085	19506
851.22	19301
851.355	19202
851.49	19225
851.625	19263
851.76	19285
851.895	19168
852.03	19175
852.165	19274
852.299	19358
852.434	19521
852.569	19400
852.703	19426
852.838	19377
852.973	19518
853.107	19460
853.242	19320
853.376	19316
853.511	19251
853.645	19350
853.78	19411
853.914	19403
854.048	19343
854.183	19381
854.317	19441
854.451	19651
854.585	19464
854.72	19335
854.854	19396
854.988	19289
855.122	19225
855.256	19050
855.39	19225
855.524	19419
855.658	19221
855.792	19259
855.926	19308
856.06	19312
856.194	19320
856.327	19225
856.461	19050
856.595	19088
856.729	19050
856.862	19061
856.996	19072
857.13	19141
857.263	19179
857.397	19141
857.53	19065
857.664	19000
857.797	19126
857.931	19088
858.064	19019
858.197	19065
858.331	19046
858.464	19012
858.597	18935
858.731	18844
858.864	18821
858.997	18939
859.13	18981
859.263	19034
859.396	19027
859.529	18970
859.662	18939
859.795	18939
859.928	18943
860.061	19038
860.194	19080
860.327	18856
860.46	18935
860.592	18993
860.725	19019
860.858	19065
860.99	18966
861.123	18920
861.256	18814
861.388	18973
861.521	19655
861.653	18844
861.786	18821
861.918	18779
862.05	18966
862.183	18821
862.315	18928
862.447	18954
862.58	18890
862.712	18692
862.844	18700
862.976	18688
863.108	18700
863.24	19084
863.372	18551
863.504	18498
863.636	18547
863.768	18669
863.9	18532
864.032	18475
864.164	18460
864.296	18547
864.428	18726
864.559	18597
864.691	18703
864.823	18669
864.954	18589
865.086	18616
865.217	18479
865.349	18486
865.48	18506
865.612	18498
865.743	18646
865.875	18593
866.006	18490
866.137	18559
866.269	18532
866.4	18597
866.531	18372
866.662	18471
866.793	18460
866.924	18506
867.055	18475
867.186	18456
867.317	18559
867.448	18391
867.579	18448
867.71	18346
867.841	18365
867.972	18422
868.103	18555
868.233	18517
868.364	18517
868.495	18566
868.625	18753
868.756	18840
868.886	18677
869.017	18852
869.147	18886
869.278	18871
869.408	18791
869.539	18749
869.669	18795
869.799	18928
869.929	18886
870.06	18996
870.19	19183
870.32	19126
870.45	19179
870.58	19236
870.71	19202
870.84	19346
870.97	19225
871.1	19168
871.23	19422
871.36	19407
871.489	19388
871.619	19480
871.749	19510
871.879	19438
872.008	19540
872.138	19506
872.267	19491
872.397	19285
872.526	19464
872.656	19331
872.785	19480
872.915	19540
873.044	19639
873.173	19590
873.303	19662
873.432	19765
873.561	19727
873.69	19734
873.819	19742
873.948	19791
874.077	19738
874.206	19742
874.335	19841
874.464	19845
874.593	20005
874.722	20027
874.851	20210
874.979	20157
875.108	20259
875.237	20183
875.365	20202
875.494	20298
875.623	20389
875.751	20298
875.88	20415
876.008	20480
876.136	20663
876.265	20998
876.393	21066
876.521	20944
876.65	21199
876.778	21176
876.906	20998
877.034	21112
877.162	21154
877.29	21226
877.418	21302
877.546	21313
877.674	21389
877.802	21557
877.93	21751
878.058	21774
878.185	21865
878.313	22112
878.441	22314
878.568	22618
878.696	23094
878.824	23828
878.951	24593
879.079	25864
879.206	27614
879.333	29311
879.461	30536
879.588	31422
879.715	31548
879.842	30852
879.97	29178
880.097	27549
880.224	26282
880.351	25225
880.478	24673
880.605	24015
880.732	23939
880.859	23790
880.986	23417
881.112	23368
881.239	23231
881.366	23143
881.493	23060
881.619	22987
881.746	23128
881.872	22987
881.999	22980
882.125	23090
882.252	23079
882.378	23117
882.505	23280
882.631	22987
882.757	22854
882.883	23029
883.01	23090
883.136	22824
883.262	22885
883.388	22752
883.514	22980
883.64	22953
883.766	22797
883.892	22759
884.018	22687
884.143	22896
884.269	22965
884.395	22717
884.52	22512
884.646	22710
884.772	22668
884.897	22542
885.023	22653
885.148	22626
885.274	22637
885.399	22546
885.524	22382
885.65	22455
885.775	22272
885.9	22131
886.025	22112
886.15	21983
886.275	21819
886.4	21603
886.525	21591
886.65	21401
886.775	21237
886.9	21370
887.025	21359
887.149	21131
887.274	20880
887.399	20625
887.523	20762
887.648	20552
887.773	20552
887.897	20564
888.021	20438
888.146	20389
888.27	20492
888.395	20488
888.519	20324
888.643	20305
888.767	20278
888.891	20096
889.015	20031
889.139	20039
889.263	19845
889.387	19978
889.511	20100
889.635	20016
889.759	19765
889.883	19826
890.006	19757
890.13	19887
890.254	19628
890.377	19689
890.501	19419
890.624	19350
890.748	19457
890.871	19301
890.995	19110
891.118	19057
891.241	19091
891.364	19179
891.488	19312
891.611	19088
891.734	19065
891.857	19076
891.98	18970
892.103	19156
892.226	18958
892.349	18871
892.471	18684
892.594	18951
892.717	18791
892.839	18749
892.962	18738
893.085	18795
893.207	18646
893.33	18509
893.452	18544
893.575	18715
893.697	18719
893.819	18741
893.941	18871
894.064	18635
894.186	18528
894.308	18574
894.43	18692
894.552	18700
894.674	18608
894.796	18467
894.918	18437
895.04	18475
895.161	18475
895.283	18361
895.405	18330
895.526	18547
895.648	18380
895.769	18475
895.891	18380
896.012	18490
896.134	18456
896.255	18357
896.376	18384
896.498	18384
896.619	18407
896.74	18418
896.861	18532
896.982	18730
897.103	18753
897.224	18563
897.345	18555
897.466	18486
897.587	18528
897.708	18677
897.828	18692
897.949	18551
898.07	18467
898.19	18513
898.311	18456
898.431	18486
898.552	18620
898.672	18608
898.792	18635
898.913	18688
899.033	18452
899.153	18422
899.273	18270
899.393	18361
899.513	18410
899.633	18418
899.753	18384
899.873	18327
899.993	18315
900.113	18342
900.232	18308
900.352	18311
900.472	18228
900.591	18125
900.711	18174
900.83	18072
900.95	18251
901.069	18197
901.189	18110
901.308	17813
901.427	17798
901.546	17764
901.665	17733
901.784	17638
901.904	17608
902.023	17608
902.141	17162
902.26	17258
902.379	17334
902.498	17098
902.617	17094
902.735	17166
902.854	17064
902.973	17083
903.091	16854
903.21	16790
903.328	16793
903.446	16702
903.565	16615
903.683	16603
903.801	16538
903.919	16592
904.038	16660
904.156	16455
904.274	16512
904.392	16371
904.51	16390
904.627	16417
904.745	16352
904.863	16447
904.981	16162
905.098	16055
905.216	16109
905.334	16040
905.451	15945
905.569	15945
905.686	16051
905.803	15998
905.921	15918
906.038	15827
906.155	15892
906.272	15576
906.389	15637
906.506	15595
906.623	15515
906.74	15515
906.857	15317
906.974	15450
907.091	15443
907.208	15599
907.324	15507
907.441	15386
907.557	15211
907.674	15173
907.79	15089
907.907	15256
908.023	15306
908.139	15283
908.256	15093
908.372	15104
908.488	15131
908.604	14952
908.72	14941
908.836	14956
908.952	14864
909.068	14979
909.184	15036
909.3	14925
909.415	14990
909.531	14906
909.647	14716
909.762	14701
909.878	14587
909.993	14640
910.108	14648
910.224	14659
910.339	14625
910.454	14518
910.57	14454
910.685	14347
910.8	14629
910.915	14651
911.03	14526
911.145	14332
911.259	14180
911.374	14271
911.489	14199
911.604	14107
911.718	14115
911.833	13921
911.947	13849
912.062	13765
912.176	13921
912.291	13913
912.405	14058
912.519	14244
912.633	14168
912.748	14050
912.862	14069
912.976	13993
913.09	13807
913.204	13841
913.318	13845
913.431	14005
913.545	13902
913.659	13902
913.772	13811
913.886	13655
914	13674
914.113	13776
914.226	13925
914.34	13689
914.453	13597
914.566	13799
914.68	13575
914.793	13685
914.906	13381
915.019	13350
915.132	13358
915.245	13460
915.358	13430
915.47	13434
915.583	13384
915.696	13388
915.809	13521
915.921	13586
916.034	13438
916.146	13358
916.259	13301
916.371	13384
916.483	13377
916.595	13266
916.708	13346
916.82	13251
916.932	13228
917.044	13251
917.156	13194
917.268	13179
917.38	13213
917.491	13149
917.603	13015
917.715	13187
917.826	13129
917.938	13080
918.049	12935
918.161	13076
918.272	13103
918.384	13107
918.495	12985
918.606	12954
918.717	12814
918.828	12901
918.939	12867
919.05	12825
919.161	12783
919.272	12582
919.383	12719
919.494	12924
919.604	13118
919.715	12840
919.826	12741
919.936	12875
920.047	12890
920.157	12863
920.267	13061
920.378	12825
920.488	12783
920.598	12993
920.708	13065
920.818	12901
920.928	12920
921.038	13095
921.148	13114
921.258	12734
921.368	12544
921.477	12650
921.587	12612
921.697	12460
921.806	12563
921.916	12467
922.025	12376
922.134	12178
922.244	12239
922.353	12300
922.462	12163
922.571	12152
922.68	11939
922.789	11851
922.898	11916
923.007	11916
923.116	11901
923.224	11923
923.333	11832
923.442	11771
923.55	11672
923.659	11733
923.767	11798
923.876	11745
923.984	11779
924.092	11592
924.201	11741
924.309	11688
924.417	11695
924.525	11570
924.633	11615
924.741	12441
924.849	11512
924.956	11577
925.064	11501
925.172	11379
925.279	11322
925.387	11516
925.494	11372
925.602	11414
925.709	11455
925.816	11311
925.924	11345
926.031	11452
926.138	11330
926.245	11452
926.352	11299
926.459	11478
926.566	11440
926.673	11330
926.779	11189
926.886	11181
926.993	11067
927.099	11075
927.206	11052
927.312	11014
927.419	11075
927.525	11045
927.631	11086
927.737	10984
927.843	10854
927.95	10752
928.056	10812
928.162	10949
928.267	10930
928.373	11474
928.479	10961
928.585	10653
928.69	10862
928.796	10892
928.901	10740
929.007	10630
929.112	10755
929.218	10694
929.323	10641
929.428	10675
929.533	10812
929.638	10478
929.743	10561
929.848	10626
929.953	10569
930.058	10489
930.163	10348
930.267	10344
930.372	10531
930.477	10405
930.581	10615
930.685	10379
930.79	10200
930.894	10295
930.998	10230
931.103	10337
931.207	9987
931.311	9960
931.415	9865
931.519	9682
931.623	9705
