Data from test_V78500241_2597.txt Node
Date: Fri Mar 25 14:51:47 CST 2022
User: usil
Spectrometer: V785-0024
Trigger mode: 0
Integration Time (sec): 4.000000E-1
Scans to average: 1
Nonlinearity correction enabled: false
Boxcar width: 0
Storing dark spectrum: false
XAxis mode: Wavelengths
Number of Pixels in Spectrum: 1024
>>>>>Begin Spectral Data<<<<<
801.071	22032
801.214	21975
801.356	21755
801.499	21564
801.641	21367
801.783	21424
801.926	21466
802.068	21310
802.211	21173
802.353	21176
802.496	21020
802.638	20998
802.78	20777
802.923	20686
803.065	20621
803.208	20689
803.35	20674
803.492	20838
803.635	20853
803.777	20731
803.919	20781
804.061	21085
804.204	20720
804.346	20674
804.488	20594
804.63	20598
804.773	20613
804.915	20602
805.057	20636
805.199	20674
805.341	20617
805.483	20701
805.626	20625
805.768	20598
805.91	20594
806.052	20575
806.194	20644
806.336	20750
806.478	20522
806.62	20568
806.762	20762
806.904	20750
807.046	20979
807.188	20788
807.33	20971
807.472	20902
807.614	20834
807.756	20830
807.898	20731
808.04	20617
808.182	20587
808.324	20697
808.465	20731
808.607	20792
808.749	20960
808.891	21146
809.033	21093
809.174	20956
809.316	20899
809.458	21028
809.6	20929
809.741	21074
809.883	21131
810.025	21096
810.166	21188
810.308	21199
810.45	21150
810.591	20963
810.733	20807
810.875	20682
811.016	20545
811.158	20758
811.299	20720
811.441	20853
811.582	20925
811.724	20788
811.865	20716
812.007	20667
812.148	20781
812.29	20743
812.431	20975
812.573	21047
812.714	21173
812.855	21192
812.997	21424
813.138	21534
813.279	21283
813.421	21245
813.562	21252
813.703	21013
813.845	20845
813.986	20579
814.127	20606
814.268	20256
814.41	20275
814.551	20339
814.692	20294
814.833	20240
814.974	20191
815.115	20332
815.256	20172
815.397	20153
815.539	20180
815.68	20020
815.821	19967
815.962	20081
816.103	20024
816.244	19993
816.385	19818
816.526	19765
816.666	19487
816.807	19392
816.948	19597
817.089	19578
817.23	19411
817.371	19430
817.512	19438
817.653	19365
817.793	19422
817.934	19407
818.075	19464
818.216	19476
818.356	19403
818.497	19278
818.638	19171
818.778	19069
818.919	19095
819.06	19156
819.2	19274
819.341	19335
819.481	19285
819.622	19453
819.762	19655
819.903	19415
820.043	19552
820.184	19419
820.324	19346
820.465	19430
820.605	19396
820.746	19384
820.886	19304
821.026	19419
821.167	19377
821.307	19419
821.447	19346
821.588	19236
821.728	19107
821.868	18962
822.008	18730
822.149	18882
822.289	18833
822.429	18547
822.569	18464
822.709	18486
822.849	18182
822.99	18334
823.13	18235
823.27	18277
823.41	18049
823.55	18011
823.69	18174
823.83	18205
823.97	18022
824.11	17977
824.25	17840
824.389	17851
824.529	18083
824.669	17904
824.809	17946
824.949	17969
825.089	17977
825.228	17977
825.368	17745
825.508	17653
825.648	17687
825.787	17729
825.927	17608
826.067	17596
826.206	17665
826.346	17748
826.485	17649
826.625	17642
826.765	17729
826.904	17657
827.044	17490
827.183	17242
827.323	17387
827.462	17341
827.601	17421
827.741	17315
827.88	17318
828.02	17261
828.159	17379
828.298	17318
828.437	17459
828.577	17417
828.716	17642
828.855	17318
828.994	17208
829.134	17109
829.273	17170
829.412	17083
829.551	17121
829.69	17109
829.829	17155
829.968	17223
830.107	17143
830.246	17090
830.385	17124
830.524	17060
830.663	17029
830.802	16816
830.941	16748
831.08	16637
831.219	16869
831.357	16858
831.496	16972
831.635	16767
831.774	16618
831.913	16527
832.051	16668
832.19	16538
832.329	16478
832.467	16466
832.606	16417
832.744	16432
832.883	16287
833.022	16424
833.16	16413
833.299	16417
833.437	16455
833.576	16447
833.714	16436
833.852	16546
833.991	16436
834.129	16596
834.267	16516
834.406	16443
834.544	16497
834.682	16512
834.821	16493
834.959	16527
835.097	16402
835.235	16538
835.373	16504
835.511	16462
835.65	16409
835.788	16478
835.926	16242
836.064	16143
836.202	16196
836.34	16443
836.478	16455
836.615	16417
836.753	16447
836.891	16523
837.029	16527
837.167	16443
837.305	16276
837.443	16287
837.58	16185
837.718	16367
837.856	16325
837.993	16238
838.131	16238
838.269	16253
838.406	16272
838.544	16150
838.681	15956
838.819	15964
838.956	15838
839.094	15869
839.231	15854
839.369	16048
839.506	16207
839.643	15994
839.781	15838
839.918	15816
840.055	15774
840.193	15892
840.33	15812
840.467	15838
840.604	15705
840.742	16116
840.879	15759
841.016	15705
841.153	15774
841.29	16055
841.427	15880
841.564	15937
841.701	15907
841.838	15800
841.975	15656
842.112	15759
842.249	15557
842.385	15580
842.522	15781
842.659	15637
842.796	15542
842.933	15648
843.069	15591
843.206	15614
843.343	15762
843.479	15526
843.616	15694
843.752	15454
843.889	15291
844.025	15549
844.162	15370
844.298	15420
844.435	15378
844.571	15325
844.708	15488
844.844	15587
844.98	15500
845.117	15549
845.253	15416
845.389	15340
845.525	15348
845.661	15188
845.798	15264
845.934	15287
846.07	15154
846.206	15188
846.342	15291
846.478	15135
846.614	15062
846.75	14872
846.886	14880
847.022	15123
847.158	14956
847.294	14933
847.429	14960
847.565	15009
847.701	15203
847.837	14720
847.972	14701
848.108	14792
848.244	14743
848.379	14670
848.515	14583
848.65	14564
848.786	14602
848.921	14499
849.057	14636
849.192	14617
849.328	14575
849.463	14533
849.598	14537
849.734	14454
849.869	14370
850.004	14358
850.14	14336
850.275	14389
850.41	14225
850.545	14366
850.68	14248
850.815	14396
850.95	14294
851.085	14499
851.22	14480
851.355	14419
851.49	14347
851.625	14218
851.76	14336
851.895	14252
852.03	14214
852.165	14355
852.299	14332
852.434	14408
852.569	14263
852.703	14336
852.838	14313
852.973	14492
853.107	14526
853.242	14317
853.376	14183
853.511	14123
853.645	14172
853.78	14412
853.914	14202
854.048	14180
854.183	14134
854.317	14218
854.451	14389
854.585	14130
854.72	14195
854.854	14210
854.988	14096
855.122	14012
855.256	14084
855.39	14107
855.524	14317
855.658	14271
855.792	14210
855.926	14278
856.06	14362
856.194	14298
856.327	14301
856.461	14153
856.595	14244
856.729	14252
856.862	14317
856.996	14256
857.13	14336
857.263	14259
857.397	14298
857.53	14176
857.664	14214
857.797	14271
857.931	14298
858.064	14240
858.197	14343
858.331	14286
858.464	14183
858.597	14172
858.731	14176
858.864	14206
858.997	14248
859.13	14244
859.263	14259
859.396	14298
859.529	14278
859.662	14176
859.795	14180
859.928	14168
860.061	14355
860.194	14355
860.327	14256
860.46	14126
860.592	14347
860.725	14286
860.858	14396
860.99	14221
861.123	14050
861.256	14145
861.388	14225
861.521	14864
861.653	14065
861.786	14035
861.918	14024
862.05	14176
862.183	14161
862.315	14214
862.447	14187
862.58	14077
862.712	13887
862.844	13898
862.976	14081
863.108	13997
863.24	14499
863.372	13871
863.504	13921
863.636	13978
863.768	14073
863.9	14001
864.032	13940
864.164	13986
864.296	13963
864.428	14126
864.559	14149
864.691	14176
864.823	14031
864.954	14046
865.086	14024
865.217	13868
865.349	13879
865.48	13970
865.612	13993
865.743	14043
865.875	13925
866.006	14031
866.137	13993
866.269	14008
866.4	13940
866.531	13936
866.662	13894
866.793	13860
866.924	13871
867.055	14024
867.186	14001
867.317	13955
867.448	13879
867.579	13898
867.71	13856
867.841	13902
867.972	14001
868.103	13978
868.233	14065
868.364	13989
868.495	14119
868.625	14164
868.756	14351
868.886	14103
869.017	14218
869.147	14256
869.278	14438
869.408	14180
869.539	14225
869.669	14240
869.799	14320
869.929	14309
870.06	14400
870.19	14518
870.32	14457
870.45	14560
870.58	14564
870.71	14697
870.84	14750
870.97	14644
871.1	14613
871.23	14792
871.36	14918
871.489	14758
871.619	14746
871.749	14720
871.879	14891
872.008	14921
872.138	14918
872.267	14823
872.397	14648
872.526	14648
872.656	14575
872.785	14701
872.915	14971
873.044	14948
873.173	14853
873.303	14910
873.432	14952
873.561	14948
873.69	14857
873.819	14880
873.948	14918
874.077	14842
874.206	14880
874.335	14830
874.464	15032
874.593	15161
874.722	15055
874.851	15112
874.979	15199
875.108	15313
875.237	15131
875.365	15081
875.494	15176
875.623	15287
875.751	15203
875.88	15264
876.008	15351
876.136	15428
876.265	15526
876.393	15682
876.521	15724
876.65	15637
876.778	15652
876.906	15656
877.034	15542
877.162	15610
877.29	15572
877.418	15549
877.546	15686
877.674	15534
877.802	15603
877.93	15622
878.058	15523
878.185	15424
878.313	15625
878.441	15671
878.568	15450
878.696	15496
878.824	15580
878.951	15717
879.079	15827
879.206	15854
879.333	15823
879.461	15606
879.588	15717
879.715	15797
879.842	15895
879.97	15629
880.097	15447
880.224	15454
880.351	15439
880.478	15553
880.605	15458
880.732	15439
880.859	15641
880.986	15481
881.112	15549
881.239	15386
881.366	15245
881.493	15123
881.619	15062
881.746	15222
881.872	15123
881.999	15085
882.125	15188
882.252	15074
882.378	15119
882.505	15199
882.631	15020
882.757	14952
882.883	15024
883.01	14952
883.136	14834
883.262	14807
883.388	14750
883.514	14910
883.64	15039
883.766	14883
883.892	14720
884.018	14724
884.143	14792
884.269	15047
884.395	14640
884.52	14621
884.646	14621
884.772	14541
884.897	14587
885.023	14670
885.148	14727
885.274	14769
885.399	14804
885.524	14648
885.65	14564
885.775	14632
885.9	14629
886.025	14697
886.15	14716
886.275	14579
886.4	14526
886.525	14621
886.65	14598
886.775	14598
886.9	14758
887.025	14872
887.149	14769
887.274	14522
887.399	14446
887.523	14355
887.648	14374
887.773	14415
887.897	14606
888.021	14571
888.146	14396
888.27	14549
888.395	14682
888.519	14549
888.643	14541
888.767	14442
888.891	14396
889.015	14366
889.139	14324
889.263	14275
889.387	14404
889.511	14457
889.635	14507
889.759	14286
889.883	14385
890.006	14431
890.13	14446
890.254	14294
890.377	14267
890.501	14100
890.624	14244
890.748	14119
890.871	13955
890.995	14069
891.118	13944
891.241	14119
891.364	14153
891.488	14077
891.611	13989
891.734	14096
891.857	14115
891.98	14043
892.103	14115
892.226	14008
892.349	13970
892.471	13902
892.594	13951
892.717	14092
892.839	14001
892.962	14088
893.085	14168
893.207	13967
893.33	13955
893.452	13849
893.575	14054
893.697	13982
893.819	14210
893.941	14309
894.064	14214
894.186	14012
894.308	14012
894.43	14069
894.552	14263
894.674	14199
894.796	13974
894.918	14058
895.04	14065
895.161	14206
895.283	14252
895.405	14107
895.526	14111
895.648	14092
895.769	14195
895.891	14248
896.012	14237
896.134	14259
896.255	14199
896.376	14142
896.498	14134
896.619	14237
896.74	14259
896.861	14298
896.982	14518
897.103	14632
897.224	14568
897.345	14476
897.466	14355
897.587	14454
897.708	14598
897.828	14632
897.949	14476
898.07	14320
898.19	14514
898.311	14682
898.431	14499
898.552	14549
898.672	14571
898.792	14625
898.913	14644
899.033	14511
899.153	14358
899.273	14320
899.393	14495
899.513	14324
899.633	14450
899.753	14469
899.873	14393
899.993	14461
900.113	14465
900.232	14454
900.352	14408
900.472	14271
900.591	14233
900.711	14259
900.83	14324
900.95	14374
901.069	14317
901.189	14035
901.308	13963
901.427	13997
901.546	13947
901.665	13936
901.784	13974
901.904	13833
902.023	13731
902.141	13613
902.26	13476
902.379	13605
902.498	13563
902.617	13350
902.735	13567
902.854	13483
902.973	13521
903.091	13236
903.21	13240
903.328	13255
903.446	13168
903.565	13183
903.683	13171
903.801	13057
903.919	13099
904.038	13031
904.156	12932
904.274	13031
904.392	12935
904.51	12932
904.627	12871
904.745	12943
904.863	12954
904.981	12658
905.098	12597
905.216	12639
905.334	12646
905.451	12620
905.569	12616
905.686	12665
905.803	12639
905.921	12410
906.038	12502
906.155	12471
906.272	12323
906.389	12281
906.506	12235
906.623	12167
906.74	12167
906.857	12140
906.974	12079
907.091	12228
907.208	12353
907.324	12319
907.441	12114
907.557	12003
907.674	11935
907.79	11893
907.907	11942
908.023	11870
908.139	11942
908.256	11897
908.372	11847
908.488	11866
908.604	11627
908.72	11691
908.836	11722
908.952	11649
909.068	11767
909.184	11786
909.3	11745
909.415	11703
909.531	11741
909.647	11467
909.762	11539
909.878	11444
909.993	11459
910.108	11425
910.224	11444
910.339	11471
910.454	11395
910.57	11288
910.685	11307
910.8	11585
910.915	11535
911.03	11330
911.145	11185
911.259	11185
911.374	11197
911.489	11102
911.604	11067
911.718	10869
911.833	10930
911.947	10831
912.062	10702
912.176	10896
912.291	11003
912.405	10919
912.519	11124
912.633	11159
912.748	11018
912.862	10911
912.976	10793
913.09	10793
913.204	10729
913.318	10809
913.431	10919
913.545	10881
913.659	10915
913.772	10828
913.886	10725
914	10615
914.113	10816
914.226	10771
914.34	10778
914.453	10569
914.566	10820
914.68	10630
914.793	10710
914.906	10398
915.019	10405
915.132	10363
915.245	10474
915.358	10402
915.47	10432
915.583	10493
915.696	10565
915.809	10565
915.921	10641
916.034	10474
916.146	10337
916.259	10424
916.371	10489
916.483	10417
916.595	10398
916.708	10379
916.82	10424
916.932	10344
917.044	10280
917.156	10341
917.268	10253
917.38	10284
917.491	10284
917.603	10367
917.715	10421
917.826	10424
917.938	10192
918.049	10154
918.161	10306
918.272	10421
918.384	10356
918.495	10223
918.606	10188
918.717	10055
918.828	10227
918.939	10166
919.05	10135
919.161	10112
919.272	9937
919.383	9926
919.494	10166
919.604	10466
919.715	10158
919.826	10188
919.936	10158
920.047	10215
920.157	10147
920.267	10325
920.378	10257
920.488	10207
920.598	10363
920.708	10565
920.818	10394
920.928	10367
921.038	10675
921.148	10508
921.258	10227
921.368	10131
921.477	10029
921.587	9975
921.697	9911
921.806	10040
921.916	9892
922.025	9690
922.134	9736
922.244	9698
922.353	9774
922.462	9610
922.571	9603
922.68	9515
922.789	9454
922.898	9538
923.007	9382
923.116	9443
923.224	9511
923.333	9408
923.442	9272
923.55	9268
923.659	9313
923.767	9401
923.876	9260
923.984	9401
924.092	9268
924.201	9313
924.309	9245
924.417	9329
924.525	9237
924.633	9321
924.741	10017
924.849	9097
924.956	9245
925.064	9051
925.172	8967
925.279	9032
925.387	9127
925.494	9135
925.602	9272
925.709	9100
925.816	9001
925.924	9108
926.031	9127
926.138	9123
926.245	9070
926.352	9039
926.459	9142
926.566	9218
926.673	9005
926.779	8864
926.886	8929
926.993	8891
927.099	8804
927.206	8724
927.312	8739
927.419	8834
927.525	8876
927.631	8918
927.737	8739
927.843	8686
927.95	8583
928.056	8625
928.162	8731
928.267	8785
928.373	9367
928.479	8800
928.585	8583
928.69	8659
928.796	8720
928.901	8533
929.007	8507
929.112	8629
929.218	8610
929.323	8488
929.428	8571
929.533	8689
929.638	8454
929.743	8526
929.848	8549
929.953	8522
930.058	8434
930.163	8237
930.267	8282
930.372	8488
930.477	8252
930.581	8488
930.685	8404
930.79	8225
930.894	8267
930.998	8225
931.103	8355
931.207	8039
931.311	7963
931.415	7932
931.519	7753
931.623	7734
