Data from test_V78500241_149.txt Node
Date: Fri Mar 25 14:34:45 CST 2022
User: usil
Spectrometer: V785-0024
Trigger mode: 0
Integration Time (sec): 4.000000E-1
Scans to average: 1
Nonlinearity correction enabled: false
Boxcar width: 0
Storing dark spectrum: false
XAxis mode: Wavelengths
Number of Pixels in Spectrum: 1024
>>>>>Begin Spectral Data<<<<<
801.071	29353
801.214	29235
801.356	29022
801.499	28984
801.641	28816
801.783	28752
801.926	28752
802.068	28744
802.211	28752
802.353	28752
802.496	28489
802.638	28500
802.78	28512
802.923	28363
803.065	28314
803.208	28337
803.35	28421
803.492	28489
803.635	28615
803.777	28580
803.919	28717
804.061	28934
804.204	28660
804.346	28531
804.488	28417
804.63	28542
804.773	28421
804.915	28702
805.057	28790
805.199	28683
805.341	28767
805.483	28858
805.626	28869
805.768	28869
805.91	29037
806.052	28923
806.194	28984
806.336	29083
806.478	29124
806.62	29269
806.762	29303
806.904	29509
807.046	29893
807.188	30117
807.33	30087
807.472	30475
807.614	30684
807.756	31012
807.898	31270
808.04	31658
808.182	32343
808.324	33271
808.465	34299
808.607	35634
808.749	36741
808.891	37225
809.033	37141
809.174	36486
809.316	35554
809.458	34291
809.6	33077
809.741	32233
809.883	31651
810.025	31293
810.166	30779
810.308	30719
810.45	30547
810.591	30026
810.733	29855
810.875	29752
811.016	29585
811.158	29501
811.299	29436
811.441	29474
811.582	29444
811.724	29337
811.865	29071
812.007	29349
812.148	29231
812.29	29250
812.431	29410
812.573	29448
812.714	29459
812.855	29672
812.997	29535
813.138	29707
813.279	29634
813.421	29592
813.562	29551
813.703	29337
813.845	29193
813.986	28873
814.127	28668
814.268	28561
814.41	28542
814.551	28432
814.692	28710
814.833	28390
814.974	28535
815.115	28512
815.256	28333
815.397	28405
815.539	28371
815.68	28310
815.821	28139
815.962	28318
816.103	28048
816.244	28154
816.385	27945
816.526	27869
816.666	27804
816.807	27614
816.948	27732
817.089	27705
817.23	27633
817.371	27458
817.512	27458
817.653	27530
817.793	27462
817.934	27348
818.075	27507
818.216	27572
818.356	27420
818.497	27447
818.638	27207
818.778	27302
818.919	27222
819.06	27203
819.2	27378
819.341	27454
819.481	27439
819.622	27618
819.762	27823
819.903	27759
820.043	27530
820.184	27587
820.324	27515
820.465	27622
820.605	27603
820.746	27233
820.886	27226
821.026	27279
821.167	27389
821.307	27481
821.447	27348
821.588	27272
821.728	27077
821.868	26910
822.008	26902
822.149	26739
822.289	26876
822.429	26571
822.569	26522
822.709	26473
822.849	26214
822.99	26343
823.13	26164
823.27	26157
823.41	26077
823.55	25947
823.69	26062
823.83	25875
823.97	25982
824.11	25780
824.25	25849
824.389	25757
824.529	25921
824.669	25856
824.809	25715
824.949	25868
825.089	25868
825.228	25811
825.368	25620
825.508	25620
825.648	25556
825.787	25582
825.927	25624
826.067	25613
826.206	25575
826.346	25685
826.485	25609
826.625	25632
826.765	25704
826.904	25624
827.044	25396
827.183	25377
827.323	25236
827.462	25327
827.601	25293
827.741	25209
827.88	25190
828.02	25069
828.159	25335
828.298	25133
828.437	25251
828.577	25168
828.716	25209
828.855	25072
828.994	24764
829.134	25008
829.273	24890
829.412	24814
829.551	24909
829.69	24875
829.829	24837
829.968	24817
830.107	24776
830.246	24932
830.385	24798
830.524	24817
830.663	24772
830.802	24521
830.941	24623
831.08	24585
831.219	24490
831.357	24551
831.496	24650
831.635	24460
831.774	24418
831.913	24323
832.051	24483
832.19	24300
832.329	24209
832.467	24140
832.606	24095
832.744	24140
832.883	24232
833.022	24224
833.16	24239
833.299	24346
833.437	24372
833.576	24384
833.714	24372
833.852	24544
833.991	24604
834.129	24608
834.267	24669
834.406	24486
834.544	24604
834.682	24395
834.821	24426
834.959	24448
835.097	24319
835.235	24353
835.373	24186
835.511	24232
835.65	24049
835.788	24060
835.926	23939
836.064	23760
836.202	23893
836.34	24026
836.478	24057
836.615	23961
836.753	24049
836.891	23859
837.029	23950
837.167	23927
837.305	23977
837.443	23847
837.58	23756
837.718	23870
837.856	23748
837.993	23710
838.131	23726
838.269	23551
838.406	23646
838.544	23539
838.681	23334
838.819	23395
838.956	23280
839.094	23197
839.231	23261
839.369	23277
839.506	23482
839.643	23414
839.781	23250
839.918	23003
840.055	23166
840.193	23147
840.33	22961
840.467	23079
840.604	22984
840.742	23455
840.879	22843
841.016	22934
841.153	23064
841.29	23220
841.427	23048
841.564	23079
841.701	22957
841.838	22972
841.975	22972
842.112	23003
842.249	22911
842.385	22736
842.522	23014
842.659	22831
842.796	22774
842.933	22660
843.069	22710
843.206	22607
843.343	22790
843.479	22774
843.616	22900
843.752	22622
843.889	22725
844.025	22774
844.162	22710
844.298	22812
844.435	22672
844.571	22672
844.708	22953
844.844	23113
844.98	23315
845.117	23528
845.253	23512
845.389	24136
845.525	25266
845.661	27275
845.798	29425
845.934	31331
846.07	32126
846.206	31761
846.342	30323
846.478	27861
846.614	25727
846.75	24327
846.886	23501
847.022	23079
847.158	22668
847.294	22504
847.429	22432
847.565	22280
847.701	22493
847.837	21869
847.972	21781
848.108	21907
848.244	21861
848.379	21614
848.515	21583
848.65	21599
848.786	21595
848.921	21534
849.057	21679
849.192	21614
849.328	21504
849.463	21648
849.598	21431
849.734	21454
849.869	21283
850.004	21302
850.14	21272
850.275	21157
850.41	21154
850.545	21173
850.68	21332
850.815	21279
850.95	21112
851.085	21344
851.22	21386
851.355	21310
851.49	21218
851.625	21184
851.76	21275
851.895	21157
852.03	21100
852.165	21081
852.299	21313
852.434	21435
852.569	21222
852.703	21340
852.838	21332
852.973	21378
853.107	21313
853.242	21207
853.376	21062
853.511	21066
853.645	21096
853.78	21332
853.914	21157
854.048	21081
854.183	21077
854.317	21100
854.451	21268
854.585	21127
854.72	21085
854.854	21157
854.988	21009
855.122	21131
855.256	20994
855.39	21043
855.524	21230
855.658	21123
855.792	21142
855.926	21142
856.06	21135
856.194	21119
856.327	21081
856.461	20937
856.595	20982
856.729	20963
856.862	21047
856.996	21074
857.13	21020
857.263	21043
857.397	21074
857.53	20998
857.664	20979
857.797	20979
857.931	21077
858.064	21047
858.197	20902
858.331	21024
858.464	20891
858.597	20842
858.731	20921
858.864	20895
858.997	20807
859.13	20883
859.263	20944
859.396	21024
859.529	20971
859.662	20792
859.795	20746
859.928	21020
860.061	21017
860.194	21020
860.327	20872
860.46	20754
860.592	20895
860.725	21066
860.858	21039
860.99	20872
861.123	20842
861.256	20887
861.388	20785
861.521	21553
861.653	20861
861.786	20712
861.918	20857
862.05	20708
862.183	20883
862.315	20883
862.447	20963
862.58	20868
862.712	20701
862.844	20575
862.976	20632
863.108	20724
863.24	20967
863.372	20530
863.504	20556
863.636	20617
863.768	20629
863.9	20560
864.032	20370
864.164	20507
864.296	20598
864.428	20613
864.559	20609
864.691	20625
864.823	20434
864.954	20526
865.086	20518
865.217	20461
865.349	20389
865.48	20396
865.612	20446
865.743	20533
865.875	20499
866.006	20469
866.137	20480
866.269	20427
866.4	20412
866.531	20313
866.662	20332
866.793	20317
866.924	20328
867.055	20336
867.186	20446
867.317	20328
867.448	20320
867.579	20301
867.71	20366
867.841	20347
867.972	20221
868.103	20404
868.233	20442
868.364	20320
868.495	20560
868.625	20636
868.756	20746
868.886	20495
869.017	20621
869.147	20670
869.278	20693
869.408	20579
869.539	20648
869.669	20716
869.799	20648
869.929	20674
870.06	20743
870.19	21043
870.32	20899
870.45	20921
870.58	21058
870.71	21150
870.84	21062
870.97	21051
871.1	21135
871.23	21222
871.36	21218
871.489	21241
871.619	21218
871.749	21252
871.879	21447
872.008	21344
872.138	21214
872.267	21298
872.397	21150
872.526	21131
872.656	21066
872.785	21104
872.915	21310
873.044	21408
873.173	21325
873.303	21477
873.432	21435
873.561	21469
873.69	21443
873.819	21424
873.948	21492
874.077	21492
874.206	21351
874.335	21363
874.464	21519
874.593	21633
874.722	21599
874.851	21759
874.979	21755
875.108	21755
875.237	21736
875.365	21827
875.494	21785
875.623	21728
875.751	21793
875.88	21816
876.008	22044
876.136	21907
876.265	22234
876.393	22375
876.521	22291
876.65	22382
876.778	22249
876.906	22219
877.034	22246
877.162	22421
877.29	22303
877.418	22474
877.546	22421
877.674	22455
877.802	22424
877.93	22519
878.058	22580
878.185	22634
878.313	22759
878.441	22908
878.568	22824
878.696	23151
878.824	23516
878.951	23878
879.079	24475
879.206	25373
879.333	25856
879.461	26412
879.588	26975
879.715	26914
879.842	26758
879.97	25830
880.097	24958
880.224	24357
880.351	24018
880.478	23794
880.605	23467
880.732	23512
880.859	23562
880.986	23231
881.112	23242
881.239	22984
881.366	22858
881.493	22965
881.619	22744
881.746	22702
881.872	22801
881.999	22786
882.125	22683
882.252	22820
882.378	22972
882.505	22892
882.631	22816
882.757	22649
882.883	22733
883.01	22622
883.136	22500
883.262	22455
883.388	22295
883.514	22398
883.64	22603
883.766	22508
883.892	22493
884.018	22402
884.143	22626
884.269	22679
884.395	22325
884.52	22253
884.646	22337
884.772	22257
884.897	22109
885.023	22272
885.148	22337
885.274	22261
885.399	22314
885.524	21994
885.65	22158
885.775	21991
885.9	21945
886.025	22036
886.15	22002
886.275	21823
886.4	21682
886.525	21778
886.65	21622
886.775	21690
886.9	21717
887.025	21831
887.149	21553
887.274	21416
887.399	21348
887.523	21249
887.648	21180
887.773	21214
887.897	21317
888.021	21207
888.146	21150
888.27	21161
888.395	21173
888.519	21032
888.643	20967
888.767	21055
888.891	20910
889.015	20693
889.139	20826
889.263	20819
889.387	20754
889.511	20948
889.635	20857
889.759	20720
889.883	20720
890.006	20769
890.13	20769
890.254	20545
890.377	20571
890.501	20514
890.624	20389
890.748	20526
890.871	20336
890.995	20317
891.118	20313
891.241	20358
891.364	20206
891.488	20259
891.611	20176
891.734	20256
891.857	20199
891.98	20153
892.103	20347
892.226	20153
892.349	19963
892.471	20062
892.594	20058
892.717	20046
892.839	19951
892.962	19982
893.085	20008
893.207	19913
893.33	19898
893.452	19864
893.575	19978
893.697	19822
893.819	20065
893.941	20046
894.064	20168
894.186	19750
894.308	19852
894.43	19921
894.552	20062
894.674	19826
894.796	19689
894.918	19814
895.04	19784
895.161	19940
895.283	19871
895.405	19750
895.526	19845
895.648	19871
895.769	19776
895.891	19795
896.012	19879
896.134	19921
896.255	19807
896.376	19693
896.498	19788
896.619	19864
896.74	19753
896.861	19826
896.982	20084
897.103	20202
897.224	19993
897.345	20016
897.466	19936
897.587	19959
897.708	20088
897.828	19967
897.949	19856
898.07	19860
898.19	19791
898.311	20092
898.431	19841
898.552	20005
898.672	20012
898.792	19963
898.913	19963
899.033	19826
899.153	19734
899.273	19601
899.393	19635
899.513	19601
899.633	19597
899.753	19708
899.873	19582
899.993	19807
900.113	19670
900.232	19616
900.352	19620
900.472	19525
900.591	19411
900.711	19537
900.83	19362
900.95	19590
901.069	19609
901.189	19483
901.308	19072
901.427	18993
901.546	19004
901.665	19019
901.784	18909
901.904	18924
902.023	18768
902.141	18604
902.26	18566
902.379	18654
902.498	18517
902.617	18555
902.735	18475
902.854	18452
902.973	18414
903.091	18152
903.21	18076
903.328	18121
903.446	18098
903.565	17992
903.683	17950
903.801	17817
903.919	17935
904.038	17935
904.156	17748
904.274	17756
904.392	17687
904.51	17653
904.627	17760
904.745	17783
904.863	17703
904.981	17524
905.098	17364
905.216	17512
905.334	17376
905.451	17448
905.569	17387
905.686	17395
905.803	17383
905.921	17117
906.038	17318
906.155	17079
906.272	17029
906.389	17041
906.506	16778
906.623	17006
906.74	16881
906.857	16797
906.974	16664
907.091	16919
907.208	16984
907.324	16923
907.441	16797
907.557	16729
907.674	16618
907.79	16500
907.907	16500
908.023	16637
908.139	16550
908.256	16531
908.372	16436
908.488	16405
908.604	16230
908.72	16306
908.836	16154
908.952	16306
909.068	16287
909.184	16409
909.3	16284
909.415	16135
909.531	16234
909.647	15975
909.762	15941
909.878	15991
909.993	15937
910.108	15930
910.224	15846
910.339	15953
910.454	15831
910.57	15709
910.685	15698
910.8	15922
910.915	15903
911.03	15789
911.145	15637
911.259	15648
911.374	15572
911.489	15507
911.604	15496
911.718	15344
911.833	15370
911.947	15173
912.062	15108
912.176	15245
912.291	15245
912.405	15176
912.519	15568
912.633	15447
912.748	15336
912.862	15344
912.976	15222
913.09	15013
913.204	15032
913.318	15135
913.431	15218
913.545	15150
913.659	15157
913.772	15055
913.886	14941
914	14861
914.113	15036
914.226	15036
914.34	15062
914.453	14834
914.566	15055
914.68	14845
914.793	14838
914.906	14746
915.019	14480
915.132	14514
915.245	14568
915.358	14655
915.47	14640
915.583	14564
915.696	14579
915.809	14716
915.921	14735
916.034	14541
916.146	14423
916.259	14537
916.371	14518
916.483	14629
916.595	14412
916.708	14434
916.82	14355
916.932	14355
917.044	14347
917.156	14434
917.268	14267
917.38	14294
917.491	14168
917.603	14351
917.715	14221
917.826	14339
917.938	14225
918.049	14092
918.161	14172
918.272	14366
918.384	14355
918.495	14157
918.606	13978
918.717	13947
918.828	14012
918.939	13944
919.05	14016
919.161	13906
919.272	13776
919.383	13871
919.494	13997
919.604	14145
919.715	13940
919.826	13890
919.936	13928
920.047	13970
920.157	13921
920.267	14069
920.378	13909
920.488	13803
920.598	14100
920.708	14202
920.818	14020
920.928	13951
921.038	14130
921.148	14035
921.258	13795
921.368	13757
921.477	13662
921.587	13624
921.697	13575
921.806	13658
921.916	13514
922.025	13335
922.134	13289
922.244	13198
922.353	13217
922.462	13133
922.571	13050
922.68	12928
922.789	12958
922.898	12958
923.007	12867
923.116	12954
923.224	12901
923.333	12920
923.442	12783
923.55	12745
923.659	12791
923.767	12897
923.876	12707
923.984	12806
924.092	12616
924.201	12776
924.309	12696
924.417	12665
924.525	12639
924.633	12642
924.741	13491
924.849	12414
924.956	12563
925.064	12407
925.172	12338
925.279	12384
925.387	12407
925.494	12365
925.602	12483
925.709	12437
925.816	12273
925.924	12281
926.031	12376
926.138	12342
926.245	12391
926.352	12292
926.459	12342
926.566	12361
926.673	12266
926.779	12175
926.886	12121
926.993	11961
927.099	12015
927.206	11950
927.312	11904
927.419	12011
927.525	11961
927.631	11984
927.737	11874
927.843	11813
927.95	11707
928.056	11745
928.162	11805
928.267	11790
928.373	12391
928.479	11786
928.585	11649
928.69	11707
928.796	11798
928.901	11589
929.007	11493
929.112	11707
929.218	11623
929.323	11573
929.428	11436
929.533	11676
929.638	11372
929.743	11493
929.848	11532
929.953	11353
930.058	11364
930.163	11265
930.267	11204
930.372	11311
930.477	11128
930.581	11379
930.685	11292
930.79	11094
930.894	11128
930.998	11025
931.103	11204
931.207	10774
931.311	10786
931.415	10675
931.519	10455
931.623	10451
