Data from test_V78500241_444.txt Node
Date: Fri Mar 25 14:36:48 CST 2022
User: usil
Spectrometer: V785-0024
Trigger mode: 0
Integration Time (sec): 4.000000E-1
Scans to average: 1
Nonlinearity correction enabled: false
Boxcar width: 0
Storing dark spectrum: false
XAxis mode: Wavelengths
Number of Pixels in Spectrum: 1024
>>>>>Begin Spectral Data<<<<<
801.071	26655
801.214	26476
801.356	26355
801.499	26149
801.641	26107
801.783	25970
801.926	26081
802.068	25955
802.211	25746
802.353	25807
802.496	25723
802.638	25643
802.78	25575
802.923	25426
803.065	25460
803.208	25426
803.35	25521
803.492	25594
803.635	25670
803.777	25525
803.919	25514
804.061	25795
804.204	25639
804.346	25472
804.488	25449
804.63	25457
804.773	25327
804.915	25445
805.057	25628
805.199	25506
805.341	25415
805.483	25704
805.626	25632
805.768	25479
805.91	25616
806.052	25601
806.194	25453
806.336	25715
806.478	25510
806.62	25495
806.762	25609
806.904	25765
807.046	26054
807.188	25879
807.33	25932
807.472	25940
807.614	25795
807.756	25731
807.898	25746
808.04	25548
808.182	25571
808.324	25635
808.465	25674
808.607	25795
808.749	26001
808.891	26256
809.033	26183
809.174	26107
809.316	25921
809.458	26008
809.6	25993
809.741	26122
809.883	26187
810.025	26134
810.166	26256
810.308	26267
810.45	26035
810.591	26233
810.733	25951
810.875	25807
811.016	25803
811.158	25791
811.299	25917
811.441	25982
811.582	25772
811.724	25928
811.865	25814
812.007	25818
812.148	25799
812.29	25868
812.431	26016
812.573	26221
812.714	26256
812.855	26278
812.997	26412
813.138	26571
813.279	26434
813.421	26206
813.562	26377
813.703	26191
813.845	26092
813.986	25700
814.127	25453
814.268	25426
814.41	25464
814.551	25525
814.692	25419
814.833	25362
814.974	25369
815.115	25350
815.256	25179
815.397	25137
815.539	25278
815.68	25080
815.821	25015
815.962	25148
816.103	24992
816.244	24989
816.385	24867
816.526	24764
816.666	24642
816.807	24505
816.948	24715
817.089	24696
817.23	24578
817.371	24631
817.512	24635
817.653	24551
817.793	24369
817.934	24544
818.075	24414
818.216	24544
818.356	24376
818.497	24479
818.638	24167
818.778	24129
818.919	24384
819.06	24277
819.2	24228
819.341	24471
819.481	24407
819.622	24544
819.762	24711
819.903	24654
820.043	24627
820.184	24574
820.324	24566
820.465	24559
820.605	24627
820.746	24536
820.886	24369
821.026	24426
821.167	24437
821.307	24555
821.447	24414
821.588	24289
821.728	24159
821.868	24018
822.008	23923
822.149	23912
822.289	23786
822.429	23737
822.569	23630
822.709	23490
822.849	23318
822.99	23330
823.13	23284
823.27	23208
823.41	23216
823.55	23128
823.69	23208
823.83	23003
823.97	22976
824.11	22809
824.25	22877
824.389	22778
824.529	22915
824.669	22972
824.809	22946
824.949	22908
825.089	22972
825.228	22873
825.368	22812
825.508	22812
825.648	22862
825.787	22759
825.927	22797
826.067	22660
826.206	22645
826.346	22683
826.485	22793
826.625	22744
826.765	22835
826.904	22862
827.044	22500
827.183	22428
827.323	22341
827.462	22489
827.601	22310
827.741	22382
827.88	22356
828.02	22280
828.159	22318
828.298	22348
828.437	22424
828.577	22207
828.716	22493
828.855	22348
828.994	22093
829.134	22002
829.273	22261
829.412	22044
829.551	21968
829.69	22017
829.829	22010
829.968	22093
830.107	22128
830.246	22063
830.385	22135
830.524	21934
830.663	21850
830.802	21816
830.941	21671
831.08	21652
831.219	21739
831.357	21599
831.496	21816
831.635	21671
831.774	21614
831.913	21561
832.051	21420
832.19	21313
832.329	21469
832.467	21294
832.606	21264
832.744	21264
832.883	21363
833.022	21252
833.16	21294
833.299	21283
833.437	21294
833.576	21298
833.714	21161
833.852	21325
833.991	21329
834.129	21332
834.267	21226
834.406	21340
834.544	21291
834.682	21249
834.821	21348
834.959	21439
835.097	21214
835.235	21321
835.373	21218
835.511	21222
835.65	21119
835.788	21081
835.926	21005
836.064	21013
836.202	20948
836.34	21142
836.478	21272
836.615	21131
836.753	21146
836.891	21283
837.029	21321
837.167	21062
837.305	21070
837.443	20948
837.58	21039
837.718	21047
837.856	21100
837.993	21096
838.131	21047
838.269	20861
838.406	20921
838.544	20826
838.681	20648
838.819	20697
838.956	20514
839.094	20598
839.231	20461
839.369	20613
839.506	20857
839.643	20750
839.781	20499
839.918	20385
840.055	20514
840.193	20480
840.33	20343
840.467	20400
840.604	20412
840.742	20602
840.879	20298
841.016	20370
841.153	20278
841.29	20423
841.427	20256
841.564	20450
841.701	20476
841.838	20237
841.975	20393
842.112	20191
842.249	20054
842.385	20062
842.522	20259
842.659	20168
842.796	20058
842.933	20043
843.069	20126
843.206	20016
843.343	20138
843.479	20195
843.616	20191
843.752	19970
843.889	19856
844.025	19936
844.162	19841
844.298	19913
844.435	19909
844.571	19833
844.708	19791
844.844	19989
844.98	19974
845.117	19890
845.253	19780
845.389	19670
845.525	19753
845.661	19811
845.798	19620
845.934	19750
846.07	19597
846.206	19605
846.342	19753
846.478	19635
846.614	19483
846.75	19339
846.886	19316
847.022	19403
847.158	19240
847.294	19346
847.429	19384
847.565	19247
847.701	19529
847.837	19099
847.972	19031
848.108	19072
848.244	19160
848.379	18951
848.515	18916
848.65	19038
848.786	18905
848.921	18886
849.057	18932
849.192	18985
849.328	18897
849.463	18920
849.598	18939
849.734	18852
849.869	18730
850.004	18707
850.14	18707
850.275	18726
850.41	18593
850.545	18445
850.68	18551
850.815	18700
850.95	18623
851.085	18757
851.22	18776
851.355	18650
851.49	18604
851.625	18479
851.76	18452
851.895	18517
852.03	18536
852.165	18528
852.299	18650
852.434	18707
852.569	18669
852.703	18578
852.838	18741
852.973	18779
853.107	18772
853.242	18570
853.376	18456
853.511	18414
853.645	18452
853.78	18460
853.914	18494
854.048	18388
854.183	18418
854.317	18456
854.451	18536
854.585	18426
854.72	18380
854.854	18532
854.988	18251
855.122	18407
855.256	18357
855.39	18403
855.524	18471
855.658	18483
855.792	18399
855.926	18403
856.06	18441
856.194	18456
856.327	18475
856.461	18418
856.595	18277
856.729	18346
856.862	18494
856.996	18429
857.13	18490
857.263	18376
857.397	18555
857.53	18467
857.664	18551
857.797	18441
857.931	18555
858.064	18391
858.197	18513
858.331	18467
858.464	18372
858.597	18342
858.731	18342
858.864	18441
858.997	18323
859.13	18350
859.263	18281
859.396	18445
859.529	18433
859.662	18410
859.795	18342
859.928	18426
860.061	18407
860.194	18437
860.327	18342
860.46	18308
860.592	18528
860.725	18391
860.858	18388
860.99	18327
861.123	18178
861.256	18308
861.388	18182
861.521	19187
861.653	18190
861.786	18194
861.918	18251
862.05	18296
862.183	18509
862.315	18448
862.447	18429
862.58	18445
862.712	18163
862.844	17999
862.976	18194
863.108	18178
863.24	18388
863.372	18041
863.504	18095
863.636	17973
863.768	18197
863.9	18079
864.032	18041
864.164	18053
864.296	18098
864.428	18277
864.559	18136
864.691	18171
864.823	18106
864.954	17969
865.086	18114
865.217	18019
865.349	17931
865.48	17942
865.612	18038
865.743	18030
865.875	18057
866.006	18026
866.137	17988
866.269	18003
866.4	17927
866.531	17958
866.662	17901
866.793	17878
866.924	17885
867.055	17980
867.186	17961
867.317	17897
867.448	17866
867.579	18026
867.71	17904
867.841	17901
867.972	17965
868.103	17977
868.233	18015
868.364	17942
868.495	18030
868.625	18251
868.756	18262
868.886	18064
869.017	18201
869.147	18399
869.278	18296
869.408	18163
869.539	18190
869.669	18220
869.799	18194
869.929	18323
870.06	18277
870.19	18441
870.32	18467
870.45	18380
870.58	18623
870.71	18601
870.84	18661
870.97	18559
871.1	18601
871.23	18722
871.36	18894
871.489	18730
871.619	18692
871.749	18837
871.879	18757
872.008	18837
872.138	18692
872.267	18749
872.397	18627
872.526	18665
872.656	18593
872.785	18563
872.915	18749
873.044	18844
873.173	18658
873.303	18848
873.432	18856
873.561	18821
873.69	18734
873.819	18837
873.948	18920
874.077	18897
874.206	18722
874.335	18764
874.464	19000
874.593	19031
874.722	18970
874.851	19076
874.979	19110
875.108	19103
875.237	19069
875.365	19046
875.494	19114
875.623	19069
875.751	19053
875.88	19118
876.008	19232
876.136	19358
876.265	19514
876.393	19776
876.521	19670
876.65	19502
876.778	19563
876.906	19441
877.034	19449
877.162	19529
877.29	19510
877.418	19521
877.546	19571
877.674	19586
877.802	19525
877.93	19369
878.058	19460
878.185	19407
878.313	19468
878.441	19472
878.568	19232
878.696	19407
878.824	19556
878.951	19499
879.079	19662
879.206	19761
879.333	19616
879.461	19552
879.588	19746
879.715	19620
879.842	19875
879.97	19567
880.097	19441
880.224	19251
880.351	19282
880.478	19324
880.605	19358
880.732	19213
880.859	19567
880.986	19274
881.112	19217
881.239	19221
881.366	19088
881.493	19050
881.619	18859
881.746	18977
881.872	18951
881.999	18920
882.125	18890
882.252	18958
882.378	18989
882.505	18989
882.631	18878
882.757	18715
882.883	18791
883.01	18688
883.136	18665
883.262	18684
883.388	18532
883.514	18776
883.64	18886
883.766	18608
883.892	18403
884.018	18464
884.143	18768
884.269	18757
884.395	18490
884.52	18422
884.646	18407
884.772	18342
884.897	18391
885.023	18407
885.148	18448
885.274	18426
885.399	18467
885.524	18369
885.65	18399
885.775	18292
885.9	18361
886.025	18452
886.15	18350
886.275	18285
886.4	18334
886.525	18376
886.65	18300
886.775	18300
886.9	18517
887.025	18525
887.149	18330
887.274	18133
887.399	18140
887.523	18140
887.648	18064
887.773	18091
887.897	18205
888.021	18216
888.146	18053
888.27	18186
888.395	18224
888.519	18178
888.643	18205
888.767	18182
888.891	18041
889.015	17961
889.139	18011
889.263	17935
889.387	18159
889.511	18243
889.635	18049
889.759	17885
889.883	17897
890.006	18072
890.13	17969
890.254	17870
890.377	17893
890.501	17726
890.624	17665
890.748	17771
890.871	17592
890.995	17554
891.118	17493
891.241	17611
891.364	17474
891.488	17752
891.611	17551
891.734	17600
891.857	17558
891.98	17592
892.103	17573
892.226	17501
892.349	17478
892.471	17455
892.594	17551
892.717	17524
892.839	17455
892.962	17528
893.085	17570
893.207	17463
893.33	17421
893.452	17429
893.575	17581
893.697	17589
893.819	17695
893.941	17798
894.064	17691
894.186	17463
894.308	17417
894.43	17680
894.552	17684
894.674	17634
894.796	17463
894.918	17493
895.04	17322
895.161	17539
895.283	17547
895.405	17436
895.526	17524
895.648	17608
895.769	17543
895.891	17592
896.012	17653
896.134	17528
896.255	17630
896.376	17520
896.498	17668
896.619	17615
896.74	17630
896.861	17668
896.982	18057
897.103	17992
897.224	18022
897.345	17885
897.466	17783
897.587	17836
897.708	17954
897.828	17961
897.949	17908
898.07	17718
898.19	17836
898.311	17824
898.431	17767
898.552	17935
898.672	17920
898.792	17969
898.913	17779
899.033	17684
899.153	17634
899.273	17600
899.393	17615
899.513	17646
899.633	17509
899.753	17615
899.873	17528
899.993	17646
900.113	17528
900.232	17623
900.352	17566
900.472	17459
900.591	17425
900.711	17459
900.83	17360
900.95	17558
901.069	17653
901.189	17398
901.308	17056
901.427	17079
901.546	17117
901.665	17143
901.784	17121
901.904	16904
902.023	16866
902.141	16725
902.26	16672
902.379	16683
902.498	16584
902.617	16588
902.735	16630
902.854	16558
902.973	16466
903.091	16333
903.21	16375
903.328	16242
903.446	16109
903.565	16143
903.683	16086
903.801	16013
903.919	16082
904.038	16086
904.156	16002
904.274	16013
904.392	15778
904.51	15838
904.627	15869
904.745	15949
904.863	15911
904.981	15618
905.098	15614
905.216	15572
905.334	15553
905.451	15561
905.569	15515
905.686	15663
905.803	15496
905.921	15428
906.038	15469
906.155	15367
906.272	15283
906.389	15252
906.506	15127
906.623	15058
906.74	15085
906.857	14967
906.974	15028
907.091	15154
907.208	15264
907.324	15169
907.441	15028
907.557	14864
907.674	14826
907.79	14712
907.907	14826
908.023	14861
908.139	14727
908.256	14724
908.372	14739
908.488	14739
908.604	14594
908.72	14552
908.836	14549
908.952	14552
909.068	14514
909.184	14568
909.3	14556
909.415	14530
909.531	14454
909.647	14176
909.762	14191
909.878	14252
909.993	14336
910.108	14320
910.224	14244
910.339	14244
910.454	14142
910.57	14096
910.685	13970
910.8	14385
910.915	14248
911.03	14123
911.145	13936
911.259	13970
911.374	13875
911.489	13769
911.604	13757
911.718	13681
911.833	13662
911.947	13537
912.062	13434
912.176	13518
912.291	13666
912.405	13563
912.519	13811
912.633	13818
912.748	13636
912.862	13605
912.976	13510
913.09	13411
913.204	13369
913.318	13445
913.431	13506
913.545	13392
913.659	13597
913.772	13381
913.886	13270
914	13206
914.113	13396
914.226	13422
914.34	13259
914.453	13221
914.566	13365
914.68	13194
914.793	13217
914.906	13042
915.019	12928
915.132	12909
915.245	13008
915.358	12966
915.47	12973
915.583	13065
915.696	13000
915.809	13076
915.921	13042
916.034	12859
916.146	12890
916.259	12924
916.371	12909
916.483	13091
916.595	12878
916.708	12787
916.82	12840
916.932	12791
917.044	12779
917.156	12783
917.268	12669
917.38	12760
917.491	12722
917.603	12719
917.715	12810
917.826	12859
917.938	12578
918.049	12608
918.161	12749
918.272	12776
918.384	12776
918.495	12673
918.606	12486
918.717	12418
918.828	12574
918.939	12506
919.05	12445
919.161	12448
919.272	12319
919.383	12304
919.494	12525
919.604	12620
919.715	12414
919.826	12388
919.936	12452
920.047	12551
920.157	12479
920.267	12669
920.378	12604
920.488	12452
920.598	12631
920.708	12783
920.818	12521
920.928	12608
921.038	12700
921.148	12684
921.258	12426
921.368	12395
921.477	12251
921.587	12182
921.697	12148
921.806	12273
921.916	12125
922.025	11931
922.134	11897
922.244	11790
922.353	11931
922.462	11802
922.571	11790
922.68	11627
922.789	11573
922.898	11600
923.007	11528
923.116	11573
923.224	11532
923.333	11566
923.442	11478
923.55	11417
923.659	11474
923.767	11467
923.876	11326
923.984	11501
924.092	11265
924.201	11429
924.309	11303
924.417	11326
924.525	11341
924.633	11345
924.741	12243
924.849	11159
924.956	11265
925.064	11132
925.172	11102
925.279	11151
925.387	11166
925.494	11060
925.602	11216
925.709	11201
925.816	11010
925.924	10987
926.031	11151
926.138	11060
926.245	11189
926.352	10984
926.459	11128
926.566	11056
926.673	11006
926.779	10934
926.886	10847
926.993	10733
927.099	10725
927.206	10710
927.312	10660
927.419	10771
927.525	10702
927.631	10763
927.737	10660
927.843	10622
927.95	10470
928.056	10523
928.162	10584
928.267	10607
928.373	11216
928.479	10649
928.585	10424
928.69	10527
928.796	10588
928.901	10413
929.007	10303
929.112	10519
929.218	10402
929.323	10352
929.428	10363
929.533	10485
929.638	10257
929.743	10306
929.848	10299
929.953	10303
930.058	10329
930.163	10204
930.267	10109
930.372	10204
930.477	10074
930.581	10299
930.685	10169
930.79	9964
930.894	9998
930.998	9960
931.103	10139
931.207	9724
931.311	9648
931.415	9584
931.519	9405
931.623	9382
