Data from test_V78500241_3582.txt Node
Date: Fri Mar 25 14:58:39 CST 2022
User: usil
Spectrometer: V785-0024
Trigger mode: 0
Integration Time (sec): 4.000000E-1
Scans to average: 1
Nonlinearity correction enabled: false
Boxcar width: 0
Storing dark spectrum: false
XAxis mode: Wavelengths
Number of Pixels in Spectrum: 1024
>>>>>Begin Spectral Data<<<<<
801.071	21987
801.214	21781
801.356	21686
801.499	21416
801.641	21332
801.783	21272
801.926	21329
802.068	21397
802.211	21252
802.353	21173
802.496	20895
802.638	20727
802.78	20838
802.923	20568
803.065	20541
803.208	20442
803.35	20670
803.492	20648
803.635	20826
803.777	20537
803.919	20617
804.061	21005
804.204	20777
804.346	20526
804.488	20427
804.63	20564
804.773	20446
804.915	20492
805.057	20632
805.199	20537
805.341	20457
805.483	20644
805.626	20659
805.768	20484
805.91	20549
806.052	20556
806.194	20560
806.336	20511
806.478	20556
806.62	20362
806.762	20549
806.904	20781
807.046	20804
807.188	20925
807.33	20811
807.472	20800
807.614	20724
807.756	20735
807.898	20648
808.04	20473
808.182	20587
808.324	20587
808.465	20667
808.607	20682
808.749	20864
808.891	20986
809.033	21024
809.174	20826
809.316	20720
809.458	20857
809.6	20834
809.741	20921
809.883	20864
810.025	20944
810.166	21131
810.308	20998
810.45	20975
810.591	20902
810.733	20765
810.875	20659
811.016	20522
811.158	20488
811.299	20625
811.441	20834
811.582	20701
811.724	20590
811.865	20583
812.007	20594
812.148	20689
812.29	20739
812.431	20857
812.573	20944
812.714	20986
812.855	21077
812.997	21188
813.138	21329
813.279	21222
813.421	21089
813.562	20906
813.703	20796
813.845	20834
813.986	20473
814.127	20328
814.268	20237
814.41	20134
814.551	20138
814.692	20221
814.833	20027
814.974	20199
815.115	20081
815.256	20065
815.397	19974
815.539	19921
815.68	19906
815.821	19765
815.962	19959
816.103	19963
816.244	19689
816.385	19616
816.526	19639
816.666	19411
816.807	19358
816.948	19343
817.089	19377
817.23	19350
817.371	19232
817.512	19263
817.653	19289
817.793	19331
817.934	19278
818.075	19259
818.216	19373
818.356	19335
818.497	19008
818.638	19061
818.778	18966
818.919	19004
819.06	19080
819.2	19046
819.341	19209
819.481	19209
819.622	19236
819.762	19506
819.903	19362
820.043	19240
820.184	19297
820.324	19396
820.465	19392
820.605	19301
820.746	19343
820.886	19057
821.026	19251
821.167	19221
821.307	19327
821.447	19202
821.588	19042
821.728	18966
821.868	18681
822.008	18719
822.149	18776
822.289	18604
822.429	18388
822.569	18289
822.709	18395
822.849	18159
822.99	18159
823.13	18098
823.27	18098
823.41	18038
823.55	17912
823.69	18136
823.83	17893
823.97	17935
824.11	17699
824.25	17611
824.389	17779
824.529	17752
824.669	17798
824.809	17794
824.949	17794
825.089	17752
825.228	17661
825.368	17486
825.508	17417
825.648	17581
825.787	17623
825.927	17551
826.067	17436
826.206	17539
826.346	17604
826.485	17455
826.625	17524
826.765	17604
826.904	17471
827.044	17349
827.183	17334
827.323	17273
827.462	17239
827.601	17261
827.741	17200
827.88	17231
828.02	17064
828.159	17162
828.298	17318
828.437	17364
828.577	17254
828.716	17474
828.855	17239
828.994	16953
829.134	16968
829.273	17048
829.412	16831
829.551	16885
829.69	16987
829.829	16984
829.968	17060
830.107	16995
830.246	17064
830.385	16999
830.524	16847
830.663	16816
830.802	16615
830.941	16622
831.08	16580
831.219	16675
831.357	16679
831.496	16869
831.635	16618
831.774	16569
831.913	16577
832.051	16398
832.19	16398
832.329	16409
832.467	16303
832.606	16402
832.744	16310
832.883	16329
833.022	16215
833.16	16226
833.299	16306
833.437	16344
833.576	16337
833.714	16405
833.852	16379
833.991	16516
834.129	16440
834.267	16341
834.406	16272
834.544	16398
834.682	16409
834.821	16478
834.959	16500
835.097	16394
835.235	16459
835.373	16356
835.511	16424
835.65	16211
835.788	16329
835.926	16242
836.064	16097
836.202	16124
836.34	16382
836.478	16405
836.615	16360
836.753	16268
836.891	16382
837.029	16394
837.167	16253
837.305	16284
837.443	16261
837.58	16078
837.718	16276
837.856	16204
837.993	16143
838.131	16284
838.269	16124
838.406	16185
838.544	16139
838.681	15888
838.819	15751
838.956	15679
839.094	15732
839.231	15865
839.369	15838
839.506	16116
839.643	16055
839.781	15854
839.918	15698
840.055	15778
840.193	15766
840.33	15743
840.467	15690
840.604	15713
840.742	16002
840.879	15610
841.016	15652
841.153	15686
841.29	15918
841.427	15831
841.564	15846
841.701	15854
841.838	15648
841.975	15762
842.112	15591
842.249	15519
842.385	15572
842.522	15785
842.659	15587
842.796	15561
842.933	15477
843.069	15519
843.206	15515
843.343	15622
843.479	15576
843.616	15568
843.752	15283
843.889	15401
844.025	15587
844.162	15428
844.298	15348
844.435	15370
844.571	15329
844.708	15351
844.844	15481
844.98	15534
845.117	15416
845.253	15298
845.389	15298
845.525	15283
845.661	15203
845.798	15112
845.934	15195
846.07	15123
846.206	15218
846.342	15329
846.478	15135
846.614	14910
846.75	14880
846.886	14948
847.022	15009
847.158	14838
847.294	14971
847.429	14979
847.565	14872
847.701	15077
847.837	14705
847.972	14587
848.108	14678
848.244	14636
848.379	14541
848.515	14473
848.65	14450
848.786	14499
848.921	14549
849.057	14583
849.192	14575
849.328	14537
849.463	14617
849.598	14518
849.734	14377
849.869	14339
850.004	14218
850.14	14305
850.275	14298
850.41	14145
850.545	14233
850.68	14218
850.815	14339
850.95	14161
851.085	14488
851.22	14267
851.355	14343
851.49	14153
851.625	14221
851.76	14157
851.895	14256
852.03	14199
852.165	14275
852.299	14366
852.434	14431
852.569	14259
852.703	14336
852.838	14313
852.973	14400
853.107	14362
853.242	14244
853.376	14138
853.511	13967
853.645	14199
853.78	14290
853.914	14103
854.048	14046
854.183	14035
854.317	14123
854.451	14278
854.585	14054
854.72	14096
854.854	14161
854.988	14103
855.122	14123
855.256	14088
855.39	14084
855.524	14161
855.658	14096
855.792	14187
855.926	14199
856.06	14244
856.194	14191
856.327	14149
856.461	14149
856.595	14035
856.729	14054
856.862	14278
856.996	14176
857.13	14195
857.263	14221
857.397	14328
857.53	14206
857.664	14176
857.797	14305
857.931	14240
858.064	14142
858.197	14294
858.331	14180
858.464	14115
858.597	13970
858.731	14008
858.864	14100
858.997	14142
859.13	14180
859.263	14164
859.396	14195
859.529	14164
859.662	14077
859.795	14058
859.928	14145
860.061	14282
860.194	14332
860.327	14138
860.46	14168
860.592	14294
860.725	14366
860.858	14180
860.99	14119
861.123	14111
861.256	13940
861.388	14100
861.521	15013
861.653	14016
861.786	13970
861.918	13921
862.05	14073
862.183	14058
862.315	14092
862.447	14111
862.58	14180
862.712	13890
862.844	13841
862.976	14058
863.108	13871
863.24	14237
863.372	13852
863.504	13970
863.636	13887
863.768	14012
863.9	13830
864.032	13807
864.164	13955
864.296	13940
864.428	14084
864.559	13978
864.691	14081
864.823	14031
864.954	13928
865.086	14012
865.217	13913
865.349	13830
865.48	13875
865.612	13925
865.743	14065
865.875	13928
866.006	13932
866.137	13902
866.269	13833
866.4	13833
866.531	13826
866.662	13784
866.793	13894
866.924	13860
867.055	13940
867.186	13879
867.317	13807
867.448	13864
867.579	13955
867.71	13925
867.841	13788
867.972	13852
868.103	13906
868.233	13963
868.364	13909
868.495	13959
868.625	14103
868.756	14202
868.886	14058
869.017	14225
869.147	14336
869.278	14282
869.408	14176
869.539	14214
869.669	14218
869.799	14199
869.929	14301
870.06	14343
870.19	14393
870.32	14552
870.45	14480
870.58	14541
870.71	14651
870.84	14739
870.97	14507
871.1	14564
871.23	14838
871.36	14883
871.489	14636
871.619	14705
871.749	14788
871.879	14724
872.008	14792
872.138	14792
872.267	14762
872.397	14640
872.526	14625
872.656	14583
872.785	14575
872.915	14804
873.044	14819
873.173	14830
873.303	14830
873.432	14853
873.561	14811
873.69	14781
873.819	14800
873.948	14864
874.077	14781
874.206	14762
874.335	14845
874.464	14948
874.593	15074
874.722	14994
874.851	15119
874.979	15237
875.108	15089
875.237	15104
875.365	15173
875.494	15066
875.623	15291
875.751	15070
875.88	15203
876.008	15226
876.136	15332
876.265	15481
876.393	15663
876.521	15580
876.65	15610
876.778	15595
876.906	15469
877.034	15610
877.162	15526
877.29	15466
877.418	15526
877.546	15606
877.674	15572
877.802	15492
877.93	15492
878.058	15485
878.185	15447
878.313	15492
878.441	15492
878.568	15450
878.696	15355
878.824	15625
878.951	15610
879.079	15781
879.206	15804
879.333	15682
879.461	15523
879.588	15667
879.715	15656
879.842	15720
879.97	15656
880.097	15325
880.224	15359
880.351	15439
880.478	15488
880.605	15393
880.732	15386
880.859	15679
880.986	15370
881.112	15439
881.239	15214
881.366	15249
881.493	15093
881.619	15085
881.746	15169
881.872	15085
881.999	15108
882.125	15112
882.252	15062
882.378	15112
882.505	15131
882.631	14952
882.757	14899
882.883	14956
883.01	14880
883.136	14838
883.262	14640
883.388	14724
883.514	14887
883.64	14800
883.766	14834
883.892	14739
884.018	14724
884.143	14933
884.269	14918
884.395	14602
884.52	14533
884.646	14610
884.772	14473
884.897	14404
885.023	14564
885.148	14636
885.274	14697
885.399	14640
885.524	14636
885.65	14617
885.775	14621
885.9	14602
886.025	14659
886.15	14575
886.275	14579
886.4	14450
886.525	14560
886.65	14488
886.775	14503
886.9	14804
887.025	14781
887.149	14522
887.274	14377
887.399	14393
887.523	14347
887.648	14385
887.773	14385
887.897	14526
888.021	14450
888.146	14320
888.27	14537
888.395	14476
888.519	14469
888.643	14450
888.767	14488
888.891	14408
889.015	14320
889.139	14305
889.263	14252
889.387	14324
889.511	14492
889.635	14339
889.759	14252
889.883	14164
890.006	14278
890.13	14412
890.254	14206
890.377	14267
890.501	14164
890.624	14134
890.748	14145
890.871	14096
890.995	13959
891.118	13921
891.241	13997
891.364	13898
891.488	14020
891.611	13959
891.734	13955
891.857	13967
891.98	14084
892.103	14001
892.226	14012
892.349	13974
892.471	13906
892.594	13883
892.717	13936
892.839	14001
892.962	13997
893.085	14024
893.207	14039
893.33	13883
893.452	13849
893.575	14031
893.697	13936
893.819	14187
893.941	14134
894.064	14145
894.186	14020
894.308	13974
894.43	14123
894.552	14252
894.674	14142
894.796	13921
894.918	13989
895.04	13997
895.161	14115
895.283	14119
895.405	14069
895.526	14043
895.648	14016
895.769	14176
895.891	14130
896.012	14168
896.134	14244
896.255	14168
896.376	14183
896.498	14069
896.619	14195
896.74	14195
896.861	14229
896.982	14556
897.103	14712
897.224	14571
897.345	14374
897.466	14366
897.587	14465
897.708	14492
897.828	14537
897.949	14355
898.07	14290
898.19	14377
898.311	14587
898.431	14431
898.552	14370
898.672	14613
898.792	14617
898.913	14552
899.033	14423
899.153	14347
899.273	14214
899.393	14419
899.513	14469
899.633	14336
899.753	14355
899.873	14309
899.993	14438
900.113	14362
900.232	14404
900.352	14412
900.472	14339
900.591	14096
900.711	14199
900.83	14149
900.95	14263
901.069	14336
901.189	14229
901.308	13974
901.427	13807
901.546	13826
901.665	13883
901.784	13917
901.904	13750
902.023	13719
902.141	13552
902.26	13468
902.379	13597
902.498	13453
902.617	13388
902.735	13571
902.854	13430
902.973	13411
903.091	13171
903.21	13232
903.328	13228
903.446	13156
903.565	13000
903.683	13038
903.801	12985
903.919	13038
904.038	13031
904.156	12787
904.274	12970
904.392	12928
904.51	12791
904.627	12840
904.745	12897
904.863	12768
904.981	12623
905.098	12506
905.216	12509
905.334	12620
905.451	12631
905.569	12559
905.686	12422
905.803	12494
905.921	12445
906.038	12448
906.155	12384
906.272	12311
906.389	12247
906.506	12175
906.623	12205
906.74	12072
906.857	12007
906.974	12030
907.091	12201
907.208	12304
907.324	12155
907.441	12015
907.557	11908
907.674	11969
907.79	11783
907.907	11847
908.023	11916
908.139	11908
908.256	11767
908.372	11741
908.488	11783
908.604	11619
908.72	11646
908.836	11638
908.952	11665
909.068	11691
909.184	11828
909.3	11703
909.415	11718
909.531	11573
909.647	11444
909.762	11379
909.878	11395
909.993	11425
910.108	11414
910.224	11341
910.339	11433
910.454	11273
910.57	11261
910.685	11216
910.8	11509
910.915	11497
911.03	11296
911.145	11166
911.259	11128
911.374	11132
911.489	10976
911.604	11018
911.718	10850
911.833	10930
911.947	10763
912.062	10782
912.176	10824
912.291	10873
912.405	10953
912.519	11060
912.633	11022
912.748	10942
912.862	10900
912.976	10835
913.09	10626
913.204	10698
913.318	10733
913.431	10930
913.545	10877
913.659	10923
913.772	10759
913.886	10626
914	10622
914.113	10694
914.226	10786
914.34	10710
914.453	10550
914.566	10774
914.68	10588
914.793	10554
914.906	10341
915.019	10371
915.132	10306
915.245	10348
915.358	10451
915.47	10508
915.583	10428
915.696	10478
915.809	10481
915.921	10485
916.034	10280
916.146	10322
916.259	10390
916.371	10470
916.483	10462
916.595	10265
916.708	10363
916.82	10303
916.932	10341
917.044	10253
917.156	10280
917.268	10173
917.38	10215
917.491	10227
917.603	10242
917.715	10310
917.826	10382
917.938	10188
918.049	10154
918.161	10268
918.272	10371
918.384	10287
918.495	10158
918.606	10185
918.717	10086
918.828	10135
918.939	10166
919.05	10036
919.161	10029
919.272	9857
919.383	9953
919.494	10185
919.604	10382
919.715	10139
919.826	9998
919.936	10048
920.047	10204
920.157	10109
920.267	10333
920.378	10188
920.488	10166
920.598	10341
920.708	10459
920.818	10329
920.928	10367
921.038	10417
921.148	10478
921.258	10185
921.368	10105
921.477	10032
921.587	10021
921.697	9827
921.806	10067
921.916	9865
922.025	9724
922.134	9660
922.244	9682
922.353	9713
922.462	9545
922.571	9561
922.68	9386
922.789	9466
922.898	9348
923.007	9397
923.116	9500
923.224	9374
923.333	9420
923.442	9233
923.55	9264
923.659	9256
923.767	9351
923.876	9207
923.984	9367
924.092	9317
924.201	9294
924.309	9260
924.417	9226
924.525	9195
924.633	9188
924.741	9998
924.849	8994
924.956	9260
925.064	9051
925.172	8933
925.279	9032
925.387	9097
925.494	9055
925.602	9195
925.709	9100
925.816	8933
925.924	9043
926.031	9127
926.138	9108
926.245	9112
926.352	8887
926.459	9127
926.566	9142
926.673	8971
926.779	8921
926.886	8956
926.993	8788
927.099	8758
927.206	8785
927.312	8777
927.419	8754
927.525	8781
927.631	8766
927.737	8750
927.843	8693
927.95	8533
928.056	8686
928.162	8720
928.267	8724
928.373	9199
928.479	8762
928.585	8488
928.69	8617
928.796	8705
928.901	8560
929.007	8423
929.112	8579
929.218	8537
929.323	8427
929.428	8492
929.533	8606
929.638	8446
929.743	8488
929.848	8526
929.953	8473
930.058	8347
930.163	8271
930.267	8218
930.372	8370
930.477	8210
930.581	8385
930.685	8324
930.79	8145
930.894	8225
930.998	8202
931.103	8256
931.207	8027
931.311	7925
931.415	7845
931.519	7685
931.623	7719
