Data from test_V78500241_3359.txt Node
Date: Fri Mar 25 14:57:06 CST 2022
User: usil
Spectrometer: V785-0024
Trigger mode: 0
Integration Time (sec): 4.000000E-1
Scans to average: 1
Nonlinearity correction enabled: false
Boxcar width: 0
Storing dark spectrum: false
XAxis mode: Wavelengths
Number of Pixels in Spectrum: 1024
>>>>>Begin Spectral Data<<<<<
801.071	22101
801.214	21816
801.356	21561
801.499	21686
801.641	21447
801.783	21431
801.926	21344
802.068	21283
802.211	21237
802.353	21058
802.496	20834
802.638	20868
802.78	20781
802.923	20621
803.065	20648
803.208	20590
803.35	20659
803.492	20724
803.635	20815
803.777	20625
803.919	20720
804.061	20998
804.204	20754
804.346	20587
804.488	20518
804.63	20758
804.773	20556
804.915	20541
805.057	20712
805.199	20454
805.341	20469
805.483	20701
805.626	20609
805.768	20393
805.91	20629
806.052	20621
806.194	20450
806.336	20636
806.478	20461
806.62	20503
806.762	20556
806.904	20750
807.046	20895
807.188	20834
807.33	20838
807.472	20910
807.614	20765
807.756	20796
807.898	20785
808.04	20663
808.182	20507
808.324	20731
808.465	20651
808.607	20853
808.749	20883
808.891	20952
809.033	21020
809.174	20910
809.316	20861
809.458	20811
809.6	20773
809.741	20925
809.883	20990
810.025	21127
810.166	21020
810.308	21013
810.45	20994
810.591	20838
810.733	20750
810.875	20724
811.016	20579
811.158	20442
811.299	20667
811.441	20826
811.582	20777
811.724	20720
811.865	20644
812.007	20560
812.148	20568
812.29	20731
812.431	20956
812.573	20891
812.714	20960
812.855	21100
812.997	21302
813.138	21291
813.279	21294
813.421	21195
813.562	21070
813.703	20777
813.845	20773
813.986	20655
814.127	20385
814.268	20202
814.41	20282
814.551	20172
814.692	20214
814.833	20031
814.974	20271
815.115	20275
815.256	20054
815.397	20058
815.539	19982
815.68	20012
815.821	19814
815.962	19936
816.103	19989
816.244	19925
816.385	19624
816.526	19681
816.666	19472
816.807	19301
816.948	19388
817.089	19597
817.23	19350
817.371	19369
817.512	19350
817.653	19285
817.793	19270
817.934	19354
818.075	19263
818.216	19384
818.356	19213
818.497	19213
818.638	19069
818.778	18970
818.919	19027
819.06	18981
819.2	19118
819.341	19137
819.481	19217
819.622	19362
819.762	19491
819.903	19438
820.043	19544
820.184	19263
820.324	19373
820.465	19400
820.605	19384
820.746	19160
820.886	19247
821.026	19331
821.167	19183
821.307	19434
821.447	19213
821.588	19031
821.728	19126
821.868	18993
822.008	18734
822.149	18665
822.289	18631
822.429	18525
822.569	18433
822.709	18395
822.849	18205
822.99	18197
823.13	18110
823.27	18140
823.41	18148
823.55	17950
823.69	18038
823.83	18049
823.97	18022
824.11	17798
824.25	17729
824.389	17779
824.529	17828
824.669	17783
824.809	17832
824.949	17908
825.089	17897
825.228	17832
825.368	17562
825.508	17539
825.648	17672
825.787	17589
825.927	17657
826.067	17463
826.206	17577
826.346	17695
826.485	17554
826.625	17615
826.765	17642
826.904	17589
827.044	17421
827.183	17299
827.323	17296
827.462	17341
827.601	17379
827.741	17322
827.88	17318
828.02	17189
828.159	17242
828.298	17349
828.437	17398
828.577	17296
828.716	17440
828.855	17254
828.994	17147
829.134	17060
829.273	16991
829.412	17025
829.551	16934
829.69	17029
829.829	17136
829.968	17132
830.107	17105
830.246	17083
830.385	17025
830.524	16927
830.663	16866
830.802	16740
830.941	16599
831.08	16649
831.219	16793
831.357	16713
831.496	16843
831.635	16584
831.774	16546
831.913	16470
832.051	16398
832.19	16443
832.329	16558
832.467	16322
832.606	16284
832.744	16295
832.883	16337
833.022	16318
833.16	16265
833.299	16413
833.437	16394
833.576	16409
833.714	16367
833.852	16447
833.991	16504
834.129	16489
834.267	16474
834.406	16360
834.544	16432
834.682	16398
834.821	16390
834.959	16596
835.097	16421
835.235	16497
835.373	16440
835.511	16337
835.65	16306
835.788	16356
835.926	16226
836.064	16150
836.202	16109
836.34	16322
836.478	16424
836.615	16344
836.753	16394
836.891	16432
837.029	16402
837.167	16261
837.305	16169
837.443	16249
837.58	16139
837.718	16276
837.856	16234
837.993	16249
838.131	16276
838.269	16097
838.406	16135
838.544	16086
838.681	15922
838.819	15907
838.956	15785
839.094	15648
839.231	15831
839.369	15975
839.506	16166
839.643	15991
839.781	15720
839.918	15751
840.055	15785
840.193	15713
840.33	15644
840.467	15713
840.604	15770
840.742	15907
840.879	15637
841.016	15633
841.153	15667
841.29	15892
841.427	15865
841.564	15751
841.701	15835
841.838	15717
841.975	15603
842.112	15720
842.249	15435
842.385	15469
842.522	15667
842.659	15500
842.796	15553
842.933	15496
843.069	15473
843.206	15462
843.343	15572
843.479	15549
843.616	15629
843.752	15321
843.889	15260
844.025	15450
844.162	15260
844.298	15405
844.435	15256
844.571	15367
844.708	15481
844.844	15523
844.98	15370
845.117	15412
845.253	15249
845.389	15199
845.525	15203
845.661	15291
845.798	15066
845.934	15108
846.07	15074
846.206	15089
846.342	15291
846.478	15150
846.614	14941
846.75	14823
846.886	14929
847.022	14982
847.158	14910
847.294	14902
847.429	14849
847.565	14826
847.701	15097
847.837	14640
847.972	14522
848.108	14682
848.244	14701
848.379	14507
848.515	14465
848.65	14431
848.786	14556
848.921	14484
849.057	14556
849.192	14575
849.328	14469
849.463	14560
849.598	14454
849.734	14324
849.869	14347
850.004	14355
850.14	14305
850.275	14259
850.41	14225
850.545	14221
850.68	14339
850.815	14282
850.95	14278
851.085	14442
851.22	14355
851.355	14332
851.49	14237
851.625	14313
851.76	14225
851.895	14187
852.03	14161
852.165	14237
852.299	14256
852.434	14343
852.569	14275
852.703	14267
852.838	14328
852.973	14476
853.107	14412
853.242	14157
853.376	14077
853.511	14031
853.645	14065
853.78	14199
853.914	14168
854.048	14149
854.183	14168
854.317	14103
854.451	14240
854.585	14168
854.72	14096
854.854	14145
854.988	14005
855.122	14221
855.256	14008
855.39	14142
855.524	14229
855.658	14290
855.792	14168
855.926	14290
856.06	14210
856.194	14199
856.327	14142
856.461	14020
856.595	14111
856.729	14157
856.862	14149
856.996	14183
857.13	14142
857.263	14218
857.397	14229
857.53	14180
857.664	14195
857.797	14221
857.931	14298
858.064	14142
858.197	14218
858.331	14195
858.464	14115
858.597	14077
858.731	14107
858.864	14096
858.997	14096
859.13	14164
859.263	14214
859.396	14248
859.529	14145
859.662	14161
859.795	14130
859.928	14199
860.061	14278
860.194	14290
860.327	14229
860.46	14134
860.592	14233
860.725	14358
860.858	14206
860.99	14096
861.123	14100
861.256	14069
861.388	14202
861.521	14948
861.653	14138
861.786	14092
861.918	13993
862.05	14065
862.183	14050
862.315	14062
862.447	14145
862.58	14126
862.712	13890
862.844	13917
862.976	13986
863.108	13940
863.24	14336
863.372	13833
863.504	13936
863.636	13947
863.768	14031
863.9	13955
864.032	13826
864.164	13906
864.296	13974
864.428	14020
864.559	13982
864.691	14020
864.823	13974
864.954	14081
865.086	13936
865.217	13799
865.349	13852
865.48	13852
865.612	13902
865.743	14115
865.875	13864
866.006	13818
866.137	13849
866.269	13856
866.4	13902
866.531	13849
866.662	13803
866.793	13913
866.924	13921
867.055	13932
867.186	13860
867.317	13856
867.448	13772
867.579	13856
867.71	13803
867.841	13860
867.972	13909
868.103	13925
868.233	13906
868.364	13887
868.495	14039
868.625	14157
868.756	14187
868.886	14046
869.017	14237
869.147	14404
869.278	14244
869.408	14183
869.539	14195
869.669	14294
869.799	14252
869.929	14290
870.06	14294
870.19	14377
870.32	14476
870.45	14473
870.58	14606
870.71	14648
870.84	14598
870.97	14640
871.1	14404
871.23	14811
871.36	14883
871.489	14613
871.619	14785
871.749	14720
871.879	14712
872.008	14883
872.138	14769
872.267	14678
872.397	14564
872.526	14655
872.656	14617
872.785	14602
872.915	14804
873.044	14910
873.173	14823
873.303	14853
873.432	14861
873.561	14857
873.69	14857
873.819	14781
873.948	14952
874.077	14781
874.206	14819
874.335	14781
874.464	14956
874.593	15097
874.722	15051
874.851	15268
874.979	15157
875.108	15108
875.237	15062
875.365	15043
875.494	15112
875.623	15184
875.751	15127
875.88	15256
876.008	15317
876.136	15355
876.265	15477
876.393	15743
876.521	15717
876.65	15641
876.778	15671
876.906	15504
877.034	15496
877.162	15580
877.29	15439
877.418	15488
877.546	15637
877.674	15507
877.802	15557
877.93	15561
878.058	15538
878.185	15389
878.313	15584
878.441	15564
878.568	15370
878.696	15530
878.824	15454
878.951	15606
879.079	15759
879.206	15880
879.333	15724
879.461	15523
879.588	15717
879.715	15759
879.842	15956
879.97	15530
880.097	15363
880.224	15359
880.351	15435
880.478	15389
880.605	15351
880.732	15401
880.859	15625
880.986	15458
881.112	15405
881.239	15275
881.366	15207
881.493	15150
881.619	15112
881.746	14986
881.872	15070
881.999	14925
882.125	15001
882.252	15093
882.378	14994
882.505	15230
882.631	15058
882.757	14792
882.883	15013
883.01	14914
883.136	14823
883.262	14682
883.388	14739
883.514	14849
883.64	14842
883.766	14876
883.892	14571
884.018	14693
884.143	14872
884.269	14979
884.395	14697
884.52	14549
884.646	14602
884.772	14541
884.897	14503
885.023	14518
885.148	14788
885.274	14861
885.399	14739
885.524	14545
885.65	14640
885.775	14651
885.9	14610
886.025	14686
886.15	14754
886.275	14549
886.4	14465
886.525	14571
886.65	14495
886.775	14522
886.9	14663
887.025	14716
887.149	14613
887.274	14393
887.399	14446
887.523	14332
887.648	14419
887.773	14396
887.897	14366
888.021	14552
888.146	14317
888.27	14419
888.395	14419
888.519	14457
888.643	14328
888.767	14484
888.891	14324
889.015	14168
889.139	14290
889.263	14309
889.387	14396
889.511	14507
889.635	14457
889.759	14278
889.883	14298
890.006	14324
890.13	14412
890.254	14317
890.377	14305
890.501	14100
890.624	13947
890.748	14092
890.871	14050
890.995	13837
891.118	13890
891.241	14024
891.364	14005
891.488	14024
891.611	13974
891.734	13944
891.857	14092
891.98	14043
892.103	14149
892.226	14005
892.349	13951
892.471	13841
892.594	13997
892.717	13974
892.839	13986
892.962	14058
893.085	14043
893.207	13898
893.33	13852
893.452	13963
893.575	14134
893.697	13982
893.819	14107
893.941	14263
894.064	14107
894.186	13959
894.308	13841
894.43	14126
894.552	14240
894.674	14149
894.796	14001
894.918	14031
895.04	14020
895.161	14145
895.283	14103
895.405	14024
895.526	14062
895.648	14054
895.769	14153
895.891	14195
896.012	14191
896.134	14225
896.255	14176
896.376	14142
896.498	14149
896.619	14259
896.74	14199
896.861	14328
896.982	14541
897.103	14636
897.224	14560
897.345	14457
897.466	14374
897.587	14442
897.708	14514
897.828	14492
897.949	14446
898.07	14267
898.19	14423
898.311	14537
898.431	14427
898.552	14499
898.672	14507
898.792	14659
898.913	14549
899.033	14434
899.153	14408
899.273	14347
899.393	14385
899.513	14400
899.633	14412
899.753	14454
899.873	14263
899.993	14431
900.113	14400
900.232	14434
900.352	14362
900.472	14252
900.591	14195
900.711	14298
900.83	14153
900.95	14248
901.069	14252
901.189	14103
901.308	13989
901.427	13883
901.546	13986
901.665	13974
901.784	13902
901.904	13776
902.023	13643
902.141	13506
902.26	13441
902.379	13506
902.498	13548
902.617	13415
902.735	13487
902.854	13445
902.973	13373
903.091	13225
903.21	13213
903.328	13217
903.446	13259
903.565	13179
903.683	13065
903.801	12954
903.919	13114
904.038	12996
904.156	12932
904.274	12909
904.392	12833
904.51	12909
904.627	12909
904.745	12886
904.863	12913
904.981	12658
905.098	12483
905.216	12559
905.334	12623
905.451	12525
905.569	12513
905.686	12642
905.803	12612
905.921	12350
906.038	12464
906.155	12403
906.272	12353
906.389	12311
906.506	12175
906.623	12148
906.74	12102
906.857	11996
906.974	12114
907.091	12239
907.208	12254
907.324	12239
907.441	12064
907.557	11980
907.674	11908
907.79	11809
907.907	11866
908.023	11961
908.139	11870
908.256	11866
908.372	11836
908.488	11733
908.604	11703
908.72	11638
908.836	11737
908.952	11585
909.068	11714
909.184	11794
909.3	11668
909.415	11737
909.531	11794
909.647	11471
909.762	11353
909.878	11474
909.993	11490
910.108	11356
910.224	11376
910.339	11471
910.454	11341
910.57	11322
910.685	11288
910.8	11539
910.915	11463
911.03	11341
911.145	11105
911.259	11132
911.374	11132
911.489	11033
911.604	10999
911.718	10850
911.833	10919
911.947	10828
912.062	10736
912.176	10847
912.291	10949
912.405	10938
912.519	11128
912.633	11102
912.748	10987
912.862	10877
912.976	10717
913.09	10733
913.204	10714
913.318	10752
913.431	10850
913.545	10828
913.659	10885
913.772	10755
913.886	10637
914	10573
914.113	10790
914.226	10809
914.34	10736
914.453	10603
914.566	10660
914.68	10660
914.793	10596
914.906	10405
915.019	10344
915.132	10314
915.245	10382
915.358	10497
915.47	10455
915.583	10493
915.696	10466
915.809	10550
915.921	10542
916.034	10360
916.146	10341
916.259	10367
916.371	10417
916.483	10436
916.595	10303
916.708	10352
916.82	10352
916.932	10303
917.044	10291
917.156	10352
917.268	10185
917.38	10257
917.491	10204
917.603	10227
917.715	10360
917.826	10363
917.938	10261
918.049	10204
918.161	10303
918.272	10379
918.384	10386
918.495	10207
918.606	10158
918.717	10013
918.828	10097
918.939	10135
919.05	10044
919.161	10147
919.272	9941
919.383	9975
919.494	10192
919.604	10432
919.715	10162
919.826	10078
919.936	10078
920.047	10181
920.157	10131
920.267	10318
920.378	10207
920.488	10135
920.598	10382
920.708	10508
920.818	10287
920.928	10318
921.038	10558
921.148	10462
921.258	10154
921.368	10120
921.477	10036
921.587	10063
921.697	9884
921.806	10002
921.916	9884
922.025	9724
922.134	9698
922.244	9682
922.353	9751
922.462	9526
922.571	9530
922.68	9488
922.789	9405
922.898	9466
923.007	9447
923.116	9435
923.224	9313
923.333	9359
923.442	9283
923.55	9302
923.659	9302
923.767	9428
923.876	9275
923.984	9310
924.092	9165
924.201	9230
924.309	9260
924.417	9294
924.525	9195
924.633	9241
924.741	10143
924.849	9070
924.956	9165
925.064	9093
925.172	8887
925.279	9005
925.387	9085
925.494	9028
925.602	9188
925.709	9123
925.816	8967
925.924	9028
926.031	9108
926.138	9081
926.245	9131
926.352	8937
926.459	9108
926.566	9161
926.673	8998
926.779	8876
926.886	8914
926.993	8804
927.099	8766
927.206	8701
927.312	8739
927.419	8796
927.525	8743
927.631	8785
927.737	8663
927.843	8644
927.95	8537
928.056	8613
928.162	8670
928.267	8750
928.373	9321
928.479	8735
928.585	8522
928.69	8674
928.796	8632
928.901	8636
929.007	8473
929.112	8533
929.218	8552
929.323	8530
929.428	8514
929.533	8594
929.638	8461
929.743	8518
929.848	8533
929.953	8495
930.058	8404
930.163	8244
930.267	8309
930.372	8423
930.477	8233
930.581	8450
930.685	8309
930.79	8263
930.894	8164
930.998	8218
931.103	8267
931.207	8046
931.311	7936
931.415	7830
931.519	7685
931.623	7693
