Data from test_V78500241_644.txt Node
Date: Fri Mar 25 14:38:12 CST 2022
User: usil
Spectrometer: V785-0024
Trigger mode: 0
Integration Time (sec): 4.000000E-1
Scans to average: 1
Nonlinearity correction enabled: false
Boxcar width: 0
Storing dark spectrum: false
XAxis mode: Wavelengths
Number of Pixels in Spectrum: 1024
>>>>>Begin Spectral Data<<<<<
801.071	27998
801.214	27838
801.356	27625
801.499	27557
801.641	27332
801.783	27169
801.926	27329
802.068	27150
802.211	27096
802.353	27001
802.496	26849
802.638	26956
802.78	26838
802.923	26697
803.065	26648
803.208	26773
803.35	26804
803.492	27032
803.635	27020
803.777	26895
803.919	27028
804.061	27298
804.204	26937
804.346	26906
804.488	26872
804.63	27081
804.773	26868
804.915	27009
805.057	27199
805.199	27306
805.341	27287
805.483	27382
805.626	27439
805.768	27344
805.91	27587
806.052	27686
806.194	27603
806.336	28177
806.478	28063
806.62	28287
806.762	28478
806.904	28938
807.046	29299
807.188	29581
807.33	29954
807.472	30498
807.614	31015
807.756	31696
807.898	32655
808.04	33960
808.182	35699
808.324	37887
808.465	40504
808.607	43183
808.749	45789
808.891	47261
809.033	47436
809.174	45869
809.316	43323
809.458	40542
809.6	37845
809.741	35277
809.883	33458
810.025	32294
810.166	31434
810.308	30570
810.45	30060
810.591	29710
810.733	29143
810.875	28915
811.016	28500
811.158	28272
811.299	28276
811.441	28322
811.582	28074
811.724	27914
811.865	27831
812.007	27778
812.148	27728
812.29	27671
812.431	27641
812.573	27789
812.714	27911
812.855	27918
812.997	28010
813.138	27991
813.279	28044
813.421	27774
813.562	27774
813.703	27447
813.845	27325
813.986	26918
814.127	26811
814.268	26636
814.41	26758
814.551	26613
814.692	26693
814.833	26537
814.974	26453
815.115	26560
815.256	26495
815.397	26415
815.539	26275
815.68	26305
815.821	26024
815.962	26183
816.103	26115
816.244	25986
816.385	25887
816.526	25864
816.666	25556
816.807	25506
816.948	25548
817.089	25578
817.23	25548
817.371	25377
817.512	25346
817.653	25472
817.793	25293
817.934	25308
818.075	25388
818.216	25304
818.356	25270
818.497	25263
818.638	25053
818.778	25023
818.919	25110
819.06	25190
819.2	25198
819.341	25388
819.481	25213
819.622	25476
819.762	25632
819.903	25544
820.043	25346
820.184	25453
820.324	25415
820.465	25232
820.605	25183
820.746	25244
820.886	25091
821.026	25175
821.167	25168
821.307	25141
821.447	25175
821.588	25031
821.728	24863
821.868	24620
822.008	24422
822.149	24547
822.289	24452
822.429	24273
822.569	24095
822.709	24091
822.849	24129
822.99	23980
823.13	23897
823.27	23973
823.41	23737
823.55	23687
823.69	23802
823.83	23771
823.97	23630
824.11	23478
824.25	23364
824.389	23562
824.529	23573
824.669	23433
824.809	23600
824.949	23482
825.089	23608
825.228	23417
825.368	23387
825.508	23280
825.648	23299
825.787	23330
825.927	23284
826.067	23303
826.206	23265
826.346	23311
826.485	23307
826.625	23303
826.765	23444
826.904	23250
827.044	22987
827.183	22927
827.323	22866
827.462	22919
827.601	23014
827.741	22915
827.88	23064
828.02	22740
828.159	22782
828.298	22869
828.437	22877
828.577	22835
828.716	22987
828.855	22828
828.994	22683
829.134	22641
829.273	22622
829.412	22573
829.551	22466
829.69	22573
829.829	22569
829.968	22611
830.107	22523
830.246	22546
830.385	22504
830.524	22356
830.663	22382
830.802	22215
830.941	22120
831.08	22002
831.219	22257
831.357	22158
831.496	22371
831.635	22090
831.774	22086
831.913	22139
832.051	21945
832.19	21975
832.329	22074
832.467	22029
832.606	21869
832.744	21987
832.883	22025
833.022	22135
833.16	22135
833.299	22344
833.437	22390
833.576	22557
833.714	22550
833.852	22877
833.991	22816
834.129	22927
834.267	22972
834.406	22805
834.544	22908
834.682	22687
834.821	22637
834.959	22759
835.097	22451
835.235	22337
835.373	22299
835.511	22173
835.65	22051
835.788	21907
835.926	21797
836.064	21618
836.202	21629
836.34	21819
836.478	21922
836.615	21682
836.753	21759
836.891	21675
837.029	21785
837.167	21671
837.305	21542
837.443	21549
837.58	21599
837.718	21614
837.856	21618
837.993	21545
838.131	21572
838.269	21424
838.406	21424
838.544	21287
838.681	21142
838.819	21093
838.956	20975
839.094	20918
839.231	20948
839.369	21100
839.506	21291
839.643	21180
839.781	20979
839.918	20750
840.055	20990
840.193	20887
840.33	20902
840.467	20792
840.604	20891
840.742	21268
840.879	20739
841.016	20811
841.153	20838
841.29	21020
841.427	20952
841.564	20853
841.701	20876
841.838	20925
841.975	20777
842.112	20796
842.249	20739
842.385	20735
842.522	20979
842.659	20811
842.796	20697
842.933	20701
843.069	20777
843.206	20712
843.343	20883
843.479	20693
843.616	20819
843.752	20701
843.889	20743
844.025	20838
844.162	20758
844.298	20891
844.435	21058
844.571	21119
844.708	21420
844.844	21899
844.98	22078
845.117	22744
845.253	23349
845.389	24920
845.525	27922
845.661	32891
845.798	38686
845.934	43266
846.07	44754
846.206	43605
846.342	39709
846.478	33918
846.614	28809
846.75	25537
846.886	23634
847.022	22451
847.158	21724
847.294	21047
847.429	20838
847.565	20682
847.701	20739
847.837	20024
847.972	19967
848.108	20046
848.244	20043
848.379	19788
848.515	19655
848.65	19750
848.786	19704
848.921	19708
849.057	19883
849.192	19643
849.328	19620
849.463	19548
849.598	19464
849.734	19582
849.869	19403
850.004	19358
850.14	19312
850.275	19297
850.41	19232
850.545	19274
850.68	19259
850.815	19384
850.95	19365
851.085	19476
851.22	19384
851.355	19270
851.49	19301
851.625	19164
851.76	19156
851.895	19209
852.03	19141
852.165	19187
852.299	19343
852.434	19324
852.569	19362
852.703	19304
852.838	19343
852.973	19449
853.107	19480
853.242	19304
853.376	19293
853.511	19164
853.645	19209
853.78	19480
853.914	19415
854.048	19343
854.183	19430
854.317	19468
854.451	19548
854.585	19499
854.72	19373
854.854	19438
854.988	19320
855.122	19274
855.256	19095
855.39	19187
855.524	19278
855.658	19213
855.792	19122
855.926	19236
856.06	19263
856.194	19247
856.327	19148
856.461	19038
856.595	18920
856.729	19084
856.862	19137
856.996	19141
857.13	19168
857.263	19065
857.397	19236
857.53	19031
857.664	18973
857.797	19080
857.931	19198
858.064	19019
858.197	19076
858.331	19046
858.464	18935
858.597	18886
858.731	18920
858.864	18954
858.997	18962
859.13	19057
859.263	18943
859.396	19107
859.529	18985
859.662	18814
859.795	18913
859.928	18909
860.061	19019
860.194	19168
860.327	18909
860.46	19000
860.592	18954
860.725	19145
860.858	18924
860.99	18901
861.123	18909
861.256	18772
861.388	18973
861.521	19525
861.653	18798
861.786	18791
861.918	18798
862.05	18764
862.183	18753
862.315	18901
862.447	18871
862.58	18856
862.712	18745
862.844	18563
862.976	18677
863.108	18631
863.24	19088
863.372	18486
863.504	18578
863.636	18551
863.768	18684
863.9	18589
864.032	18521
864.164	18597
864.296	18578
864.428	18665
864.559	18692
864.691	18673
864.823	18547
864.954	18608
865.086	18589
865.217	18509
865.349	18407
865.48	18437
865.612	18585
865.743	18688
865.875	18597
866.006	18544
866.137	18460
866.269	18456
866.4	18498
866.531	18452
866.662	18376
866.793	18498
866.924	18502
867.055	18498
867.186	18521
867.317	18369
867.448	18369
867.579	18388
867.71	18391
867.841	18414
867.972	18471
868.103	18479
868.233	18490
868.364	18441
868.495	18635
868.625	18722
868.756	18867
868.886	18711
869.017	18635
869.147	18894
869.278	18867
869.408	18810
869.539	18760
869.669	18821
869.799	18715
869.929	18837
870.06	18897
870.19	19080
870.32	19034
870.45	19027
870.58	19183
870.71	19251
870.84	19293
870.97	19289
871.1	19171
871.23	19350
871.36	19274
871.489	19415
871.619	19491
871.749	19400
871.879	19426
872.008	19590
872.138	19468
872.267	19453
872.397	19358
872.526	19293
872.656	19289
872.785	19426
872.915	19556
873.044	19677
873.173	19628
873.303	19746
873.432	19666
873.561	19776
873.69	19605
873.819	19818
873.948	19727
874.077	19723
874.206	19712
874.335	19883
874.464	19894
874.593	20073
874.722	20012
874.851	20103
874.979	20145
875.108	20298
875.237	20214
875.365	20062
875.494	20252
875.623	20301
875.751	20278
875.88	20408
876.008	20560
876.136	20705
876.265	20986
876.393	21066
876.521	20994
876.65	21256
876.778	20998
876.906	21146
877.034	21100
877.162	21218
877.29	21351
877.418	21351
877.546	21424
877.674	21378
877.802	21603
877.93	21739
878.058	21694
878.185	21922
878.313	22344
878.441	22569
878.568	22683
878.696	23227
878.824	24018
878.951	24913
879.079	26244
879.206	28147
879.333	29901
879.461	31308
879.588	32313
879.715	32153
879.842	31445
879.97	29786
880.097	28074
880.224	26682
880.351	25666
880.478	24981
880.605	24285
880.732	24015
880.859	24083
880.986	23794
881.112	23722
881.239	23273
881.366	23231
881.493	23128
881.619	23147
881.746	23318
881.872	23292
881.999	23193
882.125	23128
882.252	23353
882.378	23261
882.505	23406
882.631	23273
882.757	23223
882.883	23254
883.01	23200
883.136	23041
883.262	23033
883.388	22889
883.514	23178
883.64	23044
883.766	23090
883.892	22881
884.018	22984
884.143	23208
884.269	23132
884.395	22805
884.52	22843
884.646	22729
884.772	22759
884.897	22805
885.023	22839
885.148	22980
885.274	22824
885.399	22942
885.524	22508
885.65	22561
885.775	22493
885.9	22398
886.025	22341
886.15	22158
886.275	21903
886.4	21652
886.525	21690
886.65	21542
886.775	21412
886.9	21625
887.025	21557
887.149	21245
887.274	21032
887.399	20910
887.523	20845
887.648	20644
887.773	20629
887.897	20712
888.021	20621
888.146	20590
888.27	20537
888.395	20522
888.519	20404
888.643	20465
888.767	20347
888.891	20138
889.015	19967
889.139	20153
889.263	19909
889.387	20062
889.511	20069
889.635	19974
889.759	19909
889.883	19860
890.006	19795
890.13	19932
890.254	19677
890.377	19700
890.501	19312
890.624	19411
890.748	19567
890.871	19297
890.995	19312
891.118	19095
891.241	19069
891.364	19095
891.488	19293
891.611	19110
891.734	19137
891.857	19107
891.98	19103
892.103	19050
892.226	19046
892.349	18932
892.471	18764
892.594	18897
892.717	18829
892.839	18719
892.962	18837
893.085	18867
893.207	18798
893.33	18642
893.452	18722
893.575	18688
893.697	18696
893.819	18726
893.941	18726
894.064	18715
894.186	18563
894.308	18471
894.43	18547
894.552	18642
894.674	18585
894.796	18407
894.918	18441
895.04	18452
895.161	18532
895.283	18429
895.405	18395
895.526	18388
895.648	18315
895.769	18410
895.891	18399
896.012	18376
896.134	18547
896.255	18410
896.376	18281
896.498	18365
896.619	18437
896.74	18388
896.861	18445
896.982	18711
897.103	18837
897.224	18658
897.345	18509
897.466	18532
897.587	18544
897.708	18779
897.828	18646
897.949	18574
898.07	18372
898.19	18509
898.311	18582
898.431	18532
898.552	18566
898.672	18673
898.792	18635
898.913	18585
899.033	18445
899.153	18327
899.273	18266
899.393	18391
899.513	18308
899.633	18296
899.753	18330
899.873	18357
899.993	18429
900.113	18350
900.232	18384
900.352	18270
900.472	18209
900.591	18171
900.711	18155
900.83	17999
900.95	18186
901.069	18205
901.189	17897
901.308	17779
901.427	17676
901.546	17672
901.665	17748
901.784	17771
901.904	17387
902.023	17505
902.141	17250
902.26	17200
902.379	17178
902.498	17178
902.617	17098
902.735	17166
902.854	17045
902.973	16995
903.091	16729
903.21	16759
903.328	16786
903.446	16656
903.565	16637
903.683	16596
903.801	16443
903.919	16546
904.038	16489
904.156	16379
904.274	16382
904.392	16268
904.51	16253
904.627	16207
904.745	16318
904.863	16356
904.981	16143
905.098	15930
905.216	15960
905.334	15998
905.451	15960
905.569	16055
905.686	15994
905.803	15816
905.921	15747
906.038	15808
906.155	15709
906.272	15610
906.389	15599
906.506	15443
906.623	15519
906.74	15530
906.857	15294
906.974	15443
907.091	15557
907.208	15595
907.324	15416
907.441	15420
907.557	15252
907.674	15264
907.79	15097
907.907	15214
908.023	15180
908.139	15097
908.256	15043
908.372	14944
908.488	15051
908.604	14929
908.72	14895
908.836	14872
908.952	14883
909.068	14902
909.184	14918
909.3	14925
909.415	14857
909.531	14891
909.647	14621
909.762	14571
909.878	14526
909.993	14689
910.108	14621
910.224	14545
910.339	14564
910.454	14476
910.57	14362
910.685	14332
910.8	14708
910.915	14522
911.03	14400
911.145	14294
911.259	14298
911.374	14294
911.489	14149
911.604	14180
911.718	13955
911.833	13993
911.947	13788
912.062	13696
912.176	13833
912.291	14039
912.405	13925
912.519	14233
912.633	14123
912.748	13940
912.862	13951
912.976	13780
913.09	13723
913.204	13750
913.318	13902
913.431	13852
913.545	13871
913.659	13963
913.772	13769
913.886	13670
914	13693
914.113	13723
914.226	13807
914.34	13700
914.453	13559
914.566	13807
914.68	13594
914.793	13468
914.906	13320
915.019	13426
915.132	13388
915.245	13392
915.358	13354
915.47	13369
915.583	13422
915.696	13396
915.809	13422
915.921	13460
916.034	13362
916.146	13426
916.259	13282
916.371	13373
916.483	13369
916.595	13213
916.708	13324
916.82	13308
916.932	13247
917.044	13190
917.156	13122
917.268	13129
917.38	13099
917.491	13118
917.603	13133
917.715	13088
917.826	13122
917.938	13000
918.049	12962
918.161	13031
918.272	13160
918.384	13122
918.495	12970
918.606	12878
918.717	12753
918.828	12890
918.939	12837
919.05	12684
919.161	12791
919.272	12585
919.383	12650
919.494	12791
919.604	12996
919.715	12878
919.826	12703
919.936	12829
920.047	12837
920.157	12768
920.267	12905
920.378	12779
920.488	12654
920.598	12863
920.708	13122
920.818	12916
920.928	12947
921.038	13050
921.148	12977
921.258	12715
921.368	12677
921.477	12642
921.587	12620
921.697	12369
921.806	12559
921.916	12410
922.025	12213
922.134	12308
922.244	12239
922.353	12277
922.462	11996
922.571	11988
922.68	11950
922.789	11790
922.898	11840
923.007	11741
923.116	11935
923.224	11931
923.333	11855
923.442	11703
923.55	11733
923.659	11748
923.767	11805
923.876	11665
923.984	11760
924.092	11649
924.201	11710
924.309	11691
924.417	11665
924.525	11604
924.633	11543
924.741	12289
924.849	11360
924.956	11528
925.064	11440
925.172	11337
925.279	11356
925.387	11402
925.494	11330
925.602	11501
925.709	11512
925.816	11292
925.924	11353
926.031	11482
926.138	11284
926.245	11288
926.352	11318
926.459	11421
926.566	11436
926.673	11273
926.779	11181
926.886	11147
926.993	11056
927.099	11003
927.206	11006
927.312	11003
927.419	10987
927.525	11022
927.631	11018
927.737	10889
927.843	10793
927.95	10683
928.056	10869
928.162	10801
928.267	10930
928.373	11356
928.479	10915
928.585	10714
928.69	10774
928.796	10896
928.901	10714
929.007	10622
929.112	10733
929.218	10714
929.323	10721
929.428	10615
929.533	10683
929.638	10546
929.743	10546
929.848	10672
929.953	10577
930.058	10474
930.163	10356
930.267	10375
930.372	10455
930.477	10230
930.581	10519
930.685	10443
930.79	10196
930.894	10325
930.998	10173
931.103	10341
931.207	9994
931.311	9899
931.415	9899
931.519	9698
931.623	9637
