Data from test_V78500241_2204.txt Node
Date: Fri Mar 25 14:49:03 CST 2022
User: usil
Spectrometer: V785-0024
Trigger mode: 0
Integration Time (sec): 4.000000E-1
Scans to average: 1
Nonlinearity correction enabled: false
Boxcar width: 0
Storing dark spectrum: false
XAxis mode: Wavelengths
Number of Pixels in Spectrum: 1024
>>>>>Begin Spectral Data<<<<<
801.071	22219
801.214	22154
801.356	21827
801.499	21641
801.641	21523
801.783	21534
801.926	21614
802.068	21663
802.211	21378
802.353	21344
802.496	21108
802.638	21142
802.78	21093
802.923	20937
803.065	20914
803.208	20933
803.35	20990
803.492	20982
803.635	20967
803.777	20895
803.919	21043
804.061	21226
804.204	20960
804.346	20777
804.488	20743
804.63	20788
804.773	20773
804.915	20781
805.057	20781
805.199	20765
805.341	20956
805.483	21013
805.626	20918
805.768	20758
805.91	20792
806.052	20800
806.194	20670
806.336	20944
806.478	20727
806.62	20785
806.762	20861
806.904	21005
807.046	21249
807.188	21264
807.33	21344
807.472	21222
807.614	21036
807.756	21062
807.898	20895
808.04	20956
808.182	20883
808.324	20864
808.465	20899
808.607	21169
808.749	21241
808.891	21317
809.033	21325
809.174	21264
809.316	21192
809.458	21283
809.6	21169
809.741	21279
809.883	21275
810.025	21370
810.166	21378
810.308	21336
810.45	21401
810.591	21291
810.733	21150
810.875	21017
811.016	20960
811.158	20842
811.299	20986
811.441	21237
811.582	21131
811.724	21013
811.865	20975
812.007	20982
812.148	21005
812.29	21074
812.431	21161
812.573	21188
812.714	21359
812.855	21450
812.997	21671
813.138	21599
813.279	21644
813.421	21496
813.562	21348
813.703	21192
813.845	21116
813.986	20765
814.127	20632
814.268	20530
814.41	20609
814.551	20541
814.692	20590
814.833	20431
814.974	20511
815.115	20492
815.256	20309
815.397	20393
815.539	20362
815.68	20256
815.821	20172
815.962	20290
816.103	20176
816.244	20050
816.385	19913
816.526	20054
816.666	19689
816.807	19689
816.948	19807
817.089	19830
817.23	19727
817.371	19616
817.512	19635
817.653	19666
817.793	19590
817.934	19674
818.075	19712
818.216	19662
818.356	19616
818.497	19472
818.638	19339
818.778	19289
818.919	19327
819.06	19308
819.2	19388
819.341	19506
819.481	19578
819.622	19510
819.762	19791
819.903	19727
820.043	19681
820.184	19658
820.324	19548
820.465	19689
820.605	19567
820.746	19537
820.886	19487
821.026	19575
821.167	19666
821.307	19651
821.447	19578
821.588	19540
821.728	19369
821.868	19137
822.008	19004
822.149	19012
822.289	19061
822.429	18741
822.569	18760
822.709	18661
822.849	18506
822.99	18506
823.13	18452
823.27	18486
823.41	18327
823.55	18315
823.69	18376
823.83	18285
823.97	18258
824.11	18091
824.25	18057
824.389	18091
824.529	18152
824.669	18110
824.809	18129
824.949	18140
825.089	18136
825.228	18053
825.368	17855
825.508	17931
825.648	17912
825.787	17950
825.927	17866
826.067	17824
826.206	17969
826.346	17912
826.485	17866
826.625	17824
826.765	17828
826.904	17843
827.044	17619
827.183	17615
827.323	17619
827.462	17551
827.601	17509
827.741	17493
827.88	17528
828.02	17649
828.159	17543
828.298	17551
828.437	17566
828.577	17459
828.716	17733
828.855	17505
828.994	17349
829.134	17337
829.273	17337
829.412	17277
829.551	17315
829.69	17353
829.829	17242
829.968	17406
830.107	17334
830.246	17345
830.385	17181
830.524	17079
830.663	17136
830.802	17094
830.941	16869
831.08	16862
831.219	16995
831.357	16927
831.496	17109
831.635	16847
831.774	16778
831.913	16809
832.051	16649
832.19	16561
832.329	16812
832.467	16626
832.606	16519
832.744	16599
832.883	16649
833.022	16508
833.16	16698
833.299	16607
833.437	16630
833.576	16565
833.714	16698
833.852	16702
833.991	16771
834.129	16664
834.267	16668
834.406	16717
834.544	16706
834.682	16694
834.821	16668
834.959	16812
835.097	16706
835.235	16706
835.373	16744
835.511	16679
835.65	16561
835.788	16607
835.926	16360
836.064	16360
836.202	16421
836.34	16554
836.478	16710
836.615	16462
836.753	16527
836.891	16641
837.029	16580
837.167	16546
837.305	16558
837.443	16474
837.58	16367
837.718	16508
837.856	16432
837.993	16341
838.131	16432
838.269	16348
838.406	16360
838.544	16325
838.681	16158
838.819	16093
838.956	15979
839.094	15998
839.231	15949
839.369	16143
839.506	16390
839.643	16253
839.781	16013
839.918	15953
840.055	15953
840.193	15994
840.33	15892
840.467	15953
840.604	15964
840.742	16207
840.879	15918
841.016	15755
841.153	15915
841.29	16105
841.427	15979
841.564	15934
841.701	15987
841.838	15892
841.975	15876
842.112	15869
842.249	15766
842.385	15682
842.522	15880
842.659	15831
842.796	15580
842.933	15713
843.069	15705
843.206	15701
843.343	15846
843.479	15705
843.616	15701
843.752	15542
843.889	15534
844.025	15682
844.162	15538
844.298	15591
844.435	15599
844.571	15530
844.708	15515
844.844	15736
844.98	15778
845.117	15629
845.253	15515
845.389	15462
845.525	15481
845.661	15363
845.798	15348
845.934	15496
846.07	15272
846.206	15351
846.342	15481
846.478	15382
846.614	15146
846.75	15097
846.886	15093
847.022	15264
847.158	15077
847.294	15055
847.429	15142
847.565	15058
847.701	15268
847.837	14807
847.972	14807
848.108	14883
848.244	14891
848.379	14800
848.515	14689
848.65	14632
848.786	14678
848.921	14678
849.057	14819
849.192	14697
849.328	14674
849.463	14686
849.598	14758
849.734	14583
849.869	14518
850.004	14400
850.14	14492
850.275	14492
850.41	14370
850.545	14454
850.68	14442
850.815	14514
850.95	14480
851.085	14708
851.22	14511
851.355	14511
851.49	14499
851.625	14495
851.76	14503
851.895	14317
852.03	14476
852.165	14393
852.299	14454
852.434	14541
852.569	14503
852.703	14454
852.838	14560
852.973	14663
853.107	14571
853.242	14461
853.376	14404
853.511	14195
853.645	14244
853.78	14533
853.914	14351
854.048	14324
854.183	14218
854.317	14374
854.451	14533
854.585	14282
854.72	14275
854.854	14370
854.988	14153
855.122	14210
855.256	14191
855.39	14301
855.524	14454
855.658	14400
855.792	14282
855.926	14377
856.06	14454
856.194	14484
856.327	14343
856.461	14301
856.595	14275
856.729	14290
856.862	14431
856.996	14324
857.13	14396
857.263	14427
857.397	14339
857.53	14370
857.664	14446
857.797	14309
857.931	14450
858.064	14374
858.197	14389
858.331	14358
858.464	14252
858.597	14252
858.731	14290
858.864	14309
858.997	14324
859.13	14374
859.263	14396
859.396	14404
859.529	14332
859.662	14355
859.795	14244
859.928	14290
860.061	14484
860.194	14434
860.327	14377
860.46	14396
860.592	14442
860.725	14499
860.858	14431
860.99	14294
861.123	14305
861.256	14271
861.388	14286
861.521	14849
861.653	14248
861.786	14092
861.918	14187
862.05	14244
862.183	14282
862.315	14320
862.447	14301
862.58	14229
862.712	14123
862.844	14092
862.976	14157
863.108	14123
863.24	14431
863.372	14050
863.504	14069
863.636	14058
863.768	14119
863.9	14088
864.032	13959
864.164	14039
864.296	14081
864.428	14225
864.559	14237
864.691	14244
864.823	14126
864.954	14149
865.086	14195
865.217	14103
865.349	13974
865.48	14096
865.612	14039
865.743	14298
865.875	14138
866.006	14039
866.137	14111
866.269	14005
866.4	13944
866.531	13974
866.662	14046
866.793	14054
866.924	13978
867.055	14130
867.186	13978
867.317	14027
867.448	13982
867.579	14062
867.71	13940
867.841	13963
867.972	14119
868.103	14103
868.233	14024
868.364	14050
868.495	14172
868.625	14282
868.756	14377
868.886	14206
869.017	14317
869.147	14389
869.278	14454
869.408	14415
869.539	14332
869.669	14450
869.799	14423
869.929	14423
870.06	14400
870.19	14670
870.32	14602
870.45	14674
870.58	14712
870.71	14735
870.84	14838
870.97	14731
871.1	14746
871.23	14902
871.36	14914
871.489	14796
871.619	14929
871.749	14887
871.879	14876
872.008	14986
872.138	14925
872.267	14910
872.397	14842
872.526	14765
872.656	14746
872.785	14796
872.915	15028
873.044	14944
873.173	14895
873.303	14982
873.432	14914
873.561	15108
873.69	14834
873.819	14982
873.948	14963
874.077	15032
874.206	14990
874.335	14986
874.464	15116
874.593	15306
874.722	15252
874.851	15302
874.979	15192
875.108	15291
875.237	15222
875.365	15192
875.494	15222
875.623	15374
875.751	15188
875.88	15401
876.008	15458
876.136	15462
876.265	15690
876.393	15861
876.521	15793
876.65	15781
876.778	15671
876.906	15682
877.034	15633
877.162	15641
877.29	15599
877.418	15679
877.546	15667
877.674	15656
877.802	15629
877.93	15717
878.058	15629
878.185	15618
878.313	15698
878.441	15728
878.568	15511
878.696	15663
878.824	15724
878.951	15831
879.079	15808
879.206	16044
879.333	15869
879.461	15671
879.588	15736
879.715	15869
879.842	15998
879.97	15804
880.097	15542
880.224	15424
880.351	15572
880.478	15545
880.605	15466
880.732	15542
880.859	15770
880.986	15485
881.112	15564
881.239	15428
881.366	15313
881.493	15195
881.619	15188
881.746	15142
881.872	15222
881.999	15195
882.125	15214
882.252	15344
882.378	15233
882.505	15344
882.631	15207
882.757	15192
882.883	15009
883.01	15001
883.136	15032
883.262	14819
883.388	14998
883.514	15013
883.64	15081
883.766	14963
883.892	14864
884.018	14895
884.143	15009
884.269	15108
884.395	14811
884.52	14689
884.646	14807
884.772	14693
884.897	14632
885.023	14659
885.148	14826
885.274	14887
885.399	14758
885.524	14701
885.65	14674
885.775	14785
885.9	14655
886.025	14872
886.15	14750
886.275	14674
886.4	14708
886.525	14651
886.65	14693
886.775	14610
886.9	14895
887.025	14887
887.149	14655
887.274	14545
887.399	14507
887.523	14617
887.648	14454
887.773	14446
887.897	14594
888.021	14655
888.146	14511
888.27	14655
888.395	14617
888.519	14610
888.643	14579
888.767	14655
888.891	14526
889.015	14351
889.139	14602
889.263	14320
889.387	14579
889.511	14571
889.635	14442
889.759	14355
889.883	14385
890.006	14412
890.13	14446
890.254	14263
890.377	14412
890.501	14347
890.624	14267
890.748	14275
890.871	14157
890.995	14008
891.118	14050
891.241	14077
891.364	14134
891.488	14210
891.611	14054
891.734	14134
891.857	14271
891.98	14149
892.103	14225
892.226	14119
892.349	14088
892.471	13993
892.594	14081
892.717	14084
892.839	14081
892.962	14054
893.085	14176
893.207	14084
893.33	14031
893.452	14096
893.575	14172
893.697	14008
893.819	14339
893.941	14419
894.064	14218
894.186	14115
894.308	14031
894.43	14164
894.552	14377
894.674	14267
894.796	14096
894.918	14153
895.04	14073
895.161	14290
895.283	14290
895.405	14199
895.526	14248
895.648	14149
895.769	14275
895.891	14252
896.012	14355
896.134	14301
896.255	14233
896.376	14237
896.498	14214
896.619	14328
896.74	14259
896.861	14324
896.982	14644
897.103	14830
897.224	14526
897.345	14541
897.466	14511
897.587	14560
897.708	14716
897.828	14629
897.949	14518
898.07	14431
898.19	14541
898.311	14724
898.431	14621
898.552	14571
898.672	14727
898.792	14788
898.913	14758
899.033	14587
899.153	14476
899.273	14324
899.393	14488
899.513	14594
899.633	14434
899.753	14495
899.873	14503
899.993	14473
900.113	14492
900.232	14507
900.352	14476
900.472	14412
900.591	14343
900.711	14377
900.83	14396
900.95	14450
901.069	14503
901.189	14305
901.308	14183
901.427	13936
901.546	14016
901.665	14077
901.784	14130
901.904	13917
902.023	13731
902.141	13636
902.26	13597
902.379	13689
902.498	13525
902.617	13502
902.735	13666
902.854	13605
902.973	13548
903.091	13331
903.21	13297
903.328	13365
903.446	13362
903.565	13179
903.683	13145
903.801	13149
903.919	13217
904.038	13133
904.156	13008
904.274	13057
904.392	12996
904.51	12996
904.627	13015
904.745	12981
904.863	13110
904.981	12745
905.098	12631
905.216	12711
905.334	12688
905.451	12741
905.569	12635
905.686	12745
905.803	12616
905.921	12471
906.038	12544
906.155	12536
906.272	12369
906.389	12441
906.506	12251
906.623	12365
906.74	12197
906.857	12129
906.974	12243
907.091	12414
907.208	12376
907.324	12315
907.441	12254
907.557	12072
907.674	11988
907.79	11916
907.907	12022
908.023	11973
908.139	11958
908.256	11920
908.372	12003
908.488	11901
908.604	11783
908.72	11775
908.836	11847
908.952	11722
909.068	11756
909.184	11904
909.3	11916
909.415	11901
909.531	11802
909.647	11596
909.762	11573
909.878	11509
909.993	11497
910.108	11440
910.224	11436
910.339	11592
910.454	11444
910.57	11414
910.685	11395
910.8	11748
910.915	11577
911.03	11406
911.145	11250
911.259	11311
911.374	11250
911.489	11212
911.604	11132
911.718	11014
911.833	11033
911.947	10972
912.062	10824
912.176	11113
912.291	11003
912.405	10976
912.519	11181
912.633	11181
912.748	11029
912.862	11098
912.976	10915
913.09	10790
913.204	10816
913.318	10889
913.431	10957
913.545	11022
913.659	10923
913.772	10850
913.886	10763
914	10763
914.113	10847
914.226	10828
914.34	10805
914.453	10691
914.566	10782
914.68	10725
914.793	10759
914.906	10527
915.019	10493
915.132	10432
915.245	10440
915.358	10577
915.47	10519
915.583	10531
915.696	10554
915.809	10615
915.921	10641
916.034	10455
916.146	10481
916.259	10512
916.371	10493
916.483	10512
916.595	10436
916.708	10497
916.82	10409
916.932	10344
917.044	10432
917.156	10447
917.268	10325
917.38	10375
917.491	10310
917.603	10299
917.715	10405
917.826	10447
917.938	10306
918.049	10181
918.161	10303
918.272	10485
918.384	10447
918.495	10352
918.606	10147
918.717	10185
918.828	10230
918.939	10242
919.05	10227
919.161	10204
919.272	10010
919.383	10116
919.494	10299
919.604	10462
919.715	10211
919.826	10124
919.936	10204
920.047	10337
920.157	10219
920.267	10504
920.378	10333
920.488	10238
920.598	10489
920.708	10573
920.818	10371
920.928	10413
921.038	10607
921.148	10615
921.258	10261
921.368	10196
921.477	10086
921.587	10044
921.697	9945
921.806	10120
921.916	9975
922.025	9823
922.134	9785
922.244	9740
922.353	9759
922.462	9728
922.571	9679
922.68	9466
922.789	9443
922.898	9545
923.007	9439
923.116	9561
923.224	9519
923.333	9507
923.442	9359
923.55	9336
923.659	9329
923.767	9526
923.876	9435
923.984	9397
924.092	9279
924.201	9367
924.309	9370
924.417	9302
924.525	9367
924.633	9272
924.741	10246
924.849	9150
924.956	9389
925.064	9150
925.172	9077
925.279	9066
925.387	9211
925.494	9165
925.602	9370
925.709	9218
925.816	9051
925.924	9195
926.031	9195
926.138	9154
926.245	9211
926.352	9020
926.459	9211
926.566	9321
926.673	9116
926.779	8998
926.886	9005
926.993	8872
927.099	8785
927.206	8845
927.312	8792
927.419	8914
927.525	8834
927.631	8857
927.737	8754
927.843	8686
927.95	8602
928.056	8705
928.162	8796
928.267	8804
928.373	9526
928.479	8830
928.585	8617
928.69	8766
928.796	8796
928.901	8705
929.007	8503
929.112	8625
929.218	8636
929.323	8552
929.428	8583
929.533	8712
929.638	8427
929.743	8484
929.848	8564
929.953	8598
930.058	8412
930.163	8324
930.267	8347
930.372	8530
930.477	8324
930.581	8549
930.685	8412
930.79	8248
930.894	8332
930.998	8294
931.103	8446
931.207	8138
931.311	7940
931.415	7989
931.519	7849
931.623	7814
