Data from test_V78500241_3342.txt Node
Date: Fri Mar 25 14:56:59 CST 2022
User: usil
Spectrometer: V785-0024
Trigger mode: 0
Integration Time (sec): 4.000000E-1
Scans to average: 1
Nonlinearity correction enabled: false
Boxcar width: 0
Storing dark spectrum: false
XAxis mode: Wavelengths
Number of Pixels in Spectrum: 1024
>>>>>Begin Spectral Data<<<<<
801.071	21979
801.214	21911
801.356	21812
801.499	21492
801.641	21302
801.783	21313
801.926	21249
802.068	21317
802.211	21344
802.353	21135
802.496	20880
802.638	20872
802.78	20777
802.923	20697
803.065	20708
803.208	20518
803.35	20587
803.492	20929
803.635	20845
803.777	20670
803.919	20758
804.061	20967
804.204	20640
804.346	20575
804.488	20651
804.63	20693
804.773	20583
804.915	20697
805.057	20609
805.199	20526
805.341	20575
805.483	20731
805.626	20560
805.768	20514
805.91	20621
806.052	20617
806.194	20389
806.336	20648
806.478	20556
806.62	20533
806.762	20689
806.904	20598
807.046	20902
807.188	20857
807.33	20941
807.472	20918
807.614	20705
807.756	20842
807.898	20727
808.04	20632
808.182	20682
808.324	20644
808.465	20708
808.607	20906
808.749	20823
808.891	20937
809.033	20952
809.174	20986
809.316	20796
809.458	20891
809.6	20929
809.741	21005
809.883	20933
810.025	21070
810.166	21043
810.308	21138
810.45	21055
810.591	20868
810.733	20796
810.875	20777
811.016	20705
811.158	20575
811.299	20632
811.441	20834
811.582	20773
811.724	20750
811.865	20594
812.007	20545
812.148	20708
812.29	20667
812.431	20838
812.573	20982
812.714	21020
812.855	21157
812.997	21294
813.138	21393
813.279	21252
813.421	21062
813.562	21127
813.703	20838
813.845	20849
813.986	20514
814.127	20507
814.268	20339
814.41	20248
814.551	20199
814.692	20168
814.833	20233
814.974	20142
815.115	20225
815.256	20043
815.397	20039
815.539	20012
815.68	19936
815.821	19970
815.962	19970
816.103	19776
816.244	19830
816.385	19784
816.526	19677
816.666	19476
816.807	19358
816.948	19419
817.089	19571
817.23	19445
817.371	19327
817.512	19358
817.653	19369
817.793	19293
817.934	19403
818.075	19327
818.216	19377
818.356	19441
818.497	19202
818.638	19088
818.778	18977
818.919	19072
819.06	19000
819.2	19240
819.341	19217
819.481	19259
819.622	19392
819.762	19613
819.903	19487
820.043	19453
820.184	19415
820.324	19369
820.465	19331
820.605	19324
820.746	19396
820.886	19236
821.026	19297
821.167	19312
821.307	19293
821.447	19244
821.588	19263
821.728	19095
821.868	18890
822.008	18802
822.149	18764
822.289	18764
822.429	18517
822.569	18296
822.709	18452
822.849	18281
822.99	18285
823.13	18281
823.27	18194
823.41	18022
823.55	17999
823.69	18197
823.83	18015
823.97	17965
824.11	17836
824.25	17771
824.389	17843
824.529	17805
824.669	17767
824.809	17866
824.949	17836
825.089	17847
825.228	17870
825.368	17589
825.508	17611
825.648	17646
825.787	17661
825.927	17585
826.067	17596
826.206	17532
826.346	17615
826.485	17558
826.625	17566
826.765	17695
826.904	17570
827.044	17459
827.183	17398
827.323	17220
827.462	17364
827.601	17410
827.741	17341
827.88	17330
828.02	17273
828.159	17178
828.298	17307
828.437	17235
828.577	17254
828.716	17425
828.855	17273
828.994	17064
829.134	17048
829.273	17041
829.412	16972
829.551	16961
829.69	17037
829.829	17094
829.968	17189
830.107	17117
830.246	17018
830.385	17128
830.524	16915
830.663	16812
830.802	16725
830.941	16679
831.08	16656
831.219	16797
831.357	16668
831.496	16854
831.635	16656
831.774	16645
831.913	16584
832.051	16497
832.19	16440
832.329	16493
832.467	16303
832.606	16291
832.744	16261
832.883	16360
833.022	16234
833.16	16459
833.299	16436
833.437	16322
833.576	16466
833.714	16451
833.852	16440
833.991	16417
834.129	16489
834.267	16440
834.406	16363
834.544	16489
834.682	16508
834.821	16428
834.959	16558
835.097	16417
835.235	16626
835.373	16504
835.511	16363
835.65	16303
835.788	16356
835.926	16200
836.064	16147
836.202	16158
836.34	16363
836.478	16421
836.615	16352
836.753	16432
836.891	16462
837.029	16356
837.167	16207
837.305	16303
837.443	16230
837.58	16192
837.718	16272
837.856	16223
837.993	16181
838.131	16226
838.269	16219
838.406	16105
838.544	16071
838.681	15884
838.819	15857
838.956	15728
839.094	15823
839.231	15789
839.369	15873
839.506	16116
839.643	16010
839.781	15732
839.918	15709
840.055	15876
840.193	15766
840.33	15762
840.467	15743
840.604	15774
840.742	15998
840.879	15698
841.016	15728
841.153	15743
841.29	15819
841.427	15793
841.564	15907
841.701	15785
841.838	15800
841.975	15648
842.112	15656
842.249	15682
842.385	15572
842.522	15724
842.659	15682
842.796	15568
842.933	15587
843.069	15660
843.206	15485
843.343	15606
843.479	15618
843.616	15618
843.752	15332
843.889	15477
844.025	15545
844.162	15374
844.298	15469
844.435	15313
844.571	15363
844.708	15351
844.844	15526
844.98	15618
845.117	15370
845.253	15386
845.389	15199
845.525	15249
845.661	15287
845.798	15173
845.934	15176
846.07	15119
846.206	15161
846.342	15203
846.478	15066
846.614	14967
846.75	14956
846.886	14971
847.022	14902
847.158	14948
847.294	14982
847.429	14960
847.565	14933
847.701	15108
847.837	14762
847.972	14644
848.108	14731
848.244	14731
848.379	14514
848.515	14457
848.65	14492
848.786	14545
848.921	14530
849.057	14644
849.192	14648
849.328	14602
849.463	14564
849.598	14499
849.734	14473
849.869	14393
850.004	14286
850.14	14370
850.275	14328
850.41	14199
850.545	14187
850.68	14244
850.815	14252
850.95	14278
851.085	14358
851.22	14328
851.355	14252
851.49	14298
851.625	14218
851.76	14305
851.895	14115
852.03	14214
852.165	14233
852.299	14221
852.434	14385
852.569	14233
852.703	14305
852.838	14423
852.973	14427
853.107	14419
853.242	14237
853.376	14081
853.511	14008
853.645	14145
853.78	14343
853.914	14149
854.048	14134
854.183	14100
854.317	14149
854.451	14271
854.585	14134
854.72	14195
854.854	14168
854.988	14115
855.122	14195
855.256	14111
855.39	14126
855.524	14214
855.658	14240
855.792	14237
855.926	14164
856.06	14282
856.194	14256
856.327	14168
856.461	14062
856.595	14073
856.729	14210
856.862	14301
856.996	14145
857.13	14240
857.263	14294
857.397	14358
857.53	14290
857.664	14225
857.797	14271
857.931	14290
858.064	14134
858.197	14172
858.331	14202
858.464	14164
858.597	14142
858.731	14191
858.864	14142
858.997	14134
859.13	14149
859.263	14225
859.396	14248
859.529	14172
859.662	14214
859.795	14183
859.928	14244
860.061	14267
860.194	14412
860.327	14248
860.46	14149
860.592	14305
860.725	14336
860.858	14282
860.99	14180
861.123	14107
861.256	14115
861.388	14134
861.521	14975
861.653	14027
861.786	14031
861.918	14062
862.05	14149
862.183	14164
862.315	14206
862.447	14286
862.58	14062
862.712	14020
862.844	13944
862.976	14012
863.108	13917
863.24	14347
863.372	13894
863.504	14020
863.636	13993
863.768	13959
863.9	13989
864.032	13940
864.164	13917
864.296	14008
864.428	14107
864.559	14020
864.691	14024
864.823	14027
864.954	14024
865.086	14054
865.217	14001
865.349	13917
865.48	13944
865.612	14054
865.743	14103
865.875	14005
866.006	13936
866.137	13906
866.269	13940
866.4	13936
866.531	13959
866.662	14001
866.793	13970
866.924	13928
867.055	14058
867.186	14035
867.317	13940
867.448	13921
867.579	13871
867.71	13833
867.841	13860
867.972	14020
868.103	13921
868.233	13951
868.364	13909
868.495	13947
868.625	14187
868.756	14286
868.886	14149
869.017	14145
869.147	14244
869.278	14339
869.408	14115
869.539	14187
869.669	14324
869.799	14187
869.929	14298
870.06	14275
870.19	14518
870.32	14404
870.45	14503
870.58	14575
870.71	14735
870.84	14587
870.97	14545
871.1	14571
871.23	14819
871.36	14811
871.489	14762
871.619	14724
871.749	14944
871.879	14948
872.008	14899
872.138	14800
872.267	14804
872.397	14724
872.526	14594
872.656	14686
872.785	14583
872.915	14853
873.044	14937
873.173	14750
873.303	14853
873.432	14906
873.561	14921
873.69	14830
873.819	14788
873.948	14910
874.077	14830
874.206	14754
874.335	14914
874.464	15005
874.593	15203
874.722	15017
874.851	15237
874.979	15233
875.108	15192
875.237	15146
875.365	15043
875.494	15116
875.623	15363
875.751	15169
875.88	15237
876.008	15317
876.136	15325
876.265	15572
876.393	15759
876.521	15679
876.65	15694
876.778	15599
876.906	15603
877.034	15644
877.162	15530
877.29	15553
877.418	15595
877.546	15553
877.674	15633
877.802	15568
877.93	15431
878.058	15648
878.185	15485
878.313	15584
878.441	15629
878.568	15340
878.696	15481
878.824	15622
878.951	15614
879.079	15732
879.206	15907
879.333	15709
879.461	15667
879.588	15728
879.715	15766
879.842	15857
879.97	15755
880.097	15519
880.224	15447
880.351	15477
880.478	15481
880.605	15401
880.732	15458
880.859	15633
880.986	15469
881.112	15439
881.239	15378
881.366	15260
881.493	15195
881.619	15058
881.746	15085
881.872	15138
881.999	15028
882.125	14994
882.252	15070
882.378	15146
882.505	15344
882.631	15077
882.757	14830
882.883	14971
883.01	15017
883.136	14872
883.262	14800
883.388	14693
883.514	14952
883.64	14906
883.766	14899
883.892	14758
884.018	14849
884.143	14937
884.269	15043
884.395	14659
884.52	14583
884.646	14583
884.772	14522
884.897	14507
885.023	14636
885.148	14735
885.274	14765
885.399	14743
885.524	14571
885.65	14610
885.775	14674
885.9	14636
886.025	14781
886.15	14781
886.275	14571
886.4	14533
886.525	14568
886.65	14556
886.775	14499
886.9	14655
887.025	14853
887.149	14644
887.274	14488
887.399	14446
887.523	14412
887.648	14351
887.773	14278
887.897	14473
888.021	14495
888.146	14400
888.27	14545
888.395	14621
888.519	14454
888.643	14530
888.767	14579
888.891	14427
889.015	14339
889.139	14347
889.263	14275
889.387	14442
889.511	14431
889.635	14366
889.759	14324
889.883	14305
890.006	14301
890.13	14366
890.254	14161
890.377	14313
890.501	14153
890.624	14016
890.748	14164
890.871	14183
890.995	13909
891.118	13849
891.241	13989
891.364	14031
891.488	14153
891.611	14008
891.734	14027
891.857	14065
891.98	14062
892.103	14043
892.226	14046
892.349	13955
892.471	13841
892.594	13959
892.717	13967
892.839	14035
892.962	14054
893.085	14073
893.207	14054
893.33	13845
893.452	13921
893.575	14119
893.697	13947
893.819	14092
893.941	14267
894.064	14210
894.186	13986
894.308	14005
894.43	14126
894.552	14157
894.674	14199
894.796	14054
894.918	14043
895.04	14062
895.161	14199
895.283	14103
895.405	14081
895.526	14111
895.648	14145
895.769	14130
895.891	14229
896.012	14233
896.134	14161
896.255	14199
896.376	14153
896.498	14161
896.619	14233
896.74	14183
896.861	14259
896.982	14480
897.103	14727
897.224	14492
897.345	14526
897.466	14377
897.587	14431
897.708	14518
897.828	14423
897.949	14362
898.07	14377
898.19	14385
898.311	14602
898.431	14473
898.552	14537
898.672	14552
898.792	14587
898.913	14598
899.033	14427
899.153	14370
899.273	14336
899.393	14313
899.513	14522
899.633	14294
899.753	14434
899.873	14332
899.993	14431
900.113	14358
900.232	14465
900.352	14374
900.472	14358
900.591	14183
900.711	14286
900.83	14168
900.95	14294
901.069	14415
901.189	14221
901.308	13898
901.427	13875
901.546	14012
901.665	13875
901.784	13978
901.904	13807
902.023	13765
902.141	13514
902.26	13510
902.379	13636
902.498	13487
902.617	13422
902.735	13518
902.854	13480
902.973	13464
903.091	13225
903.21	13202
903.328	13168
903.446	13031
903.565	13053
903.683	13088
903.801	12958
903.919	13099
904.038	13053
904.156	12935
904.274	13015
904.392	12825
904.51	12890
904.627	12856
904.745	12875
904.863	13038
904.981	12658
905.098	12582
905.216	12612
905.334	12627
905.451	12528
905.569	12570
905.686	12650
905.803	12547
905.921	12357
906.038	12475
906.155	12407
906.272	12327
906.389	12369
906.506	12205
906.623	12171
906.74	12144
906.857	12026
906.974	12079
907.091	12121
907.208	12304
907.324	12258
907.441	12114
907.557	11980
907.674	11908
907.79	11813
907.907	11935
908.023	11920
908.139	11912
908.256	11904
908.372	11859
908.488	11790
908.604	11745
908.72	11699
908.836	11600
908.952	11646
909.068	11707
909.184	11718
909.3	11726
909.415	11813
909.531	11665
909.647	11543
909.762	11417
909.878	11421
909.993	11524
910.108	11391
910.224	11421
910.339	11448
910.454	11341
910.57	11307
910.685	11265
910.8	11570
910.915	11429
911.03	11311
911.145	11265
911.259	11181
911.374	11143
911.489	11113
911.604	11003
911.718	10946
911.833	10930
911.947	10755
912.062	10771
912.176	10892
912.291	10919
912.405	10892
912.519	11075
912.633	11033
912.748	10953
912.862	10930
912.976	10793
913.09	10675
913.204	10786
913.318	10809
913.431	10919
913.545	10915
913.659	10904
913.772	10774
913.886	10645
914	10637
914.113	10797
914.226	10927
914.34	10733
914.453	10634
914.566	10744
914.68	10603
914.793	10626
914.906	10470
915.019	10333
915.132	10329
915.245	10386
915.358	10413
915.47	10371
915.583	10375
915.696	10504
915.809	10565
915.921	10622
916.034	10398
916.146	10382
916.259	10329
916.371	10470
916.483	10428
916.595	10371
916.708	10409
916.82	10325
916.932	10295
917.044	10375
917.156	10405
917.268	10249
917.38	10272
917.491	10188
917.603	10276
917.715	10344
917.826	10367
917.938	10219
918.049	10074
918.161	10223
918.272	10436
918.384	10409
918.495	10295
918.606	10196
918.717	10055
918.828	10162
918.939	10192
919.05	10029
919.161	10105
919.272	9972
919.383	9915
919.494	10162
919.604	10417
919.715	10120
919.826	10063
919.936	10204
920.047	10147
920.157	10177
920.267	10409
920.378	10158
920.488	10188
920.598	10367
920.708	10516
920.818	10367
920.928	10382
921.038	10481
921.148	10436
921.258	10166
921.368	10135
921.477	10017
921.587	10002
921.697	9918
921.806	10051
921.916	9842
922.025	9732
922.134	9800
922.244	9671
922.353	9732
922.462	9549
922.571	9542
922.68	9428
922.789	9370
922.898	9473
923.007	9367
923.116	9450
923.224	9428
923.333	9298
923.442	9348
923.55	9272
923.659	9287
923.767	9340
923.876	9279
923.984	9332
924.092	9207
924.201	9279
924.309	9298
924.417	9203
924.525	9173
924.633	9226
924.741	10177
924.849	8998
924.956	9199
925.064	9089
925.172	9017
925.279	9024
925.387	9180
925.494	9039
925.602	9180
925.709	9157
925.816	9001
925.924	9066
926.031	9180
926.138	9131
926.245	9081
926.352	9005
926.459	9161
926.566	9123
926.673	8963
926.779	8933
926.886	8906
926.993	8739
927.099	8815
927.206	8712
927.312	8659
927.419	8853
927.525	8785
927.631	8857
927.737	8739
927.843	8655
927.95	8640
928.056	8670
928.162	8731
928.267	8743
928.373	9359
928.479	8762
928.585	8564
928.69	8735
928.796	8716
928.901	8522
929.007	8461
929.112	8583
929.218	8587
929.323	8465
929.428	8518
929.533	8629
929.638	8438
929.743	8450
929.848	8545
929.953	8530
930.058	8431
930.163	8286
930.267	8271
930.372	8385
930.477	8233
930.581	8431
930.685	8309
930.79	8218
930.894	8282
930.998	8202
931.103	8324
931.207	8001
931.311	7913
931.415	7868
931.519	7734
931.623	7708
