Data from test_V78500241_1738.txt Node
Date: Fri Mar 25 14:45:48 CST 2022
User: usil
Spectrometer: V785-0024
Trigger mode: 0
Integration Time (sec): 4.000000E-1
Scans to average: 1
Nonlinearity correction enabled: false
Boxcar width: 0
Storing dark spectrum: false
XAxis mode: Wavelengths
Number of Pixels in Spectrum: 1024
>>>>>Begin Spectral Data<<<<<
801.071	22150
801.214	22051
801.356	21823
801.499	21701
801.641	21481
801.783	21561
801.926	21545
802.068	21408
802.211	21344
802.353	21336
802.496	21150
802.638	20998
802.78	21085
802.923	20910
803.065	20769
803.208	20918
803.35	20982
803.492	21032
803.635	20960
803.777	20788
803.919	21051
804.061	21188
804.204	21013
804.346	20929
804.488	20895
804.63	20834
804.773	20792
804.915	20834
805.057	20963
805.199	20899
805.341	20914
805.483	21009
805.626	20853
805.768	20731
805.91	20830
806.052	20891
806.194	20769
806.336	20906
806.478	20796
806.62	20807
806.762	20819
806.904	21013
807.046	21135
807.188	21275
807.33	21138
807.472	21180
807.614	21047
807.756	21009
807.898	20937
808.04	20887
808.182	20933
808.324	20891
808.465	20948
808.607	21062
808.749	21260
808.891	21325
809.033	21306
809.174	21469
809.316	21161
809.458	21287
809.6	21268
809.741	21321
809.883	21340
810.025	21420
810.166	21317
810.308	21348
810.45	21355
810.591	21230
810.733	21169
810.875	21077
811.016	20876
811.158	20895
811.299	20975
811.441	21077
811.582	21066
811.724	21051
811.865	20902
812.007	20967
812.148	21020
812.29	21020
812.431	21119
812.573	21245
812.714	21408
812.855	21405
812.997	21564
813.138	21728
813.279	21633
813.421	21507
813.562	21401
813.703	21256
813.845	21081
813.986	20849
814.127	20674
814.268	20670
814.41	20609
814.551	20579
814.692	20621
814.833	20522
814.974	20381
815.115	20629
815.256	20180
815.397	20389
815.539	20389
815.68	20271
815.821	20317
815.962	20176
816.103	20237
816.244	20168
816.385	20046
816.526	20039
816.666	20008
816.807	19609
816.948	19841
817.089	19780
817.23	19677
817.371	19693
817.512	19696
817.653	19696
817.793	19597
817.934	19704
818.075	19738
818.216	19765
818.356	19567
818.497	19575
818.638	19289
818.778	19369
818.919	19350
819.06	19426
819.2	19483
819.341	19582
819.481	19506
819.622	19647
819.762	19761
819.903	19750
820.043	19750
820.184	19723
820.324	19624
820.465	19635
820.605	19753
820.746	19635
820.886	19502
821.026	19643
821.167	19594
821.307	19647
821.447	19601
821.588	19468
821.728	19301
821.868	19236
822.008	18996
822.149	19069
822.289	19091
822.429	18791
822.569	18802
822.709	18738
822.849	18570
822.99	18517
823.13	18574
823.27	18509
823.41	18270
823.55	18304
823.69	18315
823.83	18228
823.97	18292
824.11	18110
824.25	18076
824.389	18163
824.529	18125
824.669	18041
824.809	18205
824.949	18106
825.089	18190
825.228	18167
825.368	17859
825.508	17893
825.648	17973
825.787	18041
825.927	18011
826.067	17977
826.206	17828
826.346	18072
826.485	17977
826.625	17942
826.765	17980
826.904	17840
827.044	17630
827.183	17581
827.323	17509
827.462	17687
827.601	17566
827.741	17600
827.88	17665
828.02	17562
828.159	17672
828.298	17623
828.437	17714
828.577	17634
828.716	17771
828.855	17573
828.994	17433
829.134	17402
829.273	17383
829.412	17379
829.551	17322
829.69	17364
829.829	17452
829.968	17444
830.107	17379
830.246	17440
830.385	17356
830.524	17254
830.663	17155
830.802	17132
830.941	17045
831.08	16957
831.219	17113
831.357	17064
831.496	17166
831.635	16972
831.774	16949
831.913	16919
832.051	16752
832.19	16782
832.329	16869
832.467	16774
832.606	16664
832.744	16653
832.883	16672
833.022	16710
833.16	16759
833.299	16706
833.437	16752
833.576	16641
833.714	16774
833.852	16797
833.991	16812
834.129	16835
834.267	16850
834.406	16896
834.544	16828
834.682	16790
834.821	16763
834.959	16919
835.097	16653
835.235	16733
835.373	16839
835.511	16702
835.65	16653
835.788	16679
835.926	16432
836.064	16512
836.202	16550
836.34	16702
836.478	16866
836.615	16580
836.753	16713
836.891	16725
837.029	16729
837.167	16679
837.305	16637
837.443	16584
837.58	16569
837.718	16588
837.856	16615
837.993	16455
838.131	16459
838.269	16432
838.406	16447
838.544	16405
838.681	16215
838.819	16158
838.956	16067
839.094	16135
839.231	16105
839.369	16257
839.506	16436
839.643	16337
839.781	15998
839.918	16071
840.055	16013
840.193	16032
840.33	16048
840.467	16010
840.604	16036
840.742	16306
840.879	15972
841.016	15934
841.153	15880
841.29	16181
841.427	16044
841.564	16124
841.701	16055
841.838	16017
841.975	15922
842.112	15960
842.249	15850
842.385	15793
842.522	15998
842.659	15793
842.796	15816
842.933	15751
843.069	15857
843.206	15808
843.343	15918
843.479	15880
843.616	15922
843.752	15690
843.889	15648
844.025	15755
844.162	15660
844.298	15717
844.435	15698
844.571	15599
844.708	15713
844.844	15770
844.98	15728
845.117	15755
845.253	15564
845.389	15572
845.525	15557
845.661	15500
845.798	15408
845.934	15466
846.07	15336
846.206	15466
846.342	15610
846.478	15397
846.614	15203
846.75	15093
846.886	15146
847.022	15332
847.158	15173
847.294	15192
847.429	15241
847.565	15184
847.701	15370
847.837	14941
847.972	14872
848.108	15013
848.244	15028
848.379	14773
848.515	14716
848.65	14792
848.786	14724
848.921	14800
849.057	14868
849.192	14994
849.328	14785
849.463	14842
849.598	14823
849.734	14727
849.869	14629
850.004	14632
850.14	14701
850.275	14537
850.41	14484
850.545	14499
850.68	14473
850.815	14533
850.95	14549
851.085	14693
851.22	14636
851.355	14655
851.49	14530
851.625	14495
851.76	14541
851.895	14480
852.03	14412
852.165	14530
852.299	14507
852.434	14682
852.569	14495
852.703	14575
852.838	14648
852.973	14758
853.107	14735
853.242	14560
853.376	14343
853.511	14355
853.645	14412
853.78	14492
853.914	14469
854.048	14393
854.183	14317
854.317	14469
854.451	14511
854.585	14434
854.72	14419
854.854	14438
854.988	14332
855.122	14427
855.256	14275
855.39	14438
855.524	14438
855.658	14568
855.792	14469
855.926	14518
856.06	14457
856.194	14526
856.327	14446
856.461	14419
856.595	14434
856.729	14400
856.862	14526
856.996	14526
857.13	14575
857.263	14526
857.397	14556
857.53	14473
857.664	14518
857.797	14522
857.931	14503
858.064	14488
858.197	14533
858.331	14495
858.464	14442
858.597	14317
858.731	14374
858.864	14431
858.997	14450
859.13	14423
859.263	14545
859.396	14552
859.529	14473
859.662	14393
859.795	14339
859.928	14434
860.061	14526
860.194	14583
860.327	14476
860.46	14408
860.592	14587
860.725	14530
860.858	14560
860.99	14465
861.123	14343
861.256	14442
861.388	14412
861.521	15081
861.653	14298
861.786	14301
861.918	14431
862.05	14282
862.183	14427
862.315	14396
862.447	14488
862.58	14336
862.712	14168
862.844	14214
862.976	14278
863.108	14229
863.24	14598
863.372	14161
863.504	14168
863.636	14130
863.768	14221
863.9	14267
864.032	14195
864.164	14237
864.296	14343
864.428	14313
864.559	14271
864.691	14298
864.823	14195
864.954	14301
865.086	14244
865.217	14237
865.349	14115
865.48	14202
865.612	14214
865.743	14343
865.875	14286
866.006	14164
866.137	14218
866.269	14142
866.4	14229
866.531	14214
866.662	14084
866.793	14149
866.924	14138
867.055	14180
867.186	14164
867.317	14149
867.448	13997
867.579	14142
867.71	14153
867.841	14157
867.972	14233
868.103	14130
868.233	14187
868.364	14138
868.495	14278
868.625	14450
868.756	14533
868.886	14366
869.017	14423
869.147	14594
869.278	14552
869.408	14427
869.539	14423
869.669	14514
869.799	14442
869.929	14598
870.06	14511
870.19	14724
870.32	14670
870.45	14830
870.58	14773
870.71	14990
870.84	14880
870.97	14838
871.1	14838
871.23	15005
871.36	15024
871.489	15017
871.619	14994
871.749	15036
871.879	15020
872.008	15097
872.138	15036
872.267	15055
872.397	14887
872.526	14868
872.656	14864
872.785	14906
872.915	15116
873.044	15180
873.173	14994
873.303	15112
873.432	15161
873.561	15165
873.69	15093
873.819	15028
873.948	15119
874.077	15089
874.206	15051
874.335	15039
874.464	15233
874.593	15367
874.722	15382
874.851	15500
874.979	15378
875.108	15447
875.237	15355
875.365	15226
875.494	15298
875.623	15515
875.751	15428
875.88	15412
876.008	15530
876.136	15622
876.265	15800
876.393	16013
876.521	15812
876.65	15934
876.778	15854
876.906	15827
877.034	15766
877.162	15892
877.29	15690
877.418	15804
877.546	15865
877.674	15831
877.802	15789
877.93	15831
878.058	15797
878.185	15675
878.313	15823
878.441	15888
878.568	15641
878.696	15785
878.824	15880
878.951	15857
879.079	15972
879.206	16143
879.333	15979
879.461	15846
879.588	15907
879.715	15941
879.842	16090
879.97	15842
880.097	15595
880.224	15591
880.351	15755
880.478	15671
880.605	15591
880.732	15572
880.859	15895
880.986	15686
881.112	15686
881.239	15450
881.366	15549
881.493	15363
881.619	15332
881.746	15279
881.872	15317
881.999	15317
882.125	15370
882.252	15348
882.378	15355
882.505	15462
882.631	15291
882.757	15104
882.883	15241
883.01	15252
883.136	15142
883.262	15028
883.388	14891
883.514	15127
883.64	15184
883.766	15146
883.892	14823
884.018	15017
884.143	15051
884.269	15233
884.395	14895
884.52	14868
884.646	14906
884.772	14708
884.897	14781
885.023	14826
885.148	14952
885.274	14975
885.399	14842
885.524	14872
885.65	14887
885.775	14868
885.9	14819
886.025	14880
886.15	14933
886.275	14823
886.4	14708
886.525	14792
886.65	14868
886.775	14758
886.9	14925
887.025	15062
887.149	14834
887.274	14636
887.399	14606
887.523	14522
887.648	14610
887.773	14587
887.897	14815
888.021	14678
888.146	14636
888.27	14777
888.395	14712
888.519	14746
888.643	14804
888.767	14750
888.891	14636
889.015	14400
889.139	14552
889.263	14370
889.387	14632
889.511	14663
889.635	14617
889.759	14450
889.883	14518
890.006	14533
890.13	14598
890.254	14461
890.377	14298
890.501	14347
890.624	14244
890.748	14347
890.871	14271
890.995	14164
891.118	14153
891.241	14168
891.364	14259
891.488	14301
891.611	14218
891.734	14282
891.857	14290
891.98	14202
892.103	14362
892.226	14309
892.349	14100
892.471	14043
892.594	14221
892.717	14221
892.839	14210
892.962	14221
893.085	14248
893.207	14172
893.33	14100
893.452	14145
893.575	14229
893.697	14176
893.819	14298
893.941	14461
894.064	14320
894.186	14191
894.308	14164
894.43	14336
894.552	14408
894.674	14377
894.796	14130
894.918	14225
895.04	14199
895.161	14332
895.283	14282
895.405	14267
895.526	14275
895.648	14263
895.769	14324
895.891	14393
896.012	14442
896.134	14412
896.255	14324
896.376	14343
896.498	14351
896.619	14404
896.74	14370
896.861	14552
896.982	14648
897.103	14887
897.224	14705
897.345	14678
897.466	14651
897.587	14651
897.708	14796
897.828	14731
897.949	14590
898.07	14541
898.19	14632
898.311	14667
898.431	14678
898.552	14716
898.672	14739
898.792	14826
898.913	14731
899.033	14602
899.153	14590
899.273	14465
899.393	14499
899.513	14632
899.633	14533
899.753	14564
899.873	14507
899.993	14655
900.113	14552
900.232	14568
900.352	14602
900.472	14480
900.591	14339
900.711	14408
900.83	14446
900.95	14476
901.069	14461
901.189	14339
901.308	14252
901.427	14088
901.546	14039
901.665	14183
901.784	14142
901.904	14005
902.023	13921
902.141	13651
902.26	13700
902.379	13674
902.498	13624
902.617	13651
902.735	13753
902.854	13586
902.973	13613
903.091	13324
903.21	13369
903.328	13430
903.446	13335
903.565	13266
903.683	13251
903.801	13103
903.919	13266
904.038	13225
904.156	13046
904.274	13149
904.392	13027
904.51	13050
904.627	12985
904.745	13118
904.863	13061
904.981	12863
905.098	12760
905.216	12871
905.334	12825
905.451	12810
905.569	12753
905.686	12779
905.803	12707
905.921	12551
906.038	12692
906.155	12536
906.272	12456
906.389	12456
906.506	12395
906.623	12308
906.74	12376
906.857	12251
906.974	12201
907.091	12445
907.208	12498
907.324	12407
907.441	12273
907.557	12152
907.674	12041
907.79	12038
907.907	12106
908.023	12155
908.139	12125
908.256	12060
908.372	11988
908.488	12034
908.604	11843
908.72	11916
908.836	11828
908.952	11790
909.068	11859
909.184	11973
909.3	11904
909.415	11958
909.531	11824
909.647	11630
909.762	11554
909.878	11642
909.993	11589
910.108	11619
910.224	11589
910.339	11608
910.454	11417
910.57	11448
910.685	11402
910.8	11604
910.915	11642
911.03	11505
911.145	11337
911.259	11315
911.374	11288
911.489	11269
911.604	11242
911.718	10961
911.833	10980
911.947	10999
912.062	10866
912.176	11071
912.291	11174
912.405	11094
912.519	11216
912.633	11193
912.748	11136
912.862	11086
912.976	10923
913.09	10850
913.204	10911
913.318	11022
913.431	10999
913.545	11025
913.659	11018
913.772	10953
913.886	10889
914	10812
914.113	10949
914.226	10968
914.34	10930
914.453	10744
914.566	10831
914.68	10831
914.793	10767
914.906	10577
915.019	10603
915.132	10516
915.245	10523
915.358	10531
915.47	10542
915.583	10615
915.696	10683
915.809	10660
915.921	10801
916.034	10485
916.146	10451
916.259	10546
916.371	10550
916.483	10519
916.595	10497
916.708	10443
916.82	10493
916.932	10421
917.044	10474
917.156	10428
917.268	10398
917.38	10375
917.491	10421
917.603	10451
917.715	10489
917.826	10497
917.938	10356
918.049	10257
918.161	10417
918.272	10489
918.384	10542
918.495	10371
918.606	10276
918.717	10188
918.828	10344
918.939	10310
919.05	10207
919.161	10223
919.272	10055
919.383	10196
919.494	10352
919.604	10447
919.715	10382
919.826	10223
919.936	10230
920.047	10371
920.157	10261
920.267	10512
920.378	10375
920.488	10257
920.598	10428
920.708	10569
920.818	10409
920.928	10443
921.038	10645
921.148	10637
921.258	10314
921.368	10169
921.477	10150
921.587	10173
921.697	9953
921.806	10166
921.916	10021
922.025	9793
922.134	9804
922.244	9766
922.353	9865
922.462	9720
922.571	9675
922.68	9584
922.789	9492
922.898	9576
923.007	9477
923.116	9584
923.224	9435
923.333	9530
923.442	9443
923.55	9450
923.659	9507
923.767	9523
923.876	9481
923.984	9416
924.092	9325
924.201	9374
924.309	9397
924.417	9397
924.525	9386
924.633	9332
924.741	10261
924.849	9218
924.956	9336
925.064	9146
925.172	9165
925.279	9108
925.387	9192
925.494	9180
925.602	9336
925.709	9279
925.816	9097
925.924	9192
926.031	9272
926.138	9207
926.245	9211
926.352	9161
926.459	9272
926.566	9370
926.673	9119
926.779	9055
926.886	9039
926.993	8956
927.099	8864
927.206	8838
927.312	8861
927.419	8979
927.525	8963
927.631	8986
927.737	8800
927.843	8826
927.95	8667
928.056	8739
928.162	8826
928.267	8891
928.373	9511
928.479	8876
928.585	8716
928.69	8735
928.796	8826
928.901	8720
929.007	8587
929.112	8697
929.218	8716
929.323	8632
929.428	8610
929.533	8746
929.638	8533
929.743	8598
929.848	8606
929.953	8629
930.058	8518
930.163	8412
930.267	8423
930.372	8488
930.477	8362
930.581	8632
930.685	8473
930.79	8294
930.894	8412
930.998	8244
931.103	8465
931.207	8119
931.311	8062
931.415	7978
931.519	7792
931.623	7875
