Data from test_V78500241_301.txt Node
Date: Fri Mar 25 14:35:49 CST 2022
User: usil
Spectrometer: V785-0024
Trigger mode: 0
Integration Time (sec): 4.000000E-1
Scans to average: 1
Nonlinearity correction enabled: false
Boxcar width: 0
Storing dark spectrum: false
XAxis mode: Wavelengths
Number of Pixels in Spectrum: 1024
>>>>>Begin Spectral Data<<<<<
801.071	27222
801.214	27226
801.356	26845
801.499	26868
801.641	26640
801.783	26594
801.926	26606
802.068	26568
802.211	26434
802.353	26488
802.496	26358
802.638	26275
802.78	26096
802.923	26012
803.065	26012
803.208	26043
803.35	26134
803.492	26119
803.635	26252
803.777	26225
803.919	26271
804.061	26415
804.204	26153
804.346	26107
804.488	26050
804.63	26107
804.773	25966
804.915	26138
805.057	26233
805.199	26134
805.341	26199
805.483	26176
805.626	26176
805.768	26161
805.91	26267
806.052	26187
806.194	26248
806.336	26301
806.478	26210
806.62	26084
806.762	26381
806.904	26434
807.046	26651
807.188	26450
807.33	26419
807.472	26526
807.614	26552
807.756	26514
807.898	26381
808.04	26298
808.182	26332
808.324	26385
808.465	26446
808.607	26636
808.749	26819
808.891	26918
809.033	27005
809.174	26815
809.316	26655
809.458	26693
809.6	26667
809.741	26636
809.883	26632
810.025	26815
810.166	27028
810.308	26960
810.45	26811
810.591	26689
810.733	26598
810.875	26545
811.016	26465
811.158	26419
811.299	26613
811.441	26697
811.582	26689
811.724	26488
811.865	26545
812.007	26518
812.148	26465
812.29	26533
812.431	26743
812.573	26868
812.714	27020
812.855	26963
812.997	27017
813.138	27169
813.279	27093
813.421	27066
813.562	27058
813.703	26823
813.845	26746
813.986	26469
814.127	26282
814.268	26153
814.41	26206
814.551	26115
814.692	26149
814.833	26134
814.974	26138
815.115	26206
815.256	25868
815.397	25970
815.539	25947
815.68	25833
815.821	25822
815.962	25814
816.103	25795
816.244	25567
816.385	25548
816.526	25563
816.666	25365
816.807	25259
816.948	25240
817.089	25384
817.23	25244
817.371	25190
817.512	25236
817.653	25236
817.793	25129
817.934	25183
818.075	25198
818.216	25141
818.356	25110
818.497	25110
818.638	24821
818.778	24890
818.919	24856
819.06	24996
819.2	25042
819.341	25141
819.481	25137
819.622	25183
819.762	25331
819.903	25320
820.043	25278
820.184	25156
820.324	25103
820.465	25255
820.605	25206
820.746	25122
820.886	24966
821.026	25175
821.167	25012
821.307	25122
821.447	24989
821.588	25027
821.728	24798
821.868	24703
822.008	24422
822.149	24536
822.289	24544
822.429	24194
822.569	24201
822.709	24235
822.849	23946
822.99	23996
823.13	24015
823.27	23916
823.41	23687
823.55	23680
823.69	23775
823.83	23824
823.97	23786
824.11	23615
824.25	23501
824.389	23505
824.529	23566
824.669	23604
824.809	23707
824.949	23600
825.089	23665
825.228	23604
825.368	23330
825.508	23406
825.648	23387
825.787	23429
825.927	23330
826.067	23288
826.206	23368
826.346	23288
826.485	23292
826.625	23239
826.765	23368
826.904	23402
827.044	23155
827.183	23003
827.323	22995
827.462	23010
827.601	22995
827.741	22972
827.88	23052
828.02	22889
828.159	22991
828.298	23018
828.437	23109
828.577	22965
828.716	23155
828.855	22881
828.994	22839
829.134	22672
829.273	22725
829.412	22771
829.551	22618
829.69	22691
829.829	22702
829.968	22713
830.107	22660
830.246	22774
830.385	22694
830.524	22516
830.663	22656
830.802	22523
830.941	22253
831.08	22303
831.219	22337
831.357	22402
831.496	22474
831.635	22276
831.774	22185
831.913	22097
832.051	22105
832.19	22032
832.329	22082
832.467	21911
832.606	21911
832.744	21778
832.883	21846
833.022	21846
833.16	21892
833.299	21918
833.437	21888
833.576	22013
833.714	21903
833.852	21941
833.991	21987
834.129	22010
834.267	22048
834.406	21930
834.544	21949
834.682	22025
834.821	21838
834.959	22196
835.097	21880
835.235	21827
835.373	21823
835.511	21884
835.65	21713
835.788	21835
835.926	21667
836.064	21561
836.202	21675
836.34	21743
836.478	21926
836.615	21747
836.753	21698
836.891	21804
837.029	21743
837.167	21641
837.305	21709
837.443	21679
837.58	21553
837.718	21572
837.856	21526
837.993	21557
838.131	21542
838.269	21481
838.406	21515
838.544	21412
838.681	21192
838.819	21279
838.956	21173
839.094	21104
839.231	21013
839.369	21230
839.506	21424
839.643	21298
839.781	21070
839.918	20929
840.055	21032
840.193	20834
840.33	20849
840.467	21047
840.604	20982
840.742	21214
840.879	20868
841.016	20872
841.153	20853
841.29	21135
841.427	20944
841.564	20975
841.701	20925
841.838	20804
841.975	20762
842.112	20842
842.249	20659
842.385	20735
842.522	20773
842.659	20769
842.796	20678
842.933	20743
843.069	20644
843.206	20526
843.343	20697
843.479	20804
843.616	20686
843.752	20431
843.889	20370
844.025	20659
844.162	20377
844.298	20549
844.435	20427
844.571	20339
844.708	20507
844.844	20537
844.98	20522
845.117	20514
845.253	20256
845.389	20183
845.525	20339
845.661	20294
845.798	20275
845.934	20278
846.07	20313
846.206	20225
846.342	20282
846.478	20252
846.614	20077
846.75	19822
846.886	19940
847.022	20027
847.158	19871
847.294	19894
847.429	20008
847.565	19788
847.701	20043
847.837	19578
847.972	19476
848.108	19639
848.244	19628
848.379	19460
848.515	19480
848.65	19441
848.786	19449
848.921	19521
849.057	19468
849.192	19540
849.328	19518
849.463	19415
849.598	19480
849.734	19293
849.869	19285
850.004	19183
850.14	19206
850.275	19160
850.41	19156
850.545	19183
850.68	19141
850.815	19080
850.95	19156
851.085	19304
851.22	19141
851.355	19164
851.49	19129
851.625	19129
851.76	19076
851.895	19061
852.03	19061
852.165	19091
852.299	19187
852.434	19217
852.569	19137
852.703	19164
852.838	19209
852.973	19209
853.107	19373
853.242	18989
853.376	18958
853.511	18817
853.645	18916
853.78	19023
853.914	18833
854.048	18905
854.183	18886
854.317	19050
854.451	19141
854.585	19046
854.72	18787
854.854	18890
854.988	18928
855.122	18993
855.256	18833
855.39	18913
855.524	18954
855.658	18996
855.792	18947
855.926	19061
856.06	18996
856.194	19031
856.327	18962
856.461	18973
856.595	18795
856.729	18833
856.862	19042
856.996	18905
857.13	19088
857.263	19137
857.397	18981
857.53	18859
857.664	18970
857.797	18943
857.931	19046
858.064	18901
858.197	18985
858.331	18867
858.464	18935
858.597	18768
858.731	18840
858.864	18814
858.997	18814
859.13	18916
859.263	18897
859.396	18943
859.529	18814
859.662	18814
859.795	18928
859.928	18935
860.061	19061
860.194	19042
860.327	19012
860.46	18852
860.592	18993
860.725	19065
860.858	18962
860.99	18947
861.123	18703
861.256	18886
861.388	18844
861.521	19502
861.653	18844
861.786	18741
861.918	18814
862.05	18886
862.183	18928
862.315	18985
862.447	18977
862.58	18875
862.712	18726
862.844	18745
862.976	18741
863.108	18715
863.24	19012
863.372	18555
863.504	18597
863.636	18620
863.768	18673
863.9	18570
864.032	18608
864.164	18544
864.296	18601
864.428	18753
864.559	18654
864.691	18776
864.823	18532
864.954	18414
865.086	18544
865.217	18479
865.349	18517
865.48	18490
865.612	18582
865.743	18650
865.875	18490
866.006	18441
866.137	18426
866.269	18566
866.4	18536
866.531	18414
866.662	18414
866.793	18323
866.924	18395
867.055	18391
867.186	18631
867.317	18365
867.448	18372
867.579	18456
867.71	18445
867.841	18433
867.972	18490
868.103	18525
868.233	18486
868.364	18498
868.495	18547
868.625	18627
868.756	18764
868.886	18658
869.017	18574
869.147	18810
869.278	18810
869.408	18757
869.539	18730
869.669	18798
869.799	18719
869.929	18707
870.06	18772
870.19	19057
870.32	18993
870.45	19053
870.58	18981
870.71	19183
870.84	19156
870.97	19061
871.1	19110
871.23	19247
871.36	19247
871.489	19152
871.619	19187
871.749	19270
871.879	19198
872.008	19365
872.138	19213
872.267	19179
872.397	19236
872.526	19099
872.656	19031
872.785	19190
872.915	19285
873.044	19316
873.173	19335
873.303	19350
873.432	19274
873.561	19502
873.69	19316
873.819	19259
873.948	19476
874.077	19259
874.206	19225
874.335	19304
874.464	19487
874.593	19620
874.722	19514
874.851	19597
874.979	19594
875.108	19628
875.237	19411
875.365	19472
875.494	19556
875.623	19696
875.751	19533
875.88	19628
876.008	19731
876.136	19837
876.265	19986
876.393	19940
876.521	20138
876.65	20092
876.778	19947
876.906	19978
877.034	19951
877.162	19959
877.29	19868
877.418	19959
877.546	19936
877.674	19852
877.802	19974
877.93	19879
878.058	19921
878.185	19772
878.313	19944
878.441	19970
878.568	19864
878.696	19830
878.824	20012
878.951	19959
879.079	20096
879.206	20309
879.333	20191
879.461	20168
879.588	20134
879.715	20096
879.842	20355
879.97	20103
880.097	19784
880.224	19795
880.351	19925
880.478	19765
880.605	19791
880.732	19830
880.859	20046
880.986	19791
881.112	19814
881.239	19620
881.366	19712
881.493	19552
881.619	19392
881.746	19373
881.872	19464
881.999	19449
882.125	19373
882.252	19403
882.378	19457
882.505	19548
882.631	19365
882.757	19126
882.883	19232
883.01	19168
883.136	19152
883.262	19091
883.388	19027
883.514	19259
883.64	19156
883.766	19107
883.892	19126
884.018	19023
884.143	19236
884.269	19270
884.395	18985
884.52	18886
884.646	18810
884.772	18795
884.897	18882
885.023	18878
885.148	18909
885.274	19008
885.399	18962
885.524	18840
885.65	18863
885.775	18878
885.9	18844
886.025	18993
886.15	18825
886.275	18817
886.4	18673
886.525	18768
886.65	18760
886.775	18730
886.9	18932
887.025	19061
887.149	18791
887.274	18597
887.399	18654
887.523	18722
887.648	18566
887.773	18563
887.897	18684
888.021	18563
888.146	18601
888.27	18604
888.395	18654
888.519	18688
888.643	18627
888.767	18566
888.891	18486
889.015	18433
889.139	18525
889.263	18369
889.387	18467
889.511	18525
889.635	18544
889.759	18422
889.883	18418
890.006	18372
890.13	18540
890.254	18311
890.377	18418
890.501	18220
890.624	18117
890.748	18277
890.871	18030
890.995	18038
891.118	17859
891.241	18015
891.364	18072
891.488	18129
891.611	18015
891.734	17988
891.857	18007
891.98	18022
892.103	18057
892.226	17958
892.349	17889
892.471	17821
892.594	17882
892.717	17916
892.839	17969
892.962	17973
893.085	18064
893.207	17946
893.33	17840
893.452	17847
893.575	17996
893.697	17882
893.819	18095
893.941	18121
894.064	18087
894.186	17916
894.308	17783
894.43	18041
894.552	18098
894.674	18114
894.796	17866
894.918	17885
895.04	17969
895.161	18087
895.283	17980
895.405	17942
895.526	17923
895.648	18011
895.769	17969
895.891	18038
896.012	18034
896.134	18114
896.255	17999
896.376	18049
896.498	18011
896.619	18148
896.74	18064
896.861	18129
896.982	18414
897.103	18418
897.224	18254
897.345	18330
897.466	18243
897.587	18251
897.708	18407
897.828	18308
897.949	18304
898.07	18091
898.19	18315
898.311	18380
898.431	18311
898.552	18308
898.672	18357
898.792	18235
898.913	18338
899.033	18251
899.153	18087
899.273	17973
899.393	18098
899.513	18003
899.633	18076
899.753	18079
899.873	17950
899.993	18038
900.113	17920
900.232	17942
900.352	18041
900.472	17901
900.591	17874
900.711	17954
900.83	17828
900.95	17980
901.069	17965
901.189	17733
901.308	17600
901.427	17554
901.546	17497
901.665	17436
901.784	17543
901.904	17326
902.023	17307
902.141	17056
902.26	17029
902.379	17105
902.498	17029
902.617	16881
902.735	16938
902.854	16942
902.973	16850
903.091	16782
903.21	16637
903.328	16824
903.446	16519
903.565	16451
903.683	16485
903.801	16356
903.919	16489
904.038	16470
904.156	16280
904.274	16417
904.392	16379
904.51	16204
904.627	16226
904.745	16303
904.863	16344
904.981	16147
905.098	15941
905.216	15911
905.334	16002
905.451	15972
905.569	15876
905.686	15949
905.803	15884
905.921	15717
906.038	15808
906.155	15713
906.272	15580
906.389	15618
906.506	15450
906.623	15549
906.74	15500
906.857	15389
906.974	15405
907.091	15538
907.208	15534
907.324	15500
907.441	15488
907.557	15302
907.674	15329
907.79	15077
907.907	15226
908.023	15230
908.139	15184
908.256	15100
908.372	15013
908.488	15001
908.604	14967
908.72	14887
908.836	14883
908.952	14804
909.068	14963
909.184	14960
909.3	14800
909.415	14937
909.531	14857
909.647	14476
909.762	14594
909.878	14606
909.993	14636
910.108	14590
910.224	14488
910.339	14594
910.454	14442
910.57	14431
910.685	14343
910.8	14659
910.915	14564
911.03	14415
911.145	14244
911.259	14180
911.374	14180
911.489	14183
911.604	14176
911.718	13989
911.833	14001
911.947	13856
912.062	13746
912.176	13951
912.291	13970
912.405	14031
912.519	14180
912.633	14161
912.748	13963
912.862	13917
912.976	13791
913.09	13651
913.204	13784
913.318	13826
913.431	13894
913.545	13887
913.659	13906
913.772	13769
913.886	13655
914	13514
914.113	13658
914.226	13784
914.34	13670
914.453	13533
914.566	13765
914.68	13590
914.793	13495
914.906	13362
915.019	13312
915.132	13316
915.245	13354
915.358	13221
915.47	13263
915.583	13324
915.696	13343
915.809	13445
915.921	13434
916.034	13255
916.146	13168
916.259	13198
916.371	13350
916.483	13236
916.595	13160
916.708	13126
916.82	13183
916.932	13084
917.044	13118
917.156	13012
917.268	13008
917.38	13015
917.491	12951
917.603	12932
917.715	13023
917.826	13080
917.938	12909
918.049	12882
918.161	12981
918.272	13046
918.384	13088
918.495	12977
918.606	12798
918.717	12711
918.828	12825
918.939	12837
919.05	12772
919.161	12707
919.272	12570
919.383	12608
919.494	12817
919.604	13004
919.715	12817
919.826	12700
919.936	12783
920.047	12806
920.157	12745
920.267	13012
920.378	12722
920.488	12760
920.598	12932
920.708	13031
920.818	12844
920.928	12859
921.038	13000
921.148	13008
921.258	12753
921.368	12555
921.477	12506
921.587	12513
921.697	12372
921.806	12544
921.916	12407
922.025	12323
922.134	12254
922.244	12243
922.353	12209
922.462	12121
922.571	12022
922.68	11901
922.789	11752
922.898	11870
923.007	11726
923.116	11866
923.224	11859
923.333	11779
923.442	11729
923.55	11630
923.659	11756
923.767	11779
923.876	11619
923.984	11748
924.092	11627
924.201	11596
924.309	11638
924.417	11600
924.525	11592
924.633	11596
924.741	12464
924.849	11395
924.956	11524
925.064	11364
925.172	11265
925.279	11345
925.387	11395
925.494	11334
925.602	11459
925.709	11421
925.816	11326
925.924	11349
926.031	11356
926.138	11273
926.245	11391
926.352	11208
926.459	11299
926.566	11486
926.673	11288
926.779	11261
926.886	11098
926.993	11064
927.099	10953
927.206	10953
927.312	10892
927.419	10953
927.525	10957
927.631	10896
927.737	10949
927.843	10835
927.95	10721
928.056	10790
928.162	10828
928.267	10873
928.373	11398
928.479	10885
928.585	10683
928.69	10736
928.796	10774
928.901	10668
929.007	10535
929.112	10683
929.218	10565
929.323	10656
929.428	10569
929.533	10611
929.638	10489
929.743	10546
929.848	10664
929.953	10527
930.058	10451
930.163	10295
930.267	10272
930.372	10424
930.477	10196
930.581	10455
930.685	10394
930.79	10242
930.894	10238
930.998	10185
931.103	10314
931.207	9983
931.311	9880
931.415	9762
931.519	9591
931.623	9610
