Data from test_V78500241_1849.txt Node
Date: Fri Mar 25 14:46:35 CST 2022
User: usil
Spectrometer: V785-0024
Trigger mode: 0
Integration Time (sec): 4.000000E-1
Scans to average: 1
Nonlinearity correction enabled: false
Boxcar width: 0
Storing dark spectrum: false
XAxis mode: Wavelengths
Number of Pixels in Spectrum: 1024
>>>>>Begin Spectral Data<<<<<
801.071	22139
801.214	22002
801.356	21793
801.499	21770
801.641	21614
801.783	21511
801.926	21568
802.068	21485
802.211	21302
802.353	21275
802.496	21169
802.638	21020
802.78	21070
802.923	20819
803.065	20842
803.208	20712
803.35	20804
803.492	20979
803.635	20861
803.777	20861
803.919	20960
804.061	21142
804.204	20902
804.346	20750
804.488	20674
804.63	20800
804.773	20720
804.915	20781
805.057	20914
805.199	20800
805.341	20910
805.483	20838
805.626	20819
805.768	20670
805.91	20663
806.052	20697
806.194	20697
806.336	20792
806.478	20826
806.62	20686
806.762	20876
806.904	20986
807.046	21142
807.188	21165
807.33	21173
807.472	21066
807.614	20994
807.756	21005
807.898	20933
808.04	20777
808.182	20800
808.324	20769
808.465	21013
808.607	21013
808.749	21150
808.891	21218
809.033	21317
809.174	21089
809.316	21081
809.458	21256
809.6	20994
809.741	21199
809.883	21195
810.025	21336
810.166	21150
810.308	21329
810.45	21268
810.591	21116
810.733	20864
810.875	20937
811.016	20914
811.158	20853
811.299	20823
811.441	21047
811.582	21001
811.724	20921
811.865	20971
812.007	20872
812.148	20982
812.29	20857
812.431	21013
812.573	21116
812.714	21306
812.855	21416
812.997	21504
813.138	21675
813.279	21629
813.421	21568
813.562	21351
813.703	21161
813.845	21024
813.986	20826
814.127	20781
814.268	20461
814.41	20575
814.551	20412
814.692	20545
814.833	20355
814.974	20374
815.115	20431
815.256	20339
815.397	20294
815.539	20259
815.68	20180
815.821	20069
815.962	20153
816.103	20073
816.244	20039
816.385	19871
816.526	19921
816.666	19696
816.807	19597
816.948	19704
817.089	19708
817.23	19628
817.371	19556
817.512	19460
817.653	19601
817.793	19544
817.934	19582
818.075	19556
818.216	19601
818.356	19495
818.497	19464
818.638	19228
818.778	19194
818.919	19259
819.06	19240
819.2	19274
819.341	19460
819.481	19476
819.622	19597
819.762	19780
819.903	19845
820.043	19746
820.184	19655
820.324	19571
820.465	19719
820.605	19556
820.746	19586
820.886	19480
821.026	19441
821.167	19544
821.307	19548
821.447	19510
821.588	19502
821.728	19289
821.868	19065
822.008	19000
822.149	19114
822.289	18875
822.429	18749
822.569	18722
822.709	18677
822.849	18513
822.99	18528
823.13	18486
823.27	18426
823.41	18224
823.55	18136
823.69	18407
823.83	18372
823.97	18228
824.11	17999
824.25	18087
824.389	18095
824.529	18083
824.669	17965
824.809	18182
824.949	17973
825.089	18186
825.228	18167
825.368	17923
825.508	17775
825.648	17931
825.787	17901
825.927	17923
826.067	17752
826.206	17824
826.346	17847
826.485	17904
826.625	17840
826.765	17832
826.904	17821
827.044	17653
827.183	17615
827.323	17512
827.462	17630
827.601	17543
827.741	17566
827.88	17596
828.02	17379
828.159	17459
828.298	17478
828.437	17668
828.577	17490
828.716	17581
828.855	17448
828.994	17330
829.134	17360
829.273	17258
829.412	17189
829.551	17193
829.69	17174
829.829	17330
829.968	17379
830.107	17353
830.246	17231
830.385	17239
830.524	17174
830.663	17140
830.802	16961
830.941	16930
831.08	16892
831.219	17006
831.357	16972
831.496	17064
831.635	16896
831.774	16778
831.913	16854
832.051	16740
832.19	16698
832.329	16694
832.467	16580
832.606	16577
832.744	16584
832.883	16584
833.022	16573
833.16	16550
833.299	16660
833.437	16618
833.576	16725
833.714	16755
833.852	16630
833.991	16626
834.129	16649
834.267	16755
834.406	16622
834.544	16668
834.682	16698
834.821	16618
834.959	16759
835.097	16592
835.235	16694
835.373	16649
835.511	16702
835.65	16493
835.788	16523
835.926	16379
836.064	16405
836.202	16466
836.34	16596
836.478	16596
836.615	16546
836.753	16618
836.891	16618
837.029	16573
837.167	16615
837.305	16542
837.443	16432
837.58	16398
837.718	16485
837.856	16455
837.993	16371
838.131	16440
838.269	16341
838.406	16337
838.544	16375
838.681	16074
838.819	16093
838.956	15854
839.094	15983
839.231	16006
839.369	16158
839.506	16337
839.643	16249
839.781	16021
839.918	16029
840.055	16090
840.193	15964
840.33	15964
840.467	16010
840.604	15972
840.742	16200
840.879	15873
841.016	15861
841.153	15869
841.29	16071
841.427	16025
841.564	16021
841.701	15953
841.838	16055
841.975	15895
842.112	15880
842.249	15861
842.385	15690
842.522	15899
842.659	15743
842.796	15778
842.933	15739
843.069	15622
843.206	15728
843.343	15846
843.479	15675
843.616	15739
843.752	15564
843.889	15557
844.025	15629
844.162	15572
844.298	15736
844.435	15534
844.571	15538
844.708	15534
844.844	15804
844.98	15736
845.117	15686
845.253	15507
845.389	15416
845.525	15428
845.661	15443
845.798	15287
845.934	15367
846.07	15439
846.206	15408
846.342	15496
846.478	15355
846.614	15199
846.75	15055
846.886	15062
847.022	15260
847.158	15203
847.294	15119
847.429	15112
847.565	15154
847.701	15367
847.837	14876
847.972	14857
848.108	14979
848.244	14937
848.379	14788
848.515	14724
848.65	14621
848.786	14689
848.921	14689
849.057	14826
849.192	14815
849.328	14746
849.463	14746
849.598	14640
849.734	14697
849.869	14492
850.004	14514
850.14	14602
850.275	14446
850.41	14309
850.545	14404
850.68	14396
850.815	14484
850.95	14465
851.085	14560
851.22	14606
851.355	14575
851.49	14385
851.625	14518
851.76	14442
851.895	14457
852.03	14362
852.165	14408
852.299	14541
852.434	14583
852.569	14568
852.703	14533
852.838	14568
852.973	14613
853.107	14564
853.242	14511
853.376	14427
853.511	14240
853.645	14347
853.78	14404
853.914	14454
854.048	14275
854.183	14282
854.317	14351
854.451	14480
854.585	14278
854.72	14366
854.854	14412
854.988	14263
855.122	14309
855.256	14153
855.39	14347
855.524	14408
855.658	14400
855.792	14438
855.926	14476
856.06	14362
856.194	14423
856.327	14339
856.461	14263
856.595	14343
856.729	14252
856.862	14404
856.996	14415
857.13	14313
857.263	14454
857.397	14571
857.53	14305
857.664	14366
857.797	14492
857.931	14438
858.064	14385
858.197	14415
858.331	14320
858.464	14396
858.597	14237
858.731	14351
858.864	14347
858.997	14267
859.13	14427
859.263	14450
859.396	14457
859.529	14233
859.662	14256
859.795	14324
859.928	14408
860.061	14457
860.194	14476
860.327	14358
860.46	14294
860.592	14552
860.725	14552
860.858	14419
860.99	14355
861.123	14370
861.256	14259
861.388	14396
861.521	14944
861.653	14282
861.786	14248
861.918	14168
862.05	14267
862.183	14358
862.315	14385
862.447	14476
862.58	14393
862.712	14119
862.844	14058
862.976	14202
863.108	14252
863.24	14377
863.372	14100
863.504	14149
863.636	14100
863.768	14233
863.9	14176
864.032	14149
864.164	14157
864.296	14119
864.428	14317
864.559	14305
864.691	14233
864.823	14123
864.954	14187
865.086	14237
865.217	14111
865.349	14111
865.48	14096
865.612	14096
865.743	14142
865.875	14176
866.006	14088
866.137	14077
866.269	14138
866.4	14157
866.531	14107
866.662	14081
866.793	14062
866.924	14046
867.055	14134
867.186	14115
867.317	14088
867.448	14031
867.579	14054
867.71	14027
867.841	14100
867.972	14111
868.103	14164
868.233	14096
868.364	14168
868.495	14202
868.625	14332
868.756	14499
868.886	14271
869.017	14320
869.147	14404
869.278	14480
869.408	14362
869.539	14381
869.669	14328
869.799	14431
869.929	14499
870.06	14476
870.19	14648
870.32	14667
870.45	14705
870.58	14872
870.71	14937
870.84	14876
870.97	14659
871.1	14632
871.23	15020
871.36	15039
871.489	14819
871.619	14921
871.749	14842
871.879	14979
872.008	15066
872.138	14937
872.267	14948
872.397	14807
872.526	14765
872.656	14762
872.785	14811
872.915	14956
873.044	15051
873.173	15047
873.303	15024
873.432	15047
873.561	15093
873.69	15024
873.819	14982
873.948	15077
874.077	15093
874.206	15001
874.335	15062
874.464	15192
874.593	15291
874.722	15302
874.851	15321
874.979	15321
875.108	15359
875.237	15279
875.365	15222
875.494	15287
875.623	15405
875.751	15370
875.88	15344
876.008	15382
876.136	15526
876.265	15785
876.393	15895
876.521	15876
876.65	15884
876.778	15831
876.906	15652
877.034	15633
877.162	15679
877.29	15625
877.418	15842
877.546	15755
877.674	15720
877.802	15747
877.93	15694
878.058	15762
878.185	15713
878.313	15739
878.441	15739
878.568	15557
878.696	15701
878.824	15679
878.951	15785
879.079	15937
879.206	16021
879.333	15804
879.461	15766
879.588	15907
879.715	15956
879.842	15956
879.97	15865
880.097	15580
880.224	15618
880.351	15580
880.478	15625
880.605	15561
880.732	15568
880.859	15808
880.986	15622
881.112	15492
881.239	15466
881.366	15321
881.493	15348
881.619	15241
881.746	15264
881.872	15199
881.999	15226
882.125	15146
882.252	15192
882.378	15272
882.505	15405
882.631	15192
882.757	15039
882.883	15150
883.01	15066
883.136	14963
883.262	15047
883.388	14883
883.514	15135
883.64	15119
883.766	15036
883.892	14868
884.018	14967
884.143	14998
884.269	15188
884.395	14811
884.52	14781
884.646	14769
884.772	14655
884.897	14674
885.023	14743
885.148	14929
885.274	15020
885.399	14918
885.524	14800
885.65	14773
885.775	14739
885.9	14758
886.025	14883
886.15	14811
886.275	14838
886.4	14670
886.525	14708
886.65	14606
886.775	14689
886.9	14895
887.025	14967
887.149	14750
887.274	14549
887.399	14530
887.523	14594
887.648	14549
887.773	14545
887.897	14667
888.021	14640
888.146	14457
888.27	14712
888.395	14811
888.519	14720
888.643	14727
888.767	14644
888.891	14488
889.015	14473
889.139	14431
889.263	14507
889.387	14560
889.511	14613
889.635	14587
889.759	14514
889.883	14431
890.006	14495
890.13	14594
890.254	14431
890.377	14408
890.501	14259
890.624	14252
890.748	14355
890.871	14130
890.995	14134
891.118	14142
891.241	14027
891.364	14142
891.488	14278
891.611	14172
891.734	14119
891.857	14298
891.98	14145
892.103	14225
892.226	14187
892.349	14069
892.471	14008
892.594	14142
892.717	14126
892.839	14092
892.962	14119
893.085	14229
893.207	14187
893.33	14012
893.452	14138
893.575	14210
893.697	14157
893.819	14385
893.941	14412
894.064	14328
894.186	14218
894.308	14130
894.43	14248
894.552	14434
894.674	14309
894.796	14103
894.918	14195
895.04	14187
895.161	14248
895.283	14336
895.405	14180
895.526	14351
895.648	14233
895.769	14339
895.891	14381
896.012	14476
896.134	14404
896.255	14298
896.376	14275
896.498	14259
896.619	14400
896.74	14263
896.861	14381
896.982	14648
897.103	14712
897.224	14693
897.345	14511
897.466	14499
897.587	14533
897.708	14762
897.828	14682
897.949	14560
898.07	14488
898.19	14598
898.311	14674
898.431	14552
898.552	14712
898.672	14811
898.792	14834
898.913	14735
899.033	14617
899.153	14503
899.273	14385
899.393	14473
899.513	14461
899.633	14651
899.753	14606
899.873	14568
899.993	14568
900.113	14503
900.232	14590
900.352	14602
900.472	14480
900.591	14336
900.711	14324
900.83	14278
900.95	14522
901.069	14427
901.189	14355
901.308	14134
901.427	14024
901.546	14043
901.665	13986
901.784	14153
901.904	13917
902.023	13830
902.141	13746
902.26	13624
902.379	13738
902.498	13597
902.617	13556
902.735	13719
902.854	13571
902.973	13559
903.091	13312
903.21	13293
903.328	13434
903.446	13255
903.565	13190
903.683	13122
903.801	13080
903.919	13202
904.038	13152
904.156	13019
904.274	13091
904.392	13061
904.51	13015
904.627	12977
904.745	13076
904.863	13042
904.981	12798
905.098	12677
905.216	12764
905.334	12798
905.451	12764
905.569	12669
905.686	12669
905.803	12757
905.921	12502
906.038	12528
906.155	12559
906.272	12407
906.389	12433
906.506	12319
906.623	12243
906.74	12232
906.857	12235
906.974	12209
907.091	12338
907.208	12376
907.324	12342
907.441	12205
907.557	12098
907.674	12072
907.79	12060
907.907	12110
908.023	12076
908.139	12072
908.256	11977
908.372	12015
908.488	11904
908.604	11897
908.72	11790
908.836	11885
908.952	11779
909.068	11847
909.184	11824
909.3	11836
909.415	11897
909.531	11794
909.647	11668
909.762	11570
909.878	11535
909.993	11592
910.108	11585
910.224	11512
910.339	11592
910.454	11543
910.57	11452
910.685	11376
910.8	11615
910.915	11604
911.03	11505
911.145	11296
911.259	11284
911.374	11235
911.489	11201
911.604	11227
911.718	10995
911.833	11052
911.947	10862
912.062	10828
912.176	11083
912.291	11010
912.405	10987
912.519	11178
912.633	11204
912.748	11075
912.862	11121
912.976	10987
913.09	10801
913.204	10873
913.318	10892
913.431	10968
913.545	10942
913.659	11048
913.772	10877
913.886	10854
914	10710
914.113	10847
914.226	10930
914.34	10858
914.453	10702
914.566	10862
914.68	10809
914.793	10812
914.906	10664
915.019	10519
915.132	10409
915.245	10485
915.358	10538
915.47	10592
915.583	10580
915.696	10630
915.809	10740
915.921	10653
916.034	10577
916.146	10436
916.259	10455
916.371	10588
916.483	10565
916.595	10474
916.708	10489
916.82	10459
916.932	10443
917.044	10455
917.156	10413
917.268	10284
917.38	10375
917.491	10382
917.603	10306
917.715	10451
917.826	10516
917.938	10386
918.049	10291
918.161	10360
918.272	10592
918.384	10512
918.495	10337
918.606	10215
918.717	10207
918.828	10215
918.939	10219
919.05	10086
919.161	10276
919.272	10032
919.383	10036
919.494	10284
919.604	10436
919.715	10352
919.826	10230
919.936	10246
920.047	10363
920.157	10322
920.267	10516
920.378	10310
920.488	10200
920.598	10424
920.708	10641
920.818	10481
920.928	10382
921.038	10569
921.148	10577
921.258	10303
921.368	10227
921.477	10078
921.587	10101
921.697	9983
921.806	10181
921.916	9956
922.025	9823
922.134	9781
922.244	9671
922.353	9808
922.462	9667
922.571	9614
922.68	9515
922.789	9538
922.898	9454
923.007	9439
923.116	9564
923.224	9496
923.333	9526
923.442	9382
923.55	9374
923.659	9374
923.767	9428
923.876	9359
923.984	9325
924.092	9332
924.201	9382
924.309	9351
924.417	9374
924.525	9298
924.633	9306
924.741	10284
924.849	9169
924.956	9275
925.064	9176
925.172	9066
925.279	9085
925.387	9119
925.494	9100
925.602	9302
925.709	9253
925.816	9017
925.924	9203
926.031	9249
926.138	9233
926.245	9230
926.352	9028
926.459	9264
926.566	9192
926.673	9055
926.779	9028
926.886	9013
926.993	8880
927.099	8872
927.206	8842
927.312	8853
927.419	8956
927.525	8891
927.631	8960
927.737	8777
927.843	8716
927.95	8682
928.056	8705
928.162	8876
928.267	8785
928.373	9332
928.479	8857
928.585	8606
928.69	8766
928.796	8807
928.901	8712
929.007	8571
929.112	8785
929.218	8716
929.323	8549
929.428	8560
929.533	8678
929.638	8537
929.743	8579
929.848	8651
929.953	8541
930.058	8389
930.163	8362
930.267	8347
930.372	8457
930.477	8298
930.581	8594
930.685	8370
930.79	8294
930.894	8343
930.998	8320
931.103	8476
931.207	8088
931.311	8016
931.415	8027
931.519	7795
931.623	7776
