Data from test_V78500241_479.txt Node
Date: Fri Mar 25 14:37:03 CST 2022
User: usil
Spectrometer: V785-0024
Trigger mode: 0
Integration Time (sec): 4.000000E-1
Scans to average: 1
Nonlinearity correction enabled: false
Boxcar width: 0
Storing dark spectrum: false
XAxis mode: Wavelengths
Number of Pixels in Spectrum: 1024
>>>>>Begin Spectral Data<<<<<
801.071	26598
801.214	26271
801.356	26149
801.499	26138
801.641	25921
801.783	25913
801.926	26008
802.068	25966
802.211	25791
802.353	25807
802.496	25479
802.638	25704
802.78	25567
802.923	25460
803.065	25335
803.208	25381
803.35	25304
803.492	25392
803.635	25609
803.777	25400
803.919	25571
804.061	25795
804.204	25499
804.346	25430
804.488	25316
804.63	25369
804.773	25232
804.915	25415
805.057	25540
805.199	25441
805.341	25449
805.483	25499
805.626	25468
805.768	25381
805.91	25476
806.052	25441
806.194	25282
806.336	25586
806.478	25472
806.62	25392
806.762	25597
806.904	25807
807.046	25936
807.188	25757
807.33	25799
807.472	25925
807.614	25662
807.756	25784
807.898	25605
808.04	25635
808.182	25616
808.324	25666
808.465	25616
808.607	25727
808.749	26016
808.891	26130
809.033	26111
809.174	26233
809.316	25890
809.458	25982
809.6	25902
809.741	26088
809.883	26043
810.025	26134
810.166	26069
810.308	26168
810.45	26088
810.591	26012
810.733	25833
810.875	25750
811.016	25723
811.158	25677
811.299	26024
811.441	25963
811.582	25875
811.724	25799
811.865	25643
812.007	25830
812.148	25753
812.29	25757
812.431	25833
812.573	26100
812.714	26214
812.855	26107
812.997	26347
813.138	26560
813.279	26400
813.421	26183
813.562	26096
813.703	26069
813.845	25974
813.986	25624
814.127	25472
814.268	25343
814.41	25354
814.551	25354
814.692	25468
814.833	25255
814.974	25301
815.115	25381
815.256	25034
815.397	25221
815.539	25084
815.68	25095
815.821	24932
815.962	25179
816.103	25084
816.244	24939
816.385	24688
816.526	24829
816.666	24639
816.807	24380
816.948	24525
817.089	24494
817.23	24433
817.371	24483
817.512	24540
817.653	24551
817.793	24403
817.934	24426
818.075	24467
818.216	24437
818.356	24403
818.497	24216
818.638	24197
818.778	24098
818.919	24171
819.06	24232
819.2	24281
819.341	24342
819.481	24433
819.622	24502
819.762	24658
819.903	24616
820.043	24616
820.184	24540
820.324	24410
820.465	24509
820.605	24464
820.746	24372
820.886	24399
821.026	24361
821.167	24342
821.307	24445
821.447	24262
821.588	24205
821.728	24140
821.868	24072
822.008	23764
822.149	23836
822.289	23760
822.429	23589
822.569	23459
822.709	23330
822.849	23318
822.99	23189
823.13	23117
823.27	23170
823.41	22938
823.55	22961
823.69	22965
823.83	23006
823.97	22976
824.11	22858
824.25	22771
824.389	22645
824.529	22831
824.669	22774
824.809	22752
824.949	22999
825.089	22873
825.228	22824
825.368	22706
825.508	22607
825.648	22672
825.787	22660
825.927	22557
826.067	22577
826.206	22573
826.346	22519
826.485	22664
826.625	22710
826.765	22736
826.904	22713
827.044	22390
827.183	22306
827.323	22246
827.462	22382
827.601	22318
827.741	22242
827.88	22322
828.02	22230
828.159	22299
828.298	22360
828.437	22417
828.577	22352
828.716	22325
828.855	22253
828.994	22002
829.134	21998
829.273	22124
829.412	22025
829.551	21876
829.69	21907
829.829	22124
829.968	22124
830.107	21922
830.246	22048
830.385	21888
830.524	21907
830.663	21713
830.802	21732
830.941	21568
831.08	21447
831.219	21583
831.357	21656
831.496	21743
831.635	21545
831.774	21397
831.913	21458
832.051	21374
832.19	21313
832.329	21424
832.467	21241
832.606	21157
832.744	21268
832.883	21123
833.022	21085
833.16	21119
833.299	21096
833.437	21211
833.576	21203
833.714	21302
833.852	21313
833.991	21268
834.129	21321
834.267	21332
834.406	21260
834.544	21332
834.682	21264
834.821	21199
834.959	21291
835.097	21249
835.235	21268
835.373	21249
835.511	21203
835.65	21093
835.788	21024
835.926	20971
836.064	20857
836.202	20933
836.34	21135
836.478	21226
836.615	21123
836.753	21001
836.891	21077
837.029	21066
837.167	20982
837.305	21058
837.443	20971
837.58	20933
837.718	20971
837.856	21039
837.993	20830
838.131	20952
838.269	20834
838.406	20792
838.544	20796
838.681	20545
838.819	20545
838.956	20442
839.094	20377
839.231	20434
839.369	20488
839.506	20826
839.643	20640
839.781	20427
839.918	20301
840.055	20286
840.193	20313
840.33	20362
840.467	20301
840.604	20370
840.742	20609
840.879	20229
841.016	20206
841.153	20168
841.29	20377
841.427	20286
841.564	20214
841.701	20275
841.838	20298
841.975	20248
842.112	20244
842.249	20035
842.385	19944
842.522	20210
842.659	20073
842.796	20031
842.933	20096
843.069	19932
843.206	19970
843.343	20130
843.479	20145
843.616	20001
843.752	19738
843.889	19761
844.025	19921
844.162	19731
844.298	19879
844.435	19742
844.571	19818
844.708	19875
844.844	19837
844.98	19917
845.117	19902
845.253	19784
845.389	19674
845.525	19670
845.661	19696
845.798	19624
845.934	19681
846.07	19632
846.206	19727
846.342	19715
846.478	19590
846.614	19384
846.75	19244
846.886	19324
847.022	19320
847.158	19236
847.294	19304
847.429	19297
847.565	19198
847.701	19445
847.837	19031
847.972	18920
848.108	18951
848.244	18943
848.379	18806
848.515	18791
848.65	18760
848.786	18871
848.921	18878
849.057	18810
849.192	18810
849.328	18825
849.463	18817
849.598	18821
849.734	18715
849.869	18608
850.004	18623
850.14	18509
850.275	18513
850.41	18525
850.545	18498
850.68	18563
850.815	18525
850.95	18616
851.085	18760
851.22	18536
851.355	18498
851.49	18540
851.625	18525
851.76	18593
851.895	18384
852.03	18483
852.165	18429
852.299	18521
852.434	18608
852.569	18620
852.703	18517
852.838	18490
852.973	18627
853.107	18585
853.242	18372
853.376	18311
853.511	18300
853.645	18243
853.78	18418
853.914	18353
854.048	18308
854.183	18197
854.317	18380
854.451	18517
854.585	18395
854.72	18399
854.854	18395
854.988	18190
855.122	18319
855.256	18205
855.39	18410
855.524	18403
855.658	18338
855.792	18414
855.926	18410
856.06	18418
856.194	18410
856.327	18380
856.461	18338
856.595	18220
856.729	18334
856.862	18281
856.996	18426
857.13	18448
857.263	18380
857.397	18448
857.53	18292
857.664	18418
857.797	18410
857.931	18384
858.064	18346
858.197	18422
858.331	18414
858.464	18292
858.597	18140
858.731	18330
858.864	18205
858.997	18270
859.13	18319
859.263	18262
859.396	18342
859.529	18197
859.662	18270
859.795	18224
859.928	18285
860.061	18399
860.194	18395
860.327	18281
860.46	18311
860.592	18433
860.725	18281
860.858	18448
860.99	18319
861.123	18213
861.256	18232
861.388	18194
861.521	19061
861.653	18182
861.786	18220
861.918	18327
862.05	18346
862.183	18372
862.315	18391
862.447	18410
862.58	18311
862.712	18129
862.844	18064
862.976	18072
863.108	18163
863.24	18490
863.372	17954
863.504	18095
863.636	18091
863.768	17939
863.9	17935
864.032	17843
864.164	17897
864.296	18003
864.428	18022
864.559	18041
864.691	18155
864.823	18003
864.954	17923
865.086	17988
865.217	17992
865.349	17912
865.48	18015
865.612	17961
865.743	18117
865.875	17859
866.006	17935
866.137	17931
866.269	17954
866.4	18019
866.531	17828
866.662	17855
866.793	17878
866.924	17870
867.055	17954
867.186	17882
867.317	17824
867.448	17790
867.579	17832
867.71	17794
867.841	17794
867.972	17950
868.103	17840
868.233	17927
868.364	17935
868.495	17859
868.625	18022
868.756	18270
868.886	18064
869.017	18057
869.147	18224
869.278	18224
869.408	18247
869.539	18076
869.669	18060
869.799	18190
869.929	18205
870.06	18243
870.19	18330
870.32	18357
870.45	18418
870.58	18559
870.71	18563
870.84	18661
870.97	18521
871.1	18604
871.23	18673
871.36	18692
871.489	18650
871.619	18578
871.749	18665
871.879	18798
872.008	18772
872.138	18779
872.267	18669
872.397	18616
872.526	18574
872.656	18509
872.785	18570
872.915	18623
873.044	18665
873.173	18703
873.303	18700
873.432	18825
873.561	18863
873.69	18711
873.819	18795
873.948	18753
874.077	18810
874.206	18589
874.335	18726
874.464	18920
874.593	19019
874.722	18897
874.851	18932
874.979	19008
875.108	19076
875.237	19000
875.365	18863
875.494	18966
875.623	19156
875.751	19031
875.88	19031
876.008	18989
876.136	19240
876.265	19483
876.393	19510
876.521	19514
876.65	19480
876.778	19403
876.906	19419
877.034	19358
877.162	19324
877.29	19320
877.418	19403
877.546	19434
877.674	19445
877.802	19327
877.93	19354
878.058	19278
878.185	19365
878.313	19388
878.441	19487
878.568	19289
878.696	19453
878.824	19369
878.951	19449
879.079	19601
879.206	19788
879.333	19609
879.461	19495
879.588	19681
879.715	19624
879.842	19849
879.97	19506
880.097	19324
880.224	19240
880.351	19324
880.478	19194
880.605	19206
880.732	19266
880.859	19358
880.986	19156
881.112	19270
881.239	19232
881.366	18985
881.493	18958
881.619	18867
881.746	19012
881.872	18958
881.999	18806
882.125	18837
882.252	18909
882.378	18833
882.505	18989
882.631	18703
882.757	18661
882.883	18711
883.01	18707
883.136	18559
883.262	18525
883.388	18460
883.514	18753
883.64	18738
883.766	18639
883.892	18414
884.018	18509
884.143	18582
884.269	18715
884.395	18471
884.52	18292
884.646	18365
884.772	18201
884.897	18277
885.023	18338
885.148	18407
885.274	18498
885.399	18426
885.524	18300
885.65	18315
885.775	18346
885.9	18281
886.025	18361
886.15	18300
886.275	18091
886.4	18224
886.525	18289
886.65	18205
886.775	18327
886.9	18361
887.025	18426
887.149	18273
887.274	18083
887.399	18057
887.523	18068
887.648	18026
887.773	17923
887.897	18270
888.021	18140
888.146	17950
888.27	18144
888.395	18095
888.519	17954
888.643	18106
888.767	18064
888.891	17999
889.015	17920
889.139	17828
889.263	17821
889.387	17973
889.511	18167
889.635	18068
889.759	17912
889.883	17878
890.006	17866
890.13	17954
890.254	17779
890.377	17714
890.501	17733
890.624	17634
890.748	17703
890.871	17585
890.995	17482
891.118	17493
891.241	17471
891.364	17486
891.488	17619
891.611	17516
891.734	17364
891.857	17585
891.98	17535
892.103	17680
892.226	17573
892.349	17600
892.471	17337
892.594	17486
892.717	17425
892.839	17444
892.962	17512
893.085	17562
893.207	17429
893.33	17311
893.452	17360
893.575	17463
893.697	17410
893.819	17596
893.941	17638
894.064	17600
894.186	17307
894.308	17391
894.43	17535
894.552	17570
894.674	17627
894.796	17444
894.918	17474
895.04	17444
895.161	17490
895.283	17619
895.405	17452
895.526	17486
895.648	17459
895.769	17543
895.891	17532
896.012	17596
896.134	17604
896.255	17520
896.376	17512
896.498	17524
896.619	17516
896.74	17596
896.861	17661
896.982	17897
897.103	18011
897.224	17882
897.345	17786
897.466	17847
897.587	17813
897.708	17813
897.828	17817
897.949	17646
898.07	17638
898.19	17840
898.311	17821
898.431	17676
898.552	17805
898.672	17863
898.792	17863
898.913	17783
899.033	17665
899.153	17581
899.273	17524
899.393	17516
899.513	17581
899.633	17646
899.753	17535
899.873	17471
899.993	17577
900.113	17486
900.232	17570
900.352	17619
900.472	17402
900.591	17360
900.711	17474
900.83	17398
900.95	17501
901.069	17532
901.189	17326
901.308	16999
901.427	17022
901.546	17018
901.665	17079
901.784	16976
901.904	16858
902.023	16748
902.141	16622
902.26	16519
902.379	16713
902.498	16554
902.617	16478
902.735	16573
902.854	16561
902.973	16432
903.091	16249
903.21	16185
903.328	16162
903.446	16135
903.565	16048
903.683	15975
903.801	15918
903.919	16006
904.038	15991
904.156	15873
904.274	15918
904.392	15907
904.51	15793
904.627	15861
904.745	15949
904.863	15975
904.981	15606
905.098	15511
905.216	15530
905.334	15511
905.451	15507
905.569	15435
905.686	15519
905.803	15469
905.921	15351
906.038	15378
906.155	15287
906.272	15188
906.389	15222
906.506	15074
906.623	15066
906.74	14994
906.857	14952
906.974	15032
907.091	15089
907.208	15150
907.324	15062
907.441	14895
907.557	14765
907.674	14769
907.79	14754
907.907	14838
908.023	14777
908.139	14765
908.256	14697
908.372	14651
908.488	14716
908.604	14518
908.72	14560
908.836	14518
908.952	14454
909.068	14556
909.184	14640
909.3	14298
909.415	14431
909.531	14396
909.647	14271
909.762	14240
909.878	14115
909.993	14206
910.108	14172
910.224	14214
910.339	14153
910.454	14043
910.57	13921
910.685	13860
910.8	14084
910.915	14202
911.03	13989
911.145	13791
911.259	13803
911.374	13833
911.489	13708
911.604	13715
911.718	13639
911.833	13613
911.947	13483
912.062	13388
912.176	13594
912.291	13590
912.405	13571
912.519	13632
912.633	13670
912.748	13578
912.862	13445
912.976	13483
913.09	13312
913.204	13293
913.318	13438
913.431	13529
913.545	13419
913.659	13506
913.772	13407
913.886	13244
914	13244
914.113	13320
914.226	13297
914.34	13415
914.453	13164
914.566	13365
914.68	13217
914.793	13149
914.906	12928
915.019	12909
915.132	12886
915.245	12928
915.358	12909
915.47	12913
915.583	12958
915.696	12981
915.809	13057
915.921	13107
916.034	12905
916.146	12825
916.259	12791
916.371	12939
916.483	12913
916.595	12738
916.708	12821
916.82	12776
916.932	12886
917.044	12779
917.156	12726
917.268	12631
917.38	12681
917.491	12601
917.603	12620
917.715	12753
917.826	12768
917.938	12627
918.049	12502
918.161	12635
918.272	12715
918.384	12760
918.495	12665
918.606	12437
918.717	12410
918.828	12414
918.939	12429
919.05	12296
919.161	12460
919.272	12186
919.383	12220
919.494	12521
919.604	12700
919.715	12426
919.826	12365
919.936	12346
920.047	12464
920.157	12422
920.267	12620
920.378	12418
920.488	12289
920.598	12616
920.708	12730
920.818	12555
920.928	12608
921.038	12658
921.148	12726
921.258	12327
921.368	12266
921.477	12235
921.587	12106
921.697	12022
921.806	12277
921.916	12083
922.025	11908
922.134	11882
922.244	11794
922.353	11889
922.462	11767
922.571	11714
922.68	11627
922.789	11417
922.898	11558
923.007	11630
923.116	11478
923.224	11440
923.333	11471
923.442	11353
923.55	11322
923.659	11417
923.767	11471
923.876	11315
923.984	11448
924.092	11269
924.201	11376
924.309	11326
924.417	11311
924.525	11318
924.633	11326
924.741	12136
924.849	11022
924.956	11166
925.064	11041
925.172	10984
925.279	11041
925.387	11071
925.494	11098
925.602	11064
925.709	11136
925.816	11022
925.924	11014
926.031	11136
926.138	11045
926.245	11090
926.352	10965
926.459	11022
926.566	11124
926.673	10869
926.779	10866
926.886	10850
926.993	10664
927.099	10698
927.206	10698
927.312	10592
927.419	10778
927.525	10729
927.631	10717
927.737	10615
927.843	10580
927.95	10493
928.056	10565
928.162	10565
928.267	10584
928.373	11037
928.479	10565
928.585	10371
928.69	10455
928.796	10519
928.901	10455
929.007	10337
929.112	10432
929.218	10371
929.323	10360
929.428	10379
929.533	10443
929.638	10227
929.743	10215
929.848	10257
929.953	10291
930.058	10162
930.163	10032
930.267	10055
930.372	10177
930.477	9964
930.581	10265
930.685	10017
930.79	9979
930.894	9926
930.998	9903
931.103	9998
931.207	9755
931.311	9671
931.415	9603
931.519	9348
931.623	9355
