Data from test_V78500241_2252.txt Node
Date: Fri Mar 25 14:49:23 CST 2022
User: usil
Spectrometer: V785-0024
Trigger mode: 0
Integration Time (sec): 4.000000E-1
Scans to average: 1
Nonlinearity correction enabled: false
Boxcar width: 0
Storing dark spectrum: false
XAxis mode: Wavelengths
Number of Pixels in Spectrum: 1024
>>>>>Begin Spectral Data<<<<<
801.071	22162
801.214	22032
801.356	21778
801.499	21682
801.641	21481
801.783	21534
801.926	21580
802.068	21428
802.211	21462
802.353	21287
802.496	21135
802.638	21043
802.78	21017
802.923	20929
803.065	20708
803.208	20853
803.35	20883
803.492	20982
803.635	21020
803.777	20853
803.919	20857
804.061	21188
804.204	20895
804.346	20857
804.488	20724
804.63	20830
804.773	20746
804.915	20830
805.057	20921
805.199	20762
805.341	20724
805.483	20925
805.626	20868
805.768	20712
805.91	20720
806.052	20788
806.194	20746
806.336	20861
806.478	20785
806.62	20750
806.762	20750
806.904	21009
807.046	21104
807.188	21116
807.33	21127
807.472	21169
807.614	21039
807.756	21161
807.898	20933
808.04	20834
808.182	20952
808.324	20807
808.465	20979
808.607	21074
808.749	21157
808.891	21283
809.033	21298
809.174	21211
809.316	21180
809.458	21222
809.6	21135
809.741	21173
809.883	21214
810.025	21329
810.166	21443
810.308	21355
810.45	21351
810.591	21142
810.733	20933
810.875	20899
811.016	20876
811.158	20933
811.299	21013
811.441	20998
811.582	21093
811.724	20861
811.865	20941
812.007	20857
812.148	20956
812.29	20944
812.431	21138
812.573	21291
812.714	21230
812.855	21424
812.997	21515
813.138	21637
813.279	21466
813.421	21340
813.562	21370
813.703	21195
813.845	20952
813.986	20861
814.127	20712
814.268	20526
814.41	20507
814.551	20556
814.692	20473
814.833	20514
814.974	20423
815.115	20473
815.256	20339
815.397	20328
815.539	20317
815.68	20237
815.821	20103
815.962	20187
816.103	20088
816.244	20024
816.385	20046
816.526	19864
816.666	19868
816.807	19563
816.948	19772
817.089	19772
817.23	19624
817.371	19696
817.512	19666
817.653	19518
817.793	19514
817.934	19525
818.075	19613
818.216	19734
818.356	19559
818.497	19472
818.638	19247
818.778	19297
818.919	19388
819.06	19369
819.2	19400
819.341	19480
819.481	19460
819.622	19677
819.762	19750
819.903	19738
820.043	19662
820.184	19586
820.324	19525
820.465	19578
820.605	19533
820.746	19594
820.886	19331
821.026	19419
821.167	19605
821.307	19674
821.447	19472
821.588	19434
821.728	19247
821.868	19164
822.008	19148
822.149	19038
822.289	18916
822.429	18764
822.569	18673
822.709	18738
822.849	18494
822.99	18376
823.13	18395
823.27	18410
823.41	18159
823.55	18376
823.69	18285
823.83	18277
823.97	18178
824.11	18159
824.25	18079
824.389	18102
824.529	18091
824.669	18038
824.809	18121
824.949	18178
825.089	18079
825.228	18034
825.368	17851
825.508	17863
825.648	17901
825.787	17889
825.927	17847
826.067	17771
826.206	17748
826.346	17882
826.485	17798
826.625	17863
826.765	17870
826.904	17882
827.044	17611
827.183	17570
827.323	17425
827.462	17585
827.601	17516
827.741	17554
827.88	17547
828.02	17395
828.159	17524
828.298	17562
828.437	17703
828.577	17490
828.716	17623
828.855	17395
828.994	17250
829.134	17231
829.273	17239
829.412	17166
829.551	17242
829.69	17345
829.829	17170
829.968	17360
830.107	17269
830.246	17242
830.385	17147
830.524	17239
830.663	17132
830.802	17056
830.941	16816
831.08	16896
831.219	16927
831.357	16866
831.496	17033
831.635	16873
831.774	16877
831.913	16820
832.051	16733
832.19	16615
832.329	16611
832.467	16653
832.606	16523
832.744	16580
832.883	16569
833.022	16478
833.16	16615
833.299	16611
833.437	16615
833.576	16592
833.714	16618
833.852	16607
833.991	16603
834.129	16634
834.267	16554
834.406	16592
834.544	16698
834.682	16584
834.821	16649
834.959	16752
835.097	16538
835.235	16672
835.373	16656
835.511	16706
835.65	16527
835.788	16573
835.926	16421
836.064	16337
836.202	16424
836.34	16607
836.478	16599
836.615	16489
836.753	16561
836.891	16523
837.029	16588
837.167	16500
837.305	16466
837.443	16436
837.58	16379
837.718	16371
837.856	16402
837.993	16223
838.131	16382
838.269	16265
838.406	16322
838.544	16188
838.681	16002
838.819	16006
838.956	15895
839.094	15854
839.231	15903
839.369	16055
839.506	16276
839.643	16162
839.781	15979
839.918	15972
840.055	15991
840.193	15869
840.33	15876
840.467	15873
840.604	15869
840.742	16226
840.879	15778
841.016	15857
841.153	15762
841.29	16029
841.427	16032
841.564	15998
841.701	15911
841.838	15854
841.975	15808
842.112	15808
842.249	15766
842.385	15648
842.522	15884
842.659	15652
842.796	15686
842.933	15720
843.069	15675
843.206	15618
843.343	15766
843.479	15831
843.616	15789
843.752	15553
843.889	15538
844.025	15553
844.162	15454
844.298	15584
844.435	15500
844.571	15572
844.708	15485
844.844	15644
844.98	15637
845.117	15568
845.253	15393
845.389	15321
845.525	15351
845.661	15443
845.798	15321
845.934	15412
846.07	15279
846.206	15268
846.342	15397
846.478	15287
846.614	15211
846.75	15176
846.886	15074
847.022	15131
847.158	15051
847.294	15077
847.429	15085
847.565	15116
847.701	15214
847.837	14823
847.972	14819
848.108	15017
848.244	14872
848.379	14765
848.515	14659
848.65	14693
848.786	14693
848.921	14739
849.057	14769
849.192	14845
849.328	14769
849.463	14705
849.598	14663
849.734	14651
849.869	14560
850.004	14606
850.14	14518
850.275	14473
850.41	14377
850.545	14423
850.68	14400
850.815	14511
850.95	14499
851.085	14602
851.22	14549
851.355	14549
851.49	14419
851.625	14396
851.76	14434
851.895	14351
852.03	14358
852.165	14438
852.299	14427
852.434	14442
852.569	14454
852.703	14427
852.838	14583
852.973	14670
853.107	14518
853.242	14454
853.376	14351
853.511	14271
853.645	14286
853.78	14488
853.914	14362
854.048	14244
854.183	14225
854.317	14332
854.451	14514
854.585	14271
854.72	14248
854.854	14412
854.988	14294
855.122	14317
855.256	14164
855.39	14233
855.524	14457
855.658	14442
855.792	14400
855.926	14286
856.06	14427
856.194	14480
856.327	14225
856.461	14237
856.595	14199
856.729	14332
856.862	14438
856.996	14286
857.13	14465
857.263	14385
857.397	14450
857.53	14271
857.664	14396
857.797	14343
857.931	14415
858.064	14389
858.197	14503
858.331	14320
858.464	14214
858.597	14214
858.731	14343
858.864	14358
858.997	14351
859.13	14339
859.263	14332
859.396	14434
859.529	14275
859.662	14320
859.795	14267
859.928	14282
860.061	14473
860.194	14446
860.327	14286
860.46	14271
860.592	14374
860.725	14469
860.858	14393
860.99	14248
861.123	14267
861.256	14263
861.388	14339
861.521	14887
861.653	14214
861.786	14149
861.918	14164
862.05	14199
862.183	14259
862.315	14294
862.447	14290
862.58	14218
862.712	14069
862.844	14012
862.976	14107
863.108	14187
863.24	14370
863.372	13959
863.504	14024
863.636	14016
863.768	14138
863.9	14130
864.032	14012
864.164	14145
864.296	14073
864.428	14218
864.559	14248
864.691	14187
864.823	14134
864.954	14016
865.086	14126
865.217	14115
865.349	13997
865.48	14115
865.612	14172
865.743	14183
865.875	14077
866.006	14054
866.137	14115
866.269	14145
866.4	14024
866.531	14084
866.662	13917
866.793	13970
866.924	14088
867.055	14077
867.186	14081
867.317	13997
867.448	14065
867.579	14115
867.71	13970
867.841	14008
867.972	14031
868.103	14092
868.233	14088
868.364	14183
868.495	14077
868.625	14339
868.756	14370
868.886	14229
869.017	14202
869.147	14431
869.278	14374
869.408	14438
869.539	14336
869.669	14339
869.799	14419
869.929	14469
870.06	14495
870.19	14648
870.32	14693
870.45	14708
870.58	14762
870.71	14979
870.84	14724
870.97	14785
871.1	14716
871.23	14811
871.36	14967
871.489	14849
871.619	14834
871.749	14872
871.879	15051
872.008	14990
872.138	14937
872.267	14918
872.397	14727
872.526	14765
872.656	14708
872.785	14807
872.915	14963
873.044	15089
873.173	14948
873.303	15055
873.432	14982
873.561	15047
873.69	15020
873.819	14982
873.948	14982
874.077	15020
874.206	14921
874.335	14925
874.464	15138
874.593	15287
874.722	15195
874.851	15313
874.979	15340
875.108	15382
875.237	15268
875.365	15192
875.494	15214
875.623	15283
875.751	15317
875.88	15355
876.008	15416
876.136	15454
876.265	15679
876.393	15827
876.521	15812
876.65	15823
876.778	15652
876.906	15599
877.034	15622
877.162	15660
877.29	15606
877.418	15648
877.546	15686
877.674	15667
877.802	15774
877.93	15728
878.058	15755
878.185	15606
878.313	15614
878.441	15694
878.568	15496
878.696	15587
878.824	15743
878.951	15724
879.079	15835
879.206	15941
879.333	15793
879.461	15747
879.588	15808
879.715	15865
879.842	16032
879.97	15873
880.097	15572
880.224	15504
880.351	15507
880.478	15511
880.605	15564
880.732	15553
880.859	15739
880.986	15526
881.112	15618
881.239	15443
881.366	15302
881.493	15260
881.619	15226
881.746	15150
881.872	15127
881.999	15218
882.125	15119
882.252	15230
882.378	15310
882.505	15397
882.631	15108
882.757	15020
882.883	15058
883.01	15024
883.136	15028
883.262	14895
883.388	14933
883.514	15013
883.64	15097
883.766	14933
883.892	14895
884.018	14868
884.143	15039
884.269	15135
884.395	14674
884.52	14697
884.646	14727
884.772	14632
884.897	14621
885.023	14712
885.148	14838
885.274	14804
885.399	14830
885.524	14682
885.65	14705
885.775	14697
885.9	14735
886.025	14746
886.15	14693
886.275	14625
886.4	14621
886.525	14697
886.65	14549
886.775	14686
886.9	14807
887.025	15062
887.149	14648
887.274	14651
887.399	14571
887.523	14469
887.648	14514
887.773	14347
887.897	14754
888.021	14571
888.146	14465
888.27	14686
888.395	14716
888.519	14610
888.643	14629
888.767	14602
888.891	14545
889.015	14404
889.139	14549
889.263	14423
889.387	14492
889.511	14587
889.635	14571
889.759	14381
889.883	14442
890.006	14503
890.13	14552
890.254	14282
890.377	14313
890.501	14263
890.624	14183
890.748	14229
890.871	14206
890.995	14054
891.118	14024
891.241	14054
891.364	14069
891.488	14267
891.611	14088
891.734	14096
891.857	14138
891.98	14050
892.103	14214
892.226	14153
892.349	14115
892.471	13906
892.594	14081
892.717	14088
892.839	14081
892.962	14115
893.085	14187
893.207	14088
893.33	14012
893.452	14016
893.575	14145
893.697	14073
893.819	14248
893.941	14336
894.064	14317
894.186	14062
894.308	14035
894.43	14278
894.552	14317
894.674	14282
894.796	14069
894.918	14191
895.04	14183
895.161	14259
895.283	14305
895.405	14035
895.526	14153
895.648	14180
895.769	14176
895.891	14172
896.012	14351
896.134	14313
896.255	14385
896.376	14278
896.498	14286
896.619	14309
896.74	14309
896.861	14377
896.982	14537
897.103	14807
897.224	14663
897.345	14545
897.466	14381
897.587	14583
897.708	14769
897.828	14598
897.949	14537
898.07	14374
898.19	14511
898.311	14727
898.431	14552
898.552	14640
898.672	14667
898.792	14724
898.913	14625
899.033	14522
899.153	14427
899.273	14446
899.393	14393
899.513	14545
899.633	14568
899.753	14522
899.873	14465
899.993	14640
900.113	14499
900.232	14526
900.352	14587
900.472	14374
900.591	14328
900.711	14377
900.83	14313
900.95	14389
901.069	14450
901.189	14240
901.308	14027
901.427	13955
901.546	14054
901.665	14027
901.784	14043
901.904	14005
902.023	13837
902.141	13719
902.26	13548
902.379	13651
902.498	13651
902.617	13556
902.735	13563
902.854	13609
902.973	13499
903.091	13362
903.21	13369
903.328	13247
903.446	13327
903.565	13274
903.683	13175
903.801	13149
903.919	13088
904.038	13168
904.156	12939
904.274	12981
904.392	13076
904.51	12985
904.627	12996
904.745	13057
904.863	12958
904.981	12840
905.098	12642
905.216	12802
905.334	12814
905.451	12684
905.569	12711
905.686	12719
905.803	12719
905.921	12547
906.038	12608
906.155	12433
906.272	12433
906.389	12452
906.506	12281
906.623	12315
906.74	12338
906.857	12140
906.974	12136
907.091	12414
907.208	12445
907.324	12304
907.441	12140
907.557	12076
907.674	12003
907.79	11977
907.907	11969
908.023	11977
908.139	11969
908.256	11969
908.372	11923
908.488	11927
908.604	11775
908.72	11741
908.836	11802
908.952	11745
909.068	11817
909.184	11901
909.3	11767
909.415	11794
909.531	11847
909.647	11642
909.762	11566
909.878	11585
909.993	11566
910.108	11558
910.224	11501
910.339	11509
910.454	11444
910.57	11383
910.685	11284
910.8	11661
910.915	11493
911.03	11425
911.145	11311
911.259	11223
911.374	11307
911.489	11159
911.604	11098
911.718	11075
911.833	11018
911.947	10885
912.062	10820
912.176	10991
912.291	11003
912.405	10965
912.519	11170
912.633	11174
912.748	11056
912.862	10961
912.976	10843
913.09	10721
913.204	10809
913.318	10858
913.431	10987
913.545	10930
913.659	11003
913.772	10858
913.886	10774
914	10649
914.113	10820
914.226	10820
914.34	10885
914.453	10694
914.566	10949
914.68	10725
914.793	10672
914.906	10504
915.019	10455
915.132	10535
915.245	10527
915.358	10588
915.47	10561
915.583	10580
915.696	10565
915.809	10683
915.921	10645
916.034	10542
916.146	10485
916.259	10367
916.371	10569
916.483	10500
916.595	10409
916.708	10447
916.82	10481
916.932	10379
917.044	10424
917.156	10382
917.268	10261
917.38	10318
917.491	10314
917.603	10348
917.715	10447
917.826	10504
917.938	10303
918.049	10234
918.161	10352
918.272	10447
918.384	10527
918.495	10421
918.606	10257
918.717	10261
918.828	10227
918.939	10185
919.05	10063
919.161	10272
919.272	10032
919.383	10101
919.494	10348
919.604	10428
919.715	10204
919.826	10234
919.936	10192
920.047	10314
920.157	10329
920.267	10516
920.378	10337
920.488	10188
920.598	10455
920.708	10565
920.818	10523
920.928	10398
921.038	10573
921.148	10580
921.258	10303
921.368	10257
921.477	10166
921.587	10013
921.697	10017
921.806	10059
921.916	9941
922.025	9842
922.134	9812
922.244	9747
922.353	9831
922.462	9747
922.571	9690
922.68	9523
922.789	9428
922.898	9507
923.007	9439
923.116	9458
923.224	9504
923.333	9492
923.442	9389
923.55	9435
923.659	9466
923.767	9500
923.876	9389
923.984	9477
924.092	9325
924.201	9397
924.309	9469
924.417	9378
924.525	9329
924.633	9302
924.741	10268
924.849	9154
924.956	9321
925.064	9146
925.172	9089
925.279	9062
925.387	9138
925.494	9192
925.602	9355
925.709	9203
925.816	9165
925.924	9085
926.031	9294
926.138	9154
926.245	9241
926.352	9039
926.459	9157
926.566	9287
926.673	9051
926.779	9051
926.886	8979
926.993	8883
927.099	8823
927.206	8857
927.312	8796
927.419	8891
927.525	8883
927.631	8895
927.737	8815
927.843	8750
927.95	8640
928.056	8804
928.162	8701
928.267	8876
928.373	9439
928.479	8891
928.585	8606
928.69	8773
928.796	8857
928.901	8705
929.007	8541
929.112	8629
929.218	8644
929.323	8590
929.428	8610
929.533	8655
929.638	8564
929.743	8606
929.848	8625
929.953	8606
930.058	8492
930.163	8324
930.267	8438
930.372	8503
930.477	8366
930.581	8644
930.685	8393
930.79	8305
930.894	8358
930.998	8279
931.103	8427
931.207	8115
931.311	8115
931.415	7967
931.519	7811
931.623	7788
