Data from test_V78500241_82.txt Node
Date: Fri Mar 25 14:34:17 CST 2022
User: usil
Spectrometer: V785-0024
Trigger mode: 0
Integration Time (sec): 4.000000E-1
Scans to average: 1
Nonlinearity correction enabled: false
Boxcar width: 0
Storing dark spectrum: false
XAxis mode: Wavelengths
Number of Pixels in Spectrum: 1024
>>>>>Begin Spectral Data<<<<<
801.071	28790
801.214	28854
801.356	28436
801.499	28432
801.641	28333
801.783	28371
801.926	28246
802.068	28105
802.211	28242
802.353	28211
802.496	27964
802.638	27987
802.78	27789
802.923	27804
803.065	27747
803.208	27789
803.35	27808
803.492	27888
803.635	28063
803.777	27987
803.919	27975
804.061	28188
804.204	28029
804.346	27926
804.488	27804
804.63	27895
804.773	27819
804.915	27888
805.057	28002
805.199	27800
805.341	27937
805.483	28029
805.626	27964
805.768	27831
805.91	27823
806.052	28002
806.194	27827
806.336	28249
806.478	28070
806.62	27903
806.762	28147
806.904	28284
807.046	28470
807.188	28295
807.33	28276
807.472	28413
807.614	28207
807.756	28257
807.898	28177
808.04	27960
808.182	28109
808.324	28070
808.465	28139
808.607	28401
808.749	28527
808.891	28428
809.033	28466
809.174	28611
809.316	28489
809.458	28470
809.6	28329
809.741	28580
809.883	28611
810.025	28687
810.166	28790
810.308	28733
810.45	28668
810.591	28596
810.733	28592
810.875	28360
811.016	28242
811.158	28265
811.299	28493
811.441	28508
811.582	28611
811.724	28474
811.865	28352
812.007	28398
812.148	28249
812.29	28451
812.431	28580
812.573	28744
812.714	28835
812.855	28900
812.997	29056
813.138	29113
813.279	29102
813.421	28915
813.562	28919
813.703	28816
813.845	28588
813.986	28230
814.127	28139
814.268	28082
814.41	28074
814.551	28051
814.692	28112
814.833	27797
814.974	27945
815.115	28112
815.256	27827
815.397	27835
815.539	27743
815.68	27622
815.821	27720
815.962	27652
816.103	27709
816.244	27709
816.385	27450
816.526	27329
816.666	27317
816.807	27157
816.948	27211
817.089	27218
817.23	27123
817.371	27180
817.512	27017
817.653	27062
817.793	27074
817.934	27093
818.075	27214
818.216	27070
818.356	26967
818.497	26857
818.638	26849
818.778	26857
818.919	26682
819.06	26895
819.2	26918
819.341	27077
819.481	27032
819.622	27169
819.762	27226
819.903	27245
820.043	27123
820.184	27051
820.324	26994
820.465	27203
820.605	27135
820.746	27123
820.886	26940
821.026	27081
821.167	26906
821.307	27062
821.447	26918
821.588	26956
821.728	26788
821.868	26518
822.008	26324
822.149	26328
822.289	26370
822.429	26134
822.569	26100
822.709	26016
822.849	25940
822.99	25841
823.13	25719
823.27	25845
823.41	25643
823.55	25510
823.69	25624
823.83	25567
823.97	25468
824.11	25384
824.25	25384
824.389	25312
824.529	25487
824.669	25411
824.809	25468
824.949	25373
825.089	25415
825.228	25403
825.368	25217
825.508	25255
825.648	25274
825.787	25206
825.927	25270
826.067	25129
826.206	25232
826.346	25156
826.485	25297
826.625	25175
826.765	25228
826.904	25213
827.044	24943
827.183	24882
827.323	24798
827.462	24814
827.601	24954
827.741	24837
827.88	24817
828.02	24734
828.159	24821
828.298	24863
828.437	24958
828.577	24776
828.716	25000
828.855	24703
828.994	24536
829.134	24597
829.273	24688
829.412	24521
829.551	24384
829.69	24517
829.829	24589
829.968	24620
830.107	24540
830.246	24464
830.385	24551
830.524	24361
830.663	24289
830.802	24235
830.941	24232
831.08	24106
831.219	24102
831.357	24216
831.496	24277
831.635	24091
831.774	24053
831.913	23912
832.051	23798
832.19	23756
832.329	23836
832.467	23687
832.606	23710
832.744	23611
832.883	23581
833.022	23638
833.16	23687
833.299	23703
833.437	23748
833.576	23707
833.714	23726
833.852	23661
833.991	23767
834.129	23718
834.267	23863
834.406	23668
834.544	23726
834.682	23661
834.821	23741
834.959	23847
835.097	23577
835.235	23783
835.373	23745
835.511	23718
835.65	23646
835.788	23482
835.926	23429
836.064	23337
836.202	23467
836.34	23547
836.478	23509
836.615	23414
836.753	23474
836.891	23512
837.029	23452
837.167	23558
837.305	23391
837.443	23364
837.58	23360
837.718	23433
837.856	23246
837.993	23296
838.131	23444
838.269	23200
838.406	23109
838.544	23265
838.681	22942
838.819	22995
838.956	22858
839.094	22725
839.231	22744
839.369	22896
839.506	23136
839.643	22919
839.781	22820
839.918	22790
840.055	22618
840.193	22672
840.33	22557
840.467	22607
840.604	22660
840.742	22881
840.879	22432
841.016	22485
841.153	22580
841.29	22725
841.427	22611
841.564	22729
841.701	22588
841.838	22504
841.975	22344
842.112	22637
842.249	22310
842.385	22295
842.522	22630
842.659	22478
842.796	22268
842.933	22398
843.069	22314
843.206	22242
843.343	22413
843.479	22424
843.616	22226
843.752	22051
843.889	22021
844.025	22169
844.162	22055
844.298	22143
844.435	22010
844.571	22070
844.708	22116
844.844	22341
844.98	22185
845.117	22128
845.253	21964
845.389	21949
845.525	21831
845.661	21800
845.798	21755
845.934	21827
846.07	21713
846.206	21762
846.342	21880
846.478	21747
846.614	21610
846.75	21507
846.886	21496
847.022	21667
847.158	21553
847.294	21367
847.429	21485
847.565	21408
847.701	21679
847.837	21230
847.972	21093
848.108	21287
848.244	21306
848.379	21028
848.515	21070
848.65	20899
848.786	21032
848.921	21055
849.057	21146
849.192	21138
849.328	21009
849.463	21039
849.598	20952
849.734	20948
849.869	20891
850.004	20769
850.14	20872
850.275	20708
850.41	20617
850.545	20720
850.68	20686
850.815	20708
850.95	20689
851.085	20857
851.22	20727
851.355	20758
851.49	20682
851.625	20758
851.76	20613
851.895	20507
852.03	20640
852.165	20667
852.299	20876
852.434	20823
852.569	20697
852.703	20632
852.838	20716
852.973	20921
853.107	20792
853.242	20731
853.376	20549
853.511	20476
853.645	20454
853.78	20663
853.914	20537
854.048	20473
854.183	20370
854.317	20480
854.451	20689
854.585	20583
854.72	20492
854.854	20625
854.988	20438
855.122	20530
855.256	20381
855.39	20522
855.524	20511
855.658	20552
855.792	20499
855.926	20575
856.06	20575
856.194	20629
856.327	20499
856.461	20484
856.595	20396
856.729	20461
856.862	20473
856.996	20590
857.13	20549
857.263	20575
857.397	20625
857.53	20469
857.664	20590
857.797	20632
857.931	20541
858.064	20541
858.197	20640
858.331	20484
858.464	20347
858.597	20263
858.731	20351
858.864	20549
858.997	20370
859.13	20469
859.263	20484
859.396	20533
859.529	20431
859.662	20434
859.795	20339
859.928	20503
860.061	20594
860.194	20556
860.327	20434
860.46	20343
860.592	20530
860.725	20522
860.858	20423
860.99	20412
861.123	20332
861.256	20317
861.388	20309
861.521	21062
861.653	20347
861.786	20263
861.918	20294
862.05	20393
862.183	20404
862.315	20457
862.447	20522
862.58	20415
862.712	20183
862.844	20138
862.976	20210
863.108	20164
863.24	20469
863.372	20035
863.504	20142
863.636	20138
863.768	20195
863.9	20096
864.032	20103
864.164	20206
864.296	20191
864.428	20180
864.559	20221
864.691	20164
864.823	20084
864.954	20103
865.086	20161
865.217	20020
865.349	19986
865.48	19947
865.612	20081
865.743	20275
865.875	20069
866.006	20058
866.137	19978
866.269	20046
866.4	19959
866.531	20005
866.662	19894
866.793	19875
866.924	19894
867.055	19925
867.186	19997
867.317	19932
867.448	19799
867.579	19875
867.71	19894
867.841	19871
867.972	20016
868.103	20016
868.233	19955
868.364	19955
868.495	20054
868.625	20088
868.756	20244
868.886	20092
869.017	20119
869.147	20320
869.278	20298
869.408	20176
869.539	20191
869.669	20176
869.799	20370
869.929	20275
870.06	20286
870.19	20355
870.32	20461
870.45	20480
870.58	20678
870.71	20731
870.84	20571
870.97	20511
871.1	20560
871.23	20777
871.36	20762
871.489	20659
871.619	20792
871.749	20796
871.879	20785
872.008	20754
872.138	20804
872.267	20842
872.397	20613
872.526	20648
872.656	20526
872.785	20480
872.915	20716
873.044	20853
873.173	20743
873.303	20834
873.432	20899
873.561	20925
873.69	20819
873.819	20781
873.948	20876
874.077	20883
874.206	20853
874.335	20750
874.464	20921
874.593	20956
874.722	20963
874.851	21077
874.979	21089
875.108	21093
875.237	21066
875.365	20902
875.494	21108
875.623	21020
875.751	20994
875.88	21058
876.008	21310
876.136	21150
876.265	21477
876.393	21625
876.521	21511
876.65	21469
876.778	21454
876.906	21348
877.034	21207
877.162	21401
877.29	21275
877.418	21450
877.546	21443
877.674	21462
877.802	21405
877.93	21363
878.058	21439
878.185	21416
878.313	21317
878.441	21454
878.568	21226
878.696	21298
878.824	21473
878.951	21481
879.079	21523
879.206	21610
879.333	21545
879.461	21466
879.588	21469
879.715	21656
879.842	21690
879.97	21488
880.097	21188
880.224	21275
880.351	21355
880.478	21123
880.605	21268
880.732	21131
880.859	21519
880.986	21237
881.112	21332
881.239	21211
881.366	20963
881.493	20944
881.619	20986
881.746	20906
881.872	20872
881.999	20724
882.125	20785
882.252	20796
882.378	20765
882.505	20979
882.631	20834
882.757	20648
882.883	20724
883.01	20530
883.136	20682
883.262	20442
883.388	20442
883.514	20579
883.64	20545
883.766	20442
883.892	20305
884.018	20480
884.143	20560
884.269	20674
884.395	20305
884.52	20233
884.646	20244
884.772	20244
884.897	20039
885.023	20252
885.148	20290
885.274	20305
885.399	20385
885.524	20324
885.65	20214
885.775	20214
885.9	20221
886.025	20396
886.15	20290
886.275	20081
886.4	20065
886.525	20119
886.65	20111
886.775	20073
886.9	20191
887.025	20366
887.149	20202
887.274	20027
887.399	20031
887.523	20001
887.648	19986
887.773	19845
887.897	20050
888.021	19959
888.146	19890
888.27	19993
888.395	19997
888.519	19906
888.643	19913
888.767	19974
888.891	19883
889.015	19753
889.139	19742
889.263	19731
889.387	19845
889.511	19845
889.635	19883
889.759	19712
889.883	19704
890.006	19647
890.13	19750
890.254	19651
890.377	19514
890.501	19506
890.624	19377
890.748	19597
890.871	19441
890.995	19335
891.118	19335
891.241	19244
891.364	19308
891.488	19369
891.611	19331
891.734	19362
891.857	19339
891.98	19403
892.103	19327
892.226	19358
892.349	19331
892.471	19114
892.594	19263
892.717	19400
892.839	19274
892.962	19335
893.085	19312
893.207	19118
893.33	19107
893.452	19133
893.575	19320
893.697	19244
893.819	19419
893.941	19411
894.064	19312
894.186	19103
894.308	19152
894.43	19449
894.552	19415
894.674	19339
894.796	19175
894.918	19293
895.04	19259
895.161	19301
895.283	19148
895.405	19251
895.526	19225
895.648	19312
895.769	19278
895.891	19232
896.012	19308
896.134	19316
896.255	19339
896.376	19244
896.498	19282
896.619	19369
896.74	19331
896.861	19350
896.982	19719
897.103	19791
897.224	19628
897.345	19449
897.466	19582
897.587	19548
897.708	19738
897.828	19632
897.949	19415
898.07	19293
898.19	19377
898.311	19457
898.431	19506
898.552	19559
898.672	19655
898.792	19613
898.913	19563
899.033	19343
899.153	19266
899.273	19228
899.393	19244
899.513	19270
899.633	19118
899.753	19206
899.873	19228
899.993	19209
900.113	19133
900.232	19198
900.352	19236
900.472	19126
900.591	19114
900.711	19088
900.83	18985
900.95	19209
901.069	19198
901.189	18947
901.308	18905
901.427	18677
901.546	18719
901.665	18646
901.784	18768
901.904	18582
902.023	18407
902.141	18251
902.26	18114
902.379	18311
902.498	18194
902.617	18041
902.735	18163
902.854	18125
902.973	18136
903.091	17961
903.21	17794
903.328	17809
903.446	17745
903.565	17649
903.683	17691
903.801	17543
903.919	17524
904.038	17551
904.156	17433
904.274	17455
904.392	17395
904.51	17448
904.627	17341
904.745	17364
904.863	17433
904.981	17162
905.098	17022
905.216	17029
905.334	16987
905.451	16984
905.569	17048
905.686	17079
905.803	17018
905.921	16911
906.038	16915
906.155	16896
906.272	16721
906.389	16736
906.506	16527
906.623	16569
906.74	16565
906.857	16402
906.974	16459
907.091	16634
907.208	16622
907.324	16565
907.441	16413
907.557	16265
907.674	16219
907.79	16192
907.907	16166
908.023	16341
908.139	16333
908.256	16112
908.372	16071
908.488	16051
908.604	15968
908.72	15899
908.836	15930
908.952	15991
909.068	15941
909.184	16086
909.3	15941
909.415	15915
909.531	15941
909.647	15694
909.762	15591
909.878	15545
909.993	15663
910.108	15564
910.224	15599
910.339	15603
910.454	15496
910.57	15496
910.685	15401
910.8	15679
910.915	15599
911.03	15439
911.145	15233
911.259	15222
911.374	15165
911.489	15169
911.604	15146
911.718	14960
911.833	14899
911.947	14941
912.062	14838
912.176	14937
912.291	14990
912.405	14933
912.519	15249
912.633	15085
912.748	15051
912.862	14910
912.976	14781
913.09	14632
913.204	14701
913.318	14773
913.431	14834
913.545	14853
913.659	14792
913.772	14792
913.886	14712
914	14575
914.113	14678
914.226	14720
914.34	14708
914.453	14339
914.566	14632
914.68	14537
914.793	14442
914.906	14336
915.019	14210
915.132	14202
915.245	14191
915.358	14385
915.47	14267
915.583	14187
915.696	14237
915.809	14385
915.921	14377
916.034	14172
916.146	14126
916.259	14092
916.371	14183
916.483	14168
916.595	14065
916.708	14027
916.82	14005
916.932	14069
917.044	14115
917.156	14039
917.268	13841
917.38	13925
917.491	13890
917.603	13955
917.715	13970
917.826	14016
917.938	13849
918.049	13803
918.161	13715
918.272	13913
918.384	13974
918.495	13807
918.606	13776
918.717	13677
918.828	13685
918.939	13689
919.05	13586
919.161	13651
919.272	13487
919.383	13499
919.494	13620
919.604	13807
919.715	13643
919.826	13491
919.936	13578
920.047	13704
920.157	13636
920.267	13803
920.378	13685
920.488	13548
920.598	13811
920.708	13890
920.818	13769
920.928	13719
921.038	13883
921.148	13890
921.258	13556
921.368	13567
921.477	13396
921.587	13377
921.697	13263
921.806	13327
921.916	13228
922.025	13114
922.134	13057
922.244	13015
922.353	13038
922.462	12890
922.571	12821
922.68	12623
922.789	12684
922.898	12582
923.007	12627
923.116	12696
923.224	12665
923.333	12623
923.442	12559
923.55	12490
923.659	12464
923.767	12509
923.876	12490
923.984	12479
924.092	12289
924.201	12388
924.309	12479
924.417	12410
924.525	12296
924.633	12464
924.741	13263
924.849	12258
924.956	12235
925.064	12159
925.172	12076
925.279	12121
925.387	12194
925.494	12155
925.602	12247
925.709	12171
925.816	12015
925.924	12072
926.031	12087
926.138	12064
926.245	12224
926.352	12083
926.459	12110
926.566	12110
926.673	11969
926.779	11889
926.886	11916
926.993	11764
927.099	11783
927.206	11665
927.312	11756
927.419	11718
927.525	11661
927.631	11699
927.737	11592
927.843	11436
927.95	11455
928.056	11497
928.162	11627
928.267	11611
928.373	12194
928.479	11585
928.585	11440
928.69	11490
928.796	11577
928.901	11402
929.007	11235
929.112	11467
929.218	11280
929.323	11322
929.428	11303
929.533	11425
929.638	11128
929.743	11254
929.848	11284
929.953	11197
930.058	11189
930.163	11010
930.267	10987
930.372	11086
930.477	10953
930.581	11109
930.685	10942
930.79	10858
930.894	10839
930.998	10828
931.103	10980
931.207	10634
931.311	10584
931.415	10436
931.519	10242
931.623	10242
