Data from test_V78500241_2057.txt Node
Date: Fri Mar 25 14:48:02 CST 2022
User: usil
Spectrometer: V785-0024
Trigger mode: 0
Integration Time (sec): 4.000000E-1
Scans to average: 1
Nonlinearity correction enabled: false
Boxcar width: 0
Storing dark spectrum: false
XAxis mode: Wavelengths
Number of Pixels in Spectrum: 1024
>>>>>Begin Spectral Data<<<<<
801.071	22116
801.214	22002
801.356	21690
801.499	21694
801.641	21526
801.783	21519
801.926	21625
802.068	21367
802.211	21298
802.353	21142
802.496	21051
802.638	21005
802.78	20944
802.923	20902
803.065	20773
803.208	20807
803.35	20781
803.492	20906
803.635	21020
803.777	20796
803.919	20876
804.061	21165
804.204	20887
804.346	20724
804.488	20724
804.63	20914
804.773	20716
804.915	20788
805.057	20948
805.199	20720
805.341	20868
805.483	20743
805.626	20823
805.768	20716
805.91	20849
806.052	20777
806.194	20655
806.336	20887
806.478	20701
806.62	20693
806.762	20830
806.904	20948
807.046	21157
807.188	20982
807.33	21039
807.472	21192
807.614	20944
807.756	20906
807.898	20971
808.04	20777
808.182	20853
808.324	20819
808.465	20937
808.607	20967
808.749	21039
808.891	21203
809.033	21287
809.174	21214
809.316	21089
809.458	21039
809.6	21017
809.741	21142
809.883	21184
810.025	21222
810.166	21294
810.308	21192
810.45	21237
810.591	21180
810.733	21024
810.875	21043
811.016	20838
811.158	20731
811.299	20986
811.441	20979
811.582	20975
811.724	20914
811.865	20838
812.007	21024
812.148	20937
812.29	20868
812.431	21047
812.573	21287
812.714	21321
812.855	21382
812.997	21389
813.138	21709
813.279	21564
813.421	21389
813.562	21325
813.703	21226
813.845	21058
813.986	20754
814.127	20583
814.268	20533
814.41	20400
814.551	20476
814.692	20526
814.833	20385
814.974	20286
815.115	20484
815.256	20263
815.397	20400
815.539	20328
815.68	20259
815.821	20218
815.962	20298
816.103	20062
816.244	19864
816.385	19841
816.526	19833
816.666	19601
816.807	19609
816.948	19681
817.089	19628
817.23	19590
817.371	19460
817.512	19613
817.653	19567
817.793	19567
817.934	19651
818.075	19567
818.216	19639
818.356	19430
818.497	19373
818.638	19228
818.778	19263
818.919	19209
819.06	19350
819.2	19434
819.341	19445
819.481	19495
819.622	19578
819.762	19712
819.903	19635
820.043	19734
820.184	19510
820.324	19597
820.465	19616
820.605	19632
820.746	19506
820.886	19343
821.026	19499
821.167	19495
821.307	19540
821.447	19426
821.588	19266
821.728	19316
821.868	19179
822.008	18985
822.149	19004
822.289	18943
822.429	18734
822.569	18593
822.709	18620
822.849	18464
822.99	18429
823.13	18369
823.27	18410
823.41	18330
823.55	18174
823.69	18327
823.83	18095
823.97	18148
824.11	18079
824.25	17847
824.389	17942
824.529	18133
824.669	18034
824.809	18076
824.949	18129
825.089	18098
825.228	18026
825.368	17783
825.508	17863
825.648	17897
825.787	17958
825.927	17859
826.067	17737
826.206	17790
826.346	17707
826.485	17836
826.625	17851
826.765	17927
826.904	17916
827.044	17524
827.183	17501
827.323	17436
827.462	17486
827.601	17509
827.741	17585
827.88	17532
828.02	17391
828.159	17452
828.298	17452
828.437	17459
828.577	17471
828.716	17509
828.855	17417
828.994	17277
829.134	17303
829.273	17269
829.412	17299
829.551	17204
829.69	17273
829.829	17269
829.968	17254
830.107	17292
830.246	17220
830.385	17162
830.524	17166
830.663	17105
830.802	16965
830.941	16942
831.08	16877
831.219	16915
831.357	16816
831.496	17117
831.635	16892
831.774	16809
831.913	16831
832.051	16702
832.19	16729
832.329	16645
832.467	16607
832.606	16485
832.744	16497
832.883	16599
833.022	16409
833.16	16493
833.299	16577
833.437	16584
833.576	16527
833.714	16611
833.852	16630
833.991	16679
834.129	16679
834.267	16694
834.406	16679
834.544	16554
834.682	16611
834.821	16672
834.959	16752
835.097	16679
835.235	16710
835.373	16622
835.511	16679
835.65	16565
835.788	16504
835.926	16356
836.064	16382
836.202	16310
836.34	16508
836.478	16603
836.615	16519
836.753	16592
836.891	16599
837.029	16706
837.167	16432
837.305	16386
837.443	16394
837.58	16310
837.718	16371
837.856	16356
837.993	16333
838.131	16348
838.269	16306
838.406	16287
838.544	16291
838.681	16105
838.819	16090
838.956	16025
839.094	15888
839.231	15994
839.369	16162
839.506	16375
839.643	16150
839.781	15979
839.918	15960
840.055	15926
840.193	15880
840.33	15934
840.467	15895
840.604	16021
840.742	16150
840.879	15903
841.016	15842
841.153	15827
841.29	15960
841.427	15823
841.564	15888
841.701	15956
841.838	15884
841.975	15888
842.112	15983
842.249	15797
842.385	15679
842.522	15876
842.659	15698
842.796	15694
842.933	15690
843.069	15732
843.206	15663
843.343	15778
843.479	15713
843.616	15827
843.752	15587
843.889	15599
844.025	15618
844.162	15507
844.298	15614
844.435	15519
844.571	15515
844.708	15542
844.844	15641
844.98	15557
845.117	15641
845.253	15538
845.389	15412
845.525	15443
845.661	15435
845.798	15348
845.934	15469
846.07	15233
846.206	15302
846.342	15435
846.478	15268
846.614	15123
846.75	15032
846.886	14975
847.022	15207
847.158	15146
847.294	15108
847.429	15146
847.565	15017
847.701	15241
847.837	14876
847.972	14777
848.108	14929
848.244	14906
848.379	14686
848.515	14640
848.65	14712
848.786	14655
848.921	14765
849.057	14815
849.192	14754
849.328	14689
849.463	14693
849.598	14617
849.734	14670
849.869	14560
850.004	14480
850.14	14522
850.275	14446
850.41	14434
850.545	14480
850.68	14450
850.815	14419
850.95	14393
851.085	14480
851.22	14450
851.355	14438
851.49	14343
851.625	14358
851.76	14351
851.895	14313
852.03	14332
852.165	14415
852.299	14434
852.434	14541
852.569	14461
852.703	14469
852.838	14511
852.973	14549
853.107	14587
853.242	14431
853.376	14313
853.511	14149
853.645	14290
853.78	14480
853.914	14286
854.048	14305
854.183	14370
854.317	14244
854.451	14507
854.585	14278
854.72	14317
854.854	14412
854.988	14199
855.122	14252
855.256	14161
855.39	14233
855.524	14339
855.658	14355
855.792	14221
855.926	14336
856.06	14393
856.194	14389
856.327	14278
856.461	14290
856.595	14328
856.729	14301
856.862	14469
856.996	14355
857.13	14366
857.263	14374
857.397	14412
857.53	14290
857.664	14465
857.797	14328
857.931	14415
858.064	14370
858.197	14427
858.331	14415
858.464	14370
858.597	14271
858.731	14301
858.864	14446
858.997	14259
859.13	14294
859.263	14309
859.396	14221
859.529	14343
859.662	14358
859.795	14343
859.928	14294
860.061	14423
860.194	14484
860.327	14355
860.46	14298
860.592	14446
860.725	14404
860.858	14355
860.99	14305
861.123	14202
861.256	14328
861.388	14324
861.521	14982
861.653	14176
861.786	14195
861.918	14199
862.05	14195
862.183	14298
862.315	14370
862.447	14339
862.58	14259
862.712	14039
862.844	14039
862.976	14240
863.108	14138
863.24	14503
863.372	14008
863.504	14035
863.636	14058
863.768	14145
863.9	14161
864.032	14027
864.164	14088
864.296	14145
864.428	14138
864.559	14195
864.691	14119
864.823	14172
864.954	14187
865.086	14142
865.217	14050
865.349	13993
865.48	14050
865.612	14065
865.743	14282
865.875	14126
866.006	14046
866.137	14092
866.269	14024
866.4	14043
866.531	14016
866.662	14039
866.793	14039
866.924	13940
867.055	14081
867.186	14088
867.317	14001
867.448	13928
867.579	14073
867.71	14043
867.841	13974
867.972	14050
868.103	14088
868.233	14088
868.364	14100
868.495	14111
868.625	14358
868.756	14404
868.886	14248
869.017	14286
869.147	14480
869.278	14484
869.408	14233
869.539	14298
869.669	14431
869.799	14434
869.929	14404
870.06	14442
870.19	14640
870.32	14625
870.45	14640
870.58	14716
870.71	14819
870.84	14895
870.97	14667
871.1	14781
871.23	14952
871.36	14887
871.489	14895
871.619	14902
871.749	14887
871.879	14925
872.008	15036
872.138	14902
872.267	14971
872.397	14750
872.526	14792
872.656	14644
872.785	14788
872.915	14933
873.044	14921
873.173	14914
873.303	14956
873.432	14929
873.561	15009
873.69	15085
873.819	14921
873.948	15051
874.077	15028
874.206	14952
874.335	15005
874.464	15066
874.593	15245
874.722	15161
874.851	15317
874.979	15283
875.108	15325
875.237	15245
875.365	15237
875.494	15249
875.623	15332
875.751	15211
875.88	15393
876.008	15447
876.136	15416
876.265	15770
876.393	15846
876.521	15816
876.65	15694
876.778	15686
876.906	15625
877.034	15652
877.162	15690
877.29	15538
877.418	15747
877.546	15705
877.674	15656
877.802	15686
877.93	15648
878.058	15614
878.185	15492
878.313	15633
878.441	15755
878.568	15538
878.696	15599
878.824	15739
878.951	15778
879.079	15934
879.206	15960
879.333	15759
879.461	15686
879.588	15778
879.715	15850
879.842	16071
879.97	15778
880.097	15576
880.224	15515
880.351	15629
880.478	15614
880.605	15488
880.732	15492
880.859	15724
880.986	15568
881.112	15576
881.239	15485
881.366	15355
881.493	15214
881.619	15283
881.746	15150
881.872	15207
881.999	15199
882.125	15089
882.252	15336
882.378	15298
882.505	15325
882.631	15176
882.757	15055
882.883	15089
883.01	15036
883.136	15028
883.262	14853
883.388	14883
883.514	15017
883.64	15009
883.766	14948
883.892	14781
884.018	14815
884.143	14941
884.269	15112
884.395	14781
884.52	14727
884.646	14686
884.772	14678
884.897	14663
885.023	14746
885.148	14910
885.274	14921
885.399	14948
885.524	14716
885.65	14735
885.775	14796
885.9	14697
886.025	14826
886.15	14857
886.275	14750
886.4	14640
886.525	14651
886.65	14712
886.775	14705
886.9	14811
887.025	14914
887.149	14727
887.274	14587
887.399	14560
887.523	14594
887.648	14522
887.773	14465
887.897	14708
888.021	14598
888.146	14480
888.27	14606
888.395	14560
888.519	14552
888.643	14602
888.767	14735
888.891	14552
889.015	14393
889.139	14427
889.263	14423
889.387	14587
889.511	14625
889.635	14552
889.759	14419
889.883	14400
890.006	14431
890.13	14461
890.254	14332
890.377	14404
890.501	14221
890.624	14065
890.748	14282
890.871	14172
890.995	14084
891.118	14046
891.241	14020
891.364	14111
891.488	14237
891.611	14138
891.734	14111
891.857	14084
891.98	14081
892.103	14233
892.226	14176
892.349	14058
892.471	13989
892.594	14092
892.717	14153
892.839	13989
892.962	14035
893.085	14218
893.207	14062
893.33	14054
893.452	14073
893.575	14199
893.697	14176
893.819	14248
893.941	14355
894.064	14263
894.186	14115
894.308	14035
894.43	14275
894.552	14343
894.674	14294
894.796	14054
894.918	14149
895.04	14157
895.161	14282
895.283	14168
895.405	14161
895.526	14180
895.648	14240
895.769	14259
895.891	14225
896.012	14328
896.134	14339
896.255	14225
896.376	14237
896.498	14267
896.619	14454
896.74	14233
896.861	14374
896.982	14537
897.103	14682
897.224	14606
897.345	14549
897.466	14450
897.587	14552
897.708	14640
897.828	14667
897.949	14564
898.07	14393
898.19	14488
898.311	14663
898.431	14537
898.552	14598
898.672	14670
898.792	14758
898.913	14651
899.033	14583
899.153	14492
899.273	14442
899.393	14545
899.513	14476
899.633	14457
899.753	14545
899.873	14473
899.993	14583
900.113	14427
900.232	14400
900.352	14564
900.472	14450
900.591	14358
900.711	14347
900.83	14286
900.95	14461
901.069	14408
901.189	14282
901.308	14039
901.427	13970
901.546	14134
901.665	14084
901.784	13997
901.904	13974
902.023	13830
902.141	13704
902.26	13666
902.379	13727
902.498	13632
902.617	13529
902.735	13620
902.854	13628
902.973	13556
903.091	13301
903.21	13278
903.328	13426
903.446	13263
903.565	13175
903.683	13103
903.801	13129
903.919	13110
904.038	13232
904.156	12932
904.274	13015
904.392	13000
904.51	12928
904.627	13053
904.745	13088
904.863	13091
904.981	12844
905.098	12700
905.216	12639
905.334	12768
905.451	12707
905.569	12642
905.686	12757
905.803	12646
905.921	12490
906.038	12620
906.155	12502
906.272	12380
906.389	12388
906.506	12277
906.623	12380
906.74	12243
906.857	12167
906.974	12201
907.091	12334
907.208	12426
907.324	12254
907.441	12232
907.557	11969
907.674	12041
907.79	11885
907.907	11931
908.023	11988
908.139	12015
908.256	12015
908.372	11935
908.488	11885
908.604	11821
908.72	11714
908.836	11847
908.952	11824
909.068	11836
909.184	11893
909.3	11771
909.415	11874
909.531	11786
909.647	11547
909.762	11600
909.878	11524
909.993	11653
910.108	11532
910.224	11547
910.339	11524
910.454	11570
910.57	11391
910.685	11398
910.8	11611
910.915	11547
911.03	11429
911.145	11227
911.259	11166
911.374	11204
911.489	11189
911.604	11117
911.718	10984
911.833	10991
911.947	10923
912.062	10854
912.176	11003
912.291	10961
912.405	10938
912.519	11162
912.633	11239
912.748	11140
912.862	11041
912.976	10854
913.09	10801
913.204	10930
913.318	10824
913.431	10957
913.545	10987
913.659	10999
913.772	10934
913.886	10744
914	10702
914.113	10824
914.226	10790
914.34	10908
914.453	10698
914.566	10797
914.68	10752
914.793	10694
914.906	10603
915.019	10500
915.132	10428
915.245	10478
915.358	10500
915.47	10489
915.583	10573
915.696	10569
915.809	10603
915.921	10641
916.034	10440
916.146	10466
916.259	10405
916.371	10626
916.483	10478
916.595	10390
916.708	10447
916.82	10466
916.932	10466
917.044	10428
917.156	10402
917.268	10329
917.38	10367
917.491	10341
917.603	10341
917.715	10451
917.826	10466
917.938	10375
918.049	10234
918.161	10363
918.272	10440
918.384	10512
918.495	10341
918.606	10249
918.717	10166
918.828	10287
918.939	10230
919.05	10128
919.161	10162
919.272	10044
919.383	10147
919.494	10215
919.604	10402
919.715	10265
919.826	10105
919.936	10150
920.047	10280
920.157	10215
920.267	10485
920.378	10192
920.488	10200
920.598	10478
920.708	10531
920.818	10409
920.928	10481
921.038	10584
921.148	10592
921.258	10257
921.368	10234
921.477	10025
921.587	10051
921.697	9972
921.806	10093
921.916	9983
922.025	9827
922.134	9793
922.244	9736
922.353	9808
922.462	9686
922.571	9599
922.68	9504
922.789	9526
922.898	9443
923.007	9458
923.116	9496
923.224	9507
923.333	9477
923.442	9439
923.55	9401
923.659	9428
923.767	9485
923.876	9287
923.984	9412
924.092	9260
924.201	9367
924.309	9378
924.417	9344
924.525	9332
924.633	9317
924.741	10276
924.849	9085
924.956	9260
925.064	9195
925.172	9032
925.279	9066
925.387	9211
925.494	9165
925.602	9283
925.709	9233
925.816	9077
925.924	9203
926.031	9222
926.138	9195
926.245	9150
926.352	9070
926.459	9192
926.566	9279
926.673	9047
926.779	9024
926.886	8933
926.993	8899
927.099	8861
927.206	8834
927.312	8823
927.419	8902
927.525	8925
927.631	8902
927.737	8781
927.843	8697
927.95	8724
928.056	8724
928.162	8750
928.267	8891
928.373	9428
928.479	8868
928.585	8651
928.69	8686
928.796	8735
928.901	8663
929.007	8488
929.112	8598
929.218	8682
929.323	8663
929.428	8617
929.533	8746
929.638	8533
929.743	8545
929.848	8606
929.953	8571
930.058	8431
930.163	8252
930.267	8404
930.372	8511
930.477	8385
930.581	8549
930.685	8476
930.79	8328
930.894	8267
930.998	8225
931.103	8469
931.207	8126
931.311	8050
931.415	8001
931.519	7807
931.623	7780
