Data from test_V78500241_894.txt Node
Date: Fri Mar 25 14:39:56 CST 2022
User: usil
Spectrometer: V785-0024
Trigger mode: 0
Integration Time (sec): 4.000000E-1
Scans to average: 1
Nonlinearity correction enabled: false
Boxcar width: 0
Storing dark spectrum: false
XAxis mode: Wavelengths
Number of Pixels in Spectrum: 1024
>>>>>Begin Spectral Data<<<<<
801.071	25293
801.214	25187
801.356	24772
801.499	24848
801.641	24612
801.783	24456
801.926	24574
802.068	24509
802.211	24369
802.353	24247
802.496	24197
802.638	23984
802.78	24125
802.923	24041
803.065	23935
803.208	23882
803.35	23893
803.492	23977
803.635	24011
803.777	23931
803.919	23851
804.061	24258
804.204	23969
804.346	24068
804.488	23893
804.63	23958
804.773	23813
804.915	23893
805.057	24136
805.199	23946
805.341	24098
805.483	24095
805.626	24152
805.768	24057
805.91	24030
806.052	24091
806.194	24110
806.336	24270
806.478	24213
806.62	24190
806.762	24380
806.904	24574
807.046	24992
807.188	24996
807.33	25103
807.472	25183
807.614	25232
807.756	25643
807.898	25670
808.04	26142
808.182	26480
808.324	27291
808.465	27960
808.607	28892
808.749	29653
808.891	30068
809.033	30167
809.174	29824
809.316	28831
809.458	28116
809.6	27268
809.741	26640
809.883	26145
810.025	25890
810.166	25696
810.308	25472
810.45	25282
810.591	25023
810.733	24852
810.875	24711
811.016	24460
811.158	24517
811.299	24502
811.441	24654
811.582	24448
811.724	24365
811.865	24254
812.007	24254
812.148	24346
812.29	24380
812.431	24483
812.573	24517
812.714	24722
812.855	24616
812.997	24844
813.138	25031
813.279	24989
813.421	24555
813.562	24612
813.703	24555
813.845	24308
813.986	24011
814.127	23828
814.268	23722
814.41	23745
814.551	23611
814.692	23767
814.833	23703
814.974	23630
815.115	23661
815.256	23558
815.397	23509
815.539	23573
815.68	23395
815.821	23360
815.962	23429
816.103	23299
816.244	23296
816.385	23090
816.526	23018
816.666	22869
816.807	22797
816.948	22862
817.089	22911
817.23	22839
817.371	22904
817.512	22717
817.653	22809
817.793	22645
817.934	22809
818.075	22782
818.216	22733
818.356	22702
818.497	22618
818.638	22382
818.778	22398
818.919	22329
819.06	22379
819.2	22504
819.341	22653
819.481	22664
819.622	22824
819.762	22919
819.903	22915
820.043	22649
820.184	22675
820.324	22675
820.465	22790
820.605	22603
820.746	22535
820.886	22531
821.026	22599
821.167	22436
821.307	22706
821.447	22535
821.588	22394
821.728	22295
821.868	22249
822.008	21949
822.149	21998
822.289	22036
822.429	21781
822.569	21743
822.709	21671
822.849	21492
822.99	21462
823.13	21485
823.27	21443
823.41	21252
823.55	21230
823.69	21386
823.83	21214
823.97	21169
824.11	20990
824.25	20986
824.389	20918
824.529	21184
824.669	20986
824.809	21039
824.949	21028
825.089	21070
825.228	21142
825.368	20868
825.508	20929
825.648	20906
825.787	20876
825.927	20937
826.067	20792
826.206	20872
826.346	20929
826.485	20785
826.625	20754
826.765	20842
826.904	20811
827.044	20632
827.183	20545
827.323	20404
827.462	20533
827.601	20511
827.741	20499
827.88	20457
828.02	20259
828.159	20442
828.298	20393
828.437	20469
828.577	20385
828.716	20579
828.855	20347
828.994	20126
829.134	20233
829.273	20233
829.412	20115
829.551	20084
829.69	20176
829.829	20218
829.968	20256
830.107	20138
830.246	20263
830.385	20069
830.524	19989
830.663	19906
830.802	19833
830.941	19814
831.08	19662
831.219	19822
831.357	19769
831.496	19928
831.635	19609
831.774	19540
831.913	19571
832.051	19518
832.19	19407
832.329	19556
832.467	19403
832.606	19415
832.744	19453
832.883	19422
833.022	19407
833.16	19449
833.299	19632
833.437	19518
833.576	19662
833.714	19605
833.852	19765
833.991	19761
834.129	19723
834.267	19837
834.406	19616
834.544	19780
834.682	19700
834.821	19582
834.959	19742
835.097	19521
835.235	19647
835.373	19571
835.511	19540
835.65	19278
835.788	19274
835.926	19164
836.064	19152
836.202	19187
836.34	19312
836.478	19358
836.615	19137
836.753	19171
836.891	19293
837.029	19358
837.167	19175
837.305	19145
837.443	19164
837.58	19175
837.718	19152
837.856	19209
837.993	19034
838.131	19088
838.269	18913
838.406	19038
838.544	18867
838.681	18738
838.819	18726
838.956	18532
839.094	18620
839.231	18684
839.369	18688
839.506	18993
839.643	18814
839.781	18711
839.918	18475
840.055	18570
840.193	18547
840.33	18456
840.467	18642
840.604	18498
840.742	18791
840.879	18448
841.016	18555
841.153	18403
841.29	18620
841.427	18483
841.564	18616
841.701	18494
841.838	18486
841.975	18407
842.112	18315
842.249	18330
842.385	18323
842.522	18475
842.659	18304
842.796	18311
842.933	18243
843.069	18228
843.206	18357
843.343	18388
843.479	18395
843.616	18327
843.752	18083
843.889	18038
844.025	18296
844.162	18148
844.298	18277
844.435	18220
844.571	18239
844.708	18319
844.844	18528
844.98	18547
845.117	18684
845.253	18844
845.389	19236
845.525	19936
845.661	21157
845.798	22805
845.934	24353
846.07	24817
846.206	24639
846.342	23695
846.478	21930
846.614	20286
846.75	19266
846.886	18711
847.022	18418
847.158	18159
847.294	17885
847.429	17748
847.565	17779
847.701	17946
847.837	17440
847.972	17414
848.108	17501
848.244	17440
848.379	17197
848.515	17174
848.65	17178
848.786	17189
848.921	17299
849.057	17261
849.192	17174
849.328	17117
849.463	17193
849.598	17170
849.734	17083
849.869	16999
850.004	16980
850.14	16915
850.275	16961
850.41	16793
850.545	16835
850.68	16889
850.815	16892
850.95	16889
851.085	17098
851.22	16999
851.355	16873
851.49	16885
851.625	16915
851.76	16934
851.895	16824
852.03	16790
852.165	16957
852.299	16953
852.434	17029
852.569	16987
852.703	16984
852.838	16965
852.973	17128
853.107	17075
853.242	16877
853.376	16805
853.511	16706
853.645	16725
853.78	16999
853.914	16938
854.048	16828
854.183	16904
854.317	16824
854.451	17105
854.585	16805
854.72	16782
854.854	16812
854.988	16904
855.122	16694
855.256	16660
855.39	16736
855.524	16900
855.658	16782
855.792	16710
855.926	16828
856.06	16824
856.194	16900
856.327	16755
856.461	16778
856.595	16812
856.729	16675
856.862	16858
856.996	16858
857.13	16812
857.263	16828
857.397	16820
857.53	16774
857.664	16938
857.797	16717
857.931	16809
858.064	16755
858.197	16782
858.331	16748
858.464	16603
858.597	16672
858.731	16710
858.864	16713
858.997	16653
859.13	16702
859.263	16710
859.396	16771
859.529	16717
859.662	16622
859.795	16645
859.928	16656
860.061	16797
860.194	16850
860.327	16752
860.46	16721
860.592	16786
860.725	16717
860.858	16771
860.99	16637
861.123	16565
861.256	16596
861.388	16725
861.521	17341
861.653	16611
861.786	16470
861.918	16481
862.05	16573
862.183	16592
862.315	16599
862.447	16774
862.58	16637
862.712	16508
862.844	16386
862.976	16424
863.108	16440
863.24	16828
863.372	16447
863.504	16424
863.636	16394
863.768	16474
863.9	16417
864.032	16379
864.164	16443
864.296	16474
864.428	16577
864.559	16554
864.691	16554
864.823	16436
864.954	16363
865.086	16417
865.217	16424
865.349	16417
865.48	16432
865.612	16356
865.743	16516
865.875	16413
866.006	16325
866.137	16382
866.269	16363
866.4	16344
866.531	16367
866.662	16257
866.793	16344
866.924	16242
867.055	16405
867.186	16394
867.317	16192
867.448	16226
867.579	16348
867.71	16261
867.841	16181
867.972	16287
868.103	16344
868.233	16363
868.364	16333
868.495	16466
868.625	16569
868.756	16668
868.886	16481
869.017	16565
869.147	16733
869.278	16706
869.408	16615
869.539	16577
869.669	16615
869.799	16721
869.929	16740
870.06	16786
870.19	16858
870.32	16835
870.45	16938
870.58	16930
870.71	17060
870.84	17113
870.97	17048
871.1	16946
871.23	17102
871.36	17170
871.489	17170
871.619	17121
871.749	17124
871.879	17227
872.008	17349
872.138	17090
872.267	17155
872.397	17113
872.526	16976
872.656	17064
872.785	17079
872.915	17208
873.044	17330
873.173	17311
873.303	17242
873.432	17292
873.561	17364
873.69	17265
873.819	17277
873.948	17345
874.077	17345
874.206	17330
874.335	17231
874.464	17414
874.593	17543
874.722	17448
874.851	17691
874.979	17703
875.108	17676
875.237	17532
875.365	17604
875.494	17554
875.623	17775
875.751	17714
875.88	17733
876.008	17775
876.136	17969
876.265	18178
876.393	18258
876.521	18148
876.65	18232
876.778	18190
876.906	18068
877.034	18171
877.162	18224
877.29	18277
877.418	18254
877.546	18209
877.674	18201
877.802	18369
877.93	18399
878.058	18315
878.185	18388
878.313	18422
878.441	18669
878.568	18452
878.696	18749
878.824	19023
878.951	19312
879.079	19696
879.206	20396
879.333	20823
879.461	21291
879.588	21488
879.715	21549
879.842	21329
879.97	20689
880.097	20016
880.224	19556
880.351	19350
880.478	19148
880.605	18909
880.732	18852
880.859	19099
880.986	18798
881.112	18650
881.239	18608
881.366	18608
881.493	18471
881.619	18407
881.746	18429
881.872	18426
881.999	18448
882.125	18357
882.252	18460
882.378	18426
882.505	18418
882.631	18372
882.757	18346
882.883	18384
883.01	18277
883.136	18258
883.262	18068
883.388	18117
883.514	18273
883.64	18327
883.766	18159
883.892	18068
884.018	18038
884.143	18209
884.269	18319
884.395	17954
884.52	17878
884.646	18045
884.772	17916
884.897	17840
885.023	17927
885.148	17950
885.274	18079
885.399	18038
885.524	17798
885.65	17893
885.775	17805
885.9	17745
886.025	17912
886.15	17802
886.275	17554
886.4	17558
886.525	17581
886.65	17436
886.775	17543
886.9	17627
887.025	17687
887.149	17520
887.274	17330
887.399	17174
887.523	17193
887.648	17174
887.773	17185
887.897	17326
888.021	17261
888.146	17105
888.27	17212
888.395	17296
888.519	17079
888.643	17220
888.767	17197
888.891	16987
889.015	16972
889.139	16991
889.263	16869
889.387	17033
889.511	17052
889.635	16995
889.759	16778
889.883	16835
890.006	16831
890.13	16923
890.254	16721
890.377	16786
890.501	16508
890.624	16630
890.748	16656
890.871	16512
890.995	16489
891.118	16325
891.241	16432
891.364	16474
891.488	16519
891.611	16497
891.734	16386
891.857	16561
891.98	16428
892.103	16447
892.226	16360
892.349	16382
892.471	16226
892.594	16272
892.717	16291
892.839	16337
892.962	16299
893.085	16424
893.207	16390
893.33	16112
893.452	16215
893.575	16322
893.697	16291
893.819	16417
893.941	16474
894.064	16421
894.186	16246
894.308	16131
894.43	16432
894.552	16500
894.674	16394
894.796	16207
894.918	16265
895.04	16200
895.161	16493
895.283	16276
895.405	16318
895.526	16261
895.648	16268
895.769	16367
895.891	16291
896.012	16329
896.134	16398
896.255	16299
896.376	16257
896.498	16402
896.619	16421
896.74	16360
896.861	16409
896.982	16809
897.103	16862
897.224	16558
897.345	16523
897.466	16485
897.587	16596
897.708	16622
897.828	16626
897.949	16565
898.07	16451
898.19	16558
898.311	16675
898.431	16596
898.552	16615
898.672	16854
898.792	16805
898.913	16713
899.033	16626
899.153	16443
899.273	16417
899.393	16322
899.513	16535
899.633	16436
899.753	16542
899.873	16519
899.993	16630
900.113	16504
900.232	16558
900.352	16470
900.472	16474
900.591	16261
900.711	16329
900.83	16276
900.95	16436
901.069	16413
901.189	16303
901.308	15998
901.427	15892
901.546	15926
901.665	16044
901.784	16071
901.904	15835
902.023	15728
902.141	15504
902.26	15545
902.379	15682
902.498	15450
902.617	15469
902.735	15580
902.854	15386
902.973	15412
903.091	15184
903.21	15131
903.328	15089
903.446	15070
903.565	14994
903.683	14941
903.801	14807
903.919	14933
904.038	14906
904.156	14731
904.274	14861
904.392	14674
904.51	14716
904.627	14682
904.745	14769
904.863	14811
904.981	14511
905.098	14446
905.216	14427
905.334	14400
905.451	14412
905.569	14324
905.686	14355
905.803	14393
905.921	14301
906.038	14381
906.155	14263
906.272	14081
906.389	14115
906.506	13944
906.623	13947
906.74	13928
906.857	13856
906.974	13734
907.091	13986
907.208	14005
907.324	13902
907.441	13822
907.557	13655
907.674	13689
907.79	13578
907.907	13601
908.023	13685
908.139	13738
908.256	13567
908.372	13613
908.488	13537
908.604	13403
908.72	13331
908.836	13354
908.952	13415
909.068	13285
909.184	13552
909.3	13327
909.415	13460
909.531	13369
909.647	13152
909.762	13251
909.878	13034
909.993	13122
910.108	13065
910.224	13069
910.339	13019
910.454	13027
910.57	12916
910.685	12791
910.8	13149
910.915	13160
911.03	12970
911.145	12783
911.259	12749
911.374	12814
911.489	12734
911.604	12631
911.718	12536
911.833	12585
911.947	12410
912.062	12334
912.176	12422
912.291	12479
912.405	12502
912.519	12639
912.633	12734
912.748	12566
912.862	12456
912.976	12350
913.09	12213
913.204	12296
913.318	12334
913.431	12460
913.545	12452
913.659	12395
913.772	12289
913.886	12216
914	12220
914.113	12357
914.226	12315
914.34	12327
914.453	12083
914.566	12235
914.68	12159
914.793	12171
914.906	12026
915.019	11908
915.132	11927
915.245	11863
915.358	11950
915.47	11946
915.583	12011
915.696	11961
915.809	12041
915.921	12095
916.034	11893
916.146	11942
916.259	11882
916.371	11908
916.483	11935
916.595	11802
916.708	11817
916.82	11863
916.932	11878
917.044	11893
917.156	11771
917.268	11691
917.38	11665
917.491	11707
917.603	11760
917.715	11817
917.826	11870
917.938	11646
918.049	11551
918.161	11794
918.272	11794
918.384	11745
918.495	11718
918.606	11512
918.717	11478
918.828	11589
918.939	11505
919.05	11524
919.161	11512
919.272	11341
919.383	11398
919.494	11543
919.604	11836
919.715	11505
919.826	11486
919.936	11425
920.047	11566
920.157	11493
920.267	11710
920.378	11512
920.488	11497
920.598	11760
920.708	11821
920.818	11638
920.928	11680
921.038	11821
921.148	11802
921.258	11524
921.368	11440
921.477	11299
921.587	11273
921.697	11185
921.806	11258
921.916	11181
922.025	10987
922.134	11003
922.244	10923
922.353	11060
922.462	10843
922.571	10869
922.68	10714
922.789	10656
922.898	10714
923.007	10630
923.116	10809
923.224	10687
923.333	10710
923.442	10622
923.55	10516
923.659	10584
923.767	10561
923.876	10504
923.984	10626
924.092	10489
924.201	10573
924.309	10531
924.417	10527
924.525	10516
924.633	10432
924.741	11140
924.849	10276
924.956	10584
925.064	10287
925.172	10215
925.279	10306
925.387	10227
925.494	10242
925.602	10455
925.709	10356
925.816	10150
925.924	10265
926.031	10314
926.138	10227
926.245	10337
926.352	10204
926.459	10295
926.566	10363
926.673	10188
926.779	10166
926.886	10078
926.993	9930
927.099	9960
927.206	9899
927.312	9956
927.419	10025
927.525	9983
927.631	10025
927.737	9876
927.843	9854
927.95	9728
928.056	9766
928.162	9846
928.267	9911
928.373	10432
928.479	9964
928.585	9656
928.69	9766
928.796	9846
928.901	9759
929.007	9603
929.112	9705
929.218	9675
929.323	9740
929.428	9663
929.533	9724
929.638	9534
929.743	9580
929.848	9633
929.953	9652
930.058	9431
930.163	9344
930.267	9389
930.372	9530
930.477	9332
930.581	9587
930.685	9389
930.79	9325
930.894	9302
930.998	9298
931.103	9382
931.207	9100
931.311	8944
931.415	8918
931.519	8743
931.623	8712
