Data from test_V78500241_3179.txt Node
Date: Fri Mar 25 14:55:51 CST 2022
User: usil
Spectrometer: V785-0024
Trigger mode: 0
Integration Time (sec): 4.000000E-1
Scans to average: 1
Nonlinearity correction enabled: false
Boxcar width: 0
Storing dark spectrum: false
XAxis mode: Wavelengths
Number of Pixels in Spectrum: 1024
>>>>>Begin Spectral Data<<<<<
801.071	22120
801.214	21861
801.356	21793
801.499	21583
801.641	21466
801.783	21401
801.926	21386
802.068	21370
802.211	21485
802.353	20918
802.496	21051
802.638	20933
802.78	20956
802.923	20804
803.065	20727
803.208	20739
803.35	20750
803.492	20918
803.635	20880
803.777	20811
803.919	20765
804.061	21116
804.204	20849
804.346	20689
804.488	20625
804.63	20625
804.773	20590
804.915	20667
805.057	20838
805.199	20682
805.341	20693
805.483	20731
805.626	20735
805.768	20632
805.91	20674
806.052	20644
806.194	20537
806.336	20682
806.478	20674
806.62	20606
806.762	20648
806.904	20762
807.046	21180
807.188	21043
807.33	21093
807.472	21051
807.614	21001
807.756	20975
807.898	20788
808.04	20769
808.182	20682
808.324	20708
808.465	20830
808.607	20864
808.749	20986
808.891	21081
809.033	21161
809.174	21066
809.316	21017
809.458	21005
809.6	20925
809.741	21116
809.883	21100
810.025	21154
810.166	21154
810.308	21180
810.45	21081
810.591	20986
810.733	20838
810.875	20804
811.016	20750
811.158	20625
811.299	20762
811.441	20807
811.582	20925
811.724	20731
811.865	20716
812.007	20651
812.148	20731
812.29	20792
812.431	20861
812.573	21135
812.714	21199
812.855	21180
812.997	21428
813.138	21610
813.279	21431
813.421	21287
813.562	21241
813.703	21036
813.845	20864
813.986	20632
814.127	20602
814.268	20362
814.41	20381
814.551	20358
814.692	20347
814.833	20278
814.974	20275
815.115	20301
815.256	20180
815.397	20187
815.539	20237
815.68	20122
815.821	19978
815.962	20020
816.103	19986
816.244	19887
816.385	19826
816.526	19628
816.666	19704
816.807	19502
816.948	19540
817.089	19693
817.23	19563
817.371	19369
817.512	19426
817.653	19537
817.793	19411
817.934	19457
818.075	19548
818.216	19495
818.356	19403
818.497	19202
818.638	19118
818.778	19156
818.919	19164
819.06	19118
819.2	19320
819.341	19384
819.481	19304
819.622	19430
819.762	19548
819.903	19613
820.043	19472
820.184	19384
820.324	19247
820.465	19457
820.605	19453
820.746	19468
820.886	19335
821.026	19381
821.167	19320
821.307	19537
821.447	19312
821.588	19289
821.728	19213
821.868	19034
822.008	18810
822.149	18852
822.289	18863
822.429	18585
822.569	18597
822.709	18407
822.849	18330
822.99	18403
823.13	18300
823.27	18213
823.41	18171
823.55	18102
823.69	18201
823.83	18087
823.97	18053
824.11	17969
824.25	17897
824.389	17836
824.529	17984
824.669	17859
824.809	17977
824.949	17984
825.089	17878
825.228	17870
825.368	17710
825.508	17699
825.648	17638
825.787	17802
825.927	17790
826.067	17600
826.206	17554
826.346	17611
826.485	17760
826.625	17623
826.765	17764
826.904	17646
827.044	17535
827.183	17436
827.323	17425
827.462	17395
827.601	17421
827.741	17299
827.88	17482
828.02	17265
828.159	17311
828.298	17296
828.437	17547
828.577	17387
828.716	17539
828.855	17181
828.994	17170
829.134	17159
829.273	17117
829.412	17083
829.551	17174
829.69	17220
829.829	17083
829.968	17265
830.107	17136
830.246	17242
830.385	17018
830.524	17041
830.663	16930
830.802	16904
830.941	16759
831.08	16672
831.219	16790
831.357	16759
831.496	16847
831.635	16675
831.774	16634
831.913	16618
832.051	16417
832.19	16470
832.329	16588
832.467	16417
832.606	16276
832.744	16352
832.883	16455
833.022	16329
833.16	16405
833.299	16519
833.437	16493
833.576	16428
833.714	16455
833.852	16596
833.991	16390
834.129	16596
834.267	16504
834.406	16554
834.544	16516
834.682	16474
834.821	16424
834.959	16645
835.097	16462
835.235	16519
835.373	16417
835.511	16440
835.65	16394
835.788	16402
835.926	16200
836.064	16219
836.202	16166
836.34	16459
836.478	16462
836.615	16421
836.753	16405
836.891	16375
837.029	16348
837.167	16318
837.305	16363
837.443	16306
837.58	16226
837.718	16417
837.856	16147
837.993	16348
838.131	16303
838.269	16169
838.406	16169
838.544	16116
838.681	15907
838.819	15865
838.956	15812
839.094	15850
839.231	15816
839.369	16013
839.506	16154
839.643	16147
839.781	15778
839.918	15759
840.055	15861
840.193	15736
840.33	15724
840.467	15876
840.604	15785
840.742	16010
840.879	15717
841.016	15724
841.153	15591
841.29	15915
841.427	15869
841.564	15793
841.701	15785
841.838	15743
841.975	15694
842.112	15808
842.249	15568
842.385	15572
842.522	15705
842.659	15633
842.796	15515
842.933	15572
843.069	15564
843.206	15580
843.343	15606
843.479	15641
843.616	15580
843.752	15450
843.889	15382
844.025	15568
844.162	15344
844.298	15492
844.435	15340
844.571	15313
844.708	15454
844.844	15545
844.98	15538
845.117	15511
845.253	15260
845.389	15287
845.525	15306
845.661	15302
845.798	15142
845.934	15207
846.07	15066
846.206	15310
846.342	15389
846.478	15161
846.614	15001
846.75	14914
846.886	14838
847.022	15043
847.158	14891
847.294	14941
847.429	14975
847.565	14979
847.701	15116
847.837	14629
847.972	14602
848.108	14857
848.244	14686
848.379	14465
848.515	14556
848.65	14492
848.786	14583
848.921	14568
849.057	14644
849.192	14571
849.328	14564
849.463	14613
849.598	14457
849.734	14541
849.869	14336
850.004	14385
850.14	14362
850.275	14328
850.41	14202
850.545	14286
850.68	14202
850.815	14347
850.95	14351
851.085	14530
851.22	14404
851.355	14313
851.49	14317
851.625	14309
851.76	14298
851.895	14138
852.03	14195
852.165	14320
852.299	14305
852.434	14366
852.569	14320
852.703	14358
852.838	14374
852.973	14434
853.107	14457
853.242	14309
853.376	14225
853.511	14138
853.645	14142
853.78	14278
853.914	14229
854.048	14191
854.183	14111
854.317	14092
854.451	14309
854.585	14111
854.72	14233
854.854	14248
854.988	14005
855.122	14153
855.256	14096
855.39	14142
855.524	14324
855.658	14218
855.792	14225
855.926	14237
856.06	14229
856.194	14256
856.327	14206
856.461	14172
856.595	14164
856.729	14172
856.862	14259
856.996	14168
857.13	14263
857.263	14351
857.397	14263
857.53	14142
857.664	14161
857.797	14336
857.931	14317
858.064	14092
858.197	14301
858.331	14161
858.464	14206
858.597	14065
858.731	14123
858.864	14164
858.997	14214
859.13	14237
859.263	14176
859.396	14237
859.529	14126
859.662	14149
859.795	14081
859.928	14191
860.061	14271
860.194	14240
860.327	14237
860.46	14111
860.592	14263
860.725	14320
860.858	14358
860.99	14191
861.123	14115
861.256	14046
861.388	14202
861.521	14941
861.653	14077
861.786	14012
861.918	14035
862.05	14050
862.183	14073
862.315	14153
862.447	14164
862.58	14145
862.712	14008
862.844	13978
862.976	14043
863.108	13917
863.24	14415
863.372	13944
863.504	13955
863.636	13917
863.768	14054
863.9	13921
864.032	13906
864.164	13944
864.296	13989
864.428	14024
864.559	14058
864.691	14096
864.823	13993
864.954	14012
865.086	13982
865.217	14031
865.349	13970
865.48	13898
865.612	14035
865.743	14126
865.875	13951
866.006	13868
866.137	14084
866.269	13947
866.4	13894
866.531	13845
866.662	13906
866.793	13890
866.924	13932
867.055	14012
867.186	13940
867.317	13883
867.448	13772
867.579	13879
867.71	13879
867.841	13852
867.972	13955
868.103	13906
868.233	13967
868.364	14050
868.495	13986
868.625	14199
868.756	14286
868.886	14103
869.017	14157
869.147	14351
869.278	14278
869.408	14244
869.539	14210
869.669	14278
869.799	14233
869.929	14267
870.06	14366
870.19	14552
870.32	14427
870.45	14511
870.58	14663
870.71	14659
870.84	14724
870.97	14556
871.1	14575
871.23	14785
871.36	14826
871.489	14746
871.619	14708
871.749	14750
871.879	14880
872.008	14849
872.138	14792
872.267	14785
872.397	14590
872.526	14541
872.656	14655
872.785	14678
872.915	14804
873.044	14838
873.173	14864
873.303	14838
873.432	14887
873.561	14929
873.69	14956
873.819	14830
873.948	14960
874.077	14910
874.206	14796
874.335	14902
874.464	15013
874.593	15218
874.722	15119
874.851	15154
874.979	15252
875.108	15268
875.237	15081
875.365	15058
875.494	15157
875.623	15169
875.751	15218
875.88	15176
876.008	15275
876.136	15386
876.265	15618
876.393	15732
876.521	15705
876.65	15701
876.778	15523
876.906	15610
877.034	15587
877.162	15545
877.29	15450
877.418	15671
877.546	15568
877.674	15599
877.802	15629
877.93	15568
878.058	15595
878.185	15401
878.313	15576
878.441	15648
878.568	15469
878.696	15511
878.824	15679
878.951	15682
879.079	15827
879.206	15975
879.333	15717
879.461	15698
879.588	15679
879.715	15774
879.842	15930
879.97	15595
880.097	15477
880.224	15408
880.351	15416
880.478	15386
880.605	15386
880.732	15443
880.859	15572
880.986	15420
881.112	15443
881.239	15283
881.366	15123
881.493	15165
881.619	15081
881.746	15142
881.872	15161
881.999	15062
882.125	15036
882.252	15184
882.378	15127
882.505	15283
882.631	15043
882.757	14921
882.883	14960
883.01	14902
883.136	14811
883.262	14769
883.388	14697
883.514	14921
883.64	15028
883.766	14899
883.892	14697
884.018	14739
884.143	14925
884.269	14960
884.395	14594
884.52	14568
884.646	14689
884.772	14530
884.897	14480
885.023	14720
885.148	14727
885.274	14712
885.399	14853
885.524	14598
885.65	14655
885.775	14659
885.9	14610
886.025	14758
886.15	14693
886.275	14446
886.4	14533
886.525	14659
886.65	14499
886.775	14545
886.9	14697
887.025	14895
887.149	14590
887.274	14476
887.399	14385
887.523	14446
887.648	14377
887.773	14332
887.897	14480
888.021	14606
888.146	14450
888.27	14579
888.395	14560
888.519	14488
888.643	14533
888.767	14568
888.891	14423
889.015	14309
889.139	14450
889.263	14275
889.387	14450
889.511	14518
889.635	14423
889.759	14385
889.883	14218
890.006	14412
890.13	14374
890.254	14157
890.377	14225
890.501	14176
890.624	14058
890.748	14168
890.871	13989
890.995	13928
891.118	13913
891.241	14024
891.364	13940
891.488	14157
891.611	14027
891.734	14050
891.857	14088
891.98	14016
892.103	14199
892.226	14073
892.349	13986
892.471	13799
892.594	14016
892.717	13944
892.839	14005
892.962	13989
893.085	14065
893.207	13982
893.33	13917
893.452	13894
893.575	14111
893.697	14039
893.819	14149
893.941	14237
894.064	14199
894.186	14043
894.308	13982
894.43	14199
894.552	14294
894.674	14119
894.796	13970
894.918	14050
895.04	14081
895.161	14199
895.283	14187
895.405	14039
895.526	14107
895.648	14039
895.769	14172
895.891	14180
896.012	14278
896.134	14191
896.255	14244
896.376	14164
896.498	14172
896.619	14256
896.74	14164
896.861	14183
896.982	14606
897.103	14701
897.224	14568
897.345	14442
897.466	14393
897.587	14488
897.708	14587
897.828	14594
897.949	14343
898.07	14244
898.19	14442
898.311	14632
898.431	14503
898.552	14450
898.672	14731
898.792	14644
898.913	14674
899.033	14465
899.153	14298
899.273	14309
899.393	14374
899.513	14499
899.633	14465
899.753	14427
899.873	14305
899.993	14465
900.113	14442
900.232	14412
900.352	14374
900.472	14332
900.591	14168
900.711	14351
900.83	14187
900.95	14362
901.069	14313
901.189	14187
901.308	13932
901.427	13803
901.546	13978
901.665	13997
901.784	13974
901.904	13814
902.023	13791
902.141	13491
902.26	13575
902.379	13453
902.498	13460
902.617	13419
902.735	13510
902.854	13521
902.973	13419
903.091	13187
903.21	13221
903.328	13297
903.446	13107
903.565	13156
903.683	13145
903.801	12993
903.919	13053
904.038	13031
904.156	12829
904.274	12894
904.392	12844
904.51	12973
904.627	12886
904.745	13061
904.863	12958
904.981	12749
905.098	12601
905.216	12582
905.334	12612
905.451	12566
905.569	12540
905.686	12601
905.803	12559
905.921	12346
906.038	12464
906.155	12338
906.272	12285
906.389	12319
906.506	12110
906.623	12220
906.74	12148
906.857	12102
906.974	12022
907.091	12167
907.208	12281
907.324	12159
907.441	12057
907.557	11965
907.674	11977
907.79	11916
907.907	11859
908.023	11912
908.139	11939
908.256	11889
908.372	11828
908.488	11783
908.604	11691
908.72	11619
908.836	11668
908.952	11630
909.068	11653
909.184	11874
909.3	11703
909.415	11710
909.531	11718
909.647	11474
909.762	11345
909.878	11414
909.993	11444
910.108	11516
910.224	11398
910.339	11376
910.454	11337
910.57	11273
910.685	11284
910.8	11646
910.915	11459
911.03	11311
911.145	11124
911.259	11105
911.374	11143
911.489	11067
911.604	11113
911.718	10930
911.833	10946
911.947	10858
912.062	10797
912.176	10904
912.291	11010
912.405	10923
912.519	11086
912.633	11086
912.748	10991
912.862	10968
912.976	10809
913.09	10706
913.204	10755
913.318	10843
913.431	10900
913.545	10831
913.659	10900
913.772	10877
913.886	10729
914	10554
914.113	10744
914.226	10873
914.34	10721
914.453	10611
914.566	10729
914.68	10637
914.793	10584
914.906	10466
915.019	10329
915.132	10310
915.245	10325
915.358	10447
915.47	10451
915.583	10440
915.696	10516
915.809	10508
915.921	10615
916.034	10363
916.146	10405
916.259	10348
916.371	10443
916.483	10462
916.595	10280
916.708	10341
916.82	10382
916.932	10291
917.044	10310
917.156	10303
917.268	10169
917.38	10276
917.491	10272
917.603	10310
917.715	10360
917.826	10402
917.938	10196
918.049	10166
918.161	10276
918.272	10382
918.384	10424
918.495	10192
918.606	10200
918.717	10078
918.828	10169
918.939	10162
919.05	10040
919.161	10143
919.272	9975
919.383	10021
919.494	10207
919.604	10363
919.715	10173
919.826	10055
919.936	10131
920.047	10166
920.157	10234
920.267	10295
920.378	10181
920.488	10139
920.598	10390
920.708	10493
920.818	10356
920.928	10348
921.038	10565
921.148	10500
921.258	10204
921.368	10139
921.477	9968
921.587	10055
921.697	9983
921.806	10048
921.916	9838
922.025	9736
922.134	9751
922.244	9637
922.353	9789
922.462	9656
922.571	9504
922.68	9485
922.789	9439
922.898	9424
923.007	9329
923.116	9523
923.224	9340
923.333	9412
923.442	9351
923.55	9245
923.659	9306
923.767	9454
923.876	9203
923.984	9378
924.092	9173
924.201	9245
924.309	9313
924.417	9287
924.525	9245
924.633	9211
924.741	10249
924.849	9047
924.956	9222
925.064	9020
925.172	8986
925.279	9032
925.387	9089
925.494	9051
925.602	9135
925.709	9081
925.816	9005
925.924	9055
926.031	9104
926.138	9066
926.245	9188
926.352	9062
926.459	9127
926.566	9211
926.673	9093
926.779	8925
926.886	8899
926.993	8864
927.099	8823
927.206	8716
927.312	8762
927.419	8834
927.525	8788
927.631	8830
927.737	8667
927.843	8701
927.95	8533
928.056	8686
928.162	8632
928.267	8826
928.373	9268
928.479	8796
928.585	8556
928.69	8682
928.796	8686
928.901	8598
929.007	8454
929.112	8621
929.218	8640
929.323	8495
929.428	8495
929.533	8632
929.638	8415
929.743	8503
929.848	8492
929.953	8434
930.058	8393
930.163	8259
930.267	8317
930.372	8423
930.477	8358
930.581	8492
930.685	8351
930.79	8279
930.894	8244
930.998	8176
931.103	8404
931.207	8062
931.311	7871
931.415	7959
931.519	7719
931.623	7727
