Data from test_V78500241_2274.txt Node
Date: Fri Mar 25 14:49:32 CST 2022
User: usil
Spectrometer: V785-0024
Trigger mode: 0
Integration Time (sec): 4.000000E-1
Scans to average: 1
Nonlinearity correction enabled: false
Boxcar width: 0
Storing dark spectrum: false
XAxis mode: Wavelengths
Number of Pixels in Spectrum: 1024
>>>>>Begin Spectral Data<<<<<
801.071	22238
801.214	22124
801.356	21964
801.499	21660
801.641	21637
801.783	21530
801.926	21652
802.068	21561
802.211	21466
802.353	21283
802.496	21074
802.638	20956
802.78	20918
802.923	20990
803.065	20880
803.208	20899
803.35	20933
803.492	21039
803.635	20948
803.777	20868
803.919	20925
804.061	21173
804.204	20994
804.346	20857
804.488	20746
804.63	20876
804.773	20872
804.915	20842
805.057	20883
805.199	20762
805.341	20887
805.483	20902
805.626	20765
805.768	20708
805.91	20864
806.052	20785
806.194	20853
806.336	20902
806.478	20705
806.62	20838
806.762	20948
806.904	20921
807.046	21188
807.188	21188
807.33	21214
807.472	21066
807.614	21005
807.756	21058
807.898	20895
808.04	20956
808.182	20861
808.324	20971
808.465	20994
808.607	21116
808.749	21268
808.891	21294
809.033	21447
809.174	21256
809.316	21192
809.458	21279
809.6	21077
809.741	21233
809.883	21252
810.025	21500
810.166	21397
810.308	21203
810.45	21256
810.591	21180
810.733	20952
810.875	21123
811.016	20861
811.158	20895
811.299	21013
811.441	21062
811.582	21127
811.724	20986
811.865	20876
812.007	21001
812.148	20906
812.29	20963
812.431	21192
812.573	21287
812.714	21374
812.855	21458
812.997	21488
813.138	21660
813.279	21557
813.421	21469
813.562	21310
813.703	21264
813.845	21104
813.986	20887
814.127	20602
814.268	20743
814.41	20583
814.551	20522
814.692	20583
814.833	20415
814.974	20454
815.115	20480
815.256	20396
815.397	20362
815.539	20400
815.68	20237
815.821	20180
815.962	20324
816.103	20176
816.244	20157
816.385	20081
816.526	20050
816.666	19818
816.807	19723
816.948	19723
817.089	19765
817.23	19666
817.371	19605
817.512	19609
817.653	19575
817.793	19567
817.934	19582
818.075	19628
818.216	19681
818.356	19616
818.497	19537
818.638	19289
818.778	19384
818.919	19445
819.06	19419
819.2	19476
819.341	19506
819.481	19483
819.622	19696
819.762	19814
819.903	19719
820.043	19738
820.184	19624
820.324	19567
820.465	19590
820.605	19765
820.746	19582
820.886	19480
821.026	19544
821.167	19571
821.307	19639
821.447	19518
821.588	19392
821.728	19327
821.868	19110
822.008	19004
822.149	18977
822.289	18928
822.429	18760
822.569	18764
822.709	18738
822.849	18566
822.99	18563
823.13	18502
823.27	18376
823.41	18391
823.55	18304
823.69	18308
823.83	18319
823.97	18239
824.11	18087
824.25	18019
824.389	18152
824.529	18136
824.669	18209
824.809	18174
824.949	18136
825.089	18262
825.228	17999
825.368	17965
825.508	17961
825.648	17920
825.787	17916
825.927	17882
826.067	17843
826.206	17874
826.346	17927
826.485	17874
826.625	17908
826.765	17969
826.904	17889
827.044	17592
827.183	17619
827.323	17627
827.462	17535
827.601	17554
827.741	17474
827.88	17528
828.02	17463
828.159	17463
828.298	17589
828.437	17497
828.577	17551
828.716	17714
828.855	17558
828.994	17337
829.134	17334
829.273	17322
829.412	17254
829.551	17223
829.69	17303
829.829	17315
829.968	17288
830.107	17254
830.246	17376
830.385	17200
830.524	17208
830.663	17246
830.802	17086
830.941	16854
831.08	16862
831.219	16946
831.357	16999
831.496	17029
831.635	16965
831.774	16927
831.913	16850
832.051	16573
832.19	16698
832.329	16679
832.467	16634
832.606	16565
832.744	16565
832.883	16580
833.022	16527
833.16	16634
833.299	16653
833.437	16596
833.576	16603
833.714	16634
833.852	16596
833.991	16622
834.129	16706
834.267	16702
834.406	16645
834.544	16733
834.682	16626
834.821	16516
834.959	16698
835.097	16561
835.235	16615
835.373	16710
835.511	16573
835.65	16569
835.788	16588
835.926	16413
836.064	16398
836.202	16272
836.34	16455
836.478	16554
836.615	16599
836.753	16558
836.891	16660
837.029	16554
837.167	16527
837.305	16519
837.443	16344
837.58	16424
837.718	16478
837.856	16409
837.993	16303
838.131	16428
838.269	16223
838.406	16398
838.544	16318
838.681	16124
838.819	16082
838.956	15968
839.094	15861
839.231	15964
839.369	16185
839.506	16306
839.643	16249
839.781	15998
839.918	15945
840.055	15903
840.193	15926
840.33	15937
840.467	15991
840.604	16067
840.742	16154
840.879	15823
841.016	15880
841.153	15842
841.29	15979
841.427	15945
841.564	16071
841.701	15899
841.838	15945
841.975	15816
842.112	15934
842.249	15694
842.385	15629
842.522	15869
842.659	15724
842.796	15709
842.933	15785
843.069	15580
843.206	15667
843.343	15800
843.479	15717
843.616	15812
843.752	15401
843.889	15435
844.025	15694
844.162	15397
844.298	15580
844.435	15420
844.571	15553
844.708	15477
844.844	15660
844.98	15774
845.117	15587
845.253	15439
845.389	15359
845.525	15408
845.661	15428
845.798	15302
845.934	15340
846.07	15325
846.206	15378
846.342	15382
846.478	15310
846.614	15005
846.75	15017
846.886	15066
847.022	15043
847.158	15077
847.294	14979
847.429	15043
847.565	15005
847.701	15344
847.837	14777
847.972	14731
848.108	14853
848.244	14853
848.379	14739
848.515	14663
848.65	14518
848.786	14667
848.921	14667
849.057	14773
849.192	14777
849.328	14701
849.463	14708
849.598	14678
849.734	14613
849.869	14541
850.004	14404
850.14	14488
850.275	14499
850.41	14415
850.545	14442
850.68	14499
850.815	14492
850.95	14465
851.085	14610
851.22	14651
851.355	14461
851.49	14457
851.625	14438
851.76	14362
851.895	14336
852.03	14320
852.165	14385
852.299	14457
852.434	14537
852.569	14484
852.703	14438
852.838	14526
852.973	14693
853.107	14594
853.242	14385
853.376	14404
853.511	14275
853.645	14347
853.78	14488
853.914	14343
854.048	14309
854.183	14229
854.317	14275
854.451	14473
854.585	14332
854.72	14362
854.854	14377
854.988	14317
855.122	14313
855.256	14206
855.39	14271
855.524	14358
855.658	14419
855.792	14278
855.926	14404
856.06	14442
856.194	14415
856.327	14336
856.461	14271
856.595	14305
856.729	14259
856.862	14366
856.996	14442
857.13	14298
857.263	14351
857.397	14499
857.53	14328
857.664	14400
857.797	14446
857.931	14381
858.064	14317
858.197	14530
858.331	14339
858.464	14286
858.597	14267
858.731	14301
858.864	14347
858.997	14286
859.13	14286
859.263	14347
859.396	14450
859.529	14320
859.662	14290
859.795	14355
859.928	14328
860.061	14492
860.194	14484
860.327	14294
860.46	14324
860.592	14507
860.725	14511
860.858	14393
860.99	14294
861.123	14278
861.256	14225
861.388	14305
861.521	14906
861.653	14172
861.786	14145
861.918	14237
862.05	14138
862.183	14240
862.315	14267
862.447	14366
862.58	14301
862.712	14119
862.844	14016
862.976	14142
863.108	14096
863.24	14549
863.372	13993
863.504	14050
863.636	14111
863.768	14088
863.9	14103
864.032	14016
864.164	13940
864.296	14119
864.428	14256
864.559	14218
864.691	14210
864.823	14172
864.954	14210
865.086	14081
865.217	14142
865.349	14088
865.48	14084
865.612	14115
865.743	14278
865.875	14164
866.006	14050
866.137	14111
866.269	14050
866.4	14107
866.531	14096
866.662	13974
866.793	14043
866.924	14187
867.055	14073
867.186	14065
867.317	14008
867.448	14050
867.579	14054
867.71	14043
867.841	13986
867.972	14088
868.103	14111
868.233	14115
868.364	14164
868.495	14191
868.625	14290
868.756	14294
868.886	14172
869.017	14248
869.147	14427
869.278	14434
869.408	14381
869.539	14248
869.669	14374
869.799	14427
869.929	14492
870.06	14324
870.19	14606
870.32	14552
870.45	14731
870.58	14674
870.71	14785
870.84	14720
870.97	14670
871.1	14697
871.23	14902
871.36	14811
871.489	14735
871.619	14899
871.749	14933
871.879	15013
872.008	14998
872.138	14986
872.267	14849
872.397	14758
872.526	14746
872.656	14659
872.785	14769
872.915	14986
873.044	15013
873.173	14906
873.303	14952
873.432	14952
873.561	15001
873.69	14994
873.819	14891
873.948	15089
874.077	15009
874.206	14998
874.335	14906
874.464	15100
874.593	15245
874.722	15154
874.851	15332
874.979	15340
875.108	15363
875.237	15332
875.365	15161
875.494	15207
875.623	15332
875.751	15245
875.88	15382
876.008	15466
876.136	15443
876.265	15728
876.393	15934
876.521	15766
876.65	15819
876.778	15800
876.906	15713
877.034	15572
877.162	15720
877.29	15717
877.418	15637
877.546	15663
877.674	15637
877.802	15720
877.93	15641
878.058	15686
878.185	15485
878.313	15660
878.441	15709
878.568	15610
878.696	15606
878.824	15751
878.951	15842
879.079	15991
879.206	16021
879.333	15998
879.461	15755
879.588	15720
879.715	15979
879.842	16048
879.97	15720
880.097	15587
880.224	15466
880.351	15671
880.478	15553
880.605	15538
880.732	15534
880.859	15732
880.986	15572
881.112	15686
881.239	15507
881.366	15389
881.493	15252
881.619	15180
881.746	15119
881.872	15180
881.999	15226
882.125	15226
882.252	15230
882.378	15294
882.505	15424
882.631	15150
882.757	15032
882.883	14933
883.01	15089
883.136	14971
883.262	14800
883.388	14880
883.514	15116
883.64	15097
883.766	14895
883.892	14788
884.018	14880
884.143	15062
884.269	15192
884.395	14807
884.52	14777
884.646	14716
884.772	14644
884.897	14629
885.023	14701
885.148	14807
885.274	14819
885.399	14800
885.524	14758
885.65	14826
885.775	14727
885.9	14750
886.025	14826
886.15	14758
886.275	14716
886.4	14674
886.525	14606
886.65	14686
886.775	14655
886.9	14823
887.025	14921
887.149	14727
887.274	14632
887.399	14492
887.523	14503
887.648	14522
887.773	14457
887.897	14606
888.021	14613
888.146	14514
888.27	14610
888.395	14636
888.519	14587
888.643	14606
888.767	14571
888.891	14549
889.015	14434
889.139	14442
889.263	14366
889.387	14522
889.511	14610
889.635	14533
889.759	14317
889.883	14385
890.006	14434
890.13	14533
890.254	14358
890.377	14324
890.501	14168
890.624	14183
890.748	14298
890.871	14263
890.995	14062
891.118	14103
891.241	14123
891.364	14134
891.488	14176
891.611	14126
891.734	14176
891.857	14145
891.98	14206
892.103	14237
892.226	14123
892.349	14126
892.471	13967
892.594	14107
892.717	14130
892.839	14199
892.962	14115
893.085	14100
893.207	14134
893.33	14084
893.452	14115
893.575	14229
893.697	14001
893.819	14278
893.941	14358
894.064	14275
894.186	13989
894.308	14035
894.43	14252
894.552	14259
894.674	14263
894.796	14161
894.918	14149
895.04	14168
895.161	14305
895.283	14252
895.405	14180
895.526	14145
895.648	14313
895.769	14202
895.891	14282
896.012	14332
896.134	14267
896.255	14233
896.376	14374
896.498	14210
896.619	14332
896.74	14275
896.861	14393
896.982	14602
897.103	14773
897.224	14549
897.345	14537
897.466	14476
897.587	14495
897.708	14727
897.828	14682
897.949	14488
898.07	14419
898.19	14511
898.311	14716
898.431	14590
898.552	14648
898.672	14716
898.792	14765
898.913	14693
899.033	14625
899.153	14469
899.273	14400
899.393	14465
899.513	14499
899.633	14469
899.753	14606
899.873	14419
899.993	14518
900.113	14495
900.232	14480
900.352	14393
900.472	14389
900.591	14240
900.711	14457
900.83	14419
900.95	14415
901.069	14495
901.189	14324
901.308	14134
901.427	14073
901.546	14035
901.665	14096
901.784	14069
901.904	14069
902.023	13780
902.141	13594
902.26	13628
902.379	13674
902.498	13613
902.617	13567
902.735	13616
902.854	13670
902.973	13521
903.091	13327
903.21	13312
903.328	13388
903.446	13301
903.565	13217
903.683	13175
903.801	13080
903.919	13110
904.038	13057
904.156	13034
904.274	13110
904.392	13012
904.51	12981
904.627	13000
904.745	13061
904.863	13088
904.981	12738
905.098	12665
905.216	12700
905.334	12772
905.451	12692
905.569	12540
905.686	12719
905.803	12620
905.921	12498
906.038	12582
906.155	12555
906.272	12460
906.389	12460
906.506	12334
906.623	12258
906.74	12281
906.857	12102
906.974	12182
907.091	12384
907.208	12311
907.324	12289
907.441	12129
907.557	12083
907.674	11946
907.79	11916
907.907	11984
908.023	12022
908.139	12011
908.256	11980
908.372	12007
908.488	11912
908.604	11809
908.72	11695
908.836	11771
908.952	11760
909.068	11840
909.184	11885
909.3	11714
909.415	11798
909.531	11779
909.647	11585
909.762	11600
909.878	11600
909.993	11532
910.108	11505
910.224	11501
910.339	11623
910.454	11398
910.57	11406
910.685	11417
910.8	11532
910.915	11539
911.03	11516
911.145	11337
911.259	11197
911.374	11258
911.489	11193
911.604	11113
911.718	11006
911.833	11010
911.947	10843
912.062	10927
912.176	10953
912.291	11018
912.405	11086
912.519	11231
912.633	11277
912.748	11124
912.862	10999
912.976	10835
913.09	10740
913.204	10850
913.318	10877
913.431	11045
913.545	11006
913.659	11018
913.772	10911
913.886	10721
914	10755
914.113	10908
914.226	10911
914.34	10896
914.453	10687
914.566	10831
914.68	10683
914.793	10706
914.906	10561
915.019	10478
915.132	10440
915.245	10424
915.358	10466
915.47	10523
915.583	10531
915.696	10554
915.809	10698
915.921	10637
916.034	10504
916.146	10531
916.259	10367
916.371	10561
916.483	10523
916.595	10447
916.708	10451
916.82	10462
916.932	10459
917.044	10375
917.156	10417
917.268	10360
917.38	10367
917.491	10322
917.603	10382
917.715	10470
917.826	10421
917.938	10318
918.049	10169
918.161	10299
918.272	10504
918.384	10455
918.495	10379
918.606	10265
918.717	10128
918.828	10227
918.939	10272
919.05	10082
919.161	10200
919.272	10071
919.383	10147
919.494	10249
919.604	10402
919.715	10196
919.826	10207
919.936	10200
920.047	10363
920.157	10284
920.267	10512
920.378	10276
920.488	10223
920.598	10432
920.708	10459
920.818	10379
920.928	10493
921.038	10584
921.148	10538
921.258	10227
921.368	10234
921.477	10109
921.587	10120
921.697	9979
921.806	10135
921.916	10006
922.025	9838
922.134	9766
922.244	9793
922.353	9835
922.462	9637
922.571	9641
922.68	9500
922.789	9469
922.898	9492
923.007	9420
923.116	9481
923.224	9507
923.333	9469
923.442	9355
923.55	9321
923.659	9405
923.767	9405
923.876	9279
923.984	9367
924.092	9317
924.201	9367
924.309	9348
924.417	9336
924.525	9321
924.633	9272
924.741	10322
924.849	9089
924.956	9283
925.064	9097
925.172	9062
925.279	9081
925.387	9135
925.494	9142
925.602	9256
925.709	9199
925.816	9070
925.924	9142
926.031	9211
926.138	9165
926.245	9150
926.352	9066
926.459	9268
926.566	9222
926.673	9039
926.779	9051
926.886	9032
926.993	8800
927.099	8868
927.206	8880
927.312	8861
927.419	8914
927.525	8849
927.631	8937
927.737	8823
927.843	8746
927.95	8644
928.056	8826
928.162	8735
928.267	8815
928.373	9287
928.479	8883
928.585	8549
928.69	8735
928.796	8743
928.901	8674
929.007	8514
929.112	8632
929.218	8629
929.323	8571
929.428	8526
929.533	8689
929.638	8476
929.743	8492
929.848	8617
929.953	8549
930.058	8492
930.163	8244
930.267	8355
930.372	8530
930.477	8355
930.581	8537
930.685	8450
930.79	8332
930.894	8320
930.998	8240
931.103	8374
931.207	8073
931.311	8027
931.415	7959
931.519	7803
931.623	7784
