Data from test_V78500241_664.txt Node
Date: Fri Mar 25 14:38:20 CST 2022
User: usil
Spectrometer: V785-0024
Trigger mode: 0
Integration Time (sec): 4.000000E-1
Scans to average: 1
Nonlinearity correction enabled: false
Boxcar width: 0
Storing dark spectrum: false
XAxis mode: Wavelengths
Number of Pixels in Spectrum: 1024
>>>>>Begin Spectral Data<<<<<
801.071	28116
801.214	28002
801.356	27667
801.499	27637
801.641	27641
801.783	27439
801.926	27633
802.068	27485
802.211	27287
802.353	27237
802.496	27005
802.638	26963
802.78	27020
802.923	26921
803.065	27032
803.208	26842
803.35	27154
803.492	27112
803.635	27150
803.777	27032
803.919	27310
804.061	27466
804.204	27287
804.346	27184
804.488	27184
804.63	27066
804.773	27279
804.915	27329
805.057	27481
805.199	27340
805.341	27507
805.483	27739
805.626	27694
805.768	27682
805.91	27956
806.052	27907
806.194	28063
806.336	28375
806.478	28428
806.62	28557
806.762	28896
806.904	29197
807.046	29821
807.188	29958
807.33	30467
807.472	31042
807.614	31723
807.756	32522
807.898	33572
808.04	35018
808.182	36981
808.324	39378
808.465	42289
808.607	45321
808.749	48117
808.891	49928
809.033	49997
809.174	48289
809.316	45728
809.458	42388
809.6	39154
809.741	36563
809.883	34367
810.025	33173
810.166	32081
810.308	31278
810.45	30608
810.591	30129
810.733	29592
810.875	29258
811.016	28927
811.158	28740
811.299	28752
811.441	28683
811.582	28401
811.724	28249
811.865	27975
812.007	27979
812.148	27949
812.29	27785
812.431	28010
812.573	28013
812.714	28013
812.855	28078
812.997	28139
813.138	28230
813.279	28051
813.421	28093
813.562	27956
813.703	27644
813.845	27564
813.986	27287
814.127	27135
814.268	26819
814.41	26861
814.551	26868
814.692	26914
814.833	26636
814.974	26575
815.115	26682
815.256	26537
815.397	26537
815.539	26537
815.68	26362
815.821	26233
815.962	26214
816.103	26404
816.244	26221
816.385	26138
816.526	26043
816.666	25791
816.807	25715
816.948	25655
817.089	25677
817.23	25601
817.371	25495
817.512	25575
817.653	25662
817.793	25510
817.934	25510
818.075	25643
818.216	25510
818.356	25537
818.497	25316
818.638	25221
818.778	25137
818.919	25228
819.06	25266
819.2	25244
819.341	25320
819.481	25434
819.622	25628
819.762	25826
819.903	25643
820.043	25537
820.184	25582
820.324	25563
820.465	25499
820.605	25476
820.746	25358
820.886	25122
821.026	25358
821.167	25308
821.307	25213
821.447	25198
821.588	25031
821.728	24992
821.868	24913
822.008	24726
822.149	24650
822.289	24604
822.429	24304
822.569	24350
822.709	24296
822.849	23996
822.99	24182
823.13	24076
823.27	24083
823.41	23832
823.55	23851
823.69	24030
823.83	23855
823.97	23745
824.11	23668
824.25	23653
824.389	23714
824.529	23691
824.669	23646
824.809	23752
824.949	23687
825.089	23585
825.228	23642
825.368	23463
825.508	23493
825.648	23501
825.787	23535
825.927	23516
826.067	23463
826.206	23410
826.346	23433
826.485	23303
826.625	23406
826.765	23440
826.904	23436
827.044	23162
827.183	23079
827.323	23067
827.462	23048
827.601	23044
827.741	23003
827.88	22976
828.02	22976
828.159	23033
828.298	22930
828.437	23090
828.577	22858
828.716	23185
828.855	22843
828.994	22725
829.134	22599
829.273	22694
829.412	22660
829.551	22755
829.69	22717
829.829	22790
829.968	22725
830.107	22721
830.246	22672
830.385	22592
830.524	22611
830.663	22504
830.802	22497
830.941	22303
831.08	22257
831.219	22379
831.357	22379
831.496	22519
831.635	22356
831.774	22219
831.913	22211
832.051	22128
832.19	22173
832.329	22162
832.467	22188
832.606	22177
832.744	22036
832.883	22246
833.022	22173
833.16	22371
833.299	22424
833.437	22577
833.576	22679
833.714	22877
833.852	22980
833.991	23136
834.129	23147
834.267	23200
834.406	23197
834.544	23140
834.682	22896
834.821	22972
834.959	22835
835.097	22542
835.235	22409
835.373	22527
835.511	22360
835.65	22234
835.788	22112
835.926	21819
836.064	21873
836.202	21831
836.34	21949
836.478	21945
836.615	21819
836.753	21793
836.891	21983
837.029	21789
837.167	21766
837.305	21709
837.443	21652
837.58	21637
837.718	21724
837.856	21648
837.993	21500
838.131	21705
838.269	21519
838.406	21523
838.544	21488
838.681	21249
838.819	21230
838.956	21123
839.094	21085
839.231	21104
839.369	21173
839.506	21466
839.643	21367
839.781	21051
839.918	21051
840.055	21005
840.193	21039
840.33	21108
840.467	20819
840.604	20971
840.742	21252
840.879	20819
841.016	20929
841.153	21047
841.29	21085
841.427	21058
841.564	21055
841.701	20990
841.838	20971
841.975	20902
842.112	20868
842.249	20800
842.385	20735
842.522	21043
842.659	20826
842.796	20743
842.933	20792
843.069	20720
843.206	20906
843.343	20979
843.479	20918
843.616	20762
843.752	20899
843.889	20788
844.025	20982
844.162	20929
844.298	21123
844.435	21218
844.571	21329
844.708	21728
844.844	21979
844.98	22402
845.117	23052
845.253	23988
845.389	25852
845.525	29212
845.661	34752
845.798	41337
845.934	46139
846.07	48167
846.206	46672
846.342	42121
846.478	35554
846.614	29984
846.75	26374
846.886	24117
847.022	22866
847.158	22025
847.294	21393
847.429	21032
847.565	20830
847.701	20864
847.837	20446
847.972	20183
848.108	20119
848.244	20210
848.379	19932
848.515	19993
848.65	19799
848.786	19757
848.921	19799
849.057	19879
849.192	19791
849.328	19708
849.463	19620
849.598	19575
849.734	19616
849.869	19559
850.004	19426
850.14	19392
850.275	19415
850.41	19320
850.545	19392
850.68	19331
850.815	19396
850.95	19373
851.085	19480
851.22	19491
851.355	19206
851.49	19365
851.625	19331
851.76	19274
851.895	19240
852.03	19194
852.165	19285
852.299	19464
852.434	19525
852.569	19422
852.703	19392
852.838	19529
852.973	19601
853.107	19655
853.242	19434
853.376	19373
853.511	19263
853.645	19362
853.78	19582
853.914	19464
854.048	19445
854.183	19635
854.317	19525
854.451	19795
854.585	19575
854.72	19502
854.854	19556
854.988	19468
855.122	19449
855.256	19320
855.39	19377
855.524	19384
855.658	19362
855.792	19411
855.926	19285
856.06	19312
856.194	19301
856.327	19126
856.461	19198
856.595	19148
856.729	19114
856.862	19282
856.996	19141
857.13	19304
857.263	19289
857.397	19266
857.53	19168
857.664	19148
857.797	19209
857.931	19190
858.064	19183
858.197	19240
858.331	19069
858.464	19057
858.597	19000
858.731	19084
858.864	19019
858.997	18916
859.13	19168
859.263	19160
859.396	19171
859.529	19080
859.662	19000
859.795	19008
859.928	18951
860.061	19209
860.194	19122
860.327	19084
860.46	19031
860.592	19114
860.725	19129
860.858	19160
860.99	19019
861.123	18859
861.256	18848
861.388	18985
861.521	19689
861.653	18833
861.786	18829
861.918	18833
862.05	18901
862.183	18977
862.315	18897
862.447	19027
862.58	18916
862.712	18715
862.844	18658
862.976	18749
863.108	18730
863.24	18981
863.372	18623
863.504	18547
863.636	18677
863.768	18719
863.9	18650
864.032	18540
864.164	18559
864.296	18593
864.428	18726
864.559	18821
864.691	18578
864.823	18631
864.954	18776
865.086	18673
865.217	18547
865.349	18490
865.48	18700
865.612	18635
865.743	18604
865.875	18635
866.006	18384
866.137	18559
866.269	18574
866.4	18601
866.531	18528
866.662	18498
866.793	18502
866.924	18509
867.055	18578
867.186	18475
867.317	18437
867.448	18361
867.579	18570
867.71	18464
867.841	18467
867.972	18509
868.103	18498
868.233	18555
868.364	18517
868.495	18597
868.625	18681
868.756	18924
868.886	18703
869.017	18730
869.147	18859
869.278	18837
869.408	18806
869.539	18696
869.669	18871
869.799	18840
869.929	18993
870.06	18901
870.19	19072
870.32	19091
870.45	19148
870.58	19209
870.71	19327
870.84	19381
870.97	19183
871.1	19247
871.23	19441
871.36	19426
871.489	19373
871.619	19472
871.749	19430
871.879	19438
872.008	19693
872.138	19510
872.267	19563
872.397	19400
872.526	19320
872.656	19426
872.785	19502
872.915	19712
873.044	19723
873.173	19704
873.303	19609
873.432	19582
873.561	19841
873.69	19826
873.819	19791
873.948	19856
874.077	19875
874.206	19818
874.335	19909
874.464	19932
874.593	20282
874.722	20126
874.851	20183
874.979	20248
875.108	20396
875.237	20290
875.365	20286
875.494	20442
875.623	20503
875.751	20412
875.88	20537
876.008	20651
876.136	20617
876.265	21032
876.393	21211
876.521	21211
876.65	21127
876.778	21291
876.906	21279
877.034	21275
877.162	21389
877.29	21332
877.418	21587
877.546	21648
877.674	21789
877.802	21873
877.93	22112
878.058	22040
878.185	22287
878.313	22455
878.441	22831
878.568	23193
878.696	23779
878.824	24669
878.951	25590
879.079	27207
879.206	29033
879.333	31129
879.461	32625
879.588	33694
879.715	33800
879.842	32876
879.97	31194
880.097	28991
880.224	27431
880.351	26484
880.478	25567
880.605	24977
880.732	24563
880.859	24547
880.986	24296
881.112	24281
881.239	23870
881.366	23798
881.493	23668
881.619	23592
881.746	23638
881.872	23623
881.999	23832
882.125	23824
882.252	23973
882.378	23824
882.505	23920
882.631	23836
882.757	23748
882.883	23767
883.01	23710
883.136	23737
883.262	23585
883.388	23512
883.514	23642
883.64	23748
883.766	23585
883.892	23608
884.018	23452
884.143	23516
884.269	23695
884.395	23395
884.52	23509
884.646	23490
884.772	23318
884.897	23410
885.023	23471
885.148	23398
885.274	23345
885.399	23284
885.524	23212
885.65	23109
885.775	22938
885.9	22824
886.025	22812
886.15	22626
886.275	22306
886.4	22109
886.525	22147
886.65	21953
886.775	21778
886.9	21846
887.025	21941
887.149	21374
887.274	21408
887.399	21264
887.523	21203
887.648	20994
887.773	20944
887.897	21039
888.021	20963
888.146	20689
888.27	20781
888.395	20754
888.519	20716
888.643	20556
888.767	20663
888.891	20454
889.015	20259
889.139	20305
889.263	20138
889.387	20309
889.511	20313
889.635	20244
889.759	20115
889.883	20073
890.006	20016
890.13	20134
890.254	19788
890.377	19833
890.501	19605
890.624	19616
890.748	19731
890.871	19601
890.995	19381
891.118	19274
891.241	19457
891.364	19301
891.488	19495
891.611	19289
891.734	19209
891.857	19285
891.98	19304
892.103	19187
892.226	19278
892.349	19118
892.471	18863
892.594	19046
892.717	19008
892.839	18882
892.962	18897
893.085	18989
893.207	18962
893.33	18814
893.452	18753
893.575	18882
893.697	18745
893.819	18943
893.941	18867
894.064	18837
894.186	18749
894.308	18650
894.43	18776
894.552	18753
894.674	18768
894.796	18483
894.918	18555
895.04	18570
895.161	18669
895.283	18627
895.405	18471
895.526	18494
895.648	18494
895.769	18490
895.891	18589
896.012	18547
896.134	18471
896.255	18452
896.376	18494
896.498	18342
896.619	18525
896.74	18467
896.861	18525
896.982	18654
897.103	18875
897.224	18650
897.345	18532
897.466	18525
897.587	18646
897.708	18768
897.828	18601
897.949	18506
898.07	18540
898.19	18540
898.311	18806
898.431	18692
898.552	18623
898.672	18639
898.792	18639
898.913	18540
899.033	18452
899.153	18410
899.273	18342
899.393	18361
899.513	18407
899.633	18433
899.753	18353
899.873	18365
899.993	18361
900.113	18273
900.232	18410
900.352	18270
900.472	18182
900.591	18133
900.711	18228
900.83	18095
900.95	18273
901.069	18232
901.189	18038
901.308	17878
901.427	17764
901.546	17794
901.665	17783
901.784	17733
901.904	17710
902.023	17573
902.141	17204
902.26	17200
902.379	17303
902.498	17200
902.617	17155
902.735	17212
902.854	17132
902.973	17010
903.091	16881
903.21	16801
903.328	16892
903.446	16717
903.565	16580
903.683	16637
903.801	16504
903.919	16603
904.038	16500
904.156	16382
904.274	16337
904.392	16466
904.51	16424
904.627	16398
904.745	16390
904.863	16367
904.981	16177
905.098	16021
905.216	16013
905.334	16017
905.451	15968
905.569	15922
905.686	16006
905.803	15994
905.921	15751
906.038	15884
906.155	15732
906.272	15667
906.389	15698
906.506	15580
906.623	15576
906.74	15473
906.857	15370
906.974	15466
907.091	15599
907.208	15656
907.324	15572
907.441	15443
907.557	15192
907.674	15256
907.79	15165
907.907	15146
908.023	15207
908.139	15089
908.256	15173
908.372	15051
908.488	15024
908.604	14899
908.72	14891
908.836	14918
908.952	14861
909.068	14868
909.184	15093
909.3	14941
909.415	14982
909.531	14899
909.647	14674
909.762	14602
909.878	14602
909.993	14610
910.108	14613
910.224	14564
910.339	14602
910.454	14518
910.57	14476
910.685	14423
910.8	14648
910.915	14621
911.03	14442
911.145	14301
911.259	14298
911.374	14275
911.489	14123
911.604	14149
911.718	14081
911.833	14050
911.947	13890
912.062	13799
912.176	14058
912.291	14005
912.405	13997
912.519	14259
912.633	14199
912.748	14012
912.862	13917
912.976	13868
913.09	13791
913.204	13818
913.318	13845
913.431	13849
913.545	13986
913.659	13841
913.772	13826
913.886	13734
914	13609
914.113	13753
914.226	13757
914.34	13700
914.453	13639
914.566	13670
914.68	13575
914.793	13616
914.906	13362
915.019	13358
915.132	13289
915.245	13400
915.358	13415
915.47	13400
915.583	13278
915.696	13343
915.809	13537
915.921	13548
916.034	13346
916.146	13255
916.259	13293
916.371	13339
916.483	13445
916.595	13278
916.708	13365
916.82	13270
916.932	13232
917.044	13168
917.156	13255
917.268	13175
917.38	13145
917.491	13126
917.603	13122
917.715	13057
917.826	13183
917.938	13095
918.049	12981
918.161	13069
918.272	13152
918.384	13206
918.495	13050
918.606	12905
918.717	12821
918.828	12817
918.939	12897
919.05	12787
919.161	12810
919.272	12612
919.383	12673
919.494	12901
919.604	13034
919.715	12791
919.826	12741
919.936	12776
920.047	12901
920.157	12798
920.267	13027
920.378	12791
920.488	12760
920.598	12962
920.708	13095
920.818	12951
920.928	12897
921.038	13053
921.148	13099
921.258	12745
921.368	12707
921.477	12574
921.587	12479
921.697	12376
921.806	12525
921.916	12536
922.025	12194
922.134	12262
922.244	12216
922.353	12254
922.462	12114
922.571	12079
922.68	11866
922.789	11878
922.898	11904
923.007	11828
923.116	11889
923.224	11901
923.333	11916
923.442	11813
923.55	11767
923.659	11691
923.767	11779
923.876	11748
923.984	11756
924.092	11714
924.201	11703
924.309	11703
924.417	11665
924.525	11623
924.633	11642
924.741	12506
924.849	11459
924.956	11619
925.064	11482
925.172	11368
925.279	11421
925.387	11433
925.494	11463
925.602	11535
925.709	11448
925.816	11315
925.924	11379
926.031	11493
926.138	11436
926.245	11440
926.352	11235
926.459	11406
926.566	11395
926.673	11280
926.779	11174
926.886	11132
926.993	11094
927.099	11003
927.206	10946
927.312	11006
927.419	10991
927.525	10972
927.631	11045
927.737	10965
927.843	10927
927.95	10869
928.056	10885
928.162	10858
928.267	10896
928.373	11436
928.479	10968
928.585	10714
928.69	10847
928.796	10927
928.901	10752
929.007	10577
929.112	10744
929.218	10752
929.323	10637
929.428	10588
929.533	10771
929.638	10611
929.743	10558
929.848	10645
929.953	10535
930.058	10500
930.163	10363
930.267	10314
930.372	10481
930.477	10310
930.581	10516
930.685	10390
930.79	10284
930.894	10337
930.998	10246
931.103	10375
931.207	10074
931.311	9907
931.415	9892
931.519	9709
931.623	9682
