Data from test_V78500241_3018.txt Node
Date: Fri Mar 25 14:54:43 CST 2022
User: usil
Spectrometer: V785-0024
Trigger mode: 0
Integration Time (sec): 4.000000E-1
Scans to average: 1
Nonlinearity correction enabled: false
Boxcar width: 0
Storing dark spectrum: false
XAxis mode: Wavelengths
Number of Pixels in Spectrum: 1024
>>>>>Begin Spectral Data<<<<<
801.071	22078
801.214	22090
801.356	21770
801.499	21583
801.641	21511
801.783	21496
801.926	21469
802.068	21408
802.211	21389
802.353	21222
802.496	20929
802.638	21066
802.78	20948
802.923	20861
803.065	20735
803.208	20781
803.35	20804
803.492	20834
803.635	20925
803.777	20743
803.919	20887
804.061	21138
804.204	20902
804.346	20655
804.488	20735
804.63	20861
804.773	20648
804.915	20621
805.057	20830
805.199	20716
805.341	20686
805.483	20830
805.626	20823
805.768	20648
805.91	20720
806.052	20853
806.194	20712
806.336	20918
806.478	20659
806.62	20629
806.762	20819
806.904	20910
807.046	21070
807.188	21176
807.33	20986
807.472	21157
807.614	21013
807.756	21013
807.898	20845
808.04	20705
808.182	20758
808.324	20773
808.465	20731
808.607	21001
808.749	21066
808.891	21252
809.033	21272
809.174	21192
809.316	20895
809.458	21055
809.6	21093
809.741	21233
809.883	21104
810.025	21230
810.166	21203
810.308	21310
810.45	21199
810.591	21252
810.733	20956
810.875	20971
811.016	20807
811.158	20727
811.299	20845
811.441	20925
811.582	20960
811.724	20929
811.865	20796
812.007	20800
812.148	20811
812.29	20929
812.431	21112
812.573	21218
812.714	21291
812.855	21306
812.997	21462
813.138	21713
813.279	21515
813.421	21367
813.562	21294
813.703	21127
813.845	20925
813.986	20636
814.127	20659
814.268	20454
814.41	20503
814.551	20389
814.692	20434
814.833	20248
814.974	20324
815.115	20396
815.256	20225
815.397	20271
815.539	20233
815.68	20062
815.821	19978
815.962	20172
816.103	20115
816.244	19963
816.385	19970
816.526	19837
816.666	19620
816.807	19499
816.948	19628
817.089	19689
817.23	19605
817.371	19460
817.512	19613
817.653	19487
817.793	19510
817.934	19476
818.075	19609
818.216	19514
818.356	19434
818.497	19396
818.638	19198
818.778	19187
818.919	19240
819.06	19221
819.2	19282
819.341	19365
819.481	19403
819.622	19552
819.762	19643
819.903	19719
820.043	19620
820.184	19518
820.324	19441
820.465	19533
820.605	19495
820.746	19559
820.886	19441
821.026	19453
821.167	19373
821.307	19514
821.447	19384
821.588	19343
821.728	19266
821.868	19015
822.008	18993
822.149	18825
822.289	18859
822.429	18639
822.569	18582
822.709	18559
822.849	18433
822.99	18372
823.13	18517
823.27	18372
823.41	18117
823.55	18201
823.69	18281
823.83	18216
823.97	18072
824.11	17992
824.25	18003
824.389	17851
824.529	18034
824.669	17977
824.809	18007
824.949	18133
825.089	18083
825.228	18064
825.368	17843
825.508	17684
825.648	17764
825.787	17802
825.927	17847
826.067	17668
826.206	17657
826.346	17771
826.485	17699
826.625	17714
826.765	17817
826.904	17828
827.044	17459
827.183	17448
827.323	17395
827.462	17539
827.601	17330
827.741	17490
827.88	17444
828.02	17322
828.159	17425
828.298	17482
828.437	17497
828.577	17273
828.716	17581
828.855	17421
828.994	17235
829.134	17223
829.273	17113
829.412	17094
829.551	17109
829.69	17117
829.829	17170
829.968	17265
830.107	17223
830.246	17162
830.385	17132
830.524	17067
830.663	16976
830.802	16961
830.941	16691
831.08	16793
831.219	16957
831.357	16889
831.496	17052
831.635	16710
831.774	16656
831.913	16622
832.051	16538
832.19	16516
832.329	16519
832.467	16470
832.606	16390
832.744	16474
832.883	16565
833.022	16394
833.16	16398
833.299	16580
833.437	16531
833.576	16554
833.714	16550
833.852	16478
833.991	16569
834.129	16577
834.267	16675
834.406	16573
834.544	16588
834.682	16428
834.821	16519
834.959	16713
835.097	16421
835.235	16481
835.373	16508
835.511	16474
835.65	16478
835.788	16462
835.926	16261
836.064	16242
836.202	16185
836.34	16455
836.478	16508
836.615	16478
836.753	16402
836.891	16474
837.029	16466
837.167	16371
837.305	16360
837.443	16306
837.58	16215
837.718	16436
837.856	16363
837.993	16242
838.131	16306
838.269	16150
838.406	16166
838.544	16143
838.681	16071
838.819	15873
838.956	15846
839.094	15789
839.231	15918
839.369	16021
839.506	16188
839.643	16078
839.781	15774
839.918	15816
840.055	15838
840.193	15846
840.33	15732
840.467	15739
840.604	15728
840.742	16048
840.879	15618
841.016	15770
841.153	15766
841.29	15903
841.427	15785
841.564	15785
841.701	15804
841.838	15717
841.975	15720
842.112	15698
842.249	15557
842.385	15610
842.522	15709
842.659	15538
842.796	15515
842.933	15606
843.069	15545
843.206	15599
843.343	15648
843.479	15568
843.616	15728
843.752	15340
843.889	15374
844.025	15625
844.162	15359
844.298	15496
844.435	15439
844.571	15275
844.708	15431
844.844	15534
844.98	15538
845.117	15549
845.253	15374
845.389	15306
845.525	15237
845.661	15249
845.798	15074
845.934	15279
846.07	15207
846.206	15226
846.342	15321
846.478	15081
846.614	15032
846.75	14960
846.886	14811
847.022	15013
847.158	15017
847.294	14914
847.429	14994
847.565	14971
847.701	15241
847.837	14735
847.972	14583
848.108	14807
848.244	14750
848.379	14613
848.515	14537
848.65	14590
848.786	14533
848.921	14454
849.057	14613
849.192	14617
849.328	14587
849.463	14571
849.598	14412
849.734	14473
849.869	14412
850.004	14225
850.14	14298
850.275	14339
850.41	14290
850.545	14328
850.68	14328
850.815	14412
850.95	14347
851.085	14476
851.22	14404
851.355	14313
851.49	14301
851.625	14271
851.76	14320
851.895	14149
852.03	14161
852.165	14294
852.299	14195
852.434	14374
852.569	14313
852.703	14256
852.838	14396
852.973	14476
853.107	14393
853.242	14263
853.376	14244
853.511	14088
853.645	14115
853.78	14248
853.914	14214
854.048	14183
854.183	14145
854.317	14282
854.451	14351
854.585	14164
854.72	14054
854.854	14123
854.988	14168
855.122	14164
855.256	13978
855.39	14172
855.524	14202
855.658	14210
855.792	14244
855.926	14210
856.06	14294
856.194	14294
856.327	14210
856.461	14077
856.595	14092
856.729	14157
856.862	14229
856.996	14271
857.13	14305
857.263	14305
857.397	14347
857.53	14282
857.664	14290
857.797	14317
857.931	14237
858.064	14343
858.197	14362
858.331	14157
858.464	14244
858.597	14020
858.731	14252
858.864	14142
858.997	14145
859.13	14202
859.263	14248
859.396	14225
859.529	14202
859.662	14161
859.795	14157
859.928	14199
860.061	14301
860.194	14309
860.327	14240
860.46	14164
860.592	14282
860.725	14229
860.858	14298
860.99	14134
861.123	14172
861.256	14134
861.388	14225
861.521	14830
861.653	14043
861.786	13989
861.918	14016
862.05	14092
862.183	14065
862.315	14142
862.447	14142
862.58	14164
862.712	14058
862.844	13940
862.976	14077
863.108	14054
863.24	14343
863.372	13928
863.504	13951
863.636	13925
863.768	14073
863.9	13993
864.032	13868
864.164	13830
864.296	14065
864.428	14088
864.559	14027
864.691	14024
864.823	13989
864.954	14005
865.086	13906
865.217	13909
865.349	13890
865.48	13906
865.612	13936
865.743	14065
865.875	13974
866.006	13928
866.137	13917
866.269	13982
866.4	13909
866.531	13788
866.662	13894
866.793	13894
866.924	13887
867.055	14016
867.186	13894
867.317	13830
867.448	13887
867.579	13978
867.71	13909
867.841	13864
867.972	13913
868.103	13868
868.233	13940
868.364	14062
868.495	14126
868.625	14168
868.756	14252
868.886	14084
869.017	14195
869.147	14145
869.278	14317
869.408	14218
869.539	14237
869.669	14320
869.799	14202
869.929	14294
870.06	14286
870.19	14549
870.32	14461
870.45	14598
870.58	14583
870.71	14758
870.84	14739
870.97	14579
871.1	14651
871.23	14727
871.36	14861
871.489	14727
871.619	14788
871.749	14834
871.879	14845
872.008	14842
872.138	14876
872.267	14769
872.397	14655
872.526	14651
872.656	14530
872.785	14610
872.915	14853
873.044	14921
873.173	14811
873.303	14796
873.432	14864
873.561	15020
873.69	14868
873.819	14853
873.948	14895
874.077	14883
874.206	14823
874.335	14952
874.464	15009
874.593	15024
874.722	15001
874.851	15207
874.979	15089
875.108	15184
875.237	15077
875.365	15058
875.494	15127
875.623	15195
875.751	15188
875.88	15214
876.008	15310
876.136	15317
876.265	15530
876.393	15709
876.521	15625
876.65	15610
876.778	15538
876.906	15549
877.034	15431
877.162	15473
877.29	15545
877.418	15595
877.546	15572
877.674	15481
877.802	15557
877.93	15606
878.058	15545
878.185	15336
878.313	15614
878.441	15469
878.568	15401
878.696	15507
878.824	15587
878.951	15606
879.079	15770
879.206	15762
879.333	15732
879.461	15637
879.588	15698
879.715	15778
879.842	15838
879.97	15751
880.097	15515
880.224	15496
880.351	15492
880.478	15344
880.605	15408
880.732	15439
880.859	15641
880.986	15428
881.112	15488
881.239	15268
881.366	15211
881.493	15131
881.619	15112
881.746	15032
881.872	15051
881.999	15062
882.125	15039
882.252	15211
882.378	15085
882.505	15252
882.631	14979
882.757	14876
882.883	14902
883.01	14944
883.136	14880
883.262	14689
883.388	14667
883.514	14826
883.64	14899
883.766	14762
883.892	14682
884.018	14735
884.143	14811
884.269	14921
884.395	14792
884.52	14579
884.646	14636
884.772	14530
884.897	14545
885.023	14579
885.148	14678
885.274	14758
885.399	14746
885.524	14564
885.65	14594
885.775	14678
885.9	14613
886.025	14708
886.15	14720
886.275	14636
886.4	14450
886.525	14541
886.65	14560
886.775	14480
886.9	14678
887.025	14762
887.149	14629
887.274	14511
887.399	14362
887.523	14347
887.648	14305
887.773	14320
887.897	14545
888.021	14530
888.146	14431
888.27	14393
888.395	14613
888.519	14503
888.643	14492
888.767	14522
888.891	14461
889.015	14267
889.139	14275
889.263	14237
889.387	14366
889.511	14473
889.635	14454
889.759	14233
889.883	14240
890.006	14290
890.13	14396
890.254	14355
890.377	14153
890.501	14145
890.624	14039
890.748	14142
890.871	14024
890.995	13921
891.118	13989
891.241	14008
891.364	13967
891.488	14100
891.611	13997
891.734	13967
891.857	14046
891.98	14035
892.103	14024
892.226	14031
892.349	13970
892.471	13940
892.594	13967
892.717	13902
892.839	14027
892.962	14073
893.085	14012
893.207	14027
893.33	13837
893.452	13974
893.575	14088
893.697	14069
893.819	14103
893.941	14126
894.064	14050
894.186	13925
894.308	13963
894.43	14202
894.552	14164
894.674	14123
894.796	13997
894.918	14058
895.04	14043
895.161	14123
895.283	14073
895.405	14016
895.526	14065
895.648	14168
895.769	14233
895.891	14123
896.012	14191
896.134	14263
896.255	14191
896.376	14138
896.498	14176
896.619	14248
896.74	14187
896.861	14275
896.982	14476
897.103	14667
897.224	14503
897.345	14446
897.466	14343
897.587	14377
897.708	14549
897.828	14495
897.949	14374
898.07	14248
898.19	14431
898.311	14670
898.431	14442
898.552	14587
898.672	14640
898.792	14686
898.913	14610
899.033	14503
899.153	14366
899.273	14309
899.393	14393
899.513	14389
899.633	14389
899.753	14454
899.873	14328
899.993	14545
900.113	14461
900.232	14320
900.352	14408
900.472	14332
900.591	14240
900.711	14256
900.83	14233
900.95	14377
901.069	14431
901.189	14172
901.308	13997
901.427	13890
901.546	13913
901.665	13887
901.784	13902
901.904	13830
902.023	13712
902.141	13544
902.26	13571
902.379	13624
902.498	13495
902.617	13510
902.735	13605
902.854	13525
902.973	13472
903.091	13266
903.21	13240
903.328	13282
903.446	13145
903.565	13065
903.683	13122
903.801	13031
903.919	13031
904.038	13129
904.156	12920
904.274	12875
904.392	12981
904.51	12932
904.627	12909
904.745	12916
904.863	12928
904.981	12696
905.098	12509
905.216	12563
905.334	12616
905.451	12521
905.569	12582
905.686	12623
905.803	12616
905.921	12460
906.038	12555
906.155	12437
906.272	12201
906.389	12266
906.506	12159
906.623	12167
906.74	12140
906.857	12007
906.974	12076
907.091	12247
907.208	12258
907.324	12247
907.441	12011
907.557	11977
907.674	11897
907.79	11805
907.907	11942
908.023	11992
908.139	11950
908.256	11901
908.372	11828
908.488	11836
908.604	11642
908.72	11680
908.836	11649
908.952	11657
909.068	11718
909.184	11794
909.3	11657
909.415	11805
909.531	11699
909.647	11353
909.762	11452
909.878	11436
909.993	11474
910.108	11486
910.224	11459
910.339	11490
910.454	11360
910.57	11242
910.685	11208
910.8	11455
910.915	11440
911.03	11322
911.145	11227
911.259	11102
911.374	11193
911.489	11064
911.604	10999
911.718	10923
911.833	10972
911.947	10877
912.062	10714
912.176	10877
912.291	10923
912.405	10911
912.519	11060
912.633	11079
912.748	11014
912.862	10877
912.976	10831
913.09	10615
913.204	10744
913.318	10850
913.431	10866
913.545	10839
913.659	10858
913.772	10733
913.886	10706
914	10664
914.113	10862
914.226	10809
914.34	10793
914.453	10565
914.566	10797
914.68	10649
914.793	10565
914.906	10466
915.019	10405
915.132	10348
915.245	10462
915.358	10459
915.47	10455
915.583	10386
915.696	10440
915.809	10630
915.921	10596
916.034	10371
916.146	10276
916.259	10322
916.371	10500
916.483	10440
916.595	10314
916.708	10333
916.82	10371
916.932	10371
917.044	10333
917.156	10367
917.268	10268
917.38	10253
917.491	10234
917.603	10227
917.715	10367
917.826	10360
917.938	10265
918.049	10154
918.161	10314
918.272	10424
918.384	10432
918.495	10382
918.606	10188
918.717	10162
918.828	10166
918.939	10124
919.05	10044
919.161	10181
919.272	9968
919.383	9964
919.494	10166
919.604	10352
919.715	10143
919.826	10059
919.936	10116
920.047	10192
920.157	10150
920.267	10329
920.378	10227
920.488	10124
920.598	10356
920.708	10554
920.818	10360
920.928	10333
921.038	10523
921.148	10417
921.258	10207
921.368	10059
921.477	10010
921.587	9964
921.697	9865
921.806	9983
921.916	9926
922.025	9701
922.134	9690
922.244	9713
922.353	9785
922.462	9530
922.571	9523
922.68	9382
922.789	9416
922.898	9450
923.007	9405
923.116	9439
923.224	9428
923.333	9405
923.442	9325
923.55	9310
923.659	9306
923.767	9359
923.876	9245
923.984	9344
924.092	9230
924.201	9268
924.309	9275
924.417	9283
924.525	9192
924.633	9245
924.741	10181
924.849	9070
924.956	9211
925.064	9013
925.172	9039
925.279	9077
925.387	9108
925.494	9039
925.602	9237
925.709	9135
925.816	9077
925.924	9154
926.031	9097
926.138	9062
926.245	9112
926.352	9013
926.459	9093
926.566	9192
926.673	9074
926.779	8925
926.886	8986
926.993	8872
927.099	8762
927.206	8720
927.312	8754
927.419	8800
927.525	8754
927.631	8807
927.737	8686
927.843	8727
927.95	8556
928.056	8583
928.162	8697
928.267	8716
928.373	9245
928.479	8769
928.585	8560
928.69	8621
928.796	8678
928.901	8629
929.007	8404
929.112	8625
929.218	8610
929.323	8526
929.428	8480
929.533	8670
929.638	8385
929.743	8461
929.848	8514
929.953	8450
930.058	8400
930.163	8275
930.267	8294
930.372	8412
930.477	8229
930.581	8488
930.685	8320
930.79	8191
930.894	8271
930.998	8214
931.103	8377
931.207	8073
931.311	8008
931.415	7875
931.519	7738
931.623	7772
