Data from test_V78500241_1272.txt Node
Date: Fri Mar 25 14:42:34 CST 2022
User: usil
Spectrometer: V785-0024
Trigger mode: 0
Integration Time (sec): 4.000000E-1
Scans to average: 1
Nonlinearity correction enabled: false
Boxcar width: 0
Storing dark spectrum: false
XAxis mode: Wavelengths
Number of Pixels in Spectrum: 1024
>>>>>Begin Spectral Data<<<<<
801.071	22466
801.214	22363
801.356	21975
801.499	22025
801.641	21956
801.783	21667
801.926	21743
802.068	21652
802.211	21523
802.353	21587
802.496	21272
802.638	21272
802.78	21165
802.923	21363
803.065	21028
803.208	21017
803.35	21085
803.492	21077
803.635	21192
803.777	21142
803.919	21192
804.061	21363
804.204	21108
804.346	21089
804.488	21085
804.63	20918
804.773	21104
804.915	21150
805.057	21154
805.199	20960
805.341	21096
805.483	21089
805.626	21100
805.768	20914
805.91	20986
806.052	21070
806.194	20845
806.336	21195
806.478	21047
806.62	20941
806.762	21093
806.904	21192
807.046	21401
807.188	21344
807.33	21344
807.472	21428
807.614	21226
807.756	21397
807.898	21226
808.04	21070
808.182	21100
808.324	21161
808.465	21203
808.607	21515
808.749	21572
808.891	21583
809.033	21831
809.174	21637
809.316	21583
809.458	21397
809.6	21378
809.741	21488
809.883	21561
810.025	21583
810.166	21606
810.308	21492
810.45	21595
810.591	21416
810.733	21351
810.875	21195
811.016	21222
811.158	21074
811.299	21291
811.441	21313
811.582	21279
811.724	21218
811.865	21135
812.007	21211
812.148	21100
812.29	21332
812.431	21405
812.573	21469
812.714	21587
812.855	21671
812.997	21759
813.138	21869
813.279	21793
813.421	21698
813.562	21587
813.703	21389
813.845	21279
813.986	21070
814.127	20891
814.268	20819
814.41	20750
814.551	20682
814.692	20868
814.833	20693
814.974	20659
815.115	20720
815.256	20492
815.397	20526
815.539	20537
815.68	20480
815.821	20374
815.962	20579
816.103	20457
816.244	20434
816.385	20229
816.526	20256
816.666	20012
816.807	19940
816.948	19986
817.089	20058
817.23	19917
817.371	19928
817.512	19849
817.653	19944
817.793	19917
817.934	19909
818.075	19982
818.216	19894
818.356	19757
818.497	19734
818.638	19559
818.778	19624
818.919	19590
819.06	19635
819.2	19643
819.341	19791
819.481	19746
819.622	19944
819.762	20214
819.903	19963
820.043	19940
820.184	19951
820.324	19807
820.465	19860
820.605	19841
820.746	19833
820.886	19715
821.026	19856
821.167	19845
821.307	19898
821.447	19746
821.588	19814
821.728	19655
821.868	19415
822.008	19384
822.149	19301
822.289	19247
822.429	18985
822.569	18958
822.709	19034
822.849	18738
822.99	18715
823.13	18745
823.27	18738
823.41	18608
823.55	18452
823.69	18650
823.83	18574
823.97	18540
824.11	18353
824.25	18327
824.389	18346
824.529	18456
824.669	18456
824.809	18441
824.949	18498
825.089	18448
825.228	18369
825.368	18190
825.508	18155
825.648	18159
825.787	18254
825.927	18209
826.067	18148
826.206	18041
826.346	18190
826.485	18060
826.625	18220
826.765	18277
826.904	18186
827.044	17874
827.183	17775
827.323	17855
827.462	17775
827.601	17904
827.741	17942
827.88	17767
828.02	17714
828.159	17733
828.298	17889
828.437	17935
828.577	17775
828.716	17980
828.855	17760
828.994	17623
829.134	17573
829.273	17634
829.412	17566
829.551	17486
829.69	17490
829.829	17623
829.968	17661
830.107	17722
830.246	17657
830.385	17577
830.524	17566
830.663	17414
830.802	17250
830.941	17231
831.08	17303
831.219	17406
831.357	17242
831.496	17406
831.635	17296
831.774	17147
831.913	16995
832.051	17064
832.19	16968
832.329	17048
832.467	17006
832.606	16828
832.744	16908
832.883	16946
833.022	16927
833.16	16881
833.299	16892
833.437	16987
833.576	17022
833.714	16946
833.852	16976
833.991	17060
834.129	17151
834.267	16961
834.406	16942
834.544	16927
834.682	16949
834.821	16984
834.959	17162
835.097	16885
835.235	17048
835.373	17045
835.511	17060
835.65	16862
835.788	16812
835.926	16748
836.064	16675
836.202	16687
836.34	16942
836.478	16930
836.615	16866
836.753	16987
836.891	17052
837.029	17060
837.167	16835
837.305	16831
837.443	16858
837.58	16691
837.718	16812
837.856	16710
837.993	16542
838.131	16694
838.269	16630
838.406	16618
838.544	16596
838.681	16432
838.819	16417
838.956	16310
839.094	16291
839.231	16295
839.369	16424
839.506	16767
839.643	16527
839.781	16322
839.918	16291
840.055	16337
840.193	16299
840.33	16215
840.467	16265
840.604	16318
840.742	16561
840.879	16185
841.016	16207
841.153	16071
841.29	16497
841.427	16265
841.564	16268
841.701	16394
841.838	16341
841.975	16223
842.112	16162
842.249	16067
842.385	16055
842.522	16185
842.659	16071
842.796	16044
842.933	16105
843.069	15998
843.206	16040
843.343	16207
843.479	16090
843.616	16029
843.752	15857
843.889	15819
844.025	15956
844.162	15816
844.298	15915
844.435	15751
844.571	15812
844.708	15994
844.844	16025
844.98	16017
845.117	16055
845.253	15759
845.389	15838
845.525	15838
845.661	15846
845.798	15660
845.934	15850
846.07	15785
846.206	15850
846.342	15918
846.478	15675
846.614	15545
846.75	15374
846.886	15405
847.022	15492
847.158	15382
847.294	15378
847.429	15549
847.565	15492
847.701	15698
847.837	15184
847.972	15112
848.108	15260
848.244	15161
848.379	15066
848.515	14967
848.65	15009
848.786	15001
848.921	15074
849.057	15112
849.192	15074
849.328	15081
849.463	15089
849.598	15074
849.734	14990
849.869	14895
850.004	14925
850.14	14785
850.275	14743
850.41	14644
850.545	14746
850.68	14887
850.815	14686
850.95	14720
851.085	14960
851.22	14819
851.355	14796
851.49	14720
851.625	14674
851.76	14708
851.895	14667
852.03	14727
852.165	14777
852.299	14785
852.434	14815
852.569	14708
852.703	14754
852.838	14823
852.973	14937
853.107	14933
853.242	14750
853.376	14724
853.511	14556
853.645	14689
853.78	14777
853.914	14674
854.048	14651
854.183	14571
854.317	14663
854.451	14853
854.585	14651
854.72	14575
854.854	14705
854.988	14568
855.122	14720
855.256	14549
855.39	14518
855.524	14670
855.658	14678
855.792	14640
855.926	14743
856.06	14644
856.194	14693
856.327	14556
856.461	14629
856.595	14636
856.729	14537
856.862	14739
856.996	14682
857.13	14746
857.263	14823
857.397	14727
857.53	14575
857.664	14678
857.797	14716
857.931	14746
858.064	14743
858.197	14830
858.331	14682
858.464	14587
858.597	14533
858.731	14640
858.864	14693
858.997	14598
859.13	14731
859.263	14670
859.396	14670
859.529	14621
859.662	14621
859.795	14571
859.928	14587
860.061	14769
860.194	14823
860.327	14712
860.46	14583
860.592	14769
860.725	14876
860.858	14754
860.99	14746
861.123	14648
861.256	14640
861.388	14651
861.521	15462
861.653	14511
861.786	14366
861.918	14552
862.05	14541
862.183	14602
862.315	14503
862.447	14648
862.58	14556
862.712	14366
862.844	14385
862.976	14423
863.108	14575
863.24	14845
863.372	14343
863.504	14442
863.636	14427
863.768	14450
863.9	14423
864.032	14366
864.164	14324
864.296	14374
864.428	14575
864.559	14488
864.691	14484
864.823	14476
864.954	14454
865.086	14450
865.217	14347
865.349	14404
865.48	14514
865.612	14415
865.743	14473
865.875	14450
866.006	14362
866.137	14423
866.269	14408
866.4	14442
866.531	14404
866.662	14324
866.793	14328
866.924	14400
867.055	14480
867.186	14362
867.317	14393
867.448	14362
867.579	14355
867.71	14324
867.841	14332
867.972	14431
868.103	14461
868.233	14404
868.364	14438
868.495	14571
868.625	14526
868.756	14686
868.886	14587
869.017	14629
869.147	14769
869.278	14758
869.408	14689
869.539	14689
869.669	14800
869.799	14762
869.929	14743
870.06	14826
870.19	15024
870.32	14952
870.45	15055
870.58	15093
870.71	15165
870.84	15173
870.97	15062
871.1	15043
871.23	15176
871.36	15199
871.489	15123
871.619	15036
871.749	15252
871.879	15313
872.008	15374
872.138	15222
872.267	15226
872.397	15070
872.526	15097
872.656	15066
872.785	15192
872.915	15157
873.044	15325
873.173	15283
873.303	15272
873.432	15397
873.561	15370
873.69	15233
873.819	15321
873.948	15382
874.077	15344
874.206	15211
874.335	15382
874.464	15340
874.593	15587
874.722	15488
874.851	15663
874.979	15644
875.108	15606
875.237	15542
875.365	15534
875.494	15622
875.623	15682
875.751	15606
875.88	15667
876.008	15732
876.136	15865
876.265	16071
876.393	16128
876.521	16097
876.65	16006
876.778	15956
876.906	15907
877.034	15865
877.162	15953
877.29	15880
877.418	15960
877.546	15949
877.674	16010
877.802	15998
877.93	15956
878.058	16112
878.185	15956
878.313	16029
878.441	15941
878.568	15876
878.696	15941
878.824	16063
878.951	16090
879.079	16147
879.206	16341
879.333	16341
879.461	16150
879.588	16238
879.715	16268
879.842	16352
879.97	16177
880.097	15934
880.224	15880
880.351	16010
880.478	15934
880.605	15892
880.732	15808
880.859	16101
880.986	15956
881.112	15975
881.239	15800
881.366	15629
881.493	15572
881.619	15523
881.746	15599
881.872	15584
881.999	15481
882.125	15530
882.252	15648
882.378	15633
882.505	15762
882.631	15519
882.757	15370
882.883	15450
883.01	15469
883.136	15291
883.262	15245
883.388	15097
883.514	15401
883.64	15332
883.766	15230
883.892	15211
884.018	15180
884.143	15287
884.269	15526
884.395	15146
884.52	14944
884.646	15043
884.772	15020
884.897	14868
885.023	15066
885.148	15157
885.274	15233
885.399	15070
885.524	15089
885.65	15093
885.775	15077
885.9	14994
886.025	15256
886.15	15093
886.275	14990
886.4	14891
886.525	14887
886.65	15047
886.775	15047
886.9	15230
887.025	15245
887.149	15085
887.274	14864
887.399	14819
887.523	14864
887.648	14887
887.773	14781
887.897	14899
888.021	15009
888.146	14914
888.27	14998
888.395	15020
888.519	14891
888.643	14963
888.767	14921
888.891	14701
889.015	14716
889.139	14777
889.263	14651
889.387	14773
889.511	14906
889.635	14819
889.759	14712
889.883	14781
890.006	14716
890.13	14807
890.254	14617
890.377	14811
890.501	14583
890.624	14541
890.748	14575
890.871	14518
890.995	14271
891.118	14332
891.241	14431
891.364	14396
891.488	14530
891.611	14431
891.734	14358
891.857	14465
891.98	14450
892.103	14549
892.226	14473
892.349	14442
892.471	14221
892.594	14495
892.717	14400
892.839	14404
892.962	14446
893.085	14454
893.207	14484
893.33	14355
893.452	14328
893.575	14343
893.697	14343
893.819	14549
893.941	14636
894.064	14575
894.186	14446
894.308	14313
894.43	14537
894.552	14670
894.674	14526
894.796	14290
894.918	14415
895.04	14423
895.161	14575
895.283	14541
895.405	14476
895.526	14499
895.648	14594
895.769	14545
895.891	14629
896.012	14575
896.134	14522
896.255	14518
896.376	14522
896.498	14556
896.619	14602
896.74	14526
896.861	14655
896.982	14960
897.103	15028
897.224	14842
897.345	14823
897.466	14868
897.587	14777
897.708	14941
897.828	14880
897.949	14785
898.07	14819
898.19	14800
898.311	14967
898.431	14773
898.552	14864
898.672	15070
898.792	15036
898.913	15055
899.033	14883
899.153	14724
899.273	14701
899.393	14686
899.513	14785
899.633	14739
899.753	14777
899.873	14746
899.993	14830
900.113	14834
900.232	14735
900.352	14739
900.472	14644
900.591	14625
900.711	14613
900.83	14583
900.95	14648
901.069	14765
901.189	14579
901.308	14336
901.427	14275
901.546	14240
901.665	14309
901.784	14362
901.904	14218
902.023	14145
902.141	13833
902.26	13879
902.379	13871
902.498	13849
902.617	13780
902.735	13879
902.854	13822
902.973	13723
903.091	13575
903.21	13586
903.328	13540
903.446	13514
903.565	13453
903.683	13495
903.801	13411
903.919	13403
904.038	13354
904.156	13285
904.274	13289
904.392	13198
904.51	13289
904.627	13194
904.745	13266
904.863	13236
904.981	13061
905.098	12821
905.216	12977
905.334	12947
905.451	12909
905.569	12909
905.686	13015
905.803	12848
905.921	12829
906.038	12859
906.155	12768
906.272	12616
906.389	12635
906.506	12486
906.623	12467
906.74	12604
906.857	12422
906.974	12418
907.091	12532
907.208	12688
907.324	12578
907.441	12388
907.557	12407
907.674	12201
907.79	12178
907.907	12247
908.023	12270
908.139	12311
908.256	12300
908.372	12209
908.488	12186
908.604	12117
908.72	11969
908.836	11965
908.952	12072
909.068	11999
909.184	12155
909.3	12076
909.415	12060
909.531	12022
909.647	11760
909.762	11802
909.878	11790
909.993	11752
910.108	11745
910.224	11748
910.339	11859
910.454	11714
910.57	11585
910.685	11608
910.8	11889
910.915	11733
911.03	11668
911.145	11448
911.259	11425
911.374	11455
911.489	11425
911.604	11376
911.718	11265
911.833	11204
911.947	11102
912.062	10991
912.176	11212
912.291	11212
912.405	11250
912.519	11455
912.633	11395
912.748	11322
912.862	11193
912.976	11239
913.09	11041
913.204	11041
913.318	11083
913.431	11162
913.545	11151
913.659	11250
913.772	11071
913.886	11006
914	11018
914.113	11071
914.226	11102
914.34	11075
914.453	10976
914.566	11102
914.68	10911
914.793	10873
914.906	10793
915.019	10702
915.132	10641
915.245	10664
915.358	10755
915.47	10733
915.583	10831
915.696	10786
915.809	10896
915.921	10854
916.034	10698
916.146	10653
916.259	10603
916.371	10733
916.483	10710
916.595	10634
916.708	10615
916.82	10626
916.932	10672
917.044	10565
917.156	10519
917.268	10443
917.38	10478
917.491	10504
917.603	10516
917.715	10603
917.826	10618
917.938	10569
918.049	10375
918.161	10489
918.272	10706
918.384	10634
918.495	10535
918.606	10436
918.717	10356
918.828	10386
918.939	10527
919.05	10352
919.161	10379
919.272	10196
919.383	10337
919.494	10447
919.604	10584
919.715	10440
919.826	10360
919.936	10424
920.047	10474
920.157	10432
920.267	10580
920.378	10512
920.488	10402
920.598	10596
920.708	10759
920.818	10580
920.928	10660
921.038	10809
921.148	10698
921.258	10462
921.368	10379
921.477	10333
921.587	10265
921.697	10173
921.806	10166
921.916	10147
922.025	10044
922.134	10040
922.244	9960
922.353	9972
922.462	9873
922.571	9880
922.68	9709
922.789	9595
922.898	9690
923.007	9568
923.116	9743
923.224	9633
923.333	9656
923.442	9511
923.55	9523
923.659	9625
923.767	9637
923.876	9557
923.984	9587
924.092	9568
924.201	9526
924.309	9622
924.417	9534
924.525	9542
924.633	9599
924.741	10246
924.849	9237
924.956	9458
925.064	9287
925.172	9279
925.279	9260
925.387	9355
925.494	9279
925.602	9477
925.709	9370
925.816	9336
925.924	9344
926.031	9378
926.138	9287
926.245	9363
926.352	9275
926.459	9344
926.566	9370
926.673	9249
926.779	9237
926.886	9180
926.993	9039
927.099	9066
927.206	8941
927.312	8975
927.419	9089
927.525	9085
927.631	9058
927.737	8944
927.843	8895
927.95	8838
928.056	8914
928.162	8910
928.267	8902
928.373	9587
928.479	8998
928.585	8663
928.69	8967
928.796	8933
928.901	8800
929.007	8682
929.112	8807
929.218	8800
929.323	8724
929.428	8811
929.533	8861
929.638	8659
929.743	8773
929.848	8792
929.953	8800
930.058	8674
930.163	8461
930.267	8560
930.372	8670
930.477	8469
930.581	8712
930.685	8621
930.79	8492
930.894	8431
930.998	8419
931.103	8560
931.207	8206
931.311	8164
931.415	8103
931.519	7909
931.623	7906
