Data from test_V78500241_928.txt Node
Date: Fri Mar 25 14:40:10 CST 2022
User: usil
Spectrometer: V785-0024
Trigger mode: 0
Integration Time (sec): 4.000000E-1
Scans to average: 1
Nonlinearity correction enabled: false
Boxcar width: 0
Storing dark spectrum: false
XAxis mode: Wavelengths
Number of Pixels in Spectrum: 1024
>>>>>Begin Spectral Data<<<<<
801.071	24620
801.214	24479
801.356	24281
801.499	24136
801.641	23961
801.783	24015
801.926	23931
802.068	23824
802.211	23809
802.353	23657
802.496	23562
802.638	23406
802.78	23284
802.923	23303
803.065	23261
803.208	23258
803.35	23269
803.492	23368
803.635	23562
803.777	23284
803.919	23337
804.061	23710
804.204	23410
804.346	23277
804.488	23067
804.63	23299
804.773	23204
804.915	23200
805.057	23444
805.199	23296
805.341	23334
805.483	23459
805.626	23299
805.768	23311
805.91	23421
806.052	23383
806.194	23318
806.336	23490
806.478	23376
806.62	23512
806.762	23512
806.904	23748
807.046	24045
807.188	23999
807.33	23992
807.472	24182
807.614	24129
807.756	24254
807.898	24353
808.04	24509
808.182	24738
808.324	25293
808.465	25613
808.607	26130
808.749	26530
808.891	26906
809.033	26845
809.174	26606
809.316	26145
809.458	25727
809.6	25228
809.741	24966
809.883	24776
810.025	24608
810.166	24429
810.308	24273
810.45	24315
810.591	24121
810.733	23885
810.875	23809
811.016	23726
811.158	23638
811.299	23634
811.441	23855
811.582	23665
811.724	23562
811.865	23551
812.007	23665
812.148	23608
812.29	23668
812.431	23760
812.573	23863
812.714	24011
812.855	24034
812.997	23999
813.138	24258
813.279	24133
813.421	24038
813.562	24152
813.703	23821
813.845	23691
813.986	23372
814.127	23170
814.268	23204
814.41	23136
814.551	23128
814.692	23117
814.833	23041
814.974	23056
815.115	22965
815.256	22869
815.397	22927
815.539	22919
815.68	22778
815.821	22664
815.962	22854
816.103	22694
816.244	22641
816.385	22672
816.526	22428
816.666	22329
816.807	22082
816.948	22204
817.089	22257
817.23	22238
817.371	22112
817.512	22268
817.653	22128
817.793	22173
817.934	22158
818.075	22185
818.216	22196
818.356	22021
818.497	21964
818.638	21679
818.778	21865
818.919	21766
819.06	21827
819.2	21884
819.341	21930
819.481	22010
819.622	22067
819.762	22299
819.903	22268
820.043	22295
820.184	22139
820.324	22036
820.465	22154
820.605	21972
820.746	21964
820.886	21930
821.026	22070
821.167	22128
821.307	22166
821.447	21892
821.588	21930
821.728	21808
821.868	21629
822.008	21439
822.149	21496
822.289	21549
822.429	21135
822.569	21096
822.709	21032
822.849	20933
822.99	21005
823.13	20807
823.27	20765
823.41	20708
823.55	20549
823.69	20720
823.83	20746
823.97	20602
824.11	20457
824.25	20503
824.389	20476
824.529	20526
824.669	20533
824.809	20648
824.949	20613
825.089	20526
825.228	20446
825.368	20256
825.508	20313
825.648	20317
825.787	20229
825.927	20396
826.067	20195
826.206	20119
826.346	20191
826.485	20339
826.625	20309
826.765	20328
826.904	20275
827.044	20027
827.183	20027
827.323	19841
827.462	20073
827.601	19917
827.741	19856
827.88	19970
828.02	19799
828.159	19928
828.298	20027
828.437	19940
828.577	19803
828.716	20115
828.855	19860
828.994	19696
829.134	19677
829.273	19746
829.412	19590
829.551	19609
829.69	19609
829.829	19674
829.968	19780
830.107	19597
830.246	19616
830.385	19613
830.524	19457
830.663	19400
830.802	19346
830.941	19304
831.08	19213
831.219	19244
831.357	19266
831.496	19533
831.635	19202
831.774	19171
831.913	19099
832.051	19000
832.19	18966
832.329	18962
832.467	19038
832.606	18924
832.744	18890
832.883	19023
833.022	18932
833.16	19027
833.299	19004
833.437	18989
833.576	19152
833.714	19050
833.852	19118
833.991	19027
834.129	19217
834.267	19069
834.406	19023
834.544	19114
834.682	19118
834.821	19080
834.959	19126
835.097	18837
835.235	19046
835.373	19065
835.511	18951
835.65	18897
835.788	18878
835.926	18738
836.064	18601
836.202	18536
836.34	18768
836.478	18837
836.615	18829
836.753	18730
836.891	18894
837.029	18783
837.167	18802
837.305	18661
837.443	18597
837.58	18559
837.718	18627
837.856	18601
837.993	18589
838.131	18589
838.269	18623
838.406	18585
838.544	18521
838.681	18277
838.819	18281
838.956	18182
839.094	18140
839.231	18106
839.369	18289
839.506	18460
839.643	18407
839.781	18155
839.918	18079
840.055	18152
840.193	18186
840.33	18171
840.467	18060
840.604	18019
840.742	18422
840.879	17973
841.016	17973
841.153	18026
841.29	18125
841.427	18076
841.564	18117
841.701	18022
841.838	18072
841.975	17977
842.112	17954
842.249	17779
842.385	17817
842.522	18068
842.659	17973
842.796	17805
842.933	17828
843.069	17840
843.206	17836
843.343	17897
843.479	17840
843.616	17908
843.752	17638
843.889	17497
844.025	17764
844.162	17676
844.298	17809
844.435	17767
844.571	17771
844.708	17760
844.844	17878
844.98	17973
845.117	18117
845.253	18045
845.389	18114
845.525	18688
845.661	19190
845.798	20062
845.934	20952
846.07	21108
846.206	21150
846.342	20583
846.478	19586
846.614	18726
846.75	18007
846.886	17695
847.022	17634
847.158	17376
847.294	17376
847.429	17258
847.565	17231
847.701	17455
847.837	17003
847.972	16805
848.108	16968
848.244	17052
848.379	16866
848.515	16740
848.65	16637
848.786	16755
848.921	16653
849.057	16889
849.192	16911
849.328	16752
849.463	16653
849.598	16622
849.734	16706
849.869	16538
850.004	16607
850.14	16535
850.275	16569
850.41	16424
850.545	16436
850.68	16390
850.815	16497
850.95	16291
851.085	16588
851.22	16550
851.355	16577
851.49	16440
851.625	16390
851.76	16451
851.895	16333
852.03	16333
852.165	16531
852.299	16561
852.434	16462
852.569	16352
852.703	16462
852.838	16394
852.973	16607
853.107	16653
853.242	16409
853.376	16375
853.511	16257
853.645	16421
853.78	16508
853.914	16428
854.048	16299
854.183	16379
854.317	16287
854.451	16527
854.585	16322
854.72	16299
854.854	16508
854.988	16337
855.122	16287
855.256	16238
855.39	16253
855.524	16440
855.658	16421
855.792	16314
855.926	16390
856.06	16394
856.194	16447
856.327	16257
856.461	16238
856.595	16215
856.729	16219
856.862	16470
856.996	16299
857.13	16314
857.263	16310
857.397	16424
857.53	16265
857.664	16325
857.797	16337
857.931	16485
858.064	16379
858.197	16424
858.331	16207
858.464	16268
858.597	16215
858.731	16287
858.864	16257
858.997	16287
859.13	16287
859.263	16337
859.396	16306
859.529	16219
859.662	16287
859.795	16276
859.928	16291
860.061	16489
860.194	16405
860.327	16306
860.46	16268
860.592	16386
860.725	16413
860.858	16409
860.99	16181
861.123	16196
861.256	16211
861.388	16215
861.521	16919
861.653	16226
861.786	16101
861.918	16166
862.05	16215
862.183	16139
862.315	16314
862.447	16303
862.58	16226
862.712	15987
862.844	15960
862.976	16124
863.108	16025
863.24	16489
863.372	15907
863.504	15991
863.636	15991
863.768	15979
863.9	16017
864.032	15922
864.164	15987
864.296	16036
864.428	16086
864.559	16055
864.691	16055
864.823	16040
864.954	16105
865.086	16048
865.217	16029
865.349	15979
865.48	15968
865.612	16002
865.743	16048
865.875	16025
866.006	15972
866.137	16036
866.269	15941
866.4	15964
866.531	15926
866.662	15838
866.793	15941
866.924	15945
867.055	16029
867.186	15975
867.317	15941
867.448	15899
867.579	15895
867.71	15861
867.841	15819
867.972	15903
868.103	16017
868.233	15987
868.364	15922
868.495	15945
868.625	16246
868.756	16325
868.886	16177
869.017	16211
869.147	16329
869.278	16238
869.408	16143
869.539	16150
869.669	16306
869.799	16188
869.929	16280
870.06	16371
870.19	16580
870.32	16455
870.45	16516
870.58	16599
870.71	16702
870.84	16691
870.97	16519
871.1	16516
871.23	16831
871.36	16763
871.489	16744
871.619	16729
871.749	16744
871.879	16816
872.008	16793
872.138	16824
872.267	16744
872.397	16778
872.526	16599
872.656	16645
872.785	16706
872.915	16698
873.044	16904
873.173	16843
873.303	16850
873.432	16904
873.561	16976
873.69	16843
873.819	16847
873.948	16869
874.077	16900
874.206	16854
874.335	16866
874.464	17052
874.593	17143
874.722	17071
874.851	17258
874.979	17151
875.108	17299
875.237	17216
875.365	17204
875.494	17223
875.623	17204
875.751	17178
875.88	17254
876.008	17387
876.136	17421
876.265	17592
876.393	17767
876.521	17817
876.65	17718
876.778	17611
876.906	17589
877.034	17581
877.162	17741
877.29	17551
877.418	17699
877.546	17794
877.674	17680
877.802	17676
877.93	17653
878.058	17737
878.185	17646
878.313	17840
878.441	17901
878.568	17805
878.696	18114
878.824	18079
878.951	18399
879.079	18559
879.206	19072
879.333	19091
879.461	19301
879.588	19525
879.715	19525
879.842	19540
879.97	19160
880.097	18627
880.224	18399
880.351	18243
880.478	17996
880.605	17984
880.732	18007
880.859	18243
880.986	17916
881.112	17954
881.239	17672
881.366	17611
881.493	17554
881.619	17463
881.746	17539
881.872	17558
881.999	17570
882.125	17516
882.252	17615
882.378	17573
882.505	17771
882.631	17505
882.757	17516
882.883	17376
883.01	17402
883.136	17208
883.262	17307
883.388	17280
883.514	17364
883.64	17368
883.766	17330
883.892	17277
884.018	17250
884.143	17326
884.269	17414
884.395	17128
884.52	17010
884.646	16984
884.772	16957
884.897	16942
885.023	17045
885.148	17136
885.274	17193
885.399	17208
885.524	17010
885.65	16930
885.775	17067
885.9	16900
886.025	17105
886.15	16980
886.275	16889
886.4	16904
886.525	16881
886.65	16748
886.775	16691
886.9	16927
887.025	16999
887.149	16801
887.274	16748
887.399	16554
887.523	16630
887.648	16462
887.773	16504
887.897	16630
888.021	16592
888.146	16603
888.27	16630
888.395	16607
888.519	16519
888.643	16512
888.767	16675
888.891	16363
889.015	16382
889.139	16306
889.263	16478
889.387	16432
889.511	16519
889.635	16436
889.759	16303
889.883	16287
890.006	16379
890.13	16371
890.254	16322
890.377	16246
890.501	16109
890.624	16044
890.748	16082
890.871	16036
890.995	16013
891.118	15857
891.241	15907
891.364	15842
891.488	16021
891.611	15945
891.734	15937
891.857	15941
891.98	15911
892.103	16025
892.226	16090
892.349	15884
892.471	15804
892.594	15975
892.717	15983
892.839	15892
892.962	15861
893.085	15930
893.207	15850
893.33	15797
893.452	15774
893.575	15983
893.697	15857
893.819	16025
893.941	16036
894.064	15915
894.186	15804
894.308	15819
894.43	15926
894.552	15934
894.674	15956
894.796	15789
894.918	15899
895.04	15739
895.161	15941
895.283	15987
895.405	15869
895.526	15895
895.648	15903
895.769	15972
895.891	16032
896.012	16029
896.134	15968
896.255	16002
896.376	15895
896.498	15915
896.619	16017
896.74	15960
896.861	16029
896.982	16303
897.103	16474
897.224	16265
897.345	16253
897.466	16188
897.587	16158
897.708	16265
897.828	16242
897.949	16204
898.07	16063
898.19	16246
898.311	16344
898.431	16204
898.552	16268
898.672	16352
898.792	16344
898.913	16432
899.033	16204
899.153	16169
899.273	16010
899.393	16090
899.513	16211
899.633	16185
899.753	16173
899.873	16120
899.993	16192
900.113	16143
900.232	16196
900.352	16211
900.472	16055
900.591	15941
900.711	16044
900.83	15884
900.95	16063
901.069	16078
901.189	15899
901.308	15679
901.427	15595
901.546	15561
901.665	15698
901.784	15641
901.904	15580
902.023	15416
902.141	15268
902.26	15192
902.379	15180
902.498	15150
902.617	15142
902.735	15188
902.854	15161
902.973	15119
903.091	14880
903.21	14823
903.328	14876
903.446	14826
903.565	14640
903.683	14674
903.801	14659
903.919	14674
904.038	14575
904.156	14450
904.274	14533
904.392	14495
904.51	14457
904.627	14393
904.745	14518
904.863	14499
904.981	14229
905.098	14103
905.216	14123
905.334	14149
905.451	14130
905.569	14161
905.686	14031
905.803	13936
905.921	13947
906.038	14043
906.155	13967
906.272	13757
906.389	13890
906.506	13559
906.623	13700
906.74	13685
906.857	13529
906.974	13578
907.091	13723
907.208	13811
907.324	13689
907.441	13518
907.557	13301
907.674	13304
907.79	13263
907.907	13362
908.023	13400
908.139	13331
908.256	13327
908.372	13251
908.488	13324
908.604	13110
908.72	12932
908.836	13149
908.952	13114
909.068	13103
909.184	13266
909.3	13084
909.415	13145
909.531	13061
909.647	12871
909.762	12890
909.878	12901
909.993	12856
910.108	12875
910.224	12795
910.339	12779
910.454	12703
910.57	12662
910.685	12601
910.8	12962
910.915	12772
911.03	12764
911.145	12513
911.259	12414
911.374	12525
911.489	12414
911.604	12327
911.718	12338
911.833	12281
911.947	12209
912.062	12182
912.176	12273
912.291	12209
912.405	12251
912.519	12437
912.633	12464
912.748	12289
912.862	12220
912.976	12106
913.09	11973
913.204	11977
913.318	12083
913.431	12201
913.545	12125
913.659	12235
913.772	12121
913.886	12026
914	11939
914.113	12022
914.226	12098
914.34	12034
914.453	11904
914.566	12068
914.68	11984
914.793	11954
914.906	11691
915.019	11726
915.132	11623
915.245	11646
915.358	11707
915.47	11767
915.583	11764
915.696	11752
915.809	11809
915.921	11874
916.034	11661
916.146	11600
916.259	11672
916.371	11710
916.483	11703
916.595	11611
916.708	11638
916.82	11668
916.932	11505
917.044	11608
917.156	11566
917.268	11452
917.38	11532
917.491	11455
917.603	11547
917.715	11520
917.826	11558
917.938	11528
918.049	11360
918.161	11474
918.272	11615
918.384	11570
918.495	11490
918.606	11349
918.717	11170
918.828	11356
918.939	11246
919.05	11284
919.161	11292
919.272	10999
919.383	11185
919.494	11383
919.604	11570
919.715	11387
919.826	11181
919.936	11334
920.047	11379
920.157	11299
920.267	11528
920.378	11292
920.488	11284
920.598	11467
920.708	11642
920.818	11467
920.928	11436
921.038	11604
921.148	11589
921.258	11395
921.368	11212
921.477	11159
921.587	11132
921.697	11067
921.806	11105
921.916	11025
922.025	10835
922.134	10858
922.244	10755
922.353	10850
922.462	10752
922.571	10596
922.68	10481
922.789	10424
922.898	10531
923.007	10462
923.116	10481
923.224	10531
923.333	10386
923.442	10371
923.55	10337
923.659	10367
923.767	10436
923.876	10363
923.984	10394
924.092	10291
924.201	10295
924.309	10280
924.417	10356
924.525	10207
924.633	10219
924.741	11083
924.849	10051
924.956	10287
925.064	10112
925.172	9972
925.279	10040
925.387	10200
925.494	10021
925.602	10128
925.709	10158
925.816	9880
925.924	10120
926.031	10173
926.138	10097
926.245	10109
926.352	10048
926.459	10192
926.566	10101
926.673	10040
926.779	9907
926.886	9846
926.993	9812
927.099	9770
927.206	9762
927.312	9759
927.419	9755
927.525	9766
927.631	9793
927.737	9610
927.843	9701
927.95	9561
928.056	9618
928.162	9652
928.267	9732
928.373	10341
928.479	9743
928.585	9504
928.69	9644
928.796	9675
928.901	9507
929.007	9405
929.112	9610
929.218	9507
929.323	9450
929.428	9431
929.533	9538
929.638	9420
929.743	9420
929.848	9443
929.953	9481
930.058	9283
930.163	9199
930.267	9230
930.372	9313
930.477	9173
930.581	9344
930.685	9272
930.79	8990
930.894	9184
930.998	9093
931.103	9211
931.207	8982
931.311	8785
931.415	8773
931.519	8583
931.623	8571
