Data from test_V78500241_675.txt Node
Date: Fri Mar 25 14:38:25 CST 2022
User: usil
Spectrometer: V785-0024
Trigger mode: 0
Integration Time (sec): 4.000000E-1
Scans to average: 1
Nonlinearity correction enabled: false
Boxcar width: 0
Storing dark spectrum: false
XAxis mode: Wavelengths
Number of Pixels in Spectrum: 1024
>>>>>Begin Spectral Data<<<<<
801.071	28257
801.214	28101
801.356	27739
801.499	27781
801.641	27538
801.783	27568
801.926	27545
802.068	27370
802.211	27184
802.353	27313
802.496	27146
802.638	27104
802.78	27005
802.923	26990
803.065	26998
803.208	26891
803.35	27135
803.492	27230
803.635	27146
803.777	27142
803.919	27260
804.061	27496
804.204	27241
804.346	27146
804.488	27298
804.63	27329
804.773	27207
804.915	27507
805.057	27481
805.199	27481
805.341	27686
805.483	27641
805.626	27884
805.768	27755
805.91	28036
806.052	27991
806.194	27934
806.336	28485
806.478	28481
806.62	28580
806.762	29048
806.904	29417
807.046	29862
807.188	30205
807.33	30707
807.472	31373
807.614	31833
807.756	32689
807.898	33797
808.04	35189
808.182	37339
808.324	40029
808.465	42833
808.607	46295
808.749	48977
808.891	50758
809.033	50986
809.174	49430
809.316	46599
809.458	43050
809.6	39698
809.741	36878
809.883	34672
810.025	33454
810.166	32096
810.308	31407
810.45	30768
810.591	30251
810.733	29821
810.875	29406
811.016	29159
811.158	28698
811.299	28740
811.441	28622
811.582	28611
811.724	28356
811.865	28048
812.007	27956
812.148	27998
812.29	27934
812.431	28154
812.573	28059
812.714	28185
812.855	28131
812.997	28280
813.138	28394
813.279	28246
813.421	27960
813.562	27907
813.703	27739
813.845	27557
813.986	27207
814.127	27127
814.268	26899
814.41	27081
814.551	26906
814.692	26933
814.833	26697
814.974	26537
815.115	26735
815.256	26571
815.397	26556
815.539	26511
815.68	26317
815.821	26301
815.962	26317
816.103	26309
816.244	26096
816.385	26145
816.526	26142
816.666	25772
816.807	25734
816.948	25715
817.089	25765
817.23	25719
817.371	25613
817.512	25594
817.653	25613
817.793	25567
817.934	25476
818.075	25544
818.216	25544
818.356	25426
818.497	25411
818.638	25282
818.778	25183
818.919	25324
819.06	25419
819.2	25438
819.341	25392
819.481	25472
819.622	25571
819.762	25704
819.903	25651
820.043	25601
820.184	25590
820.324	25445
820.465	25552
820.605	25247
820.746	25472
820.886	25339
821.026	25293
821.167	25247
821.307	25514
821.447	25194
821.588	25122
821.728	24935
821.868	24909
822.008	24696
822.149	24658
822.289	24741
822.429	24433
822.569	24277
822.709	24243
822.849	24285
822.99	24133
823.13	23992
823.27	24136
823.41	23893
823.55	23843
823.69	23863
823.83	23908
823.97	23843
824.11	23630
824.25	23665
824.389	23703
824.529	23695
824.669	23684
824.809	23790
824.949	23649
825.089	23828
825.228	23551
825.368	23531
825.508	23395
825.648	23520
825.787	23535
825.927	23402
826.067	23474
826.206	23353
826.346	23505
826.485	23505
826.625	23364
826.765	23471
826.904	23478
827.044	23242
827.183	23208
827.323	23071
827.462	23094
827.601	23086
827.741	22953
827.88	23052
828.02	22847
828.159	23048
828.298	23041
828.437	22980
828.577	22957
828.716	23151
828.855	22980
828.994	22740
829.134	22668
829.273	22854
829.412	22599
829.551	22733
829.69	22763
829.829	22763
829.968	22850
830.107	22672
830.246	22721
830.385	22603
830.524	22645
830.663	22546
830.802	22447
830.941	22375
831.08	22188
831.219	22451
831.357	22367
831.496	22577
831.635	22268
831.774	22322
831.913	22287
832.051	22242
832.19	22257
832.329	22276
832.467	22150
832.606	22147
832.744	22185
832.883	22257
833.022	22322
833.16	22291
833.299	22542
833.437	22626
833.576	22740
833.714	22961
833.852	22949
833.991	23223
834.129	23288
834.267	23261
834.406	23318
834.544	23212
834.682	23124
834.821	22957
834.959	22824
835.097	22740
835.235	22786
835.373	22535
835.511	22363
835.65	22230
835.788	22097
835.926	21930
836.064	21842
836.202	21854
836.34	22006
836.478	22029
836.615	21838
836.753	21892
836.891	21956
837.029	21899
837.167	21778
837.305	21778
837.443	21736
837.58	21679
837.718	21774
837.856	21496
837.993	21641
838.131	21538
838.269	21454
838.406	21561
838.544	21553
838.681	21329
838.819	21245
838.956	21032
839.094	21077
839.231	21070
839.369	21291
839.506	21397
839.643	21256
839.781	21051
839.918	20986
840.055	21077
840.193	20994
840.33	21005
840.467	21001
840.604	21070
840.742	21298
840.879	20887
841.016	20944
841.153	20990
841.29	21180
841.427	21047
841.564	21039
841.701	20975
841.838	21028
841.975	21043
842.112	20899
842.249	20826
842.385	20880
842.522	21001
842.659	20899
842.796	20724
842.933	20887
843.069	20937
843.206	20826
843.343	20933
843.479	21036
843.616	20990
843.752	20830
843.889	20910
844.025	21081
844.162	20971
844.298	21211
844.435	21321
844.571	21629
844.708	21701
844.844	22246
844.98	22634
845.117	23341
845.253	24114
845.389	26008
845.525	29604
845.661	35490
845.798	42251
845.934	47311
846.07	49225
846.206	47630
846.342	43046
846.478	36349
846.614	30380
846.75	26571
846.886	24266
847.022	22896
847.158	22147
847.294	21542
847.429	21203
847.565	20781
847.701	20880
847.837	20374
847.972	20202
848.108	20362
848.244	20229
848.379	19887
848.515	19799
848.65	19814
848.786	19818
848.921	19807
849.057	19845
849.192	19811
849.328	19864
849.463	19681
849.598	19643
849.734	19624
849.869	19518
850.004	19472
850.14	19521
850.275	19510
850.41	19339
850.545	19419
850.68	19434
850.815	19346
850.95	19373
851.085	19681
851.22	19525
851.355	19388
851.49	19259
851.625	19350
851.76	19426
851.895	19434
852.03	19301
852.165	19362
852.299	19441
852.434	19464
852.569	19514
852.703	19343
852.838	19616
852.973	19647
853.107	19662
853.242	19575
853.376	19449
853.511	19358
853.645	19453
853.78	19594
853.914	19578
854.048	19559
854.183	19521
854.317	19563
854.451	19837
854.585	19590
854.72	19605
854.854	19658
854.988	19457
855.122	19392
855.256	19289
855.39	19419
855.524	19430
855.658	19487
855.792	19388
855.926	19426
856.06	19339
856.194	19369
856.327	19225
856.461	19244
856.595	19206
856.729	19194
856.862	19354
856.996	19168
857.13	19362
857.263	19251
857.397	19316
857.53	19145
857.664	19259
857.797	19278
857.931	19312
858.064	19213
858.197	19274
858.331	19080
858.464	19065
858.597	18993
858.731	19023
858.864	19076
858.997	19034
859.13	19141
859.263	19076
859.396	19015
859.529	18943
859.662	19050
859.795	18985
859.928	19095
860.061	19152
860.194	19183
860.327	19103
860.46	18962
860.592	19091
860.725	19061
860.858	19122
860.99	18920
861.123	18958
861.256	18989
861.388	19095
861.521	19719
861.653	18913
861.786	18878
861.918	18844
862.05	19069
862.183	18989
862.315	18989
862.447	18966
862.58	18970
862.712	18840
862.844	18574
862.976	18738
863.108	18722
863.24	19057
863.372	18566
863.504	18673
863.636	18646
863.768	18779
863.9	18604
864.032	18658
864.164	18620
864.296	18700
864.428	18837
864.559	18817
864.691	18745
864.823	18753
864.954	18692
865.086	18608
865.217	18555
865.349	18517
865.48	18540
865.612	18528
865.743	18806
865.875	18635
866.006	18620
866.137	18555
866.269	18623
866.4	18574
866.531	18566
866.662	18627
866.793	18395
866.924	18578
867.055	18544
867.186	18544
867.317	18540
867.448	18410
867.579	18540
867.71	18513
867.841	18429
867.972	18521
868.103	18593
868.233	18570
868.364	18620
868.495	18566
868.625	18772
868.756	18970
868.886	18677
869.017	18802
869.147	18890
869.278	18916
869.408	18787
869.539	18806
869.669	18985
869.799	18878
869.929	18962
870.06	18928
870.19	19251
870.32	19183
870.45	19179
870.58	19255
870.71	19411
870.84	19278
870.97	19289
871.1	19244
871.23	19464
871.36	19449
871.489	19369
871.619	19480
871.749	19571
871.879	19635
872.008	19696
872.138	19582
872.267	19571
872.397	19426
872.526	19472
872.656	19491
872.785	19582
872.915	19655
873.044	19765
873.173	19655
873.303	19784
873.432	19761
873.561	19906
873.69	19795
873.819	19738
873.948	19936
874.077	19795
874.206	19746
874.335	19811
874.464	20126
874.593	20172
874.722	20183
874.851	20320
874.979	20385
875.108	20431
875.237	20374
875.365	20301
875.494	20454
875.623	20518
875.751	20450
875.88	20613
876.008	20716
876.136	20815
876.265	21077
876.393	21222
876.521	21195
876.65	21332
876.778	21363
876.906	21302
877.034	21389
877.162	21500
877.29	21652
877.418	21641
877.546	21800
877.674	21808
877.802	21846
877.93	21991
878.058	22150
878.185	22360
878.313	22618
878.441	23060
878.568	23307
878.696	24045
878.824	24821
878.951	25894
879.079	27473
879.206	29284
879.333	31388
879.461	33188
879.588	34367
879.715	34417
879.842	33591
879.97	31620
880.097	29417
880.224	27797
880.351	26670
880.478	25715
880.605	25194
880.732	24863
880.859	24757
880.986	24391
881.112	24228
881.239	24076
881.366	23904
881.493	23855
881.619	23885
881.746	23908
881.872	23840
881.999	23813
882.125	23901
882.252	24007
882.378	24072
882.505	24277
882.631	24011
882.757	23984
882.883	24022
883.01	23832
883.136	23786
883.262	23851
883.388	23802
883.514	23977
883.64	23855
883.766	23859
883.892	23634
884.018	23821
884.143	23935
884.269	23859
884.395	23707
884.52	23501
884.646	23592
884.772	23558
884.897	23486
885.023	23558
885.148	23581
885.274	23668
885.399	23551
885.524	23258
885.65	23326
885.775	23178
885.9	22923
886.025	22820
886.15	22645
886.275	22459
886.4	22386
886.525	22272
886.65	22120
886.775	21994
886.9	22082
887.025	22067
887.149	21778
887.274	21443
887.399	21450
887.523	21256
887.648	20979
887.773	21039
887.897	21150
888.021	21066
888.146	20811
888.27	20906
888.395	20826
888.519	20743
888.643	20659
888.767	20746
888.891	20522
889.015	20366
889.139	20374
889.263	20317
889.387	20339
889.511	20412
889.635	20290
889.759	20138
889.883	20138
890.006	19982
890.13	20077
890.254	19974
890.377	19871
890.501	19788
890.624	19723
890.748	19780
890.871	19575
890.995	19422
891.118	19430
891.241	19445
891.364	19400
891.488	19529
891.611	19339
891.734	19228
891.857	19362
891.98	19251
892.103	19244
892.226	19236
892.349	19126
892.471	18916
892.594	18970
892.717	19000
892.839	19050
892.962	19008
893.085	18954
893.207	18977
893.33	18810
893.452	18623
893.575	18871
893.697	18882
893.819	18916
893.941	19031
894.064	18878
894.186	18654
894.308	18608
894.43	18700
894.552	18802
894.674	18738
894.796	18566
894.918	18528
895.04	18570
895.161	18658
895.283	18563
895.405	18483
895.526	18494
895.648	18513
895.769	18467
895.891	18570
896.012	18555
896.134	18563
896.255	18540
896.376	18544
896.498	18506
896.619	18410
896.74	18498
896.861	18517
896.982	18772
897.103	18817
897.224	18623
897.345	18692
897.466	18536
897.587	18734
897.708	18764
897.828	18593
897.949	18464
898.07	18403
898.19	18627
898.311	18696
898.431	18631
898.552	18616
898.672	18612
898.792	18551
898.913	18650
899.033	18506
899.153	18483
899.273	18338
899.393	18448
899.513	18486
899.633	18388
899.753	18391
899.873	18342
899.993	18479
900.113	18445
900.232	18410
900.352	18315
900.472	18273
900.591	18152
900.711	18262
900.83	18174
900.95	18224
901.069	18308
901.189	18072
901.308	17836
901.427	17752
901.546	17722
901.665	17745
901.784	17752
901.904	17630
902.023	17543
902.141	17315
902.26	17212
902.379	17280
902.498	17246
902.617	17136
902.735	17113
902.854	17079
902.973	17113
903.091	16881
903.21	16828
903.328	16831
903.446	16694
903.565	16607
903.683	16660
903.801	16470
903.919	16573
904.038	16569
904.156	16462
904.274	16554
904.392	16363
904.51	16466
904.627	16303
904.745	16440
904.863	16341
904.981	16093
905.098	16082
905.216	16010
905.334	16040
905.451	15903
905.569	15869
905.686	15956
905.803	15850
905.921	15713
906.038	15774
906.155	15717
906.272	15690
906.389	15641
906.506	15515
906.623	15599
906.74	15450
906.857	15386
906.974	15325
907.091	15561
907.208	15614
907.324	15450
907.441	15408
907.557	15097
907.674	15325
907.79	15097
907.907	15135
908.023	15252
908.139	15245
908.256	15127
908.372	15135
908.488	15058
908.604	14956
908.72	14883
908.836	14929
908.952	14887
909.068	14998
909.184	15024
909.3	14941
909.415	14948
909.531	14910
909.647	14686
909.762	14594
909.878	14686
909.993	14613
910.108	14648
910.224	14648
910.339	14594
910.454	14545
910.57	14533
910.685	14408
910.8	14655
910.915	14659
911.03	14400
911.145	14347
911.259	14252
911.374	14267
911.489	14252
911.604	14126
911.718	14081
911.833	14058
911.947	13837
912.062	13906
912.176	14050
912.291	13997
912.405	14016
912.519	14214
912.633	14100
912.748	14012
912.862	13982
912.976	13871
913.09	13708
913.204	13860
913.318	13860
913.431	13932
913.545	13864
913.659	13970
913.772	13780
913.886	13651
914	13666
914.113	13791
914.226	13845
914.34	13799
914.453	13540
914.566	13784
914.68	13616
914.793	13639
914.906	13502
915.019	13396
915.132	13365
915.245	13411
915.358	13384
915.47	13487
915.583	13419
915.696	13396
915.809	13491
915.921	13537
916.034	13400
916.146	13396
916.259	13339
916.371	13381
916.483	13480
916.595	13259
916.708	13293
916.82	13312
916.932	13350
917.044	13266
917.156	13285
917.268	13183
917.38	13122
917.491	13031
917.603	13118
917.715	13316
917.826	13263
917.938	13160
918.049	12844
918.161	13065
918.272	13198
918.384	13183
918.495	13034
918.606	12973
918.717	12833
918.828	13031
918.939	12817
919.05	12821
919.161	12878
919.272	12650
919.383	12703
919.494	12867
919.604	13027
919.715	12882
919.826	12658
919.936	12772
920.047	12863
920.157	12810
920.267	12894
920.378	12745
920.488	12821
920.598	13031
920.708	13236
920.818	12993
920.928	12977
921.038	13126
921.148	13057
921.258	12798
921.368	12623
921.477	12597
921.587	12555
921.697	12448
921.806	12673
921.916	12437
922.025	12277
922.134	12289
922.244	12315
922.353	12281
922.462	12064
922.571	12091
922.68	11920
922.789	11904
922.898	11878
923.007	11847
923.116	11870
923.224	11935
923.333	11901
923.442	11764
923.55	11718
923.659	11805
923.767	11783
923.876	11760
923.984	11771
924.092	11665
924.201	11661
924.309	11726
924.417	11684
924.525	11581
924.633	11566
924.741	12601
924.849	11501
924.956	11543
925.064	11383
925.172	11391
925.279	11417
925.387	11452
925.494	11387
925.602	11532
925.709	11463
925.816	11345
925.924	11379
926.031	11486
926.138	11292
926.245	11356
926.352	11254
926.459	11433
926.566	11417
926.673	11318
926.779	11204
926.886	11117
926.993	11083
927.099	11086
927.206	11060
927.312	10984
927.419	11056
927.525	11067
927.631	11048
927.737	10930
927.843	10930
927.95	10763
928.056	10923
928.162	10877
928.267	10919
928.373	11455
928.479	10934
928.585	10748
928.69	10904
928.796	10892
928.901	10809
929.007	10565
929.112	10729
929.218	10763
929.323	10664
929.428	10687
929.533	10759
929.638	10618
929.743	10634
929.848	10607
929.953	10596
930.058	10519
930.163	10318
930.267	10417
930.372	10497
930.477	10341
930.581	10573
930.685	10341
930.79	10280
930.894	10257
930.998	10295
931.103	10413
931.207	10036
931.311	10010
931.415	9899
931.519	9698
931.623	9614
