Data from test_V78500241_1551.txt Node
Date: Fri Mar 25 14:44:30 CST 2022
User: usil
Spectrometer: V785-0024
Trigger mode: 0
Integration Time (sec): 4.000000E-1
Scans to average: 1
Nonlinearity correction enabled: false
Boxcar width: 0
Storing dark spectrum: false
XAxis mode: Wavelengths
Number of Pixels in Spectrum: 1024
>>>>>Begin Spectral Data<<<<<
801.071	22371
801.214	22310
801.356	22097
801.499	22006
801.641	21819
801.783	21713
801.926	21751
802.068	21698
802.211	21781
802.353	21549
802.496	21298
802.638	21420
802.78	21214
802.923	21256
803.065	21142
803.208	21108
803.35	21093
803.492	21195
803.635	21165
803.777	21093
803.919	21214
804.061	21454
804.204	21176
804.346	21001
804.488	20914
804.63	21077
804.773	20937
804.915	21039
805.057	21116
805.199	20994
805.341	21180
805.483	21207
805.626	21123
805.768	20914
805.91	21020
806.052	21089
806.194	20921
806.336	21199
806.478	20948
806.62	21001
806.762	21150
806.904	21233
807.046	21458
807.188	21401
807.33	21378
807.472	21519
807.614	21378
807.756	21325
807.898	21199
808.04	21211
808.182	21249
808.324	21245
808.465	21386
808.607	21454
808.749	21660
808.891	21622
809.033	21720
809.174	21724
809.316	21568
809.458	21500
809.6	21458
809.741	21481
809.883	21458
810.025	21656
810.166	21656
810.308	21637
810.45	21641
810.591	21568
810.733	21378
810.875	21367
811.016	21154
811.158	21211
811.299	21287
811.441	21370
811.582	21367
811.724	21294
811.865	21165
812.007	21146
812.148	21112
812.29	21332
812.431	21420
812.573	21431
812.714	21618
812.855	21690
812.997	21846
813.138	21911
813.279	21850
813.421	21724
813.562	21599
813.703	21481
813.845	21382
813.986	21085
814.127	20960
814.268	20792
814.41	20845
814.551	20735
814.692	20830
814.833	20773
814.974	20796
815.115	20743
815.256	20625
815.397	20613
815.539	20727
815.68	20530
815.821	20396
815.962	20507
816.103	20374
816.244	20412
816.385	20149
816.526	20202
816.666	20039
816.807	19955
816.948	20035
817.089	19993
817.23	20043
817.371	19898
817.512	19864
817.653	19830
817.793	19803
817.934	20046
818.075	19944
818.216	19879
818.356	19921
818.497	19712
818.638	19502
818.778	19624
818.919	19693
819.06	19613
819.2	19803
819.341	19849
819.481	19795
819.622	19967
819.762	20168
819.903	20043
820.043	20012
820.184	19849
820.324	19913
820.465	19993
820.605	19871
820.746	19845
820.886	19769
821.026	19837
821.167	19814
821.307	19925
821.447	19833
821.588	19689
821.728	19544
821.868	19415
822.008	19274
822.149	19327
822.289	19168
822.429	18993
822.569	18932
822.709	19027
822.849	18738
822.99	18738
823.13	18730
823.27	18776
823.41	18555
823.55	18395
823.69	18601
823.83	18566
823.97	18582
824.11	18289
824.25	18403
824.389	18361
824.529	18471
824.669	18350
824.809	18490
824.949	18437
825.089	18395
825.228	18270
825.368	18254
825.508	18159
825.648	18216
825.787	18213
825.927	18197
826.067	18095
826.206	18041
826.346	18159
826.485	18167
826.625	17954
826.765	18174
826.904	18251
827.044	17882
827.183	17893
827.323	17783
827.462	17912
827.601	17859
827.741	17851
827.88	17901
828.02	17691
828.159	17718
828.298	17870
828.437	17824
828.577	17756
828.716	17878
828.855	17722
828.994	17611
829.134	17528
829.273	17539
829.412	17539
829.551	17425
829.69	17501
829.829	17558
829.968	17596
830.107	17665
830.246	17512
830.385	17463
830.524	17539
830.663	17455
830.802	17311
830.941	17193
831.08	17174
831.219	17242
831.357	17307
831.496	17376
831.635	17052
831.774	17045
831.913	16991
832.051	16991
832.19	17006
832.329	17037
832.467	16946
832.606	16752
832.744	16801
832.883	16908
833.022	16778
833.16	16778
833.299	16984
833.437	16869
833.576	16949
833.714	16908
833.852	16946
833.991	17029
834.129	16934
834.267	17033
834.406	16919
834.544	17006
834.682	16892
834.821	16869
834.959	17033
835.097	16790
835.235	17048
835.373	16923
835.511	16862
835.65	16866
835.788	16748
835.926	16733
836.064	16645
836.202	16641
836.34	16782
836.478	16839
836.615	16824
836.753	16778
836.891	16927
837.029	16812
837.167	16801
837.305	16862
837.443	16733
837.58	16660
837.718	16729
837.856	16637
837.993	16713
838.131	16672
838.269	16664
838.406	16668
838.544	16527
838.681	16360
838.819	16261
838.956	16284
839.094	16223
839.231	16249
839.369	16314
839.506	16584
839.643	16424
839.781	16101
839.918	16116
840.055	16219
840.193	16200
840.33	16101
840.467	16192
840.604	16181
840.742	16500
840.879	16086
841.016	16135
841.153	16063
841.29	16314
841.427	16188
841.564	16246
841.701	16230
841.838	16090
841.975	16013
842.112	16074
842.249	15998
842.385	15884
842.522	16128
842.659	16025
842.796	15899
842.933	15960
843.069	15895
843.206	16013
843.343	16010
843.479	15930
843.616	16036
843.752	15701
843.889	15827
844.025	15876
844.162	15778
844.298	15903
844.435	15736
844.571	15663
844.708	15728
844.844	15949
844.98	16044
845.117	15884
845.253	15705
845.389	15660
845.525	15819
845.661	15705
845.798	15724
845.934	15705
846.07	15686
846.206	15789
846.342	15766
846.478	15656
846.614	15370
846.75	15306
846.886	15344
847.022	15370
847.158	15294
847.294	15302
847.429	15450
847.565	15245
847.701	15492
847.837	15039
847.972	15036
848.108	15256
848.244	15188
848.379	14849
848.515	14918
848.65	14956
848.786	14891
848.921	14887
849.057	15070
849.192	14937
849.328	14971
849.463	14861
849.598	14876
849.734	14857
849.869	14785
850.004	14754
850.14	14727
850.275	14716
850.41	14663
850.545	14545
850.68	14659
850.815	14682
850.95	14617
851.085	14804
851.22	14769
851.355	14670
851.49	14648
851.625	14670
851.76	14625
851.895	14552
852.03	14556
852.165	14655
852.299	14762
852.434	14674
852.569	14629
852.703	14587
852.838	14773
852.973	14826
853.107	14754
853.242	14594
853.376	14522
853.511	14415
853.645	14507
853.78	14674
853.914	14495
854.048	14484
854.183	14511
854.317	14495
854.451	14739
854.585	14560
854.72	14526
854.854	14640
854.988	14526
855.122	14503
855.256	14465
855.39	14488
855.524	14739
855.658	14629
855.792	14514
855.926	14549
856.06	14552
856.194	14598
856.327	14629
856.461	14518
856.595	14625
856.729	14461
856.862	14568
856.996	14583
857.13	14632
857.263	14667
857.397	14587
857.53	14465
857.664	14610
857.797	14606
857.931	14564
858.064	14579
858.197	14636
858.331	14575
858.464	14396
858.597	14427
858.731	14434
858.864	14541
858.997	14484
859.13	14644
859.263	14518
859.396	14590
859.529	14522
859.662	14499
859.795	14431
859.928	14587
860.061	14739
860.194	14800
860.327	14583
860.46	14568
860.592	14568
860.725	14651
860.858	14651
860.99	14545
861.123	14457
861.256	14495
861.388	14598
861.521	15112
861.653	14415
861.786	14370
861.918	14396
862.05	14530
862.183	14488
862.315	14431
862.447	14617
862.58	14579
862.712	14252
862.844	14199
862.976	14385
863.108	14339
863.24	14720
863.372	14240
863.504	14263
863.636	14313
863.768	14377
863.9	14301
864.032	14259
864.164	14267
864.296	14317
864.428	14389
864.559	14381
864.691	14431
864.823	14301
864.954	14339
865.086	14377
865.217	14271
865.349	14225
865.48	14313
865.612	14412
865.743	14442
865.875	14355
866.006	14180
866.137	14362
866.269	14286
866.4	14282
866.531	14256
866.662	14153
866.793	14256
866.924	14183
867.055	14358
867.186	14377
867.317	14199
867.448	14267
867.579	14191
867.71	14180
867.841	14229
867.972	14339
868.103	14374
868.233	14298
868.364	14218
868.495	14332
868.625	14507
868.756	14606
868.886	14564
869.017	14552
869.147	14716
869.278	14640
869.408	14537
869.539	14552
869.669	14583
869.799	14670
869.929	14682
870.06	14617
870.19	14872
870.32	14868
870.45	14861
870.58	14906
870.71	15020
870.84	14971
870.97	14925
871.1	14906
871.23	15062
871.36	15146
871.489	15058
871.619	15032
871.749	15070
871.879	15131
872.008	15252
872.138	15150
872.267	15055
872.397	14952
872.526	14937
872.656	14998
872.785	14994
872.915	15138
873.044	15214
873.173	15097
873.303	15203
873.432	15233
873.561	15279
873.69	15169
873.819	15230
873.948	15230
874.077	15249
874.206	15203
874.335	15252
874.464	15329
874.593	15492
874.722	15416
874.851	15584
874.979	15469
875.108	15511
875.237	15538
875.365	15382
875.494	15500
875.623	15545
875.751	15477
875.88	15576
876.008	15618
876.136	15732
876.265	15800
876.393	16055
876.521	15941
876.65	16002
876.778	15816
876.906	15857
877.034	15884
877.162	15778
877.29	15816
877.418	15903
877.546	15945
877.674	15911
877.802	15918
877.93	15827
878.058	15854
878.185	15865
878.313	15922
878.441	15907
878.568	15842
878.696	15888
878.824	15960
878.951	15975
879.079	16101
879.206	16348
879.333	16154
879.461	16036
879.588	16158
879.715	16219
879.842	16230
879.97	16040
880.097	15888
880.224	15831
880.351	15766
880.478	15800
880.605	15789
880.732	15823
880.859	16086
880.986	15789
881.112	15724
881.239	15652
881.366	15595
881.493	15496
881.619	15401
881.746	15564
881.872	15435
881.999	15351
882.125	15389
882.252	15466
882.378	15557
882.505	15564
882.631	15443
882.757	15291
882.883	15291
883.01	15268
883.136	15218
883.262	15252
883.388	15199
883.514	15382
883.64	15359
883.766	15199
883.892	14971
884.018	15169
884.143	15275
884.269	15443
884.395	15131
884.52	15039
884.646	14918
884.772	14944
884.897	14883
885.023	15013
885.148	15100
885.274	15207
885.399	15108
885.524	14971
885.65	14944
885.775	15005
885.9	15009
886.025	15024
886.15	15058
886.275	14975
886.4	14838
886.525	14979
886.65	14899
886.775	14880
886.9	15085
887.025	15351
887.149	14918
887.274	14819
887.399	14765
887.523	14746
887.648	14659
887.773	14777
887.897	14864
888.021	14826
888.146	14762
888.27	14887
888.395	14933
888.519	14990
888.643	14910
888.767	14944
888.891	14826
889.015	14663
889.139	14727
889.263	14674
889.387	14724
889.511	14857
889.635	14792
889.759	14682
889.883	14613
890.006	14640
890.13	14739
890.254	14629
890.377	14682
890.501	14537
890.624	14427
890.748	14492
890.871	14415
890.995	14377
891.118	14351
891.241	14343
891.364	14393
891.488	14503
891.611	14336
891.734	14366
891.857	14381
891.98	14324
892.103	14495
892.226	14457
892.349	14267
892.471	14081
892.594	14396
892.717	14355
892.839	14396
892.962	14309
893.085	14377
893.207	14431
893.33	14195
893.452	14275
893.575	14412
893.697	14298
893.819	14526
893.941	14549
894.064	14507
894.186	14313
894.308	14377
894.43	14438
894.552	14556
894.674	14480
894.796	14248
894.918	14446
895.04	14374
895.161	14484
895.283	14393
895.405	14423
895.526	14328
895.648	14518
895.769	14549
895.891	14465
896.012	14549
896.134	14556
896.255	14613
896.376	14431
896.498	14499
896.619	14545
896.74	14465
896.861	14511
896.982	14891
897.103	15036
897.224	14773
897.345	14746
897.466	14743
897.587	14815
897.708	14960
897.828	14880
897.949	14705
898.07	14571
898.19	14842
898.311	14891
898.431	14743
898.552	14823
898.672	14982
898.792	14830
898.913	14937
899.033	14792
899.153	14682
899.273	14552
899.393	14659
899.513	14613
899.633	14773
899.753	14724
899.873	14796
899.993	14796
900.113	14701
900.232	14708
900.352	14667
900.472	14632
900.591	14438
900.711	14678
900.83	14545
900.95	14705
901.069	14746
901.189	14522
901.308	14351
901.427	14214
901.546	14267
901.665	14202
901.784	14286
901.904	14073
902.023	14008
902.141	13955
902.26	13833
902.379	13944
902.498	13780
902.617	13799
902.735	13849
902.854	13818
902.973	13818
903.091	13491
903.21	13476
903.328	13563
903.446	13346
903.565	13388
903.683	13430
903.801	13312
903.919	13289
904.038	13362
904.156	13114
904.274	13209
904.392	13190
904.51	13164
904.627	13095
904.745	13327
904.863	13346
904.981	13076
905.098	12886
905.216	12844
905.334	12859
905.451	12878
905.569	12837
905.686	12894
905.803	12829
905.921	12726
906.038	12719
906.155	12753
906.272	12635
906.389	12612
906.506	12475
906.623	12486
906.74	12479
906.857	12422
906.974	12372
907.091	12486
907.208	12585
907.324	12448
907.441	12433
907.557	12239
907.674	12201
907.79	12129
907.907	12262
908.023	12228
908.139	12273
908.256	12148
908.372	12140
908.488	12121
908.604	11992
908.72	11958
908.836	12019
908.952	11912
909.068	12015
909.184	12045
909.3	11927
909.415	11939
909.531	11927
909.647	11771
909.762	11775
909.878	11676
909.993	11767
910.108	11752
910.224	11710
910.339	11695
910.454	11619
910.57	11543
910.685	11554
910.8	11866
910.915	11680
911.03	11551
911.145	11448
911.259	11455
911.374	11570
911.489	11398
911.604	11280
911.718	11235
911.833	11174
911.947	11079
912.062	11022
912.176	11216
912.291	11178
912.405	11231
912.519	11421
912.633	11273
912.748	11181
912.862	11204
912.976	11018
913.09	11010
913.204	10972
913.318	10991
913.431	11201
913.545	11048
913.659	11220
913.772	11025
913.886	10991
914	10968
914.113	11041
914.226	11147
914.34	11052
914.453	10847
914.566	11048
914.68	10908
914.793	10858
914.906	10717
915.019	10668
915.132	10607
915.245	10656
915.358	10740
915.47	10702
915.583	10706
915.696	10736
915.809	10763
915.921	10831
916.034	10607
916.146	10596
916.259	10596
916.371	10626
916.483	10672
916.595	10637
916.708	10611
916.82	10542
916.932	10546
917.044	10561
917.156	10588
917.268	10592
917.38	10577
917.491	10428
917.603	10531
917.715	10573
917.826	10558
917.938	10519
918.049	10417
918.161	10489
918.272	10672
918.384	10592
918.495	10504
918.606	10402
918.717	10333
918.828	10352
918.939	10451
919.05	10261
919.161	10432
919.272	10207
919.383	10246
919.494	10421
919.604	10573
919.715	10398
919.826	10291
919.936	10382
920.047	10493
920.157	10535
920.267	10649
920.378	10436
920.488	10409
920.598	10721
920.708	10763
920.818	10550
920.928	10523
921.038	10691
921.148	10725
921.258	10409
921.368	10287
921.477	10238
921.587	10200
921.697	10154
921.806	10268
921.916	10162
922.025	10063
922.134	9854
922.244	9934
922.353	9945
922.462	9865
922.571	9785
922.68	9610
922.789	9633
922.898	9606
923.007	9523
923.116	9648
923.224	9622
923.333	9618
923.442	9561
923.55	9500
923.659	9606
923.767	9568
923.876	9545
923.984	9614
924.092	9462
924.201	9447
924.309	9435
924.417	9557
924.525	9431
924.633	9507
924.741	10432
924.849	9237
924.956	9443
925.064	9294
925.172	9203
925.279	9313
925.387	9272
925.494	9336
925.602	9416
925.709	9393
925.816	9207
925.924	9275
926.031	9401
926.138	9203
926.245	9367
926.352	9169
926.459	9405
926.566	9386
926.673	9294
926.779	9173
926.886	9131
926.993	9074
927.099	8994
927.206	8891
927.312	8971
927.419	9024
927.525	8952
927.631	8963
927.737	8929
927.843	8880
927.95	8766
928.056	8838
928.162	8853
928.267	8853
928.373	9447
928.479	8910
928.585	8777
928.69	8754
928.796	8918
928.901	8777
929.007	8762
929.112	8773
929.218	8739
929.323	8636
929.428	8674
929.533	8891
929.638	8663
929.743	8613
929.848	8720
929.953	8735
930.058	8632
930.163	8389
930.267	8454
930.372	8670
930.477	8438
930.581	8697
930.685	8514
930.79	8412
930.894	8499
930.998	8434
931.103	8518
931.207	8237
931.311	8145
931.415	8096
931.519	7959
931.623	7932
