Data from test_V78500241_1627.txt Node
Date: Fri Mar 25 14:45:02 CST 2022
User: usil
Spectrometer: V785-0024
Trigger mode: 0
Integration Time (sec): 4.000000E-1
Scans to average: 1
Nonlinearity correction enabled: false
Boxcar width: 0
Storing dark spectrum: false
XAxis mode: Wavelengths
Number of Pixels in Spectrum: 1024
>>>>>Begin Spectral Data<<<<<
801.071	22272
801.214	22150
801.356	21934
801.499	21762
801.641	21732
801.783	21797
801.926	21694
802.068	21515
802.211	21515
802.353	21485
802.496	21283
802.638	21146
802.78	21222
802.923	21150
803.065	20952
803.208	20941
803.35	21020
803.492	21100
803.635	21222
803.777	20994
803.919	21066
804.061	21355
804.204	21043
804.346	20979
804.488	20941
804.63	20861
804.773	20861
804.915	20979
805.057	21024
805.199	20948
805.341	21047
805.483	21116
805.626	20979
805.768	20929
805.91	20960
806.052	21039
806.194	20910
806.336	21108
806.478	20979
806.62	20914
806.762	20982
806.904	21005
807.046	21317
807.188	21283
807.33	21226
807.472	21367
807.614	21211
807.756	21374
807.898	21188
808.04	20982
808.182	21013
808.324	21100
808.465	21161
808.607	21283
808.749	21477
808.891	21420
809.033	21557
809.174	21511
809.316	21431
809.458	21428
809.6	21173
809.741	21291
809.883	21408
810.025	21545
810.166	21443
810.308	21526
810.45	21545
810.591	21382
810.733	21264
810.875	21245
811.016	21051
811.158	21043
811.299	21135
811.441	21241
811.582	21245
811.724	21089
811.865	21138
812.007	21077
812.148	21104
812.29	21222
812.431	21237
812.573	21374
812.714	21492
812.855	21633
812.997	21644
813.138	21823
813.279	21789
813.421	21622
813.562	21466
813.703	21370
813.845	21154
813.986	21039
814.127	20834
814.268	20705
814.41	20648
814.551	20655
814.692	20682
814.833	20674
814.974	20689
815.115	20617
815.256	20450
815.397	20533
815.539	20575
815.68	20393
815.821	20412
815.962	20355
816.103	20431
816.244	20202
816.385	20153
816.526	20081
816.666	19940
816.807	19830
816.948	19856
817.089	19955
817.23	19818
817.371	19791
817.512	20016
817.653	19731
817.793	19761
817.934	19887
818.075	19917
818.216	19784
818.356	19776
818.497	19700
818.638	19616
818.778	19445
818.919	19464
819.06	19548
819.2	19647
819.341	19616
819.481	19643
819.622	19719
819.762	20024
819.903	19951
820.043	19845
820.184	19696
820.324	19765
820.465	19826
820.605	19784
820.746	19731
820.886	19753
821.026	19799
821.167	19689
821.307	19807
821.447	19689
821.588	19632
821.728	19594
821.868	19388
822.008	19114
822.149	19187
822.289	19034
822.429	18913
822.569	18901
822.709	18833
822.849	18795
822.99	18711
823.13	18627
823.27	18669
823.41	18521
823.55	18414
823.69	18486
823.83	18559
823.97	18513
824.11	18167
824.25	18171
824.389	18292
824.529	18388
824.669	18216
824.809	18395
824.949	18323
825.089	18292
825.228	18159
825.368	18022
825.508	17996
825.648	18057
825.787	18068
825.927	18079
826.067	17939
826.206	17885
826.346	18102
826.485	18060
826.625	18064
826.765	18167
826.904	18117
827.044	17756
827.183	17794
827.323	17653
827.462	17707
827.601	17783
827.741	17733
827.88	17714
828.02	17600
828.159	17805
828.298	17786
828.437	17824
828.577	17642
828.716	17840
828.855	17748
828.994	17516
829.134	17524
829.273	17551
829.412	17410
829.551	17311
829.69	17452
829.829	17535
829.968	17539
830.107	17509
830.246	17478
830.385	17383
830.524	17353
830.663	17341
830.802	17178
830.941	17071
831.08	17105
831.219	17094
831.357	17147
831.496	17254
831.635	17010
831.774	17006
831.913	16896
832.051	16911
832.19	16911
832.329	16866
832.467	16717
832.606	16721
832.744	16778
832.883	16763
833.022	16717
833.16	16816
833.299	16774
833.437	16706
833.576	16904
833.714	16820
833.852	16892
833.991	16915
834.129	16759
834.267	16934
834.406	16843
834.544	16866
834.682	16873
834.821	16740
834.959	16889
835.097	16896
835.235	16862
835.373	16755
835.511	16771
835.65	16850
835.788	16763
835.926	16596
836.064	16596
836.202	16424
836.34	16736
836.478	16805
836.615	16729
836.753	16763
836.891	16725
837.029	16740
837.167	16634
837.305	16641
837.443	16588
837.58	16561
837.718	16641
837.856	16607
837.993	16424
838.131	16516
838.269	16592
838.406	16592
838.544	16390
838.681	16246
838.819	16173
838.956	16215
839.094	16192
839.231	16143
839.369	16306
839.506	16424
839.643	16398
839.781	16150
839.918	15975
840.055	16207
840.193	16048
840.33	15972
840.467	16131
840.604	16192
840.742	16337
840.879	15922
841.016	16029
841.153	16010
841.29	16242
841.427	16166
841.564	16150
841.701	16147
841.838	16082
841.975	16044
842.112	16112
842.249	15926
842.385	15835
842.522	16051
842.659	15835
842.796	15888
842.933	15831
843.069	15842
843.206	15892
843.343	15899
843.479	15903
843.616	16040
843.752	15660
843.889	15686
844.025	15850
844.162	15660
844.298	15694
844.435	15663
844.571	15675
844.708	15709
844.844	15926
844.98	15789
845.117	15835
845.253	15561
845.389	15564
845.525	15515
845.661	15652
845.798	15572
845.934	15644
846.07	15545
846.206	15561
846.342	15728
846.478	15458
846.614	15306
846.75	15154
846.886	15249
847.022	15237
847.158	15306
847.294	15214
847.429	15325
847.565	15184
847.701	15504
847.837	15001
847.972	15009
848.108	14986
848.244	15097
848.379	14944
848.515	14823
848.65	14735
848.786	14842
848.921	14906
849.057	15017
849.192	14925
849.328	14834
849.463	14823
849.598	14819
849.734	14826
849.869	14670
850.004	14640
850.14	14689
850.275	14640
850.41	14556
850.545	14625
850.68	14686
850.815	14613
850.95	14625
851.085	14739
851.22	14705
851.355	14651
851.49	14583
851.625	14598
851.76	14533
851.895	14522
852.03	14499
852.165	14693
852.299	14693
852.434	14765
852.569	14663
852.703	14617
852.838	14629
852.973	14739
853.107	14750
853.242	14556
853.376	14552
853.511	14362
853.645	14374
853.78	14708
853.914	14617
854.048	14488
854.183	14469
854.317	14461
854.451	14663
854.585	14488
854.72	14355
854.854	14568
854.988	14438
855.122	14495
855.256	14286
855.39	14480
855.524	14488
855.658	14454
855.792	14450
855.926	14571
856.06	14556
856.194	14617
856.327	14541
856.461	14431
856.595	14408
856.729	14480
856.862	14503
856.996	14473
857.13	14526
857.263	14621
857.397	14659
857.53	14545
857.664	14488
857.797	14575
857.931	14587
858.064	14541
858.197	14667
858.331	14560
858.464	14492
858.597	14469
858.731	14450
858.864	14419
858.997	14469
859.13	14473
859.263	14579
859.396	14587
859.529	14423
859.662	14473
859.795	14366
859.928	14556
860.061	14682
860.194	14575
860.327	14511
860.46	14400
860.592	14556
860.725	14598
860.858	14602
860.99	14514
861.123	14404
861.256	14278
861.388	14469
861.521	15165
861.653	14347
861.786	14332
861.918	14442
862.05	14328
862.183	14488
862.315	14522
862.447	14552
862.58	14415
862.712	14237
862.844	14130
862.976	14370
863.108	14237
863.24	14735
863.372	14263
863.504	14301
863.636	14294
863.768	14301
863.9	14301
864.032	14126
864.164	14221
864.296	14237
864.428	14393
864.559	14305
864.691	14434
864.823	14294
864.954	14214
865.086	14290
865.217	14145
865.349	14275
865.48	14225
865.612	14259
865.743	14423
865.875	14218
866.006	14267
866.137	14240
866.269	14229
866.4	14176
866.531	14275
866.662	14126
866.793	14138
866.924	14202
867.055	14237
867.186	14187
867.317	14183
867.448	14176
867.579	14317
867.71	14092
867.841	14123
867.972	14214
868.103	14240
868.233	14309
868.364	14271
868.495	14374
868.625	14400
868.756	14564
868.886	14408
869.017	14381
869.147	14579
869.278	14556
869.408	14530
869.539	14526
869.669	14511
869.799	14503
869.929	14533
870.06	14568
870.19	14811
870.32	14682
870.45	14788
870.58	14982
870.71	14971
870.84	14944
870.97	14819
871.1	14838
871.23	15058
871.36	15062
871.489	15051
871.619	15020
871.749	14979
871.879	15070
872.008	15108
872.138	15104
872.267	15039
872.397	14861
872.526	15005
872.656	14937
872.785	14845
872.915	15070
873.044	15203
873.173	15138
873.303	15154
873.432	15199
873.561	15203
873.69	15138
873.819	15226
873.948	15287
874.077	15108
874.206	15157
874.335	15146
874.464	15218
874.593	15405
874.722	15313
874.851	15439
874.979	15595
875.108	15481
875.237	15405
875.365	15355
875.494	15473
875.623	15469
875.751	15431
875.88	15523
876.008	15572
876.136	15622
876.265	15785
876.393	15949
876.521	15964
876.65	15937
876.778	15808
876.906	15804
877.034	15816
877.162	15793
877.29	15838
877.418	15880
877.546	15831
877.674	15766
877.802	15892
877.93	15926
878.058	15850
878.185	15755
878.313	15854
878.441	15903
878.568	15797
878.696	15880
878.824	15861
878.951	15953
879.079	15960
879.206	16181
879.333	16063
879.461	16032
879.588	15964
879.715	16131
879.842	16242
879.97	16105
880.097	15694
880.224	15671
880.351	15778
880.478	15759
880.605	15701
880.732	15686
880.859	15994
880.986	15682
881.112	15739
881.239	15648
881.366	15462
881.493	15462
881.619	15287
881.746	15367
881.872	15344
881.999	15325
882.125	15287
882.252	15378
882.378	15397
882.505	15523
882.631	15287
882.757	15112
882.883	15195
883.01	15203
883.136	15039
883.262	15051
883.388	14994
883.514	15226
883.64	15230
883.766	15074
883.892	15051
884.018	14967
884.143	15146
884.269	15245
884.395	14963
884.52	14883
884.646	14887
884.772	14777
884.897	14724
885.023	14933
885.148	15017
885.274	15001
885.399	14925
885.524	14857
885.65	14960
885.775	14918
885.9	14925
886.025	14902
886.15	14925
886.275	14826
886.4	14765
886.525	14895
886.65	14838
886.775	14804
886.9	15043
887.025	15154
887.149	14807
887.274	14735
887.399	14739
887.523	14792
887.648	14697
887.773	14689
887.897	14716
888.021	14826
888.146	14701
888.27	14731
888.395	14807
888.519	14769
888.643	14667
888.767	14743
888.891	14545
889.015	14541
889.139	14514
889.263	14674
889.387	14621
889.511	14838
889.635	14739
889.759	14602
889.883	14473
890.006	14716
890.13	14727
890.254	14438
890.377	14393
890.501	14347
890.624	14237
890.748	14385
890.871	14343
890.995	14191
891.118	14164
891.241	14320
891.364	14218
891.488	14438
891.611	14271
891.734	14328
891.857	14336
891.98	14214
892.103	14358
892.226	14309
892.349	14229
892.471	14096
892.594	14180
892.717	14161
892.839	14244
892.962	14267
893.085	14248
893.207	14218
893.33	14176
893.452	14221
893.575	14275
893.697	14313
893.819	14374
893.941	14503
894.064	14339
894.186	14275
894.308	14225
894.43	14431
894.552	14480
894.674	14339
894.796	14252
894.918	14278
895.04	14271
895.161	14415
895.283	14286
895.405	14286
895.526	14389
895.648	14317
895.769	14427
895.891	14423
896.012	14434
896.134	14457
896.255	14457
896.376	14339
896.498	14404
896.619	14511
896.74	14396
896.861	14484
896.982	14674
897.103	14842
897.224	14727
897.345	14632
897.466	14613
897.587	14663
897.708	14785
897.828	14701
897.949	14670
898.07	14442
898.19	14659
898.311	14910
898.431	14739
898.552	14800
898.672	14819
898.792	14902
898.913	14785
899.033	14686
899.153	14667
899.273	14511
899.393	14587
899.513	14701
899.633	14530
899.753	14556
899.873	14541
899.993	14716
900.113	14594
900.232	14598
900.352	14705
900.472	14552
900.591	14438
900.711	14499
900.83	14473
900.95	14568
901.069	14499
901.189	14389
901.308	14142
901.427	14084
901.546	14084
901.665	14256
901.784	14187
901.904	14020
902.023	13921
902.141	13868
902.26	13852
902.379	13753
902.498	13582
902.617	13693
902.735	13704
902.854	13666
902.973	13647
903.091	13449
903.21	13434
903.328	13537
903.446	13388
903.565	13308
903.683	13358
903.801	13160
903.919	13183
904.038	13228
904.156	13080
904.274	13198
904.392	13027
904.51	13118
904.627	13107
904.745	13088
904.863	13118
904.981	12901
905.098	12875
905.216	12745
905.334	12954
905.451	12802
905.569	12779
905.686	12844
905.803	12806
905.921	12642
906.038	12768
906.155	12707
906.272	12589
906.389	12582
906.506	12350
906.623	12338
906.74	12346
906.857	12273
906.974	12224
907.091	12429
907.208	12490
907.324	12334
907.441	12262
907.557	12159
907.674	12068
907.79	12057
907.907	12106
908.023	12175
908.139	12140
908.256	12087
908.372	12121
908.488	11977
908.604	11927
908.72	11817
908.836	11779
908.952	11863
909.068	11882
909.184	11996
909.3	11809
909.415	11942
909.531	11935
909.647	11802
909.762	11703
909.878	11653
909.993	11737
910.108	11627
910.224	11589
910.339	11627
910.454	11520
910.57	11539
910.685	11486
910.8	11688
910.915	11634
911.03	11444
911.145	11414
911.259	11330
911.374	11307
911.489	11254
911.604	11254
911.718	11201
911.833	11140
911.947	11006
912.062	10976
912.176	11071
912.291	11060
912.405	11075
912.519	11223
912.633	11337
912.748	11220
912.862	11071
912.976	11090
913.09	10896
913.204	10999
913.318	10908
913.431	11079
913.545	11098
913.659	11109
913.772	11025
913.886	10904
914	10862
914.113	10946
914.226	11010
914.34	11018
914.453	10744
914.566	10968
914.68	10755
914.793	10809
914.906	10622
915.019	10546
915.132	10569
915.245	10588
915.358	10588
915.47	10630
915.583	10611
915.696	10660
915.809	10778
915.921	10687
916.034	10630
916.146	10554
916.259	10489
916.371	10660
916.483	10675
916.595	10531
916.708	10546
916.82	10535
916.932	10527
917.044	10580
917.156	10523
917.268	10375
917.38	10451
917.491	10318
917.603	10459
917.715	10470
917.826	10561
917.938	10413
918.049	10249
918.161	10447
918.272	10588
918.384	10580
918.495	10371
918.606	10291
918.717	10261
918.828	10356
918.939	10337
919.05	10169
919.161	10246
919.272	10090
919.383	10162
919.494	10303
919.604	10561
919.715	10371
919.826	10253
919.936	10386
920.047	10360
920.157	10322
920.267	10615
920.378	10386
920.488	10306
920.598	10523
920.708	10634
920.818	10504
920.928	10500
921.038	10755
921.148	10656
921.258	10348
921.368	10287
921.477	10215
921.587	10158
921.697	10067
921.806	10181
921.916	10017
922.025	9899
922.134	9949
922.244	9857
922.353	9926
922.462	9846
922.571	9663
922.68	9488
922.789	9564
922.898	9622
923.007	9545
923.116	9599
923.224	9584
923.333	9557
923.442	9443
923.55	9481
923.659	9500
923.767	9443
923.876	9428
923.984	9561
924.092	9454
924.201	9378
924.309	9477
924.417	9447
924.525	9344
924.633	9492
924.741	10128
924.849	9150
924.956	9393
925.064	9237
925.172	9119
925.279	9207
925.387	9237
925.494	9294
925.602	9359
925.709	9298
925.816	9173
925.924	9245
926.031	9340
926.138	9188
926.245	9226
926.352	9176
926.459	9336
926.566	9336
926.673	9161
926.779	9085
926.886	9074
926.993	8971
927.099	8948
927.206	8925
927.312	8815
927.419	8910
927.525	8921
927.631	8887
927.737	8876
927.843	8785
927.95	8708
928.056	8864
928.162	8876
928.267	8921
928.373	9408
928.479	8986
928.585	8731
928.69	8796
928.796	8872
928.901	8705
929.007	8602
929.112	8792
929.218	8682
929.323	8651
929.428	8594
929.533	8781
929.638	8621
929.743	8686
929.848	8727
929.953	8629
930.058	8571
930.163	8412
930.267	8389
930.372	8568
930.477	8450
930.581	8602
930.685	8530
930.79	8393
930.894	8355
930.998	8301
931.103	8473
931.207	8157
931.311	8088
931.415	8058
931.519	7883
931.623	7868
