Data from test_V78500241_1809.txt Node
Date: Fri Mar 25 14:46:18 CST 2022
User: usil
Spectrometer: V785-0024
Trigger mode: 0
Integration Time (sec): 4.000000E-1
Scans to average: 1
Nonlinearity correction enabled: false
Boxcar width: 0
Storing dark spectrum: false
XAxis mode: Wavelengths
Number of Pixels in Spectrum: 1024
>>>>>Begin Spectral Data<<<<<
801.071	22097
801.214	22082
801.356	21823
801.499	21713
801.641	21473
801.783	21443
801.926	21561
802.068	21534
802.211	21405
802.353	21359
802.496	21116
802.638	21081
802.78	21009
802.923	20861
803.065	20826
803.208	20720
803.35	20750
803.492	21074
803.635	21089
803.777	20716
803.919	20967
804.061	21176
804.204	20963
804.346	20819
804.488	20739
804.63	20876
804.773	20823
804.915	20773
805.057	20899
805.199	20826
805.341	20861
805.483	20929
805.626	20815
805.768	20762
805.91	20807
806.052	20773
806.194	20629
806.336	20948
806.478	20773
806.62	20689
806.762	20754
806.904	20929
807.046	21173
807.188	21013
807.33	21123
807.472	21169
807.614	20914
807.756	21043
807.898	20902
808.04	20739
808.182	20929
808.324	20788
808.465	20876
808.607	20963
808.749	21203
808.891	21279
809.033	21351
809.174	21207
809.316	21081
809.458	21192
809.6	21051
809.741	21165
809.883	21211
810.025	21344
810.166	21348
810.308	21291
810.45	21359
810.591	21268
810.733	21062
810.875	20971
811.016	20792
811.158	20902
811.299	21013
811.441	21138
811.582	21005
811.724	21039
811.865	20834
812.007	20906
812.148	21032
812.29	20933
812.431	21108
812.573	21241
812.714	21294
812.855	21279
812.997	21492
813.138	21625
813.279	21435
813.421	21428
813.562	21348
813.703	21233
813.845	21085
813.986	20663
814.127	20659
814.268	20492
814.41	20644
814.551	20564
814.692	20503
814.833	20358
814.974	20541
815.115	20480
815.256	20309
815.397	20336
815.539	20301
815.68	20183
815.821	20206
815.962	20336
816.103	20206
816.244	19993
816.385	20001
816.526	20027
816.666	19822
816.807	19647
816.948	19670
817.089	19753
817.23	19700
817.371	19594
817.512	19620
817.653	19616
817.793	19495
817.934	19616
818.075	19689
818.216	19552
818.356	19578
818.497	19537
818.638	19217
818.778	19400
818.919	19304
819.06	19422
819.2	19480
819.341	19632
819.481	19426
819.622	19677
819.762	19849
819.903	19738
820.043	19628
820.184	19658
820.324	19518
820.465	19658
820.605	19590
820.746	19620
820.886	19518
821.026	19434
821.167	19556
821.307	19487
821.447	19537
821.588	19289
821.728	19278
821.868	19152
822.008	19084
822.149	19023
822.289	19004
822.429	18817
822.569	18650
822.709	18677
822.849	18426
822.99	18506
823.13	18475
823.27	18460
823.41	18330
823.55	18235
823.69	18311
823.83	18330
823.97	18277
824.11	18034
824.25	18110
824.389	18098
824.529	18232
824.669	18026
824.809	18186
824.949	18152
825.089	18178
825.228	18049
825.368	17992
825.508	17927
825.648	17931
825.787	17965
825.927	17885
826.067	17916
826.206	17931
826.346	17878
826.485	17828
826.625	17832
826.765	17916
826.904	17878
827.044	17600
827.183	17623
827.323	17547
827.462	17710
827.601	17436
827.741	17516
827.88	17558
828.02	17501
828.159	17360
828.298	17543
828.437	17714
828.577	17604
828.716	17657
828.855	17573
828.994	17345
829.134	17288
829.273	17379
829.412	17311
829.551	17193
829.69	17223
829.829	17315
829.968	17417
830.107	17284
830.246	17341
830.385	17246
830.524	17212
830.663	17140
830.802	17090
830.941	16911
831.08	16900
831.219	17083
831.357	16953
831.496	17079
831.635	16797
831.774	16831
831.913	16774
832.051	16790
832.19	16786
832.329	16771
832.467	16706
832.606	16641
832.744	16573
832.883	16637
833.022	16611
833.16	16687
833.299	16588
833.437	16607
833.576	16702
833.714	16656
833.852	16691
833.991	16694
834.129	16748
834.267	16706
834.406	16706
834.544	16835
834.682	16706
834.821	16679
834.959	16721
835.097	16660
835.235	16641
835.373	16694
835.511	16710
835.65	16596
835.788	16565
835.926	16455
836.064	16447
836.202	16402
836.34	16588
836.478	16752
836.615	16554
836.753	16546
836.891	16740
837.029	16550
837.167	16561
837.305	16504
837.443	16542
837.58	16443
837.718	16516
837.856	16531
837.993	16352
838.131	16413
838.269	16440
838.406	16402
838.544	16257
838.681	16185
838.819	16105
838.956	15918
839.094	15941
839.231	16048
839.369	16135
839.506	16421
839.643	16204
839.781	15907
839.918	15922
840.055	15937
840.193	15994
840.33	16040
840.467	16078
840.604	16044
840.742	16242
840.879	15808
841.016	15865
841.153	15998
841.29	16078
841.427	15998
841.564	16029
841.701	16010
841.838	15975
841.975	15892
842.112	15888
842.249	15774
842.385	15713
842.522	15899
842.659	15736
842.796	15819
842.933	15812
843.069	15709
843.206	15743
843.343	15854
843.479	15774
843.616	15903
843.752	15629
843.889	15530
844.025	15713
844.162	15553
844.298	15705
844.435	15545
844.571	15572
844.708	15584
844.844	15652
844.98	15713
845.117	15644
845.253	15564
845.389	15386
845.525	15568
845.661	15450
845.798	15355
845.934	15386
846.07	15325
846.206	15374
846.342	15431
846.478	15317
846.614	15157
846.75	15066
846.886	15123
847.022	15154
847.158	15062
847.294	15146
847.429	15081
847.565	15138
847.701	15336
847.837	14880
847.972	14853
848.108	14956
848.244	14857
848.379	14830
848.515	14743
848.65	14644
848.786	14659
848.921	14743
849.057	14796
849.192	14804
849.328	14743
849.463	14701
849.598	14621
849.734	14731
849.869	14552
850.004	14568
850.14	14511
850.275	14537
850.41	14412
850.545	14389
850.68	14434
850.815	14476
850.95	14533
851.085	14613
851.22	14583
851.355	14530
851.49	14514
851.625	14480
851.76	14393
851.895	14351
852.03	14301
852.165	14461
852.299	14507
852.434	14602
852.569	14522
852.703	14590
852.838	14400
852.973	14606
853.107	14495
853.242	14503
853.376	14366
853.511	14248
853.645	14332
853.78	14431
853.914	14404
854.048	14377
854.183	14286
854.317	14366
854.451	14518
854.585	14381
854.72	14347
854.854	14434
854.988	14336
855.122	14275
855.256	14183
855.39	14339
855.524	14499
855.658	14404
855.792	14317
855.926	14362
856.06	14431
856.194	14526
856.327	14457
856.461	14389
856.595	14347
856.729	14328
856.862	14377
856.996	14450
857.13	14431
857.263	14499
857.397	14560
857.53	14358
857.664	14442
857.797	14389
857.931	14461
858.064	14469
858.197	14461
858.331	14351
858.464	14324
858.597	14271
858.731	14275
858.864	14427
858.997	14415
859.13	14355
859.263	14427
859.396	14400
859.529	14229
859.662	14385
859.795	14320
859.928	14358
860.061	14507
860.194	14442
860.327	14423
860.46	14332
860.592	14503
860.725	14522
860.858	14465
860.99	14320
861.123	14183
861.256	14355
861.388	14355
861.521	14906
861.653	14248
861.786	14130
861.918	14221
862.05	14267
862.183	14317
862.315	14324
862.447	14347
862.58	14298
862.712	14130
862.844	14058
862.976	14142
863.108	14195
863.24	14564
863.372	14092
863.504	14138
863.636	14134
863.768	14240
863.9	14187
864.032	14100
864.164	14024
864.296	14317
864.428	14282
864.559	14168
864.691	14320
864.823	14240
864.954	14225
865.086	14229
865.217	14096
865.349	14096
865.48	14065
865.612	14134
865.743	14275
865.875	14202
866.006	14115
866.137	14180
866.269	14130
866.4	14100
866.531	14134
866.662	14088
866.793	14050
866.924	14058
867.055	14157
867.186	14100
867.317	14183
867.448	14103
867.579	14103
867.71	14005
867.841	14043
867.972	14081
868.103	14142
868.233	14088
868.364	14126
868.495	14218
868.625	14427
868.756	14495
868.886	14374
869.017	14408
869.147	14522
869.278	14514
869.408	14374
869.539	14423
869.669	14412
869.799	14343
869.929	14442
870.06	14427
870.19	14659
870.32	14606
870.45	14746
870.58	14785
870.71	15001
870.84	14773
870.97	14731
871.1	14769
871.23	14899
871.36	14975
871.489	14891
871.619	14853
871.749	14921
871.879	15020
872.008	15142
872.138	14948
872.267	14944
872.397	14823
872.526	14800
872.656	14788
872.785	14891
872.915	14963
873.044	15085
873.173	14971
873.303	15032
873.432	15093
873.561	15169
873.69	15081
873.819	15058
873.948	15009
874.077	15009
874.206	15001
874.335	14979
874.464	15154
874.593	15237
874.722	15188
874.851	15359
874.979	15420
875.108	15336
875.237	15275
875.365	15131
875.494	15302
875.623	15462
875.751	15332
875.88	15367
876.008	15485
876.136	15488
876.265	15686
876.393	15819
876.521	15854
876.65	15869
876.778	15770
876.906	15713
877.034	15625
877.162	15766
877.29	15629
877.418	15789
877.546	15720
877.674	15751
877.802	15755
877.93	15732
878.058	15724
878.185	15648
878.313	15778
878.441	15812
878.568	15572
878.696	15717
878.824	15732
878.951	15671
879.079	16017
879.206	16090
879.333	15835
879.461	15857
879.588	15884
879.715	15884
879.842	15922
879.97	15739
880.097	15614
880.224	15595
880.351	15549
880.478	15591
880.605	15530
880.732	15534
880.859	15797
880.986	15633
881.112	15622
881.239	15504
881.366	15405
881.493	15275
881.619	15264
881.746	15325
881.872	15367
881.999	15188
882.125	15268
882.252	15241
882.378	15321
882.505	15485
882.631	15157
882.757	15112
882.883	15157
883.01	15097
883.136	15112
883.262	14910
883.388	14891
883.514	15024
883.64	15119
883.766	14971
883.892	14868
884.018	14963
884.143	15074
884.269	15138
884.395	14777
884.52	14739
884.646	14838
884.772	14682
884.897	14731
885.023	14819
885.148	14918
885.274	14914
885.399	14796
885.524	14750
885.65	14830
885.775	14796
885.9	14746
886.025	14876
886.15	14796
886.275	14693
886.4	14750
886.525	14716
886.65	14644
886.775	14708
886.9	14868
887.025	14963
887.149	14823
887.274	14689
887.399	14514
887.523	14492
887.648	14587
887.773	14503
887.897	14708
888.021	14682
888.146	14507
888.27	14689
888.395	14773
888.519	14644
888.643	14640
888.767	14659
888.891	14442
889.015	14454
889.139	14507
889.263	14423
889.387	14610
889.511	14758
889.635	14541
889.759	14503
889.883	14446
890.006	14587
890.13	14602
890.254	14419
890.377	14408
890.501	14191
890.624	14290
890.748	14366
890.871	14210
890.995	14161
891.118	14069
891.241	14164
891.364	14313
891.488	14202
891.611	14183
891.734	14271
891.857	14267
891.98	14153
892.103	14195
892.226	14202
892.349	14126
892.471	13909
892.594	14195
892.717	14161
892.839	14202
892.962	14240
893.085	14202
893.207	14096
893.33	14115
893.452	14065
893.575	14202
893.697	14123
893.819	14286
893.941	14358
894.064	14400
894.186	14199
894.308	14081
894.43	14328
894.552	14396
894.674	14305
894.796	14130
894.918	14191
895.04	14172
895.161	14366
895.283	14358
895.405	14256
895.526	14256
895.648	14294
895.769	14404
895.891	14309
896.012	14454
896.134	14393
896.255	14366
896.376	14229
896.498	14351
896.619	14366
896.74	14377
896.861	14309
896.982	14777
897.103	14895
897.224	14648
897.345	14617
897.466	14545
897.587	14549
897.708	14686
897.828	14629
897.949	14613
898.07	14457
898.19	14518
898.311	14663
898.431	14571
898.552	14724
898.672	14834
898.792	14720
898.913	14659
899.033	14625
899.153	14602
899.273	14522
899.393	14552
899.513	14590
899.633	14511
899.753	14480
899.873	14552
899.993	14537
900.113	14575
900.232	14541
900.352	14526
900.472	14385
900.591	14396
900.711	14393
900.83	14423
900.95	14503
901.069	14522
901.189	14358
901.308	14176
901.427	14050
901.546	14050
901.665	14016
901.784	14164
901.904	14024
902.023	13803
902.141	13765
902.26	13643
902.379	13814
902.498	13677
902.617	13677
902.735	13662
902.854	13616
902.973	13575
903.091	13346
903.21	13358
903.328	13339
903.446	13339
903.565	13152
903.683	13202
903.801	13126
903.919	13126
904.038	13278
904.156	13015
904.274	13057
904.392	13088
904.51	13004
904.627	12985
904.745	13103
904.863	13099
904.981	12779
905.098	12779
905.216	12764
905.334	12810
905.451	12715
905.569	12692
905.686	12817
905.803	12700
905.921	12574
906.038	12547
906.155	12616
906.272	12410
906.389	12426
906.506	12361
906.623	12376
906.74	12273
906.857	12285
906.974	12140
907.091	12342
907.208	12410
907.324	12365
907.441	12194
907.557	12068
907.674	12034
907.79	12015
907.907	12030
908.023	12076
908.139	12076
908.256	11980
908.372	11958
908.488	12030
908.604	11779
908.72	11843
908.836	11863
908.952	11764
909.068	11882
909.184	11935
909.3	11722
909.415	11847
909.531	11821
909.647	11566
909.762	11482
909.878	11551
909.993	11611
910.108	11562
910.224	11554
910.339	11581
910.454	11459
910.57	11425
910.685	11353
910.8	11661
910.915	11630
911.03	11433
911.145	11356
911.259	11254
911.374	11280
911.489	11174
911.604	11174
911.718	10972
911.833	11018
911.947	10946
912.062	10889
912.176	11117
912.291	11018
912.405	11033
912.519	11216
912.633	11242
912.748	11143
912.862	11060
912.976	10942
913.09	10786
913.204	10923
913.318	10923
913.431	11014
913.545	11006
913.659	11060
913.772	10934
913.886	10801
914	10748
914.113	10752
914.226	10892
914.34	10896
914.453	10717
914.566	10877
914.68	10717
914.793	10733
914.906	10618
915.019	10451
915.132	10459
915.245	10481
915.358	10573
915.47	10546
915.583	10531
915.696	10561
915.809	10683
915.921	10675
916.034	10519
916.146	10542
916.259	10455
916.371	10584
916.483	10596
916.595	10440
916.708	10497
916.82	10538
916.932	10478
917.044	10466
917.156	10470
917.268	10329
917.38	10371
917.491	10352
917.603	10421
917.715	10424
917.826	10485
917.938	10318
918.049	10234
918.161	10409
918.272	10493
918.384	10398
918.495	10363
918.606	10272
918.717	10128
918.828	10253
918.939	10306
919.05	10169
919.161	10211
919.272	10101
919.383	10139
919.494	10310
919.604	10424
919.715	10249
919.826	10181
919.936	10265
920.047	10367
920.157	10344
920.267	10436
920.378	10246
920.488	10272
920.598	10516
920.708	10603
920.818	10447
920.928	10394
921.038	10649
921.148	10558
921.258	10310
921.368	10272
921.477	10196
921.587	10124
921.697	10051
921.806	10055
921.916	10032
922.025	9903
922.134	9835
922.244	9709
922.353	9857
922.462	9705
922.571	9701
922.68	9576
922.789	9405
922.898	9625
923.007	9519
923.116	9595
923.224	9507
923.333	9549
923.442	9348
923.55	9389
923.659	9348
923.767	9500
923.876	9355
923.984	9507
924.092	9306
924.201	9462
924.309	9378
924.417	9367
924.525	9260
924.633	9329
924.741	10314
924.849	9077
924.956	9245
925.064	9131
925.172	9116
925.279	9127
925.387	9199
925.494	9184
925.602	9275
925.709	9268
925.816	9157
925.924	9233
926.031	9287
926.138	9169
926.245	9203
926.352	9051
926.459	9207
926.566	9241
926.673	9104
926.779	8982
926.886	9028
926.993	8952
927.099	8880
927.206	8823
927.312	8807
927.419	8921
927.525	8925
927.631	8937
927.737	8823
927.843	8735
927.95	8655
928.056	8754
928.162	8800
928.267	8807
928.373	9477
928.479	8864
928.585	8648
928.69	8766
928.796	8788
928.901	8674
929.007	8617
929.112	8678
929.218	8655
929.323	8659
929.428	8556
929.533	8686
929.638	8579
929.743	8560
929.848	8602
929.953	8625
930.058	8499
930.163	8320
930.267	8400
930.372	8484
930.477	8415
930.581	8602
930.685	8423
930.79	8199
930.894	8328
930.998	8252
931.103	8511
931.207	8103
931.311	8054
931.415	7947
931.519	7807
931.623	7807
