Data from test_V78500241_1752.txt Node
Date: Fri Mar 25 14:45:54 CST 2022
User: usil
Spectrometer: V785-0024
Trigger mode: 0
Integration Time (sec): 4.000000E-1
Scans to average: 1
Nonlinearity correction enabled: false
Boxcar width: 0
Storing dark spectrum: false
XAxis mode: Wavelengths
Number of Pixels in Spectrum: 1024
>>>>>Begin Spectral Data<<<<<
801.071	22234
801.214	22105
801.356	21759
801.499	21800
801.641	21496
801.783	21515
801.926	21599
802.068	21450
802.211	21363
802.353	21287
802.496	21074
802.638	20994
802.78	20956
802.923	20933
803.065	20925
803.208	20891
803.35	20857
803.492	21104
803.635	21093
803.777	20899
803.919	20975
804.061	21237
804.204	21055
804.346	20857
804.488	20712
804.63	20815
804.773	20883
804.915	20895
805.057	20948
805.199	20716
805.341	20769
805.483	20956
805.626	20944
805.768	20727
805.91	20857
806.052	20792
806.194	20800
806.336	20998
806.478	20800
806.62	20807
806.762	20891
806.904	21028
807.046	21222
807.188	21165
807.33	21180
807.472	21100
807.614	21108
807.756	21028
807.898	20914
808.04	20868
808.182	20960
808.324	20948
808.465	21039
808.607	21161
808.749	21249
808.891	21340
809.033	21378
809.174	21294
809.316	21184
809.458	21184
809.6	21218
809.741	21382
809.883	21287
810.025	21416
810.166	21374
810.308	21412
810.45	21310
810.591	21150
810.733	21085
810.875	21131
811.016	21009
811.158	20815
811.299	21024
811.441	21112
811.582	21089
811.724	21077
811.865	20967
812.007	20998
812.148	20948
812.29	20948
812.431	21146
812.573	21233
812.714	21336
812.855	21523
812.997	21515
813.138	21819
813.279	21534
813.421	21496
813.562	21401
813.703	21355
813.845	21192
813.986	20887
814.127	20659
814.268	20514
814.41	20400
814.551	20545
814.692	20514
814.833	20434
814.974	20393
815.115	20678
815.256	20305
815.397	20351
815.539	20351
815.68	20237
815.821	20218
815.962	20305
816.103	20267
816.244	20145
816.385	19967
816.526	20016
816.666	19879
816.807	19681
816.948	19746
817.089	19890
817.23	19723
817.371	19696
817.512	19639
817.653	19601
817.793	19632
817.934	19658
818.075	19651
818.216	19719
818.356	19643
818.497	19506
818.638	19396
818.778	19392
818.919	19369
819.06	19381
819.2	19449
819.341	19510
819.481	19613
819.622	19693
819.762	19921
819.903	19871
820.043	19704
820.184	19651
820.324	19601
820.465	19757
820.605	19750
820.746	19624
820.886	19510
821.026	19582
821.167	19537
821.307	19559
821.447	19620
821.588	19441
821.728	19335
821.868	19152
822.008	19046
822.149	19057
822.289	18973
822.429	18726
822.569	18631
822.709	18623
822.849	18570
822.99	18547
823.13	18460
823.27	18426
823.41	18334
823.55	18319
823.69	18410
823.83	18270
823.97	18148
824.11	18110
824.25	18182
824.389	18167
824.529	18194
824.669	18034
824.809	18315
824.949	18235
825.089	18174
825.228	18159
825.368	17878
825.508	17912
825.648	17901
825.787	18022
825.927	17847
826.067	17836
826.206	17855
826.346	17977
826.485	17847
826.625	17752
826.765	18072
826.904	17942
827.044	17680
827.183	17619
827.323	17520
827.462	17619
827.601	17570
827.741	17482
827.88	17600
828.02	17512
828.159	17627
828.298	17623
828.437	17703
828.577	17528
828.716	17703
828.855	17478
828.994	17372
829.134	17216
829.273	17315
829.412	17284
829.551	17193
829.69	17277
829.829	17303
829.968	17455
830.107	17364
830.246	17391
830.385	17185
830.524	17356
830.663	17113
830.802	16984
830.941	16915
831.08	16972
831.219	17041
831.357	16946
831.496	17147
831.635	16919
831.774	16820
831.913	16809
832.051	16767
832.19	16809
832.329	16824
832.467	16683
832.606	16603
832.744	16607
832.883	16656
833.022	16634
833.16	16771
833.299	16767
833.437	16611
833.576	16687
833.714	16793
833.852	16831
833.991	16694
834.129	16763
834.267	16790
834.406	16656
834.544	16755
834.682	16828
834.821	16710
834.959	16805
835.097	16702
835.235	16740
835.373	16706
835.511	16675
835.65	16546
835.788	16588
835.926	16447
836.064	16432
836.202	16367
836.34	16584
836.478	16706
836.615	16596
836.753	16596
836.891	16691
837.029	16641
837.167	16656
837.305	16527
837.443	16512
837.58	16375
837.718	16588
837.856	16470
837.993	16508
838.131	16516
838.269	16478
838.406	16363
838.544	16299
838.681	16188
838.819	15991
838.956	16063
839.094	16150
839.231	15972
839.369	16158
839.506	16455
839.643	16348
839.781	15991
839.918	15869
840.055	16074
840.193	16025
840.33	15991
840.467	16055
840.604	15991
840.742	16147
840.879	15857
841.016	15994
841.153	15987
841.29	16097
841.427	16021
841.564	16067
841.701	16040
841.838	15975
841.975	15865
842.112	15911
842.249	15732
842.385	15789
842.522	15850
842.659	15846
842.796	15797
842.933	15808
843.069	15743
843.206	15720
843.343	15823
843.479	15880
843.616	15724
843.752	15671
843.889	15584
844.025	15766
844.162	15637
844.298	15755
844.435	15564
844.571	15595
844.708	15671
844.844	15816
844.98	15739
845.117	15724
845.253	15591
845.389	15431
845.525	15477
845.661	15447
845.798	15359
845.934	15420
846.07	15344
846.206	15454
846.342	15511
846.478	15405
846.614	15154
846.75	15138
846.886	15176
847.022	15192
847.158	15256
847.294	15218
847.429	15150
847.565	15108
847.701	15370
847.837	14982
847.972	14891
848.108	15017
848.244	14971
848.379	14807
848.515	14705
848.65	14701
848.786	14769
848.921	14823
849.057	14823
849.192	14773
849.328	14826
849.463	14750
849.598	14762
849.734	14716
849.869	14659
850.004	14514
850.14	14568
850.275	14473
850.41	14545
850.545	14412
850.68	14541
850.815	14564
850.95	14518
851.085	14617
851.22	14610
851.355	14537
851.49	14541
851.625	14514
851.76	14579
851.895	14332
852.03	14404
852.165	14427
852.299	14522
852.434	14541
852.569	14514
852.703	14590
852.838	14686
852.973	14758
853.107	14629
853.242	14541
853.376	14366
853.511	14252
853.645	14256
853.78	14438
853.914	14324
854.048	14358
854.183	14381
854.317	14305
854.451	14488
854.585	14408
854.72	14362
854.854	14442
854.988	14343
855.122	14339
855.256	14206
855.39	14438
855.524	14457
855.658	14446
855.792	14343
855.926	14374
856.06	14545
856.194	14469
856.327	14571
856.461	14317
856.595	14351
856.729	14423
856.862	14564
856.996	14530
857.13	14469
857.263	14560
857.397	14480
857.53	14400
857.664	14419
857.797	14431
857.931	14488
858.064	14415
858.197	14552
858.331	14339
858.464	14336
858.597	14347
858.731	14385
858.864	14366
858.997	14362
859.13	14366
859.263	14309
859.396	14522
859.529	14355
859.662	14370
859.795	14267
859.928	14347
860.061	14560
860.194	14552
860.327	14393
860.46	14423
860.592	14457
860.725	14488
860.858	14469
860.99	14400
861.123	14313
861.256	14332
861.388	14415
861.521	15081
861.653	14381
861.786	14240
861.918	14263
862.05	14404
862.183	14290
862.315	14324
862.447	14415
862.58	14332
862.712	14111
862.844	14050
862.976	14183
863.108	14195
863.24	14499
863.372	14092
863.504	14237
863.636	14202
863.768	14248
863.9	14206
864.032	14149
864.164	14153
864.296	14195
864.428	14244
864.559	14214
864.691	14313
864.823	14221
864.954	14202
865.086	14172
865.217	14149
865.349	14115
865.48	14130
865.612	14164
865.743	14324
865.875	14161
866.006	14191
866.137	14111
866.269	14111
866.4	14126
866.531	14229
866.662	14024
866.793	14123
866.924	14138
867.055	14164
867.186	14115
867.317	14039
867.448	14096
867.579	14062
867.71	14058
867.841	14001
867.972	14180
868.103	14092
868.233	14187
868.364	14161
868.495	14275
868.625	14396
868.756	14533
868.886	14324
869.017	14511
869.147	14450
869.278	14476
869.408	14347
869.539	14419
869.669	14412
869.799	14412
869.929	14594
870.06	14518
870.19	14720
870.32	14678
870.45	14731
870.58	14800
870.71	14845
870.84	14902
870.97	14826
871.1	14792
871.23	14971
871.36	14979
871.489	14815
871.619	15017
871.749	14971
871.879	15005
872.008	15100
872.138	14975
872.267	14975
872.397	14887
872.526	14899
872.656	14826
872.785	14845
872.915	15043
873.044	15089
873.173	14971
873.303	15173
873.432	15097
873.561	15165
873.69	15100
873.819	15097
873.948	15119
874.077	15009
874.206	14982
874.335	15051
874.464	15226
874.593	15386
874.722	15264
874.851	15447
874.979	15374
875.108	15450
875.237	15294
875.365	15226
875.494	15374
875.623	15420
875.751	15310
875.88	15424
876.008	15515
876.136	15553
876.265	15835
876.393	15838
876.521	15827
876.65	15812
876.778	15762
876.906	15717
877.034	15751
877.162	15694
877.29	15625
877.418	15816
877.546	15918
877.674	15724
877.802	15850
877.93	15751
878.058	15584
878.185	15549
878.313	15808
878.441	15751
878.568	15591
878.696	15720
878.824	15743
878.951	15835
879.079	16017
879.206	16120
879.333	15880
879.461	15774
879.588	15945
879.715	15987
879.842	16006
879.97	15873
880.097	15648
880.224	15633
880.351	15682
880.478	15705
880.605	15572
880.732	15557
880.859	15755
880.986	15637
881.112	15679
881.239	15519
881.366	15450
881.493	15260
881.619	15214
881.746	15329
881.872	15237
881.999	15291
882.125	15154
882.252	15317
882.378	15386
882.505	15382
882.631	15154
882.757	15005
882.883	15245
883.01	15135
883.136	15097
883.262	15024
883.388	14948
883.514	15100
883.64	15138
883.766	15055
883.892	14899
884.018	14815
884.143	15169
884.269	15176
884.395	14807
884.52	14785
884.646	14781
884.772	14708
884.897	14735
885.023	14807
885.148	14914
885.274	14906
885.399	14830
885.524	14823
885.65	14792
885.775	14762
885.9	14758
886.025	14937
886.15	14838
886.275	14743
886.4	14727
886.525	14750
886.65	14765
886.775	14731
886.9	14891
887.025	14956
887.149	14792
887.274	14617
887.399	14625
887.523	14518
887.648	14686
887.773	14541
887.897	14712
888.021	14682
888.146	14556
888.27	14758
888.395	14804
888.519	14716
888.643	14663
888.767	14655
888.891	14511
889.015	14347
889.139	14488
889.263	14469
889.387	14625
889.511	14708
889.635	14583
889.759	14503
889.883	14499
890.006	14518
890.13	14583
890.254	14499
890.377	14400
890.501	14370
890.624	14271
890.748	14461
890.871	14347
890.995	14157
891.118	14062
891.241	14256
891.364	14062
891.488	14362
891.611	14221
891.734	14168
891.857	14278
891.98	14332
892.103	14275
892.226	14176
892.349	14119
892.471	14020
892.594	14031
892.717	14012
892.839	14149
892.962	14202
893.085	14263
893.207	14309
893.33	14039
893.452	14168
893.575	14237
893.697	14111
893.819	14336
893.941	14423
894.064	14256
894.186	14237
894.308	14134
894.43	14309
894.552	14358
894.674	14320
894.796	14237
894.918	14221
895.04	14282
895.161	14244
895.283	14347
895.405	14168
895.526	14313
895.648	14351
895.769	14389
895.891	14457
896.012	14294
896.134	14381
896.255	14320
896.376	14366
896.498	14427
896.619	14347
896.74	14461
896.861	14278
896.982	14705
897.103	14834
897.224	14651
897.345	14617
897.466	14583
897.587	14625
897.708	14731
897.828	14697
897.949	14583
898.07	14541
898.19	14686
898.311	14785
898.431	14556
898.552	14750
898.672	14777
898.792	14788
898.913	14743
899.033	14587
899.153	14552
899.273	14362
899.393	14469
899.513	14533
899.633	14587
899.753	14522
899.873	14541
899.993	14621
900.113	14568
900.232	14579
900.352	14446
900.472	14442
900.591	14423
900.711	14446
900.83	14457
900.95	14511
901.069	14606
901.189	14362
901.308	14191
901.427	14111
901.546	14119
901.665	14100
901.784	14084
901.904	13936
902.023	13925
902.141	13814
902.26	13651
902.379	13753
902.498	13700
902.617	13689
902.735	13670
902.854	13765
902.973	13624
903.091	13293
903.21	13411
903.328	13392
903.446	13304
903.565	13304
903.683	13202
903.801	13069
903.919	13225
904.038	13160
904.156	13084
904.274	13145
904.392	13129
904.51	13012
904.627	13099
904.745	13046
904.863	13149
904.981	12798
905.098	12711
905.216	12715
905.334	12791
905.451	12738
905.569	12635
905.686	12745
905.803	12688
905.921	12642
906.038	12749
906.155	12620
906.272	12460
906.389	12471
906.506	12342
906.623	12285
906.74	12296
906.857	12228
906.974	12194
907.091	12426
907.208	12498
907.324	12323
907.441	12292
907.557	12152
907.674	12045
907.79	11980
907.907	12060
908.023	12003
908.139	12102
908.256	12034
908.372	11999
908.488	11954
908.604	11878
908.72	11756
908.836	11821
908.952	11722
909.068	11866
909.184	11927
909.3	11828
909.415	11851
909.531	11847
909.647	11646
909.762	11551
909.878	11478
909.993	11634
910.108	11558
910.224	11592
910.339	11524
910.454	11551
910.57	11417
910.685	11421
910.8	11661
910.915	11733
911.03	11459
911.145	11372
911.259	11261
911.374	11303
911.489	11269
911.604	11174
911.718	11086
911.833	11086
911.947	10953
912.062	10831
912.176	11052
912.291	11067
912.405	11083
912.519	11250
912.633	11181
912.748	11083
912.862	11037
912.976	10881
913.09	10729
913.204	10938
913.318	10999
913.431	11083
913.545	11014
913.659	10991
913.772	10949
913.886	10843
914	10843
914.113	10915
914.226	10889
914.34	10866
914.453	10771
914.566	10919
914.68	10736
914.793	10763
914.906	10637
915.019	10523
915.132	10485
915.245	10508
915.358	10622
915.47	10573
915.583	10641
915.696	10550
915.809	10634
915.921	10755
916.034	10584
916.146	10447
916.259	10535
916.371	10607
916.483	10535
916.595	10443
916.708	10584
916.82	10451
916.932	10489
917.044	10474
917.156	10459
917.268	10333
917.38	10382
917.491	10333
917.603	10421
917.715	10481
917.826	10428
917.938	10394
918.049	10253
918.161	10272
918.272	10546
918.384	10497
918.495	10417
918.606	10261
918.717	10188
918.828	10272
918.939	10200
919.05	10169
919.161	10284
919.272	10109
919.383	10124
919.494	10280
919.604	10542
919.715	10272
919.826	10204
919.936	10207
920.047	10371
920.157	10325
920.267	10436
920.378	10428
920.488	10306
920.598	10459
920.708	10672
920.818	10558
920.928	10485
921.038	10763
921.148	10478
921.258	10337
921.368	10200
921.477	10112
921.587	10128
921.697	10082
921.806	10185
921.916	10044
922.025	9785
922.134	9838
922.244	9759
922.353	9892
922.462	9679
922.571	9671
922.68	9469
922.789	9492
922.898	9443
923.007	9416
923.116	9542
923.224	9538
923.333	9523
923.442	9454
923.55	9408
923.659	9458
923.767	9507
923.876	9386
923.984	9488
924.092	9332
924.201	9386
924.309	9412
924.417	9416
924.525	9283
924.633	9291
924.741	10280
924.849	9112
924.956	9325
925.064	9154
925.172	9074
925.279	9169
925.387	9294
925.494	9176
925.602	9321
925.709	9268
925.816	9085
925.924	9150
926.031	9264
926.138	9211
926.245	9218
926.352	9066
926.459	9233
926.566	9218
926.673	9199
926.779	9032
926.886	9043
926.993	8906
927.099	8880
927.206	8834
927.312	8804
927.419	8956
927.525	8864
927.631	8994
927.737	8807
927.843	8766
927.95	8674
928.056	8792
928.162	8849
928.267	8861
928.373	9447
928.479	8861
928.585	8640
928.69	8731
928.796	8857
928.901	8651
929.007	8537
929.112	8724
929.218	8640
929.323	8606
929.428	8568
929.533	8811
929.638	8606
929.743	8594
929.848	8724
929.953	8552
930.058	8522
930.163	8366
930.267	8294
930.372	8499
930.477	8415
930.581	8602
930.685	8461
930.79	8309
930.894	8328
930.998	8347
931.103	8469
931.207	8111
931.311	8100
931.415	8065
931.519	7784
931.623	7807
