Data from test_V78500241_2386.txt Node
Date: Fri Mar 25 14:50:19 CST 2022
User: usil
Spectrometer: V785-0024
Trigger mode: 0
Integration Time (sec): 4.000000E-1
Scans to average: 1
Nonlinearity correction enabled: false
Boxcar width: 0
Storing dark spectrum: false
XAxis mode: Wavelengths
Number of Pixels in Spectrum: 1024
>>>>>Begin Spectral Data<<<<<
801.071	22086
801.214	22017
801.356	21876
801.499	21576
801.641	21473
801.783	21473
801.926	21526
802.068	21519
802.211	21370
802.353	21203
802.496	21131
802.638	21001
802.78	20990
802.923	20868
803.065	20804
803.208	20849
803.35	20792
803.492	20979
803.635	20979
803.777	20811
803.919	20864
804.061	21188
804.204	20902
804.346	20674
804.488	20754
804.63	20887
804.773	20663
804.915	20785
805.057	20982
805.199	20670
805.341	20777
805.483	20823
805.626	20769
805.768	20731
805.91	20796
806.052	20811
806.194	20667
806.336	20861
806.478	20796
806.62	20667
806.762	20727
806.904	20872
807.046	21184
807.188	21142
807.33	21020
807.472	21108
807.614	20914
807.756	21093
807.898	20868
808.04	20906
808.182	20868
808.324	20929
808.465	20861
808.607	20998
808.749	21142
808.891	21230
809.033	21336
809.174	21252
809.316	21020
809.458	21173
809.6	21138
809.741	21218
809.883	21203
810.025	21355
810.166	21230
810.308	21294
810.45	21214
810.591	21047
810.733	21165
810.875	21055
811.016	20891
811.158	20819
811.299	20948
811.441	21024
811.582	21009
811.724	20921
811.865	20887
812.007	20826
812.148	21009
812.29	20906
812.431	21138
812.573	21256
812.714	21287
812.855	21439
812.997	21458
813.138	21641
813.279	21450
813.421	21473
813.562	21283
813.703	21161
813.845	21032
813.986	20701
814.127	20609
814.268	20568
814.41	20431
814.551	20328
814.692	20484
814.833	20362
814.974	20320
815.115	20518
815.256	20351
815.397	20488
815.539	20320
815.68	20183
815.821	20062
815.962	20328
816.103	20180
816.244	20005
816.385	19974
816.526	19947
816.666	19731
816.807	19590
816.948	19708
817.089	19567
817.23	19712
817.371	19510
817.512	19586
817.653	19651
817.793	19438
817.934	19453
818.075	19605
818.216	19582
818.356	19453
818.497	19388
818.638	19236
818.778	19270
818.919	19289
819.06	19278
819.2	19499
819.341	19453
819.481	19480
819.622	19712
819.762	19746
819.903	19719
820.043	19635
820.184	19552
820.324	19514
820.465	19613
820.605	19594
820.746	19518
820.886	19396
821.026	19552
821.167	19445
821.307	19510
821.447	19441
821.588	19400
821.728	19194
821.868	18973
822.008	18996
822.149	18958
822.289	18814
822.429	18719
822.569	18616
822.709	18650
822.849	18422
822.99	18429
823.13	18452
823.27	18433
823.41	18327
823.55	18224
823.69	18258
823.83	18235
823.97	18133
824.11	18072
824.25	18064
824.389	18015
824.529	18022
824.669	18064
824.809	18163
824.949	18155
825.089	18121
825.228	18060
825.368	17901
825.508	17813
825.648	17901
825.787	17882
825.927	17878
826.067	17623
826.206	17779
826.346	17843
826.485	17821
826.625	17775
826.765	17878
826.904	17870
827.044	17608
827.183	17543
827.323	17471
827.462	17577
827.601	17440
827.741	17471
827.88	17516
828.02	17372
828.159	17433
828.298	17474
828.437	17528
828.577	17482
828.716	17604
828.855	17410
828.994	17280
829.134	17193
829.273	17288
829.412	17189
829.551	17204
829.69	17162
829.829	17242
829.968	17284
830.107	17372
830.246	17200
830.385	17250
830.524	17071
830.663	17143
830.802	17025
830.941	16869
831.08	16824
831.219	16938
831.357	16938
831.496	17075
831.635	16854
831.774	16717
831.913	16710
832.051	16675
832.19	16755
832.329	16691
832.467	16596
832.606	16504
832.744	16531
832.883	16443
833.022	16466
833.16	16493
833.299	16607
833.437	16615
833.576	16577
833.714	16615
833.852	16500
833.991	16664
834.129	16672
834.267	16596
834.406	16630
834.544	16721
834.682	16634
834.821	16645
834.959	16809
835.097	16649
835.235	16637
835.373	16611
835.511	16660
835.65	16538
835.788	16527
835.926	16421
836.064	16242
836.202	16276
836.34	16493
836.478	16622
836.615	16542
836.753	16584
836.891	16504
837.029	16493
837.167	16333
837.305	16367
837.443	16318
837.58	16314
837.718	16413
837.856	16470
837.993	16318
838.131	16428
838.269	16333
838.406	16291
838.544	16192
838.681	15983
838.819	16025
838.956	15937
839.094	15926
839.231	15979
839.369	16044
839.506	16322
839.643	16249
839.781	15838
839.918	15838
840.055	15789
840.193	15960
840.33	15949
840.467	15915
840.604	15953
840.742	16253
840.879	15774
841.016	15800
841.153	15827
841.29	16032
841.427	15838
841.564	15922
841.701	16040
841.838	15865
841.975	15873
842.112	15736
842.249	15690
842.385	15732
842.522	15937
842.659	15720
842.796	15644
842.933	15709
843.069	15660
843.206	15587
843.343	15785
843.479	15717
843.616	15690
843.752	15584
843.889	15435
844.025	15641
844.162	15462
844.298	15660
844.435	15515
844.571	15450
844.708	15439
844.844	15656
844.98	15614
845.117	15500
845.253	15572
845.389	15294
845.525	15317
845.661	15348
845.798	15066
845.934	15283
846.07	15245
846.206	15401
846.342	15363
846.478	15176
846.614	15051
846.75	14994
846.886	15043
847.022	15074
847.158	15066
847.294	15100
847.429	15112
847.565	14994
847.701	15359
847.837	14872
847.972	14693
848.108	14842
848.244	14914
848.379	14777
848.515	14648
848.65	14667
848.786	14670
848.921	14575
849.057	14750
849.192	14762
849.328	14670
849.463	14731
849.598	14575
849.734	14461
849.869	14518
850.004	14400
850.14	14495
850.275	14457
850.41	14305
850.545	14370
850.68	14396
850.815	14389
850.95	14393
851.085	14480
851.22	14469
851.355	14484
851.49	14408
851.625	14358
851.76	14355
851.895	14332
852.03	14332
852.165	14339
852.299	14370
852.434	14488
852.569	14434
852.703	14374
852.838	14552
852.973	14533
853.107	14594
853.242	14454
853.376	14282
853.511	14172
853.645	14324
853.78	14370
853.914	14362
854.048	14252
854.183	14256
854.317	14358
854.451	14431
854.585	14320
854.72	14240
854.854	14381
854.988	14237
855.122	14347
855.256	14096
855.39	14282
855.524	14446
855.658	14305
855.792	14309
855.926	14301
856.06	14317
856.194	14473
856.327	14267
856.461	14180
856.595	14191
856.729	14248
856.862	14377
856.996	14259
857.13	14229
857.263	14355
857.397	14442
857.53	14267
857.664	14294
857.797	14336
857.931	14469
858.064	14301
858.197	14343
858.331	14275
858.464	14267
858.597	14259
858.731	14240
858.864	14271
858.997	14256
859.13	14298
859.263	14317
859.396	14309
859.529	14145
859.662	14138
859.795	14183
859.928	14362
860.061	14446
860.194	14446
860.327	14237
860.46	14286
860.592	14400
860.725	14473
860.858	14347
860.99	14206
861.123	14225
861.256	14111
861.388	14229
861.521	14788
861.653	14107
861.786	14088
861.918	13982
862.05	14164
862.183	14138
862.315	14225
862.447	14244
862.58	14225
862.712	14035
862.844	13841
862.976	14039
863.108	14119
863.24	14442
863.372	13982
863.504	14123
863.636	14062
863.768	14138
863.9	14084
864.032	13970
864.164	14020
864.296	14103
864.428	14111
864.559	14149
864.691	14145
864.823	14043
864.954	14073
865.086	14077
865.217	14058
865.349	13982
865.48	14016
865.612	14039
865.743	14176
865.875	14020
866.006	14012
866.137	14035
866.269	14043
866.4	14027
866.531	14103
866.662	13887
866.793	14008
866.924	13993
867.055	13974
867.186	14050
867.317	13913
867.448	13955
867.579	13925
867.71	13951
867.841	13947
867.972	14077
868.103	14027
868.233	14138
868.364	14054
868.495	14115
868.625	14248
868.756	14320
868.886	14183
869.017	14237
869.147	14282
869.278	14393
869.408	14263
869.539	14221
869.669	14305
869.799	14355
869.929	14377
870.06	14370
870.19	14533
870.32	14560
870.45	14533
870.58	14727
870.71	14636
870.84	14815
870.97	14598
871.1	14621
871.23	14804
871.36	14872
871.489	14785
871.619	14918
871.749	14887
871.879	14910
872.008	14941
872.138	14876
872.267	14807
872.397	14712
872.526	14716
872.656	14701
872.785	14788
872.915	14891
873.044	15017
873.173	15017
873.303	14986
873.432	15009
873.561	15051
873.69	14781
873.819	14902
873.948	15028
874.077	14956
874.206	14990
874.335	14998
874.464	15093
874.593	15275
874.722	15218
874.851	15283
874.979	15260
875.108	15355
875.237	15192
875.365	15150
875.494	15180
875.623	15317
875.751	15211
875.88	15256
876.008	15367
876.136	15389
876.265	15743
876.393	15793
876.521	15793
876.65	15819
876.778	15682
876.906	15637
877.034	15618
877.162	15701
877.29	15561
877.418	15690
877.546	15698
877.674	15656
877.802	15686
877.93	15660
878.058	15618
878.185	15534
878.313	15690
878.441	15701
878.568	15523
878.696	15660
878.824	15682
878.951	15747
879.079	15819
879.206	15998
879.333	15762
879.461	15595
879.588	15778
879.715	15831
879.842	15953
879.97	15838
880.097	15568
880.224	15568
880.351	15545
880.478	15523
880.605	15473
880.732	15580
880.859	15671
880.986	15458
881.112	15530
881.239	15336
881.366	15317
881.493	15233
881.619	15154
881.746	15188
881.872	15233
881.999	15184
882.125	15055
882.252	15169
882.378	15051
882.505	15256
882.631	15176
882.757	14952
882.883	14975
883.01	15047
883.136	14975
883.262	14800
883.388	14853
883.514	14883
883.64	15039
883.766	14842
883.892	14823
884.018	14845
884.143	15028
884.269	15089
884.395	14716
884.52	14648
884.646	14686
884.772	14598
884.897	14518
885.023	14762
885.148	14762
885.274	14880
885.399	14785
885.524	14689
885.65	14606
885.775	14781
885.9	14629
886.025	14834
886.15	14682
886.275	14693
886.4	14716
886.525	14659
886.65	14610
886.775	14514
886.9	14864
887.025	14853
887.149	14724
887.274	14613
887.399	14476
887.523	14457
887.648	14503
887.773	14408
887.897	14621
888.021	14533
888.146	14499
888.27	14571
888.395	14583
888.519	14610
888.643	14564
888.767	14636
888.891	14396
889.015	14408
889.139	14434
889.263	14324
889.387	14438
889.511	14590
889.635	14533
889.759	14381
889.883	14476
890.006	14385
890.13	14423
890.254	14298
890.377	14412
890.501	14267
890.624	14130
890.748	14244
890.871	14168
890.995	14065
891.118	14065
891.241	14043
891.364	14130
891.488	14229
891.611	14088
891.734	14081
891.857	14077
891.98	14035
892.103	14008
892.226	14138
892.349	14050
892.471	13978
892.594	14043
892.717	14138
892.839	14092
892.962	14153
893.085	14172
893.207	14077
893.33	13940
893.452	13982
893.575	14084
893.697	14126
893.819	14176
893.941	14214
894.064	14202
894.186	13955
894.308	14016
894.43	14130
894.552	14240
894.674	14263
894.796	14031
894.918	14123
895.04	14142
895.161	14142
895.283	14187
895.405	14062
895.526	14119
895.648	14210
895.769	14237
895.891	14271
896.012	14259
896.134	14309
896.255	14336
896.376	14214
896.498	14218
896.619	14332
896.74	14275
896.861	14320
896.982	14492
897.103	14659
897.224	14617
897.345	14564
897.466	14469
897.587	14594
897.708	14731
897.828	14617
897.949	14503
898.07	14396
898.19	14545
898.311	14606
898.431	14552
898.552	14514
898.672	14636
898.792	14629
898.913	14590
899.033	14583
899.153	14454
899.273	14434
899.393	14476
899.513	14377
899.633	14499
899.753	14469
899.873	14457
899.993	14545
900.113	14400
900.232	14503
900.352	14503
900.472	14454
900.591	14225
900.711	14366
900.83	14282
900.95	14404
901.069	14385
901.189	14286
901.308	14103
901.427	13951
901.546	13993
901.665	14073
901.784	14050
901.904	14043
902.023	13746
902.141	13643
902.26	13582
902.379	13693
902.498	13559
902.617	13597
902.735	13609
902.854	13636
902.973	13476
903.091	13377
903.21	13270
903.328	13289
903.446	13236
903.565	13171
903.683	13179
903.801	13000
903.919	13103
904.038	13114
904.156	12928
904.274	13000
904.392	12958
904.51	12935
904.627	12905
904.745	12985
904.863	12913
904.981	12814
905.098	12684
905.216	12642
905.334	12707
905.451	12642
905.569	12677
905.686	12711
905.803	12741
905.921	12441
906.038	12566
906.155	12506
906.272	12342
906.389	12372
906.506	12285
906.623	12197
906.74	12155
906.857	12140
906.974	12155
907.091	12296
907.208	12403
907.324	12346
907.441	12121
907.557	12019
907.674	11961
907.79	11942
907.907	11980
908.023	11980
908.139	11965
908.256	11950
908.372	11977
908.488	11916
908.604	11748
908.72	11699
908.836	11752
908.952	11737
909.068	11691
909.184	11840
909.3	11745
909.415	11748
909.531	11756
909.647	11600
909.762	11581
909.878	11455
909.993	11554
910.108	11570
910.224	11452
910.339	11459
910.454	11417
910.57	11383
910.685	11235
910.8	11551
910.915	11478
911.03	11379
911.145	11242
911.259	11239
911.374	11201
911.489	11086
911.604	11064
911.718	10923
911.833	10961
911.947	10866
912.062	10824
912.176	10949
912.291	10995
912.405	10854
912.519	11185
912.633	11151
912.748	11041
912.862	11022
912.976	10850
913.09	10721
913.204	10797
913.318	10885
913.431	10938
913.545	10953
913.659	10892
913.772	10820
913.886	10759
914	10675
914.113	10828
914.226	10831
914.34	10873
914.453	10637
914.566	10820
914.68	10717
914.793	10664
914.906	10440
915.019	10459
915.132	10402
915.245	10386
915.358	10485
915.47	10424
915.583	10508
915.696	10523
915.809	10558
915.921	10580
916.034	10470
916.146	10382
916.259	10481
916.371	10443
916.483	10493
916.595	10398
916.708	10443
916.82	10379
916.932	10348
917.044	10379
917.156	10375
917.268	10303
917.38	10265
917.491	10337
917.603	10360
917.715	10371
917.826	10325
917.938	10333
918.049	10211
918.161	10352
918.272	10481
918.384	10443
918.495	10421
918.606	10253
918.717	10173
918.828	10238
918.939	10234
919.05	10093
919.161	10227
919.272	10059
919.383	10032
919.494	10257
919.604	10447
919.715	10280
919.826	10124
919.936	10215
920.047	10246
920.157	10265
920.267	10497
920.378	10287
920.488	10238
920.598	10402
920.708	10561
920.818	10443
920.928	10462
921.038	10580
921.148	10584
921.258	10337
921.368	10230
921.477	10204
921.587	10036
921.697	9979
921.806	10185
921.916	10082
922.025	9827
922.134	9850
922.244	9789
922.353	9869
922.462	9701
922.571	9660
922.68	9538
922.789	9500
922.898	9511
923.007	9492
923.116	9610
923.224	9618
923.333	9553
923.442	9374
923.55	9412
923.659	9405
923.767	9485
923.876	9428
923.984	9462
924.092	9294
924.201	9412
924.309	9317
924.417	9378
924.525	9256
924.633	9336
924.741	10139
924.849	9207
924.956	9336
925.064	9142
925.172	9100
925.279	9138
925.387	9154
925.494	9104
925.602	9264
925.709	9272
925.816	9150
925.924	9161
926.031	9230
926.138	9116
926.245	9222
926.352	9077
926.459	9237
926.566	9253
926.673	9097
926.779	9051
926.886	9074
926.993	9001
927.099	8853
927.206	8826
927.312	8788
927.419	8921
927.525	8921
927.631	8880
927.737	8853
927.843	8739
927.95	8689
928.056	8796
928.162	8792
928.267	8819
928.373	9431
928.479	8845
928.585	8632
928.69	8750
928.796	8743
928.901	8716
929.007	8587
929.112	8686
929.218	8629
929.323	8594
929.428	8602
929.533	8697
929.638	8476
929.743	8602
929.848	8670
929.953	8568
930.058	8518
930.163	8381
930.267	8427
930.372	8492
930.477	8370
930.581	8533
930.685	8427
930.79	8225
930.894	8286
930.998	8259
931.103	8465
931.207	8084
931.311	8008
931.415	7951
931.519	7772
931.623	7750
