Data from test_V78500241_689.txt Node
Date: Fri Mar 25 14:38:30 CST 2022
User: usil
Spectrometer: V785-0024
Trigger mode: 0
Integration Time (sec): 4.000000E-1
Scans to average: 1
Nonlinearity correction enabled: false
Boxcar width: 0
Storing dark spectrum: false
XAxis mode: Wavelengths
Number of Pixels in Spectrum: 1024
>>>>>Begin Spectral Data<<<<<
801.071	28211
801.214	27816
801.356	27622
801.499	27713
801.641	27435
801.783	27542
801.926	27519
802.068	27279
802.211	27222
802.353	26994
802.496	26982
802.638	26838
802.78	26967
802.923	26845
803.065	26838
803.208	26872
803.35	26967
803.492	27104
803.635	27093
803.777	26975
803.919	27150
804.061	27431
804.204	27180
804.346	27066
804.488	27211
804.63	27192
804.773	27089
804.915	27298
805.057	27412
805.199	27363
805.341	27618
805.483	27625
805.626	27785
805.768	27618
805.91	27789
806.052	28078
806.194	27949
806.336	28451
806.478	28485
806.62	28748
806.762	28965
806.904	29162
807.046	29840
807.188	30076
807.33	30551
807.472	31183
807.614	31761
807.756	32720
807.898	33705
808.04	35467
808.182	37445
808.324	40082
808.465	43217
808.607	46432
808.749	49365
808.891	50975
809.033	51211
809.174	49723
809.316	46767
809.458	43156
809.6	39785
809.741	36951
809.883	34763
810.025	33431
810.166	32218
810.308	31400
810.45	30722
810.591	30338
810.733	29615
810.875	29322
811.016	28934
811.158	28698
811.299	28645
811.441	28729
811.582	28421
811.724	28246
811.865	28150
812.007	28097
812.148	27884
812.29	27854
812.431	28059
812.573	28036
812.714	28048
812.855	28196
812.997	28169
813.138	28192
813.279	28215
813.421	28013
813.562	27888
813.703	27713
813.845	27564
813.986	27199
814.127	26986
814.268	26853
814.41	26906
814.551	26655
814.692	26777
814.833	26522
814.974	26560
815.115	26575
815.256	26503
815.397	26453
815.539	26377
815.68	26278
815.821	26317
815.962	26199
816.103	26168
816.244	26046
816.385	25993
816.526	25898
816.666	25704
816.807	25632
816.948	25540
817.089	25738
817.23	25518
817.371	25468
817.512	25453
817.653	25331
817.793	25407
817.934	25521
818.075	25544
818.216	25495
818.356	25320
818.497	25244
818.638	25141
818.778	25202
818.919	25145
819.06	25114
819.2	25240
819.341	25339
819.481	25213
819.622	25384
819.762	25537
819.903	25548
820.043	25483
820.184	25396
820.324	25339
820.465	25304
820.605	25160
820.746	25369
820.886	25148
821.026	25148
821.167	25232
821.307	25160
821.447	25076
821.588	24958
821.728	24916
821.868	24791
822.008	24661
822.149	24471
822.289	24502
822.429	24304
822.569	24308
822.709	24178
822.849	23939
822.99	23912
823.13	23988
823.27	23901
823.41	23851
823.55	23672
823.69	23707
823.83	23748
823.97	23710
824.11	23539
824.25	23535
824.389	23493
824.529	23531
824.669	23535
824.809	23638
824.949	23661
825.089	23493
825.228	23543
825.368	23235
825.508	23334
825.648	23212
825.787	23406
825.927	23341
826.067	23185
826.206	23227
826.346	23337
826.485	23322
826.625	23307
826.765	23391
826.904	23246
827.044	23136
827.183	22946
827.323	23018
827.462	22927
827.601	22999
827.741	22976
827.88	22953
828.02	22828
828.159	22942
828.298	22946
828.437	22938
828.577	22869
828.716	23048
828.855	22923
828.994	22649
829.134	22721
829.273	22618
829.412	22679
829.551	22641
829.69	22592
829.829	22573
829.968	22771
830.107	22725
830.246	22660
830.385	22584
830.524	22527
830.663	22500
830.802	22367
830.941	22322
831.08	22230
831.219	22287
831.357	22272
831.496	22325
831.635	22238
831.774	22192
831.913	22120
832.051	22173
832.19	22025
832.329	22086
832.467	22116
832.606	21888
832.744	22120
832.883	22147
833.022	22158
833.16	22344
833.299	22390
833.437	22561
833.576	22687
833.714	22774
833.852	22987
833.991	23052
834.129	23299
834.267	23239
834.406	23128
834.544	23044
834.682	22995
834.821	22828
834.959	22908
835.097	22546
835.235	22550
835.373	22352
835.511	22386
835.65	22078
835.788	21983
835.926	21751
836.064	21899
836.202	21819
836.34	21895
836.478	21945
836.615	21759
836.753	21873
836.891	21743
837.029	21949
837.167	21633
837.305	21682
837.443	21644
837.58	21382
837.718	21534
837.856	21614
837.993	21534
838.131	21641
838.269	21561
838.406	21481
838.544	21256
838.681	21161
838.819	21081
838.956	21051
839.094	20887
839.231	21081
839.369	21150
839.506	21378
839.643	21264
839.781	20902
839.918	20914
840.055	20956
840.193	20880
840.33	20876
840.467	20982
840.604	20944
840.742	21294
840.879	20868
841.016	20880
841.153	20830
841.29	21062
841.427	21005
841.564	20990
841.701	20872
841.838	20842
841.975	20815
842.112	20944
842.249	20914
842.385	20625
842.522	20838
842.659	20792
842.796	20693
842.933	20891
843.069	20804
843.206	20697
843.343	20895
843.479	20902
843.616	20880
843.752	20659
843.889	20895
844.025	21005
844.162	20785
844.298	21081
844.435	21123
844.571	21344
844.708	21698
844.844	21972
844.98	22535
845.117	23265
845.253	24174
845.389	26043
845.525	29687
845.661	35756
845.798	42776
845.934	47840
846.07	49731
846.206	48216
846.342	43354
846.478	36353
846.614	30426
846.75	26712
846.886	24369
847.022	22968
847.158	22090
847.294	21397
847.429	21131
847.565	20708
847.701	20876
847.837	20377
847.972	20221
848.108	20134
848.244	20020
848.379	19894
848.515	19818
848.65	19742
848.786	19674
848.921	19696
849.057	19742
849.192	19784
849.328	19784
849.463	19639
849.598	19434
849.734	19533
849.869	19464
850.004	19324
850.14	19346
850.275	19384
850.41	19343
850.545	19251
850.68	19187
850.815	19301
850.95	19266
851.085	19430
851.22	19445
851.355	19407
851.49	19331
851.625	19324
851.76	19194
851.895	19278
852.03	19297
852.165	19327
852.299	19289
852.434	19449
852.569	19339
852.703	19343
852.838	19499
852.973	19651
853.107	19552
853.242	19434
853.376	19422
853.511	19232
853.645	19533
853.78	19525
853.914	19464
854.048	19540
854.183	19476
854.317	19556
854.451	19799
854.585	19571
854.72	19453
854.854	19662
854.988	19441
855.122	19434
855.256	19331
855.39	19381
855.524	19373
855.658	19327
855.792	19198
855.926	19293
856.06	19346
856.194	19343
856.327	19171
856.461	19095
856.595	19209
856.729	19194
856.862	19278
856.996	19156
857.13	19133
857.263	19221
857.397	19251
857.53	19168
857.664	19175
857.797	19152
857.931	19171
858.064	19038
858.197	19084
858.331	19099
858.464	18977
858.597	18875
858.731	18939
858.864	19027
858.997	18985
859.13	18939
859.263	19072
859.396	18996
859.529	18901
859.662	18939
859.795	18905
859.928	18970
860.061	19118
860.194	19126
860.327	18962
860.46	18939
860.592	19053
860.725	19015
860.858	19015
860.99	18920
861.123	18798
861.256	18745
861.388	18989
861.521	19582
861.653	18829
861.786	18677
861.918	18791
862.05	18776
862.183	18977
862.315	18817
862.447	18897
862.58	18848
862.712	18688
862.844	18582
862.976	18768
863.108	18631
863.24	18882
863.372	18544
863.504	18631
863.636	18540
863.768	18631
863.9	18604
864.032	18460
864.164	18528
864.296	18661
864.428	18730
864.559	18700
864.691	18528
864.823	18620
864.954	18639
865.086	18574
865.217	18521
865.349	18426
865.48	18483
865.612	18517
865.743	18665
865.875	18441
866.006	18437
866.137	18559
866.269	18604
866.4	18593
866.531	18410
866.662	18441
866.793	18456
866.924	18540
867.055	18521
867.186	18414
867.317	18388
867.448	18407
867.579	18479
867.71	18448
867.841	18304
867.972	18486
868.103	18471
868.233	18448
868.364	18471
868.495	18547
868.625	18711
868.756	18833
868.886	18665
869.017	18677
869.147	18795
869.278	18856
869.408	18833
869.539	18791
869.669	18734
869.799	18852
869.929	18890
870.06	18859
870.19	19057
870.32	19110
870.45	19141
870.58	19080
870.71	19312
870.84	19350
870.97	19156
871.1	19156
871.23	19335
871.36	19400
871.489	19316
871.619	19449
871.749	19521
871.879	19616
872.008	19514
872.138	19639
872.267	19422
872.397	19388
872.526	19381
872.656	19282
872.785	19400
872.915	19624
873.044	19750
873.173	19559
873.303	19696
873.432	19643
873.561	19750
873.69	19674
873.819	19635
873.948	19833
874.077	19822
874.206	19643
874.335	19875
874.464	19978
874.593	20180
874.722	20176
874.851	20187
874.979	20259
875.108	20423
875.237	20301
875.365	20282
875.494	20362
875.623	20374
875.751	20423
875.88	20632
876.008	20632
876.136	20708
876.265	21043
876.393	21169
876.521	21203
876.65	21207
876.778	21230
876.906	21306
877.034	21321
877.162	21420
877.29	21447
877.418	21644
877.546	21641
877.674	21762
877.802	21934
877.93	22074
878.058	22211
878.185	22181
878.313	22672
878.441	22991
878.568	23410
878.696	23840
878.824	24776
878.951	25864
879.079	27519
879.206	29585
879.333	31605
879.461	33408
879.588	34462
879.715	34478
879.842	33542
879.97	31776
880.097	29520
880.224	27953
880.351	26617
880.478	25852
880.605	25255
880.732	24916
880.859	24863
880.986	24448
881.112	24247
881.239	24171
881.366	23840
881.493	23923
881.619	23901
881.746	23874
881.872	23920
881.999	23802
882.125	23866
882.252	24060
882.378	24171
882.505	24167
882.631	23977
882.757	23927
882.883	23950
883.01	23885
883.136	23863
883.262	23687
883.388	23714
883.514	23859
883.64	23904
883.766	23710
883.892	23638
884.018	23497
884.143	23798
884.269	23901
884.395	23668
884.52	23672
884.646	23512
884.772	23562
884.897	23551
885.023	23630
885.148	23722
885.274	23604
885.399	23444
885.524	23216
885.65	23212
885.775	23204
885.9	22934
886.025	22934
886.15	22790
886.275	22611
886.4	22314
886.525	22177
886.65	22181
886.775	21876
886.9	21892
887.025	21956
887.149	21766
887.274	21428
887.399	21340
887.523	21211
887.648	21119
887.773	20982
887.897	21146
888.021	20933
888.146	20792
888.27	20925
888.395	20861
888.519	20857
888.643	20651
888.767	20552
888.891	20446
889.015	20404
889.139	20259
889.263	20332
889.387	20423
889.511	20419
889.635	20396
889.759	20100
889.883	20039
890.006	20062
890.13	20206
890.254	20031
890.377	20012
890.501	19681
890.624	19624
890.748	19651
890.871	19597
890.995	19476
891.118	19422
891.241	19483
891.364	19419
891.488	19502
891.611	19308
891.734	19343
891.857	19316
891.98	19301
892.103	19293
892.226	19164
892.349	19042
892.471	18916
892.594	19148
892.717	19164
892.839	19000
892.962	19008
893.085	19027
893.207	18951
893.33	18802
893.452	18715
893.575	18909
893.697	18772
893.819	19015
893.941	18970
894.064	18829
894.186	18616
894.308	18513
894.43	18760
894.552	18840
894.674	18684
894.796	18528
894.918	18631
895.04	18525
895.161	18551
895.283	18635
895.405	18452
895.526	18506
895.648	18532
895.769	18467
895.891	18631
896.012	18604
896.134	18460
896.255	18467
896.376	18338
896.498	18467
896.619	18536
896.74	18433
896.861	18429
896.982	18764
897.103	18837
897.224	18707
897.345	18490
897.466	18460
897.587	18696
897.708	18612
897.828	18551
897.949	18650
898.07	18388
898.19	18471
898.311	18658
898.431	18551
898.552	18566
898.672	18589
898.792	18684
898.913	18551
899.033	18483
899.153	18350
899.273	18281
899.393	18361
899.513	18361
899.633	18372
899.753	18334
899.873	18243
899.993	18418
900.113	18334
900.232	18384
900.352	18197
900.472	18266
900.591	18053
900.711	18190
900.83	18057
900.95	18262
901.069	18315
901.189	18007
901.308	17824
901.427	17783
901.546	17691
901.665	17577
901.784	17718
901.904	17558
902.023	17436
902.141	17216
902.26	17227
902.379	17246
902.498	17239
902.617	17109
902.735	17086
902.854	17029
902.973	17064
903.091	16839
903.21	16763
903.328	16831
903.446	16618
903.565	16618
903.683	16596
903.801	16516
903.919	16538
904.038	16436
904.156	16375
904.274	16409
904.392	16325
904.51	16291
904.627	16329
904.745	16295
904.863	16360
904.981	16067
905.098	15835
905.216	16067
905.334	15918
905.451	16013
905.569	15907
905.686	15934
905.803	15937
905.921	15736
906.038	15736
906.155	15755
906.272	15576
906.389	15667
906.506	15431
906.623	15492
906.74	15466
906.857	15443
906.974	15393
907.091	15458
907.208	15568
907.324	15378
907.441	15397
907.557	15207
907.674	15142
907.79	15100
907.907	15173
908.023	15195
908.139	15043
908.256	15119
908.372	15108
908.488	14956
908.604	14815
908.72	14857
908.836	14880
908.952	14781
909.068	14876
909.184	14967
909.3	14781
909.415	14868
909.531	14887
909.647	14617
909.762	14575
909.878	14568
909.993	14602
910.108	14625
910.224	14560
910.339	14541
910.454	14503
910.57	14336
910.685	14355
910.8	14610
910.915	14545
911.03	14461
911.145	14244
911.259	14252
911.374	14172
911.489	14161
911.604	14119
911.718	14012
911.833	13936
911.947	13894
912.062	13799
912.176	13951
912.291	13982
912.405	13997
912.519	14161
912.633	14145
912.748	14024
912.862	13913
912.976	13959
913.09	13666
913.204	13769
913.318	13803
913.431	13955
913.545	13875
913.659	13898
913.772	13856
913.886	13597
914	13605
914.113	13674
914.226	13723
914.34	13776
914.453	13563
914.566	13696
914.68	13563
914.793	13590
914.906	13377
915.019	13289
915.132	13343
915.245	13278
915.358	13304
915.47	13369
915.583	13396
915.696	13438
915.809	13487
915.921	13460
916.034	13327
916.146	13327
916.259	13362
916.371	13331
916.483	13304
916.595	13263
916.708	13232
916.82	13202
916.932	13263
917.044	13156
917.156	13240
917.268	13129
917.38	13103
917.491	13126
917.603	13042
917.715	13156
917.826	13282
917.938	13088
918.049	12970
918.161	13012
918.272	13202
918.384	13114
918.495	12905
918.606	12863
918.717	12878
918.828	12886
918.939	12966
919.05	12825
919.161	12821
919.272	12623
919.383	12681
919.494	12852
919.604	13046
919.715	12871
919.826	12760
919.936	12730
920.047	12848
920.157	12837
920.267	12981
920.378	12886
920.488	12745
920.598	12951
920.708	13118
920.818	13004
920.928	12924
921.038	13099
921.148	13072
921.258	12779
921.368	12662
921.477	12456
921.587	12490
921.697	12479
921.806	12574
921.916	12407
922.025	12304
922.134	12330
922.244	12228
922.353	12281
922.462	12201
922.571	12003
922.68	11923
922.789	11904
922.898	11851
923.007	11828
923.116	11882
923.224	11809
923.333	11790
923.442	11665
923.55	11665
923.659	11733
923.767	11824
923.876	11604
923.984	11779
924.092	11649
924.201	11695
924.309	11665
924.417	11684
924.525	11642
924.633	11608
924.741	12525
924.849	11478
924.956	11627
925.064	11425
925.172	11379
925.279	11391
925.387	11376
925.494	11341
925.602	11448
925.709	11539
925.816	11315
925.924	11315
926.031	11433
926.138	11322
926.245	11303
926.352	11330
926.459	11391
926.566	11364
926.673	11315
926.779	11193
926.886	11143
926.993	10953
927.099	11014
927.206	10904
927.312	10889
927.419	11037
927.525	10957
927.631	11041
927.737	10850
927.843	10885
927.95	10733
928.056	10812
928.162	10885
928.267	10980
928.373	11414
928.479	10953
928.585	10729
928.69	10843
928.796	10820
928.901	10702
929.007	10577
929.112	10725
929.218	10626
929.323	10679
929.428	10611
929.533	10755
929.638	10634
929.743	10550
929.848	10622
929.953	10679
930.058	10409
930.163	10360
930.267	10394
930.372	10527
930.477	10314
930.581	10573
930.685	10421
930.79	10192
930.894	10291
930.998	10253
931.103	10329
931.207	9956
931.311	9983
931.415	9873
931.519	9698
931.623	9713
