Data from test_V78500241_791.txt Node
Date: Fri Mar 25 14:39:13 CST 2022
User: usil
Spectrometer: V785-0024
Trigger mode: 0
Integration Time (sec): 4.000000E-1
Scans to average: 1
Nonlinearity correction enabled: false
Boxcar width: 0
Storing dark spectrum: false
XAxis mode: Wavelengths
Number of Pixels in Spectrum: 1024
>>>>>Begin Spectral Data<<<<<
801.071	26571
801.214	26434
801.356	26218
801.499	26073
801.641	26039
801.783	25845
801.926	25936
802.068	25978
802.211	25723
802.353	25772
802.496	25495
802.638	25506
802.78	25468
802.923	25479
803.065	25270
803.208	25373
803.35	25316
803.492	25521
803.635	25556
803.777	25476
803.919	25700
804.061	25856
804.204	25639
804.346	25635
804.488	25483
804.63	25613
804.773	25525
804.915	25658
805.057	25890
805.199	25788
805.341	25909
805.483	26088
805.626	26043
805.768	26119
805.91	26119
806.052	26259
806.194	26336
806.336	26640
806.478	26720
806.62	26785
806.762	27062
806.904	27538
807.046	28059
807.188	28185
807.33	28546
807.472	29029
807.614	29585
807.756	30452
807.898	31251
808.04	32495
808.182	34257
808.324	36475
808.465	39108
808.607	41977
808.749	44412
808.891	45888
809.033	45926
809.174	44617
809.316	42186
809.458	39279
809.6	36251
809.741	34109
809.883	32027
810.025	30722
810.166	29920
810.308	29231
810.45	28706
810.591	28211
810.733	27686
810.875	27401
811.016	27066
811.158	26944
811.299	27058
811.441	26727
811.582	26655
811.724	26469
811.865	26317
812.007	26298
812.148	26187
812.29	26317
812.431	26351
812.573	26419
812.714	26252
812.855	26332
812.997	26492
813.138	26602
813.279	26457
813.421	26469
813.562	26233
813.703	26191
813.845	25978
813.986	25605
814.127	25308
814.268	25206
814.41	25179
814.551	25057
814.692	25335
814.833	25141
814.974	24966
815.115	25084
815.256	24920
815.397	24833
815.539	24802
815.68	24696
815.821	24741
815.962	24677
816.103	24719
816.244	24627
816.385	24448
816.526	24346
816.666	24220
816.807	24064
816.948	24140
817.089	24159
817.23	23965
817.371	24011
817.512	24018
817.653	23999
817.793	23851
817.934	24018
818.075	23992
818.216	24015
818.356	23901
818.497	23889
818.638	23577
818.778	23668
818.919	23600
819.06	23718
819.2	23722
819.341	23935
819.481	23821
819.622	24022
819.762	24163
819.903	24049
820.043	23874
820.184	23813
820.324	23710
820.465	23897
820.605	23748
820.746	23999
820.886	23691
821.026	23741
821.167	23684
821.307	23684
821.447	23611
821.588	23661
821.728	23368
821.868	23216
822.008	23086
822.149	23147
822.289	23052
822.429	22835
822.569	22729
822.709	22862
822.849	22447
822.99	22516
823.13	22493
823.27	22478
823.41	22512
823.55	22261
823.69	22344
823.83	22348
823.97	22268
824.11	22109
824.25	22097
824.389	22204
824.529	22166
824.669	22139
824.809	22166
824.949	22226
825.089	22101
825.228	22013
825.368	21800
825.508	21876
825.648	22006
825.787	21926
825.927	22082
826.067	21869
826.206	21922
826.346	21899
826.485	21895
826.625	21895
826.765	21888
826.904	21922
827.044	21660
827.183	21644
827.323	21553
827.462	21572
827.601	21496
827.741	21667
827.88	21454
828.02	21340
828.159	21511
828.298	21481
828.437	21515
828.577	21492
828.716	21629
828.855	21428
828.994	21408
829.134	21313
829.273	21283
829.412	21207
829.551	21214
829.69	21252
829.829	21199
829.968	21275
830.107	21226
830.246	21195
830.385	21108
830.524	20994
830.663	20899
830.802	21135
830.941	20834
831.08	20670
831.219	20902
831.357	20895
831.496	21005
831.635	20906
831.774	20735
831.913	20834
832.051	20689
832.19	20629
832.329	20693
832.467	20648
832.606	20549
832.744	20663
832.883	20697
833.022	20819
833.16	20853
833.299	20952
833.437	20986
833.576	21173
833.714	21279
833.852	21466
833.991	21477
834.129	21675
834.267	21717
834.406	21542
834.544	21618
834.682	21416
834.821	21344
834.959	21283
835.097	21058
835.235	21058
835.373	20872
835.511	20781
835.65	20739
835.788	20507
835.926	20320
836.064	20370
836.202	20351
836.34	20454
836.478	20533
836.615	20358
836.753	20252
836.891	20427
837.029	20313
837.167	20366
837.305	20244
837.443	20206
837.58	20218
837.718	20332
837.856	20248
837.993	20088
838.131	20164
838.269	20164
838.406	20092
838.544	20027
838.681	19662
838.819	19868
838.956	19708
839.094	19537
839.231	19696
839.369	19788
839.506	19986
839.643	19757
839.781	19597
839.918	19620
840.055	19632
840.193	19533
840.33	19491
840.467	19529
840.604	19605
840.742	19894
840.879	19449
841.016	19563
841.153	19514
841.29	19575
841.427	19601
841.564	19708
841.701	19590
841.838	19419
841.975	19354
842.112	19529
842.249	19396
842.385	19270
842.522	19639
842.659	19491
842.796	19289
842.933	19415
843.069	19434
843.206	19438
843.343	19575
843.479	19575
843.616	19601
843.752	19358
843.889	19514
844.025	19544
844.162	19468
844.298	19731
844.435	19776
844.571	19856
844.708	20130
844.844	20560
844.98	20948
845.117	21363
845.253	22158
845.389	23623
845.525	26636
845.661	31651
845.798	37487
845.934	41870
846.07	43632
846.206	42460
846.342	38537
846.478	32765
846.614	27568
846.75	24270
846.886	22386
847.022	21298
847.158	20355
847.294	19944
847.429	19605
847.565	19388
847.701	19548
847.837	18905
847.972	18738
848.108	18871
848.244	18840
848.379	18414
848.515	18399
848.65	18517
848.786	18395
848.921	18506
849.057	18445
849.192	18418
849.328	18384
849.463	18369
849.598	18254
849.734	18205
849.869	18148
850.004	18095
850.14	18072
850.275	18072
850.41	17992
850.545	18045
850.68	18011
850.815	18144
850.95	17984
851.085	18114
851.22	18057
851.355	18117
851.49	17920
851.625	17939
851.76	17992
851.895	18003
852.03	17912
852.165	18091
852.299	17996
852.434	18106
852.569	18178
852.703	17988
852.838	18102
852.973	18205
853.107	18296
853.242	18235
853.376	18030
853.511	17931
853.645	18098
853.78	18216
853.914	18121
854.048	18205
854.183	18186
854.317	18197
854.451	18384
854.585	18197
854.72	18163
854.854	18194
854.988	18171
855.122	18034
855.256	17942
855.39	17946
855.524	18182
855.658	18072
855.792	17931
855.926	18015
856.06	17980
856.194	17992
856.327	17958
856.461	17775
856.595	17752
856.729	17741
856.862	17999
856.996	17969
857.13	17916
857.263	17950
857.397	17950
857.53	17893
857.664	17954
857.797	17908
857.931	17942
858.064	17813
858.197	18019
858.331	17741
858.464	17737
858.597	17707
858.731	17722
858.864	17684
858.997	17764
859.13	17764
859.263	17779
859.396	17771
859.529	17680
859.662	17592
859.795	17695
859.928	17764
860.061	17931
860.194	17954
860.327	17703
860.46	17726
860.592	17718
860.725	17733
860.858	17767
860.99	17745
861.123	17589
861.256	17608
861.388	17722
861.521	18407
861.653	17619
861.786	17512
861.918	17501
862.05	17478
862.183	17661
862.315	17707
862.447	17779
862.58	17699
862.712	17391
862.844	17493
862.976	17425
863.108	17467
863.24	17828
863.372	17364
863.504	17417
863.636	17425
863.768	17429
863.9	17277
864.032	17360
864.164	17368
864.296	17448
864.428	17421
864.559	17505
864.691	17486
864.823	17368
864.954	17433
865.086	17406
865.217	17326
865.349	17280
865.48	17334
865.612	17311
865.743	17497
865.875	17391
866.006	17391
866.137	17349
866.269	17212
866.4	17261
866.531	17231
866.662	17231
866.793	17223
866.924	17341
867.055	17311
867.186	17356
867.317	17231
867.448	17254
867.579	17220
867.71	17250
867.841	17200
867.972	17265
868.103	17292
868.233	17216
868.364	17261
868.495	17455
868.625	17554
868.756	17680
868.886	17395
869.017	17585
869.147	17680
869.278	17699
869.408	17482
869.539	17524
869.669	17551
869.799	17570
869.929	17611
870.06	17687
870.19	17935
870.32	17939
870.45	17885
870.58	18019
870.71	18053
870.84	18129
870.97	17961
871.1	18003
871.23	18155
871.36	18232
871.489	17977
871.619	18292
871.749	18285
871.879	18178
872.008	18361
872.138	18228
872.267	18232
872.397	18125
872.526	18205
872.656	18125
872.785	18273
872.915	18304
873.044	18410
873.173	18369
873.303	18445
873.432	18528
873.561	18544
873.69	18479
873.819	18418
873.948	18570
874.077	18608
874.206	18528
874.335	18646
874.464	18677
874.593	18795
874.722	18951
874.851	18958
874.979	19000
875.108	19000
875.237	18985
875.365	18981
875.494	19031
875.623	19148
875.751	19000
875.88	19228
876.008	19422
876.136	19556
876.265	19719
876.393	19826
876.521	19791
876.65	19883
876.778	19841
876.906	20005
877.034	19936
877.162	20008
877.29	20069
877.418	20176
877.546	20240
877.674	20301
877.802	20492
877.93	20583
878.058	20568
878.185	20727
878.313	20979
878.441	21420
878.568	21469
878.696	22093
878.824	22850
878.951	23760
879.079	25110
879.206	26944
879.333	28809
879.461	30007
879.588	31206
879.715	31179
879.842	30445
879.97	28755
880.097	26902
880.224	25354
880.351	24445
880.478	23687
880.605	23162
880.732	22873
880.859	22904
880.986	22554
881.112	22367
881.239	22166
881.366	22082
881.493	21998
881.619	21945
881.746	21911
881.872	22040
881.999	22025
882.125	22029
882.252	22082
882.378	22192
882.505	22215
882.631	22097
882.757	21930
882.883	22177
883.01	22032
883.136	21953
883.262	21895
883.388	21846
883.514	21987
883.64	21972
883.766	21922
883.892	21759
884.018	21869
884.143	21964
884.269	22010
884.395	21686
884.52	21724
884.646	21747
884.772	21701
884.897	21755
885.023	21846
885.148	21876
885.274	21827
885.399	21618
885.524	21363
885.65	21363
885.775	21321
885.9	21157
886.025	21096
886.15	20925
886.275	20773
886.4	20644
886.525	20564
886.65	20461
886.775	20244
886.9	20469
887.025	20431
887.149	20111
887.274	19906
887.399	19776
887.523	19715
887.648	19571
887.773	19533
887.897	19613
888.021	19582
888.146	19384
888.27	19506
888.395	19464
888.519	19324
888.643	19251
888.767	19217
888.891	19027
889.015	18806
889.139	18993
889.263	18787
889.387	18989
889.511	19061
889.635	18920
889.759	18779
889.883	18722
890.006	18700
890.13	18642
890.254	18551
890.377	18639
890.501	18319
890.624	18353
890.748	18429
890.871	18353
890.995	18095
891.118	18015
891.241	18079
891.364	18129
891.488	18209
891.611	17984
891.734	18019
891.857	18045
891.98	18049
892.103	18045
892.226	18133
892.349	17859
892.471	17653
892.594	17824
892.717	17794
892.839	17821
892.962	17722
893.085	17726
893.207	17699
893.33	17535
893.452	17570
893.575	17668
893.697	17619
893.819	17665
893.941	17809
894.064	17585
894.186	17395
894.308	17524
894.43	17478
894.552	17604
894.674	17600
894.796	17474
894.918	17330
895.04	17417
895.161	17379
895.283	17474
895.405	17296
895.526	17391
895.648	17376
895.769	17330
895.891	17414
896.012	17467
896.134	17501
896.255	17364
896.376	17246
896.498	17303
896.619	17376
896.74	17341
896.861	17356
896.982	17684
897.103	17764
897.224	17589
897.345	17505
897.466	17520
897.587	17554
897.708	17668
897.828	17532
897.949	17490
898.07	17277
898.19	17398
898.311	17627
898.431	17455
898.552	17482
898.672	17573
898.792	17554
898.913	17627
899.033	17417
899.153	17330
899.273	17296
899.393	17258
899.513	17376
899.633	17398
899.753	17345
899.873	17254
899.993	17440
900.113	17250
900.232	17337
900.352	17277
900.472	17231
900.591	17185
900.711	17193
900.83	17166
900.95	17223
901.069	17121
901.189	17094
901.308	16877
901.427	16683
901.546	16748
901.665	16729
901.784	16752
901.904	16653
902.023	16489
902.141	16333
902.26	16329
902.379	16287
902.498	16112
902.617	16154
902.735	16238
902.854	16185
902.973	16074
903.091	15945
903.21	15899
903.328	15846
903.446	15789
903.565	15705
903.683	15595
903.801	15549
903.919	15572
904.038	15610
904.156	15447
904.274	15553
904.392	15496
904.51	15443
904.627	15439
904.745	15382
904.863	15424
904.981	15112
905.098	15161
905.216	15043
905.334	14990
905.451	15123
905.569	15005
905.686	15138
905.803	15047
905.921	14792
906.038	14952
906.155	14853
906.272	14777
906.389	14800
906.506	14651
906.623	14587
906.74	14549
906.857	14377
906.974	14522
907.091	14610
907.208	14689
907.324	14537
907.441	14530
907.557	14252
907.674	14324
907.79	14252
907.907	14252
908.023	14320
908.139	14206
908.256	14225
908.372	14157
908.488	14187
908.604	14046
908.72	14050
908.836	14043
908.952	13963
909.068	14020
909.184	14081
909.3	14062
909.415	14153
909.531	13978
909.647	13826
909.762	13776
909.878	13727
909.993	13791
910.108	13666
910.224	13750
910.339	13723
910.454	13571
910.57	13571
910.685	13514
910.8	13715
910.915	13776
911.03	13719
911.145	13464
911.259	13487
911.374	13453
911.489	13445
911.604	13213
911.718	13095
911.833	13152
911.947	13118
912.062	13069
912.176	13133
912.291	13152
912.405	13171
912.519	13350
912.633	13354
912.748	13247
912.862	13095
912.976	13053
913.09	12901
913.204	12913
913.318	12954
913.431	13213
913.545	13042
913.659	13099
913.772	13012
913.886	12932
914	12829
914.113	13000
914.226	13027
914.34	12966
914.453	12730
914.566	12886
914.68	12707
914.793	12703
914.906	12654
915.019	12597
915.132	12566
915.245	12563
915.358	12597
915.47	12608
915.583	12528
915.696	12597
915.809	12734
915.921	12715
916.034	12521
916.146	12578
916.259	12479
916.371	12616
916.483	12582
916.595	12551
916.708	12547
916.82	12475
916.932	12490
917.044	12448
917.156	12422
917.268	12372
917.38	12384
917.491	12311
917.603	12311
917.715	12399
917.826	12395
917.938	12171
918.049	12110
918.161	12300
918.272	12422
918.384	12346
918.495	12296
918.606	12102
918.717	12019
918.828	12114
918.939	12155
919.05	12079
919.161	12072
919.272	11878
919.383	11988
919.494	12060
919.604	12281
919.715	12121
919.826	11950
919.936	12079
920.047	12098
920.157	12140
920.267	12258
920.378	12148
920.488	12019
920.598	12281
920.708	12418
920.818	12235
920.928	12304
921.038	12407
921.148	12391
921.258	12117
921.368	11988
921.477	11878
921.587	11878
921.697	11790
921.806	11912
921.916	11764
922.025	11649
922.134	11649
922.244	11452
922.353	11623
922.462	11387
922.571	11315
922.68	11239
922.789	11090
922.898	11242
923.007	11162
923.116	11189
923.224	11109
923.333	11197
923.442	11086
923.55	11071
923.659	11064
923.767	11094
923.876	10987
923.984	11098
924.092	11075
924.201	11003
924.309	11086
924.417	10968
924.525	10987
924.633	10995
924.741	11908
924.849	10797
924.956	10869
925.064	10797
925.172	10675
925.279	10702
925.387	10835
925.494	10763
925.602	10869
925.709	10778
925.816	10710
925.924	10740
926.031	10729
926.138	10748
926.245	10736
926.352	10656
926.459	10782
926.566	10801
926.673	10630
926.779	10634
926.886	10508
926.993	10466
927.099	10390
927.206	10280
927.312	10371
927.419	10478
927.525	10318
927.631	10367
927.737	10303
927.843	10337
927.95	10181
928.056	10333
928.162	10238
928.267	10318
928.373	11025
928.479	10325
928.585	10067
928.69	10230
928.796	10314
928.901	10097
929.007	10017
929.112	10219
929.218	10112
929.323	10063
929.428	10006
929.533	10143
929.638	10109
929.743	10010
929.848	10082
929.953	9987
930.058	9915
930.163	9781
930.267	9797
930.372	9915
930.477	9686
930.581	10048
930.685	9895
930.79	9709
930.894	9675
930.998	9709
931.103	9816
931.207	9496
931.311	9462
931.415	9348
931.519	9081
931.623	9157
