Data from test_V78500241_3258.txt Node
Date: Fri Mar 25 14:56:24 CST 2022
User: usil
Spectrometer: V785-0024
Trigger mode: 0
Integration Time (sec): 4.000000E-1
Scans to average: 1
Nonlinearity correction enabled: false
Boxcar width: 0
Storing dark spectrum: false
XAxis mode: Wavelengths
Number of Pixels in Spectrum: 1024
>>>>>Begin Spectral Data<<<<<
801.071	22006
801.214	21888
801.356	21778
801.499	21515
801.641	21488
801.783	21256
801.926	21431
802.068	21252
802.211	21268
802.353	21123
802.496	20899
802.638	20792
802.78	20845
802.923	20743
803.065	20670
803.208	20678
803.35	20598
803.492	20853
803.635	20823
803.777	20735
803.919	20689
804.061	20998
804.204	20845
804.346	20556
804.488	20556
804.63	20609
804.773	20514
804.915	20564
805.057	20739
805.199	20564
805.341	20682
805.483	20648
805.626	20648
805.768	20461
805.91	20568
806.052	20621
806.194	20454
806.336	20697
806.478	20571
806.62	20492
806.762	20659
806.904	20819
807.046	20975
807.188	20906
807.33	20838
807.472	20956
807.614	20720
807.756	20788
807.898	20644
808.04	20579
808.182	20773
808.324	20560
808.465	20762
808.607	20902
808.749	20979
808.891	21036
809.033	21112
809.174	20967
809.316	20781
809.458	20956
809.6	20921
809.741	20975
809.883	21055
810.025	21100
810.166	21203
810.308	20979
810.45	20937
810.591	20971
810.733	20895
810.875	20629
811.016	20617
811.158	20659
811.299	20845
811.441	20868
811.582	20834
811.724	20651
811.865	20693
812.007	20594
812.148	20746
812.29	20796
812.431	20948
812.573	21066
812.714	20975
812.855	21195
812.997	21336
813.138	21348
813.279	21336
813.421	21184
813.562	21055
813.703	20982
813.845	20815
813.986	20609
814.127	20332
814.268	20328
814.41	20244
814.551	20267
814.692	20328
814.833	20240
814.974	20275
815.115	20229
815.256	20111
815.397	20020
815.539	19978
815.68	19974
815.821	19974
815.962	19932
816.103	19959
816.244	19822
816.385	19715
816.526	19674
816.666	19586
816.807	19457
816.948	19483
817.089	19362
817.23	19441
817.371	19343
817.512	19460
817.653	19419
817.793	19274
817.934	19255
818.075	19377
818.216	19335
818.356	19369
818.497	19209
818.638	19015
818.778	19012
818.919	19027
819.06	19160
819.2	19259
819.341	19289
819.481	19251
819.622	19472
819.762	19544
819.903	19548
820.043	19304
820.184	19384
820.324	19232
820.465	19419
820.605	19388
820.746	19213
820.886	19187
821.026	19343
821.167	19316
821.307	19339
821.447	19358
821.588	19141
821.728	19023
821.868	18871
822.008	18867
822.149	18688
822.289	18730
822.429	18547
822.569	18403
822.709	18483
822.849	18296
822.99	18224
823.13	18148
823.27	18216
823.41	18140
823.55	17992
823.69	18045
823.83	18045
823.97	17992
824.11	17855
824.25	17771
824.389	17859
824.529	17958
824.669	17817
824.809	17912
824.949	17912
825.089	17935
825.228	17859
825.368	17718
825.508	17657
825.648	17642
825.787	17566
825.927	17600
826.067	17501
826.206	17604
826.346	17585
826.485	17649
826.625	17646
826.765	17661
826.904	17665
827.044	17299
827.183	17398
827.323	17292
827.462	17417
827.601	17334
827.741	17269
827.88	17258
828.02	17174
828.159	17261
828.298	17307
828.437	17376
828.577	17334
828.716	17341
828.855	17440
828.994	17037
829.134	17029
829.273	17121
829.412	16968
829.551	17025
829.69	17037
829.829	17105
829.968	17208
830.107	17193
830.246	17083
830.385	16972
830.524	17022
830.663	16904
830.802	16896
830.941	16797
831.08	16729
831.219	16744
831.357	16755
831.496	16881
831.635	16672
831.774	16649
831.913	16683
832.051	16512
832.19	16535
832.329	16508
832.467	16440
832.606	16242
832.744	16367
832.883	16322
833.022	16428
833.16	16356
833.299	16542
833.437	16394
833.576	16398
833.714	16386
833.852	16493
833.991	16489
834.129	16577
834.267	16512
834.406	16440
834.544	16474
834.682	16584
834.821	16508
834.959	16603
835.097	16421
835.235	16584
835.373	16443
835.511	16428
835.65	16417
835.788	16421
835.926	16303
836.064	16169
836.202	16261
836.34	16360
836.478	16489
836.615	16344
836.753	16386
836.891	16462
837.029	16421
837.167	16443
837.305	16291
837.443	16287
837.58	16219
837.718	16242
837.856	16265
837.993	16196
838.131	16265
838.269	16173
838.406	16128
838.544	16181
838.681	15930
838.819	15884
838.956	15934
839.094	15675
839.231	15804
839.369	15838
839.506	16234
839.643	16002
839.781	15751
839.918	15766
840.055	15823
840.193	15785
840.33	15838
840.467	15835
840.604	15770
840.742	16067
840.879	15701
841.016	15831
841.153	15644
841.29	15884
841.427	15884
841.564	15812
841.701	15781
841.838	15724
841.975	15739
842.112	15705
842.249	15641
842.385	15622
842.522	15812
842.659	15572
842.796	15564
842.933	15576
843.069	15561
843.206	15568
843.343	15614
843.479	15591
843.616	15641
843.752	15329
843.889	15329
844.025	15492
844.162	15454
844.298	15511
844.435	15367
844.571	15344
844.708	15428
844.844	15603
844.98	15515
845.117	15477
845.253	15329
845.389	15207
845.525	15382
845.661	15272
845.798	15207
845.934	15173
846.07	15157
846.206	15195
846.342	15325
846.478	15150
846.614	15032
846.75	14944
846.886	14891
847.022	15097
847.158	14929
847.294	14933
847.429	15009
847.565	14925
847.701	15214
847.837	14720
847.972	14613
848.108	14746
848.244	14693
848.379	14530
848.515	14465
848.65	14492
848.786	14537
848.921	14587
849.057	14667
849.192	14655
849.328	14610
849.463	14579
849.598	14560
849.734	14431
849.869	14480
850.004	14347
850.14	14362
850.275	14294
850.41	14229
850.545	14176
850.68	14355
850.815	14317
850.95	14332
851.085	14533
851.22	14404
851.355	14347
851.49	14210
851.625	14298
851.76	14240
851.895	14142
852.03	14119
852.165	14206
852.299	14275
852.434	14347
852.569	14301
852.703	14271
852.838	14370
852.973	14522
853.107	14473
853.242	14309
853.376	14142
853.511	14115
853.645	14183
853.78	14343
853.914	14252
854.048	14157
854.183	14103
854.317	14229
854.451	14381
854.585	14138
854.72	14195
854.854	14309
854.988	14058
855.122	14195
855.256	14001
855.39	14172
855.524	14229
855.658	14229
855.792	14252
855.926	14134
856.06	14282
856.194	14290
856.327	14202
856.461	14088
856.595	14107
856.729	14119
856.862	14225
856.996	14225
857.13	14275
857.263	14202
857.397	14320
857.53	14142
857.664	14187
857.797	14275
857.931	14278
858.064	14199
858.197	14317
858.331	14168
858.464	14092
858.597	14103
858.731	14123
858.864	14180
858.997	14107
859.13	14259
859.263	14187
859.396	14259
859.529	14202
859.662	14126
859.795	14123
859.928	14206
860.061	14225
860.194	14419
860.327	14164
860.46	14084
860.592	14309
860.725	14290
860.858	14358
860.99	14115
861.123	14065
861.256	14119
861.388	14138
861.521	14971
861.653	14153
861.786	14024
861.918	14046
862.05	14073
862.183	14199
862.315	14062
862.447	14282
862.58	14103
862.712	13993
862.844	13879
862.976	14043
863.108	14020
863.24	14218
863.372	13906
863.504	13993
863.636	13967
863.768	13997
863.9	13955
864.032	13902
864.164	14065
864.296	13989
864.428	14111
864.559	14062
864.691	14046
864.823	14016
864.954	14020
865.086	13959
865.217	14012
865.349	13906
865.48	13883
865.612	13925
865.743	14138
865.875	13951
866.006	13982
866.137	13913
866.269	14035
866.4	13868
866.531	13944
866.662	13898
866.793	13947
866.924	13852
867.055	13936
867.186	13959
867.317	13959
867.448	13860
867.579	13890
867.71	13875
867.841	13925
867.972	13921
868.103	13898
868.233	13974
868.364	13997
868.495	13986
868.625	14180
868.756	14336
868.886	14043
869.017	14172
869.147	14286
869.278	14267
869.408	14282
869.539	14195
869.669	14294
869.799	14225
869.929	14278
870.06	14343
870.19	14556
870.32	14541
870.45	14610
870.58	14583
870.71	14663
870.84	14754
870.97	14583
871.1	14568
871.23	14781
871.36	14762
871.489	14750
871.619	14682
871.749	14785
871.879	14849
872.008	14914
872.138	14834
872.267	14815
872.397	14686
872.526	14621
872.656	14621
872.785	14651
872.915	14792
873.044	14853
873.173	14849
873.303	14842
873.432	14941
873.561	14921
873.69	14788
873.819	14868
873.948	14880
874.077	14853
874.206	14788
874.335	14971
874.464	14933
874.593	15203
874.722	15028
874.851	15306
874.979	15199
875.108	15230
875.237	15138
875.365	15074
875.494	15188
875.623	15329
875.751	15055
875.88	15207
876.008	15393
876.136	15420
876.265	15534
876.393	15736
876.521	15694
876.65	15751
876.778	15652
876.906	15534
877.034	15500
877.162	15568
877.29	15466
877.418	15625
877.546	15553
877.674	15587
877.802	15519
877.93	15561
878.058	15557
878.185	15431
878.313	15443
878.441	15507
878.568	15420
878.696	15488
878.824	15549
878.951	15553
879.079	15789
879.206	15907
879.333	15724
879.461	15629
879.588	15713
879.715	15770
879.842	15937
879.97	15576
880.097	15458
880.224	15443
880.351	15439
880.478	15469
880.605	15370
880.732	15340
880.859	15705
880.986	15431
881.112	15549
881.239	15302
881.366	15237
881.493	15123
881.619	15093
881.746	15055
881.872	15047
881.999	14937
882.125	15039
882.252	15119
882.378	15097
882.505	15207
882.631	15028
882.757	14982
882.883	14967
883.01	14937
883.136	14868
883.262	14887
883.388	14857
883.514	14933
883.64	14948
883.766	14887
883.892	14678
884.018	14716
884.143	14872
884.269	15028
884.395	14644
884.52	14583
884.646	14552
884.772	14552
884.897	14556
885.023	14514
885.148	14773
885.274	14727
885.399	14686
885.524	14644
885.65	14648
885.775	14663
885.9	14613
886.025	14686
886.15	14701
886.275	14621
886.4	14461
886.525	14617
886.65	14571
886.775	14492
886.9	14796
887.025	14868
887.149	14606
887.274	14438
887.399	14469
887.523	14476
887.648	14393
887.773	14400
887.897	14507
888.021	14606
888.146	14370
888.27	14606
888.395	14598
888.519	14423
888.643	14473
888.767	14473
888.891	14476
889.015	14309
889.139	14336
889.263	14286
889.387	14377
889.511	14434
889.635	14362
889.759	14271
889.883	14244
890.006	14328
890.13	14377
890.254	14187
890.377	14324
890.501	14107
890.624	14046
890.748	14180
890.871	14024
890.995	13997
891.118	13932
891.241	13928
891.364	13955
891.488	14256
891.611	14012
891.734	14046
891.857	14168
891.98	14092
892.103	14077
892.226	14031
892.349	13921
892.471	13940
892.594	13997
892.717	13978
892.839	14027
892.962	13997
893.085	14119
893.207	13993
893.33	13955
893.452	13868
893.575	13997
893.697	13959
893.819	14240
893.941	14259
894.064	14142
894.186	13967
894.308	14069
894.43	14199
894.552	14168
894.674	14161
894.796	14020
894.918	14005
895.04	14153
895.161	14142
895.283	14271
895.405	13989
895.526	14077
895.648	14088
895.769	14103
895.891	14130
896.012	14214
896.134	14138
896.255	14244
896.376	14111
896.498	14191
896.619	14385
896.74	14263
896.861	14320
896.982	14632
897.103	14629
897.224	14404
897.345	14400
897.466	14355
897.587	14404
897.708	14667
897.828	14495
897.949	14366
898.07	14347
898.19	14404
898.311	14583
898.431	14381
898.552	14499
898.672	14571
898.792	14621
898.913	14533
899.033	14412
899.153	14400
899.273	14358
899.393	14396
899.513	14465
899.633	14385
899.753	14473
899.873	14374
899.993	14431
900.113	14442
900.232	14385
900.352	14351
900.472	14271
900.591	14092
900.711	14263
900.83	14199
900.95	14419
901.069	14294
901.189	14229
901.308	14043
901.427	13936
901.546	13917
901.665	13913
901.784	14035
901.904	13746
902.023	13734
902.141	13537
902.26	13430
902.379	13605
902.498	13434
902.617	13407
902.735	13559
902.854	13548
902.973	13419
903.091	13232
903.21	13304
903.328	13190
903.446	13118
903.565	13107
903.683	13091
903.801	12966
903.919	13000
904.038	13072
904.156	12878
904.274	13019
904.392	12958
904.51	12920
904.627	12863
904.745	12905
904.863	12935
904.981	12779
905.098	12646
905.216	12585
905.334	12604
905.451	12547
905.569	12525
905.686	12635
905.803	12627
905.921	12361
906.038	12563
906.155	12448
906.272	12292
906.389	12254
906.506	12213
906.623	12163
906.74	12197
906.857	12076
906.974	12140
907.091	12296
907.208	12315
907.324	12224
907.441	12140
907.557	11958
907.674	11992
907.79	11794
907.907	11977
908.023	12007
908.139	11923
908.256	11897
908.372	11817
908.488	11878
908.604	11764
908.72	11668
908.836	11798
908.952	11684
909.068	11714
909.184	11779
909.3	11642
909.415	11779
909.531	11729
909.647	11532
909.762	11467
909.878	11467
909.993	11467
910.108	11509
910.224	11520
910.339	11509
910.454	11421
910.57	11383
910.685	11220
910.8	11577
910.915	11562
911.03	11315
911.145	11204
911.259	11197
911.374	11204
911.489	11075
911.604	11083
911.718	10934
911.833	11025
911.947	10904
912.062	10869
912.176	10896
912.291	10942
912.405	10911
912.519	11121
912.633	11143
912.748	11029
912.862	11006
912.976	10873
913.09	10740
913.204	10793
913.318	10835
913.431	10896
913.545	10911
913.659	10904
913.772	10755
913.886	10691
914	10706
914.113	10866
914.226	10748
914.34	10782
914.453	10592
914.566	10771
914.68	10641
914.793	10618
914.906	10462
915.019	10500
915.132	10402
915.245	10436
915.358	10531
915.47	10405
915.583	10447
915.696	10432
915.809	10645
915.921	10592
916.034	10455
916.146	10455
916.259	10360
916.371	10546
916.483	10447
916.595	10299
916.708	10329
916.82	10379
916.932	10303
917.044	10379
917.156	10348
917.268	10223
917.38	10299
917.491	10344
917.603	10261
917.715	10375
917.826	10371
917.938	10322
918.049	10166
918.161	10280
918.272	10451
918.384	10402
918.495	10424
918.606	10181
918.717	10154
918.828	10139
918.939	10204
919.05	10071
919.161	10223
919.272	9956
919.383	10025
919.494	10257
919.604	10382
919.715	10173
919.826	10131
919.936	10124
920.047	10230
920.157	10150
920.267	10367
920.378	10207
920.488	10227
920.598	10329
920.708	10584
920.818	10318
920.928	10363
921.038	10558
921.148	10459
921.258	10207
921.368	10143
921.477	10017
921.587	9998
921.697	9972
921.806	10063
921.916	9884
922.025	9724
922.134	9698
922.244	9587
922.353	9743
922.462	9587
922.571	9644
922.68	9504
922.789	9412
922.898	9382
923.007	9348
923.116	9412
923.224	9443
923.333	9332
923.442	9294
923.55	9351
923.659	9370
923.767	9420
923.876	9249
923.984	9454
924.092	9256
924.201	9355
924.309	9302
924.417	9336
924.525	9211
924.633	9253
924.741	10169
924.849	9070
924.956	9253
925.064	9024
925.172	8990
925.279	9131
925.387	9077
925.494	9097
925.602	9222
925.709	9184
925.816	9009
925.924	9089
926.031	9230
926.138	9146
926.245	9142
926.352	9009
926.459	9173
926.566	9287
926.673	9047
926.779	9009
926.886	8952
926.993	8762
927.099	8750
927.206	8792
927.312	8815
927.419	8857
927.525	8826
927.631	8918
927.737	8781
927.843	8731
927.95	8625
928.056	8689
928.162	8754
928.267	8792
928.373	9214
928.479	8815
928.585	8560
928.69	8762
928.796	8788
928.901	8575
929.007	8473
929.112	8613
929.218	8606
929.323	8522
929.428	8533
929.533	8663
929.638	8583
929.743	8480
929.848	8545
929.953	8499
930.058	8461
930.163	8290
930.267	8385
930.372	8480
930.477	8355
930.581	8454
930.685	8385
930.79	8183
930.894	8324
930.998	8214
931.103	8396
931.207	8043
931.311	7951
931.415	7875
931.519	7712
931.623	7757
