Data from test_V78500241_1349.txt Node
Date: Fri Mar 25 14:43:06 CST 2022
User: usil
Spectrometer: V785-0024
Trigger mode: 0
Integration Time (sec): 4.000000E-1
Scans to average: 1
Nonlinearity correction enabled: false
Boxcar width: 0
Storing dark spectrum: false
XAxis mode: Wavelengths
Number of Pixels in Spectrum: 1024
>>>>>Begin Spectral Data<<<<<
801.071	22371
801.214	22276
801.356	22188
801.499	21949
801.641	21770
801.783	21724
801.926	21804
802.068	21717
802.211	21759
802.353	21595
802.496	21511
802.638	21165
802.78	21275
802.923	21108
803.065	20986
803.208	21043
803.35	21154
803.492	21218
803.635	21260
803.777	21028
803.919	21218
804.061	21435
804.204	21169
804.346	21024
804.488	20952
804.63	21077
804.773	20910
804.915	21024
805.057	21169
805.199	20971
805.341	21070
805.483	21161
805.626	21096
805.768	20937
805.91	21013
806.052	20986
806.194	20944
806.336	21150
806.478	20979
806.62	21108
806.762	21176
806.904	21230
807.046	21466
807.188	21291
807.33	21469
807.472	21443
807.614	21374
807.756	21367
807.898	21313
808.04	21104
808.182	21291
808.324	21340
808.465	21325
808.607	21519
808.749	21660
808.891	21838
809.033	21876
809.174	21671
809.316	21583
809.458	21652
809.6	21553
809.741	21603
809.883	21652
810.025	21720
810.166	21599
810.308	21663
810.45	21648
810.591	21500
810.733	21351
810.875	21340
811.016	21192
811.158	21176
811.299	21306
811.441	21386
811.582	21428
811.724	21211
811.865	21192
812.007	21272
812.148	21317
812.29	21169
812.431	21405
812.573	21488
812.714	21515
812.855	21770
812.997	21827
813.138	21983
813.279	21854
813.421	21774
813.562	21622
813.703	21507
813.845	21416
813.986	21096
814.127	20845
814.268	20842
814.41	20849
814.551	20785
814.692	20910
814.833	20750
814.974	20575
815.115	20708
815.256	20530
815.397	20686
815.539	20598
815.68	20575
815.821	20457
815.962	20579
816.103	20454
816.244	20324
816.385	20206
816.526	20351
816.666	20153
816.807	19871
816.948	19955
817.089	20020
817.23	19898
817.371	19944
817.512	19913
817.653	19902
817.793	19917
817.934	19871
818.075	19860
818.216	19936
818.356	19928
818.497	19719
818.638	19655
818.778	19575
818.919	19693
819.06	19567
819.2	19845
819.341	19753
819.481	19852
819.622	19887
819.762	20054
819.903	20134
820.043	19963
820.184	19970
820.324	19947
820.465	19913
820.605	19944
820.746	19791
820.886	19723
821.026	19795
821.167	19868
821.307	19909
821.447	19845
821.588	19788
821.728	19533
821.868	19419
822.008	19304
822.149	19510
822.289	19232
822.429	18951
822.569	19061
822.709	19076
822.849	18783
822.99	18875
823.13	18882
823.27	18768
823.41	18684
823.55	18475
823.69	18631
823.83	18593
823.97	18498
824.11	18376
824.25	18330
824.389	18471
824.529	18403
824.669	18361
824.809	18578
824.949	18563
825.089	18540
825.228	18315
825.368	18311
825.508	18197
825.648	18155
825.787	18144
825.927	18140
826.067	18079
826.206	18038
826.346	18216
826.485	18205
826.625	18129
826.765	18194
826.904	18129
827.044	17973
827.183	17912
827.323	17885
827.462	17901
827.601	17843
827.741	17802
827.88	17866
828.02	17779
828.159	17863
828.298	17904
828.437	17821
828.577	17771
828.716	17923
828.855	17805
828.994	17657
829.134	17577
829.273	17684
829.412	17592
829.551	17676
829.69	17714
829.829	17680
829.968	17821
830.107	17532
830.246	17528
830.385	17520
830.524	17436
830.663	17364
830.802	17356
830.941	17181
831.08	17223
831.219	17155
831.357	17277
831.496	17402
831.635	17254
831.774	17140
831.913	17079
832.051	17018
832.19	16972
832.329	17067
832.467	16908
832.606	16881
832.744	16987
832.883	16949
833.022	16908
833.16	16877
833.299	16900
833.437	16999
833.576	17006
833.714	17048
833.852	16987
833.991	16995
834.129	17071
834.267	17086
834.406	16995
834.544	17140
834.682	17018
834.821	16976
834.959	17128
835.097	16953
835.235	17105
835.373	16995
835.511	16976
835.65	16984
835.788	16847
835.926	16729
836.064	16820
836.202	16729
836.34	16809
836.478	16984
836.615	16786
836.753	16889
836.891	16991
837.029	16953
837.167	16847
837.305	16877
837.443	16679
837.58	16809
837.718	16824
837.856	16740
837.993	16691
838.131	16752
838.269	16649
838.406	16656
838.544	16607
838.681	16611
838.819	16443
838.956	16238
839.094	16306
839.231	16325
839.369	16402
839.506	16740
839.643	16493
839.781	16253
839.918	16280
840.055	16238
840.193	16333
840.33	16207
840.467	16249
840.604	16223
840.742	16672
840.879	16200
841.016	16185
841.153	16234
841.29	16367
841.427	16287
841.564	16268
841.701	16272
841.838	16226
841.975	16124
842.112	16299
842.249	16074
842.385	16071
842.522	16188
842.659	16181
842.796	16162
842.933	16029
843.069	16025
843.206	16093
843.343	16090
843.479	16101
843.616	16048
843.752	15964
843.889	15816
844.025	16082
844.162	15781
844.298	15983
844.435	15857
844.571	15804
844.708	15880
844.844	15964
844.98	15941
845.117	16067
845.253	15861
845.389	15774
845.525	15682
845.661	15895
845.798	15880
845.934	15899
846.07	15892
846.206	15907
846.342	16025
846.478	15850
846.614	15587
846.75	15412
846.886	15412
847.022	15382
847.158	15424
847.294	15397
847.429	15450
847.565	15454
847.701	15633
847.837	15119
847.972	15100
848.108	15184
848.244	15203
848.379	15051
848.515	15005
848.65	14986
848.786	15028
848.921	14971
849.057	15047
849.192	15074
849.328	15127
849.463	14982
849.598	14967
849.734	14929
849.869	14902
850.004	14819
850.14	14849
850.275	14823
850.41	14667
850.545	14724
850.68	14800
850.815	14693
850.95	14663
851.085	14918
851.22	14899
851.355	14735
851.49	14693
851.625	14720
851.76	14769
851.895	14636
852.03	14579
852.165	14750
852.299	14785
852.434	14838
852.569	14788
852.703	14823
852.838	14857
852.973	14918
853.107	14933
853.242	14697
853.376	14788
853.511	14564
853.645	14587
853.78	14765
853.914	14663
854.048	14659
854.183	14552
854.317	14655
854.451	14735
854.585	14667
854.72	14556
854.854	14659
854.988	14560
855.122	14598
855.256	14465
855.39	14568
855.524	14568
855.658	14648
855.792	14663
855.926	14678
856.06	14731
856.194	14845
856.327	14659
856.461	14708
856.595	14629
856.729	14644
856.862	14697
856.996	14659
857.13	14720
857.263	14750
857.397	14716
857.53	14663
857.664	14720
857.797	14739
857.931	14838
858.064	14632
858.197	14743
858.331	14587
858.464	14514
858.597	14598
858.731	14708
858.864	14678
858.997	14568
859.13	14598
859.263	14708
859.396	14712
859.529	14541
859.662	14530
859.795	14613
859.928	14739
860.061	14781
860.194	14883
860.327	14663
860.46	14644
860.592	14663
860.725	14769
860.858	14804
860.99	14651
861.123	14560
861.256	14602
861.388	14644
861.521	15294
861.653	14537
861.786	14434
861.918	14583
862.05	14564
862.183	14499
862.315	14545
862.447	14670
862.58	14560
862.712	14427
862.844	14370
862.976	14522
863.108	14492
863.24	14811
863.372	14298
863.504	14442
863.636	14385
863.768	14514
863.9	14461
864.032	14294
864.164	14362
864.296	14415
864.428	14492
864.559	14499
864.691	14476
864.823	14507
864.954	14450
865.086	14400
865.217	14415
865.349	14377
865.48	14320
865.612	14454
865.743	14484
865.875	14442
866.006	14412
866.137	14374
866.269	14393
866.4	14438
866.531	14419
866.662	14381
866.793	14396
866.924	14374
867.055	14408
867.186	14442
867.317	14324
867.448	14313
867.579	14351
867.71	14278
867.841	14301
867.972	14442
868.103	14309
868.233	14457
868.364	14461
868.495	14476
868.625	14610
868.756	14773
868.886	14640
869.017	14610
869.147	14826
869.278	14674
869.408	14758
869.539	14621
869.669	14708
869.799	14621
869.929	14754
870.06	14731
870.19	14918
870.32	14925
870.45	14948
870.58	15104
870.71	15195
870.84	15093
870.97	15047
871.1	14960
871.23	15294
871.36	15245
871.489	15138
871.619	15138
871.749	15226
871.879	15279
872.008	15386
872.138	15112
872.267	15146
872.397	15104
872.526	15009
872.656	14994
872.785	15013
872.915	15222
873.044	15317
873.173	15332
873.303	15310
873.432	15310
873.561	15405
873.69	15241
873.819	15317
873.948	15355
874.077	15351
874.206	15306
874.335	15313
874.464	15504
874.593	15572
874.722	15599
874.851	15641
874.979	15694
875.108	15720
875.237	15496
875.365	15580
875.494	15629
875.623	15679
875.751	15679
875.88	15747
876.008	15751
876.136	15842
876.265	16029
876.393	16109
876.521	16150
876.65	16071
876.778	16002
876.906	15975
877.034	16044
877.162	15941
877.29	15960
877.418	16154
877.546	16017
877.674	16112
877.802	16116
877.93	16093
878.058	16147
878.185	15964
878.313	16044
878.441	16120
878.568	15968
878.696	15960
878.824	16086
878.951	16223
879.079	16405
879.206	16478
879.333	16291
879.461	16230
879.588	16310
879.715	16367
879.842	16379
879.97	16272
880.097	15979
880.224	15930
880.351	16063
880.478	16044
880.605	15842
880.732	15888
880.859	16017
880.986	15930
881.112	15918
881.239	15876
881.366	15766
881.493	15633
881.619	15576
881.746	15690
881.872	15728
881.999	15686
882.125	15488
882.252	15663
882.378	15667
882.505	15831
882.631	15595
882.757	15488
882.883	15428
883.01	15443
883.136	15405
883.262	15344
883.388	15317
883.514	15298
883.64	15515
883.766	15374
883.892	15207
884.018	15256
884.143	15344
884.269	15462
884.395	15131
884.52	15093
884.646	15077
884.772	14933
884.897	14967
885.023	15150
885.148	15157
885.274	15230
885.399	15222
885.524	15119
885.65	15089
885.775	15169
885.9	15043
886.025	15203
886.15	15146
886.275	14990
886.4	15001
886.525	15077
886.65	15051
886.775	15089
886.9	15112
887.025	15272
887.149	15028
887.274	14998
887.399	14929
887.523	14864
887.648	14788
887.773	14849
887.897	14918
888.021	14982
888.146	14815
888.27	15070
888.395	15055
888.519	14952
888.643	14986
888.767	14979
888.891	14861
889.015	14697
889.139	14773
889.263	14724
889.387	14868
889.511	14929
889.635	14895
889.759	14777
889.883	14659
890.006	14796
890.13	14823
890.254	14758
890.377	14705
890.501	14545
890.624	14522
890.748	14644
890.871	14492
890.995	14476
891.118	14385
891.241	14423
891.364	14461
891.488	14549
891.611	14427
891.734	14389
891.857	14507
891.98	14503
892.103	14511
892.226	14545
892.349	14362
892.471	14263
892.594	14412
892.717	14450
892.839	14450
892.962	14476
893.085	14545
893.207	14461
893.33	14244
893.452	14320
893.575	14461
893.697	14404
893.819	14503
893.941	14602
894.064	14606
894.186	14415
894.308	14385
894.43	14640
894.552	14610
894.674	14629
894.796	14400
894.918	14556
895.04	14415
895.161	14533
895.283	14507
895.405	14564
895.526	14522
895.648	14495
895.769	14545
895.891	14617
896.012	14686
896.134	14659
896.255	14537
896.376	14533
896.498	14530
896.619	14587
896.74	14541
896.861	14724
896.982	14925
897.103	15077
897.224	14853
897.345	14796
897.466	14796
897.587	14785
897.708	14929
897.828	14880
897.949	14899
898.07	14750
898.19	14853
898.311	15070
898.431	14853
898.552	14952
898.672	15001
898.792	15146
898.913	14944
899.033	14838
899.153	14716
899.273	14651
899.393	14765
899.513	14883
899.633	14800
899.753	14781
899.873	14674
899.993	14758
900.113	14754
900.232	14800
900.352	14872
900.472	14796
900.591	14613
900.711	14697
900.83	14651
900.95	14750
901.069	14720
901.189	14697
901.308	14450
901.427	14313
901.546	14290
901.665	14347
901.784	14320
901.904	14248
902.023	14130
902.141	13902
902.26	13811
902.379	13925
902.498	13795
902.617	13776
902.735	13989
902.854	13925
902.973	13830
903.091	13696
903.21	13472
903.328	13651
903.446	13533
903.565	13453
903.683	13468
903.801	13400
903.919	13388
904.038	13369
904.156	13270
904.274	13384
904.392	13320
904.51	13251
904.627	13285
904.745	13335
904.863	13209
904.981	13046
905.098	12852
905.216	12977
905.334	13015
905.451	12989
905.569	12928
905.686	12977
905.803	12966
905.921	12776
906.038	12890
906.155	12810
906.272	12585
906.389	12627
906.506	12441
906.623	12608
906.74	12528
906.857	12471
906.974	12460
907.091	12597
907.208	12582
907.324	12544
907.441	12426
907.557	12330
907.674	12315
907.79	12178
907.907	12213
908.023	12376
908.139	12292
908.256	12281
908.372	12262
908.488	12136
908.604	12106
908.72	12026
908.836	12034
908.952	11965
909.068	12030
909.184	11992
909.3	11992
909.415	12060
909.531	12087
909.647	11927
909.762	11863
909.878	11798
909.993	11836
910.108	11737
910.224	11805
910.339	11821
910.454	11623
910.57	11623
910.685	11665
910.8	11843
910.915	11824
911.03	11703
911.145	11585
911.259	11543
911.374	11459
911.489	11436
911.604	11417
911.718	11345
911.833	11197
911.947	11128
912.062	11056
912.176	11174
912.291	11242
912.405	11223
912.519	11421
912.633	11486
912.748	11315
912.862	11246
912.976	11132
913.09	10949
913.204	11094
913.318	11113
913.431	11231
913.545	11212
913.659	11220
913.772	11128
913.886	11003
914	11022
914.113	11086
914.226	11155
914.34	11136
914.453	10949
914.566	11037
914.68	11029
914.793	10889
914.906	10778
915.019	10691
915.132	10679
915.245	10698
915.358	10774
915.47	10736
915.583	10748
915.696	10889
915.809	10839
915.921	10843
916.034	10691
916.146	10634
916.259	10755
916.371	10771
916.483	10748
916.595	10664
916.708	10630
916.82	10668
916.932	10626
917.044	10611
917.156	10607
917.268	10508
917.38	10550
917.491	10516
917.603	10558
917.715	10649
917.826	10599
917.938	10561
918.049	10466
918.161	10603
918.272	10748
918.384	10672
918.495	10592
918.606	10481
918.717	10402
918.828	10455
918.939	10474
919.05	10379
919.161	10363
919.272	10227
919.383	10382
919.494	10440
919.604	10702
919.715	10341
919.826	10474
919.936	10413
920.047	10550
920.157	10451
920.267	10672
920.378	10504
920.488	10443
920.598	10637
920.708	10755
920.818	10691
920.928	10660
921.038	10812
921.148	10733
921.258	10443
921.368	10481
921.477	10284
921.587	10219
921.697	10173
921.806	10246
921.916	10158
922.025	10017
922.134	10048
922.244	9899
922.353	9949
922.462	9915
922.571	9804
922.68	9698
922.789	9656
922.898	9686
923.007	9648
923.116	9781
923.224	9728
923.333	9641
923.442	9580
923.55	9519
923.659	9656
923.767	9648
923.876	9576
923.984	9568
924.092	9500
924.201	9553
924.309	9599
924.417	9549
924.525	9488
924.633	9443
924.741	10394
924.849	9344
924.956	9469
925.064	9336
925.172	9249
925.279	9283
925.387	9416
925.494	9355
925.602	9538
925.709	9393
925.816	9268
925.924	9264
926.031	9332
926.138	9325
926.245	9336
926.352	9203
926.459	9344
926.566	9420
926.673	9317
926.779	9222
926.886	9222
926.993	9104
927.099	8944
927.206	9039
927.312	8895
927.419	9131
927.525	9051
927.631	9085
927.737	8929
927.843	8910
927.95	8838
928.056	8979
928.162	8902
928.267	8971
928.373	9545
928.479	9028
928.585	8773
928.69	8887
928.796	8956
928.901	8853
929.007	8667
929.112	8834
929.218	8883
929.323	8815
929.428	8686
929.533	8868
929.638	8712
929.743	8743
929.848	8807
929.953	8727
930.058	8682
930.163	8579
930.267	8549
930.372	8594
930.477	8480
930.581	8739
930.685	8541
930.79	8446
930.894	8587
930.998	8404
931.103	8549
931.207	8313
931.311	8240
931.415	8134
931.519	7955
931.623	7951
