Data from test_V78500241_1935.txt Node
Date: Fri Mar 25 14:47:11 CST 2022
User: usil
Spectrometer: V785-0024
Trigger mode: 0
Integration Time (sec): 4.000000E-1
Scans to average: 1
Nonlinearity correction enabled: false
Boxcar width: 0
Storing dark spectrum: false
XAxis mode: Wavelengths
Number of Pixels in Spectrum: 1024
>>>>>Begin Spectral Data<<<<<
801.071	21994
801.214	21956
801.356	21690
801.499	21682
801.641	21496
801.783	21393
801.926	21538
802.068	21408
802.211	21294
802.353	21272
802.496	21089
802.638	21005
802.78	21013
802.923	20929
803.065	20781
803.208	20785
803.35	20826
803.492	20823
803.635	20902
803.777	20834
803.919	20929
804.061	21184
804.204	20838
804.346	20625
804.488	20731
804.63	20743
804.773	20537
804.915	20693
805.057	20842
805.199	20785
805.341	20800
805.483	20815
805.626	20788
805.768	20667
805.91	20731
806.052	20708
806.194	20556
806.336	20830
806.478	20602
806.62	20560
806.762	20811
806.904	20864
807.046	21108
807.188	20857
807.33	20986
807.472	21116
807.614	20899
807.756	20971
807.898	20872
808.04	20739
808.182	20811
808.324	20678
808.465	20804
808.607	20906
808.749	20986
808.891	21150
809.033	21173
809.174	21112
809.316	21096
809.458	20990
809.6	21036
809.741	21116
809.883	21017
810.025	21272
810.166	21344
810.308	21230
810.45	21119
810.591	21089
810.733	20883
810.875	20842
811.016	20758
811.158	20743
811.299	20868
811.441	21051
811.582	20880
811.724	20830
811.865	20826
812.007	20830
812.148	20811
812.29	20849
812.431	20963
812.573	21116
812.714	21150
812.855	21252
812.997	21450
813.138	21599
813.279	21466
813.421	21416
813.562	21260
813.703	21112
813.845	20982
813.986	20705
814.127	20533
814.268	20461
814.41	20419
814.551	20400
814.692	20461
814.833	20419
814.974	20328
815.115	20309
815.256	20317
815.397	20290
815.539	20199
815.68	20168
815.821	20001
815.962	20172
816.103	20081
816.244	19936
816.385	19898
816.526	19769
816.666	19727
816.807	19670
816.948	19571
817.089	19620
817.23	19563
817.371	19514
817.512	19487
817.653	19483
817.793	19339
817.934	19483
818.075	19674
818.216	19567
818.356	19419
818.497	19274
818.638	19206
818.778	19198
818.919	19141
819.06	19244
819.2	19278
819.341	19316
819.481	19430
819.622	19605
819.762	19666
819.903	19674
820.043	19476
820.184	19468
820.324	19483
820.465	19495
820.605	19525
820.746	19491
820.886	19282
821.026	19495
821.167	19343
821.307	19453
821.447	19422
821.588	19293
821.728	19194
821.868	19008
822.008	18890
822.149	18928
822.289	18935
822.429	18665
822.569	18631
822.709	18658
822.849	18384
822.99	18350
823.13	18384
823.27	18418
823.41	18273
823.55	18205
823.69	18224
823.83	18258
823.97	18190
824.11	17980
824.25	17923
824.389	18022
824.529	18079
824.669	18057
824.809	17939
824.949	18121
825.089	18129
825.228	17988
825.368	17767
825.508	17775
825.648	17809
825.787	17851
825.927	17855
826.067	17680
826.206	17680
826.346	17832
826.485	17859
826.625	17775
826.765	17817
826.904	17809
827.044	17570
827.183	17554
827.323	17486
827.462	17532
827.601	17425
827.741	17372
827.88	17611
828.02	17288
828.159	17463
828.298	17509
828.437	17493
828.577	17501
828.716	17630
828.855	17436
828.994	17181
829.134	17311
829.273	17322
829.412	17185
829.551	17094
829.69	17242
829.829	17239
829.968	17227
830.107	17227
830.246	17299
830.385	17109
830.524	17124
830.663	17083
830.802	17018
830.941	16778
831.08	16790
831.219	16896
831.357	17018
831.496	17003
831.635	16850
831.774	16812
831.913	16729
832.051	16637
832.19	16618
832.329	16668
832.467	16485
832.606	16519
832.744	16527
832.883	16546
833.022	16493
833.16	16542
833.299	16554
833.437	16656
833.576	16493
833.714	16577
833.852	16637
833.991	16554
834.129	16622
834.267	16683
834.406	16561
834.544	16660
834.682	16550
834.821	16565
834.959	16736
835.097	16615
835.235	16634
835.373	16485
835.511	16687
835.65	16538
835.788	16504
835.926	16417
836.064	16344
836.202	16386
836.34	16508
836.478	16611
836.615	16611
836.753	16603
836.891	16622
837.029	16569
837.167	16447
837.305	16443
837.443	16348
837.58	16360
837.718	16417
837.856	16447
837.993	16352
838.131	16379
838.269	16257
838.406	16295
838.544	16207
838.681	16082
838.819	16013
838.956	15869
839.094	15953
839.231	16013
839.369	15949
839.506	16310
839.643	16185
839.781	15937
839.918	15911
840.055	16021
840.193	15915
840.33	15937
840.467	15945
840.604	15979
840.742	16280
840.879	15819
841.016	15873
841.153	15831
841.29	15987
841.427	15983
841.564	15964
841.701	15880
841.838	15930
841.975	15785
842.112	15835
842.249	15705
842.385	15781
842.522	15793
842.659	15713
842.796	15557
842.933	15705
843.069	15667
843.206	15618
843.343	15842
843.479	15835
843.616	15861
843.752	15428
843.889	15507
844.025	15625
844.162	15564
844.298	15610
844.435	15500
844.571	15481
844.708	15568
844.844	15622
844.98	15652
845.117	15686
845.253	15435
845.389	15412
845.525	15412
845.661	15424
845.798	15325
845.934	15317
846.07	15279
846.206	15348
846.342	15408
846.478	15230
846.614	15135
846.75	15089
846.886	15081
847.022	15294
847.158	15013
847.294	15169
847.429	15051
847.565	15001
847.701	15294
847.837	14762
847.972	14750
848.108	14952
848.244	14918
848.379	14724
848.515	14625
848.65	14655
848.786	14701
848.921	14678
849.057	14746
849.192	14708
849.328	14674
849.463	14689
849.598	14640
849.734	14613
849.869	14465
850.004	14434
850.14	14545
850.275	14549
850.41	14370
850.545	14301
850.68	14400
850.815	14480
850.95	14370
851.085	14587
851.22	14507
851.355	14511
851.49	14328
851.625	14381
851.76	14473
851.895	14301
852.03	14358
852.165	14461
852.299	14556
852.434	14670
852.569	14564
852.703	14461
852.838	14446
852.973	14629
853.107	14587
853.242	14492
853.376	14385
853.511	14206
853.645	14176
853.78	14514
853.914	14374
854.048	14351
854.183	14267
854.317	14366
854.451	14511
854.585	14301
854.72	14355
854.854	14370
854.988	14336
855.122	14370
855.256	14157
855.39	14313
855.524	14370
855.658	14404
855.792	14358
855.926	14336
856.06	14473
856.194	14393
856.327	14511
856.461	14454
856.595	14362
856.729	14298
856.862	14393
856.996	14377
857.13	14362
857.263	14423
857.397	14511
857.53	14393
857.664	14381
857.797	14427
857.931	14419
858.064	14415
858.197	14454
858.331	14385
858.464	14305
858.597	14286
858.731	14446
858.864	14317
858.997	14336
859.13	14396
859.263	14358
859.396	14419
859.529	14362
859.662	14248
859.795	14381
859.928	14332
860.061	14461
860.194	14533
860.327	14374
860.46	14366
860.592	14457
860.725	14545
860.858	14480
860.99	14339
861.123	14282
861.256	14199
861.388	14362
861.521	15074
861.653	14225
861.786	14229
861.918	14267
862.05	14210
862.183	14339
862.315	14408
862.447	14305
862.58	14324
862.712	14111
862.844	14084
862.976	14267
863.108	14210
863.24	14484
863.372	14024
863.504	14100
863.636	14142
863.768	14142
863.9	14202
864.032	14115
864.164	14096
864.296	14233
864.428	14233
864.559	14324
864.691	14256
864.823	14191
864.954	14271
865.086	14195
865.217	14107
865.349	14012
865.48	14092
865.612	14244
865.743	14214
865.875	14145
866.006	14153
866.137	14218
866.269	14103
866.4	14134
866.531	14088
866.662	14043
866.793	14103
866.924	14123
867.055	14161
867.186	14134
867.317	14020
867.448	14043
867.579	14058
867.71	14069
867.841	14050
867.972	14107
868.103	14084
868.233	14149
868.364	14126
868.495	14172
868.625	14393
868.756	14488
868.886	14301
869.017	14305
869.147	14469
869.278	14465
869.408	14396
869.539	14370
869.669	14469
869.799	14446
869.929	14488
870.06	14537
870.19	14693
870.32	14621
870.45	14689
870.58	14785
870.71	14933
870.84	14883
870.97	14754
871.1	14712
871.23	14910
871.36	14895
871.489	14902
871.619	14876
871.749	14861
871.879	14929
872.008	15039
872.138	14891
872.267	14933
872.397	14838
872.526	14883
872.656	14678
872.785	14838
872.915	15017
873.044	15043
873.173	15043
873.303	15089
873.432	14967
873.561	15074
873.69	15047
873.819	14967
873.948	15154
874.077	15077
874.206	15001
874.335	14933
874.464	15180
874.593	15279
874.722	15310
874.851	15325
874.979	15294
875.108	15378
875.237	15203
875.365	15291
875.494	15264
875.623	15515
875.751	15351
875.88	15367
876.008	15473
876.136	15530
876.265	15789
876.393	15899
876.521	15789
876.65	15800
876.778	15747
876.906	15770
877.034	15717
877.162	15766
877.29	15671
877.418	15812
877.546	15736
877.674	15816
877.802	15823
877.93	15793
878.058	15797
878.185	15553
878.313	15732
878.441	15797
878.568	15538
878.696	15759
878.824	15728
878.951	15888
879.079	15857
879.206	16055
879.333	15876
879.461	15873
879.588	15918
879.715	15857
879.842	16013
879.97	15785
880.097	15584
880.224	15564
880.351	15614
880.478	15576
880.605	15477
880.732	15644
880.859	15766
880.986	15637
881.112	15679
881.239	15507
881.366	15389
881.493	15268
881.619	15161
881.746	15233
881.872	15306
881.999	15180
882.125	15195
882.252	15302
882.378	15192
882.505	15443
882.631	15180
882.757	15070
882.883	15165
883.01	15089
883.136	15001
883.262	15043
883.388	14971
883.514	15104
883.64	15169
883.766	15097
883.892	14849
884.018	14960
884.143	14994
884.269	15138
884.395	14796
884.52	14743
884.646	14815
884.772	14712
884.897	14807
885.023	14758
885.148	14880
885.274	14914
885.399	14937
885.524	14800
885.65	14815
885.775	14773
885.9	14861
886.025	14876
886.15	14921
886.275	14716
886.4	14678
886.525	14750
886.65	14640
886.775	14708
886.9	14941
887.025	15005
887.149	14765
887.274	14625
887.399	14526
887.523	14552
887.648	14503
887.773	14579
887.897	14693
888.021	14667
888.146	14575
888.27	14735
888.395	14651
888.519	14705
888.643	14697
888.767	14625
888.891	14533
889.015	14476
889.139	14503
889.263	14461
889.387	14545
889.511	14644
889.635	14610
889.759	14446
889.883	14408
890.006	14514
890.13	14621
890.254	14206
890.377	14427
890.501	14263
890.624	14237
890.748	14298
890.871	14134
890.995	14115
891.118	14081
891.241	14145
891.364	14233
891.488	14237
891.611	14145
891.734	14161
891.857	14172
891.98	14191
892.103	14187
892.226	14275
892.349	14123
892.471	13928
892.594	14084
892.717	14164
892.839	14107
892.962	14130
893.085	14138
893.207	14092
893.33	14065
893.452	14058
893.575	14214
893.697	14161
893.819	14362
893.941	14385
894.064	14320
894.186	14149
894.308	14096
894.43	14355
894.552	14339
894.674	14324
894.796	14145
894.918	14168
895.04	14187
895.161	14229
895.283	14256
895.405	14187
895.526	14164
895.648	14237
895.769	14343
895.891	14343
896.012	14393
896.134	14267
896.255	14259
896.376	14275
896.498	14320
896.619	14328
896.74	14400
896.861	14404
896.982	14670
897.103	14800
897.224	14632
897.345	14598
897.466	14442
897.587	14549
897.708	14636
897.828	14629
897.949	14594
898.07	14533
898.19	14533
898.311	14667
898.431	14552
898.552	14674
898.672	14769
898.792	14727
898.913	14689
899.033	14571
899.153	14484
899.273	14412
899.393	14590
899.513	14640
899.633	14571
899.753	14590
899.873	14575
899.993	14640
900.113	14610
900.232	14537
900.352	14423
900.472	14446
900.591	14210
900.711	14377
900.83	14298
900.95	14492
901.069	14328
901.189	14263
901.308	14138
901.427	14096
901.546	14001
901.665	14092
901.784	14100
901.904	13928
902.023	13883
902.141	13731
902.26	13658
902.379	13723
902.498	13624
902.617	13590
902.735	13643
902.854	13578
902.973	13533
903.091	13476
903.21	13320
903.328	13301
903.446	13228
903.565	13247
903.683	13240
903.801	13065
903.919	13209
904.038	13225
904.156	12920
904.274	13034
904.392	12989
904.51	12916
904.627	12962
904.745	13034
904.863	13072
904.981	12863
905.098	12734
905.216	12730
905.334	12677
905.451	12768
905.569	12688
905.686	12760
905.803	12703
905.921	12517
906.038	12608
906.155	12494
906.272	12460
906.389	12532
906.506	12338
906.623	12369
906.74	12300
906.857	12175
906.974	12232
907.091	12300
907.208	12445
907.324	12251
907.441	12281
907.557	12076
907.674	12041
907.79	11965
907.907	11980
908.023	12034
908.139	12022
908.256	12064
908.372	11980
908.488	11950
908.604	11817
908.72	11771
908.836	11840
908.952	11748
909.068	11863
909.184	11874
909.3	11802
909.415	11775
909.531	11859
909.647	11627
909.762	11630
909.878	11505
909.993	11528
910.108	11539
910.224	11665
910.339	11589
910.454	11493
910.57	11421
910.685	11311
910.8	11707
910.915	11570
911.03	11493
911.145	11330
911.259	11299
911.374	11307
911.489	11239
911.604	11086
911.718	11048
911.833	11064
911.947	10927
912.062	10835
912.176	10953
912.291	11025
912.405	11052
912.519	11178
912.633	11185
912.748	11136
912.862	11086
912.976	10889
913.09	10809
913.204	10862
913.318	10991
913.431	11033
913.545	10976
913.659	11014
913.772	10949
913.886	10831
914	10805
914.113	10923
914.226	10892
914.34	10877
914.453	10687
914.566	10862
914.68	10706
914.793	10672
914.906	10531
915.019	10554
915.132	10390
915.245	10584
915.358	10538
915.47	10573
915.583	10497
915.696	10558
915.809	10679
915.921	10721
916.034	10546
916.146	10531
916.259	10375
916.371	10599
916.483	10622
916.595	10447
916.708	10405
916.82	10447
916.932	10455
917.044	10447
917.156	10405
917.268	10322
917.38	10363
917.491	10325
917.603	10295
917.715	10428
917.826	10375
917.938	10337
918.049	10246
918.161	10398
918.272	10519
918.384	10485
918.495	10363
918.606	10192
918.717	10154
918.828	10246
918.939	10253
919.05	10261
919.161	10162
919.272	10063
919.383	10143
919.494	10390
919.604	10466
919.715	10230
919.826	10131
919.936	10238
920.047	10314
920.157	10261
920.267	10489
920.378	10306
920.488	10253
920.598	10447
920.708	10569
920.818	10481
920.928	10504
921.038	10672
921.148	10588
921.258	10322
921.368	10261
921.477	10139
921.587	10074
921.697	10021
921.806	10169
921.916	10074
922.025	9835
922.134	9846
922.244	9869
922.353	9876
922.462	9701
922.571	9671
922.68	9564
922.789	9561
922.898	9549
923.007	9420
923.116	9644
923.224	9553
923.333	9534
923.442	9500
923.55	9408
923.659	9405
923.767	9412
923.876	9462
923.984	9500
924.092	9397
924.201	9428
924.309	9435
924.417	9408
924.525	9408
924.633	9367
924.741	10291
924.849	9195
924.956	9325
925.064	9237
925.172	9062
925.279	9150
925.387	9173
925.494	9207
925.602	9340
925.709	9329
925.816	9123
925.924	9211
926.031	9287
926.138	9203
926.245	9256
926.352	9131
926.459	9249
926.566	9332
926.673	9112
926.779	9070
926.886	9017
926.993	8906
927.099	8857
927.206	8864
927.312	8830
927.419	8880
927.525	8883
927.631	9005
927.737	8739
927.843	8815
927.95	8746
928.056	8796
928.162	8815
928.267	8864
928.373	9401
928.479	8872
928.585	8636
928.69	8731
928.796	8845
928.901	8720
929.007	8568
929.112	8739
929.218	8686
929.323	8644
929.428	8556
929.533	8663
929.638	8568
929.743	8629
929.848	8720
929.953	8640
930.058	8492
930.163	8408
930.267	8454
930.372	8461
930.477	8381
930.581	8549
930.685	8473
930.79	8275
930.894	8347
930.998	8305
931.103	8434
931.207	8111
931.311	7978
931.415	7997
931.519	7856
931.623	7856
