Data from test_V78500241_683.txt Node
Date: Fri Mar 25 14:38:28 CST 2022
User: usil
Spectrometer: V785-0024
Trigger mode: 0
Integration Time (sec): 4.000000E-1
Scans to average: 1
Nonlinearity correction enabled: false
Boxcar width: 0
Storing dark spectrum: false
XAxis mode: Wavelengths
Number of Pixels in Spectrum: 1024
>>>>>Begin Spectral Data<<<<<
801.071	28090
801.214	28086
801.356	27660
801.499	27648
801.641	27545
801.783	27466
801.926	27576
802.068	27173
802.211	27294
802.353	27268
802.496	27024
802.638	26929
802.78	26952
802.923	26849
803.065	26937
803.208	26952
803.35	27009
803.492	27116
803.635	27199
803.777	27047
803.919	27283
804.061	27564
804.204	27230
804.346	27184
804.488	27154
804.63	27363
804.773	27256
804.915	27355
805.057	27576
805.199	27538
805.341	27523
805.483	27739
805.626	27724
805.768	27633
805.91	27785
806.052	27922
806.194	27987
806.336	28424
806.478	28417
806.62	28611
806.762	28896
806.904	29448
807.046	29958
807.188	30239
807.33	30532
807.472	31377
807.614	31807
807.756	32838
807.898	33865
808.04	35573
808.182	37365
808.324	40097
808.465	43266
808.607	46413
808.749	49301
808.891	51096
809.033	51325
809.174	49559
809.316	46907
809.458	43202
809.6	39701
809.741	37114
809.883	34862
810.025	33408
810.166	32301
810.308	31487
810.45	30772
810.591	30315
810.733	29771
810.875	29379
811.016	29064
811.158	28828
811.299	28683
811.441	28637
811.582	28565
811.724	28306
811.865	28120
812.007	28124
812.148	27945
812.29	28067
812.431	27911
812.573	28063
812.714	28112
812.855	28139
812.997	28276
813.138	28344
813.279	28090
813.421	28154
813.562	27899
813.703	27667
813.845	27511
813.986	27279
814.127	26960
814.268	26906
814.41	26823
814.551	26815
814.692	26758
814.833	26541
814.974	26659
815.115	26537
815.256	26549
815.397	26442
815.539	26530
815.68	26362
815.821	26263
815.962	26366
816.103	26233
816.244	26115
816.385	25966
816.526	25875
816.666	25849
816.807	25605
816.948	25582
817.089	25693
817.23	25624
817.371	25746
817.512	25628
817.653	25597
817.793	25567
817.934	25495
818.075	25590
818.216	25502
818.356	25289
818.497	25316
818.638	25198
818.778	25187
818.919	25221
819.06	25198
819.2	25419
819.341	25422
819.481	25346
819.622	25586
819.762	25670
819.903	25582
820.043	25479
820.184	25422
820.324	25422
820.465	25468
820.605	25407
820.746	25331
820.886	25118
821.026	25407
821.167	25179
821.307	25335
821.447	25240
821.588	25217
821.728	24939
821.868	24661
822.008	24700
822.149	24616
822.289	24540
822.429	24361
822.569	24194
822.709	24319
822.849	24129
822.99	24011
823.13	24053
823.27	23996
823.41	23836
823.55	23680
823.69	23786
823.83	23859
823.97	23627
824.11	23627
824.25	23630
824.389	23665
824.529	23653
824.669	23722
824.809	23748
824.949	23623
825.089	23657
825.228	23604
825.368	23326
825.508	23326
825.648	23433
825.787	23452
825.927	23455
826.067	23258
826.206	23372
826.346	23341
826.485	23353
826.625	23360
826.765	23444
826.904	23448
827.044	23174
827.183	23052
827.323	22938
827.462	23044
827.601	23052
827.741	22980
827.88	23033
828.02	22862
828.159	23010
828.298	22980
828.437	23014
828.577	22934
828.716	23014
828.855	22942
828.994	22797
829.134	22679
829.273	22763
829.412	22759
829.551	22611
829.69	22744
829.829	22607
829.968	22721
830.107	22820
830.246	22721
830.385	22645
830.524	22538
830.663	22607
830.802	22428
830.941	22348
831.08	22219
831.219	22249
831.357	22341
831.496	22432
831.635	22268
831.774	22299
831.913	22261
832.051	22131
832.19	22234
832.329	22173
832.467	22048
832.606	22017
832.744	22169
832.883	22215
833.022	22386
833.16	22447
833.299	22470
833.437	22649
833.576	22793
833.714	22896
833.852	23143
833.991	23185
834.129	23368
834.267	23387
834.406	23064
834.544	23105
834.682	22991
834.821	22995
834.959	22927
835.097	22660
835.235	22596
835.373	22424
835.511	22436
835.65	22200
835.788	22017
835.926	21816
836.064	21880
836.202	21835
836.34	21835
836.478	22025
836.615	21865
836.753	21797
836.891	21968
837.029	21876
837.167	21857
837.305	21724
837.443	21698
837.58	21504
837.718	21618
837.856	21728
837.993	21576
838.131	21724
838.269	21618
838.406	21435
838.544	21469
838.681	21325
838.819	21241
838.956	21013
839.094	21154
839.231	21081
839.369	21203
839.506	21507
839.643	21302
839.781	21036
839.918	20883
840.055	20967
840.193	20952
840.33	20887
840.467	21074
840.604	21123
840.742	21252
840.879	20853
841.016	20815
841.153	20933
841.29	21203
841.427	20929
841.564	20986
841.701	21005
841.838	20845
841.975	20933
842.112	20921
842.249	20701
842.385	20674
842.522	20998
842.659	20800
842.796	20883
842.933	20785
843.069	20845
843.206	20921
843.343	20895
843.479	20838
843.616	20956
843.752	20891
843.889	20792
844.025	21081
844.162	21081
844.298	21093
844.435	21214
844.571	21351
844.708	21743
844.844	22188
844.98	22664
845.117	23250
845.253	24353
845.389	26081
845.525	29809
845.661	35729
845.798	42509
845.934	47695
846.07	49700
846.206	48064
846.342	43407
846.478	36349
846.614	30311
846.75	26480
846.886	24323
847.022	22862
847.158	22135
847.294	21568
847.429	21085
847.565	20792
847.701	20979
847.837	20393
847.972	20290
848.108	20248
848.244	20103
848.379	20020
848.515	19906
848.65	19727
848.786	19750
848.921	19826
849.057	19826
849.192	19772
849.328	19841
849.463	19734
849.598	19651
849.734	19647
849.869	19400
850.004	19472
850.14	19483
850.275	19381
850.41	19343
850.545	19259
850.68	19411
850.815	19320
850.95	19377
851.085	19632
851.22	19388
851.355	19365
851.49	19320
851.625	19384
851.76	19365
851.895	19179
852.03	19194
852.165	19297
852.299	19422
852.434	19476
852.569	19346
852.703	19460
852.838	19491
852.973	19647
853.107	19571
853.242	19422
853.376	19403
853.511	19346
853.645	19388
853.78	19575
853.914	19575
854.048	19400
854.183	19575
854.317	19693
854.451	19761
854.585	19632
854.72	19635
854.854	19670
854.988	19434
855.122	19434
855.256	19304
855.39	19388
855.524	19434
855.658	19373
855.792	19400
855.926	19247
856.06	19316
856.194	19365
856.327	19232
856.461	19148
856.595	19190
856.729	19251
856.862	19346
856.996	19247
857.13	19168
857.263	19293
857.397	19221
857.53	19137
857.664	19259
857.797	19160
857.931	19282
858.064	19209
858.197	19194
858.331	19168
858.464	19034
858.597	18932
858.731	19057
858.864	19091
858.997	19053
859.13	19053
859.263	19084
859.396	19160
859.529	18981
859.662	19012
859.795	19000
859.928	19076
860.061	19202
860.194	19160
860.327	19107
860.46	18943
860.592	19168
860.725	19270
860.858	19046
860.99	19031
861.123	18973
861.256	19069
861.388	18966
861.521	19700
861.653	18935
861.786	18734
861.918	18863
862.05	18935
862.183	18928
862.315	19050
862.447	19023
862.58	19023
862.712	18840
862.844	18673
862.976	18871
863.108	18547
863.24	19168
863.372	18681
863.504	18707
863.636	18601
863.768	18703
863.9	18715
864.032	18627
864.164	18574
864.296	18555
864.428	18745
864.559	18810
864.691	18711
864.823	18700
864.954	18715
865.086	18665
865.217	18608
865.349	18566
865.48	18589
865.612	18650
865.743	18779
865.875	18604
866.006	18658
866.137	18574
866.269	18642
866.4	18566
866.531	18475
866.662	18612
866.793	18540
866.924	18566
867.055	18559
867.186	18532
867.317	18490
867.448	18433
867.579	18418
867.71	18452
867.841	18517
867.972	18620
868.103	18547
868.233	18601
868.364	18532
868.495	18604
868.625	18783
868.756	18852
868.886	18726
869.017	18734
869.147	19000
869.278	18947
869.408	18768
869.539	18764
869.669	18901
869.799	18856
869.929	18970
870.06	18863
870.19	19145
870.32	19129
870.45	19061
870.58	19270
870.71	19331
870.84	19312
870.97	19187
871.1	19285
871.23	19422
871.36	19586
871.489	19419
871.619	19495
871.749	19411
871.879	19533
872.008	19613
872.138	19696
872.267	19575
872.397	19460
872.526	19453
872.656	19556
872.785	19483
872.915	19628
873.044	19738
873.173	19685
873.303	19788
873.432	19685
873.561	19811
873.69	19852
873.819	19791
873.948	19807
874.077	20035
874.206	19963
874.335	19963
874.464	20012
874.593	20183
874.722	20149
874.851	20347
874.979	20244
875.108	20476
875.237	20286
875.365	20328
875.494	20396
875.623	20609
875.751	20488
875.88	20621
876.008	20701
876.136	20834
876.265	21135
876.393	21241
876.521	21203
876.65	21302
876.778	21294
876.906	21291
877.034	21500
877.162	21580
877.29	21496
877.418	21781
877.546	21812
877.674	21876
877.802	21968
877.93	21964
878.058	22105
878.185	22402
878.313	22588
878.441	23075
878.568	23341
878.696	23961
878.824	24985
878.951	25951
879.079	27435
879.206	29497
879.333	31799
879.461	33431
879.588	34561
879.715	34577
879.842	33694
879.97	31712
880.097	29668
880.224	27876
880.351	26796
880.478	25997
880.605	25270
880.732	24825
880.859	24882
880.986	24448
881.112	24281
881.239	24072
881.366	24007
881.493	24095
881.619	23836
881.746	23882
881.872	23897
881.999	23973
882.125	24015
882.252	24163
882.378	24167
882.505	24258
882.631	23992
882.757	23988
882.883	23946
883.01	23870
883.136	23851
883.262	23790
883.388	23699
883.514	24018
883.64	23847
883.766	23813
883.892	23551
884.018	23813
884.143	24003
884.269	23996
884.395	23589
884.52	23509
884.646	23771
884.772	23657
884.897	23482
885.023	23714
885.148	23703
885.274	23672
885.399	23474
885.524	23326
885.65	23311
885.775	23356
885.9	23044
886.025	22965
886.15	22774
886.275	22565
886.4	22421
886.525	22352
886.65	22074
886.775	21983
886.9	22063
887.025	22055
887.149	21717
887.274	21469
887.399	21214
887.523	21291
887.648	21119
887.773	21017
887.897	21116
888.021	21077
888.146	20887
888.27	20933
888.395	20948
888.519	20811
888.643	20769
888.767	20674
888.891	20663
889.015	20362
889.139	20415
889.263	20408
889.387	20351
889.511	20427
889.635	20278
889.759	20183
889.883	20119
890.006	20065
890.13	20084
890.254	19917
890.377	19852
890.501	19731
890.624	19700
890.748	19822
890.871	19601
890.995	19449
891.118	19362
891.241	19495
891.364	19502
891.488	19460
891.611	19358
891.734	19365
891.857	19327
891.98	19232
892.103	19304
892.226	19232
892.349	19152
892.471	18916
892.594	19057
892.717	19114
892.839	19004
892.962	19042
893.085	18989
893.207	19023
893.33	18817
893.452	18768
893.575	18779
893.697	18745
893.819	18894
893.941	18973
894.064	18886
894.186	18703
894.308	18616
894.43	18806
894.552	18730
894.674	18700
894.796	18464
894.918	18555
895.04	18582
895.161	18574
895.283	18589
895.405	18532
895.526	18597
895.648	18521
895.769	18608
895.891	18570
896.012	18608
896.134	18486
896.255	18547
896.376	18452
896.498	18414
896.619	18498
896.74	18407
896.861	18479
896.982	18715
897.103	18863
897.224	18707
897.345	18509
897.466	18608
897.587	18589
897.708	18726
897.828	18593
897.949	18525
898.07	18426
898.19	18384
898.311	18681
898.431	18502
898.552	18582
898.672	18677
898.792	18787
898.913	18711
899.033	18460
899.153	18365
899.273	18266
899.393	18407
899.513	18376
899.633	18464
899.753	18330
899.873	18289
899.993	18429
900.113	18388
900.232	18395
900.352	18262
900.472	18209
900.591	18125
900.711	18228
900.83	18117
900.95	18258
901.069	18228
901.189	18019
901.308	17824
901.427	17817
901.546	17786
901.665	17729
901.784	17722
901.904	17680
902.023	17516
902.141	17254
902.26	17258
902.379	17258
902.498	17204
902.617	17140
902.735	17121
902.854	17132
902.973	17010
903.091	16889
903.21	16835
903.328	16744
903.446	16748
903.565	16592
903.683	16634
903.801	16523
903.919	16584
904.038	16527
904.156	16386
904.274	16428
904.392	16363
904.51	16310
904.627	16344
904.745	16382
904.863	16371
904.981	16147
905.098	15975
905.216	15960
905.334	16029
905.451	16086
905.569	15956
905.686	15979
905.803	15956
905.921	15812
906.038	15888
906.155	15732
906.272	15671
906.389	15652
906.506	15557
906.623	15488
906.74	15496
906.857	15405
906.974	15435
907.091	15500
907.208	15667
907.324	15496
907.441	15500
907.557	15108
907.674	15214
907.79	15100
907.907	15058
908.023	15233
908.139	15135
908.256	15112
908.372	15062
908.488	15085
908.604	14895
908.72	14819
908.836	14910
908.952	14849
909.068	14941
909.184	14998
909.3	14990
909.415	14933
909.531	14868
909.647	14640
909.762	14640
909.878	14606
909.993	14594
910.108	14648
910.224	14621
910.339	14663
910.454	14469
910.57	14598
910.685	14351
910.8	14693
910.915	14518
911.03	14492
911.145	14366
911.259	14259
911.374	14244
911.489	14161
911.604	14142
911.718	14039
911.833	14016
911.947	13852
912.062	13818
912.176	13913
912.291	14031
912.405	14065
912.519	14161
912.633	14225
912.748	14081
912.862	13959
912.976	13852
913.09	13693
913.204	13803
913.318	13879
913.431	13940
913.545	13974
913.659	13845
913.772	13826
913.886	13727
914	13704
914.113	13799
914.226	13788
914.34	13799
914.453	13601
914.566	13734
914.68	13586
914.793	13605
914.906	13373
915.019	13362
915.132	13270
915.245	13388
915.358	13407
915.47	13426
915.583	13362
915.696	13434
915.809	13495
915.921	13556
916.034	13373
916.146	13274
916.259	13285
916.371	13422
916.483	13384
916.595	13278
916.708	13259
916.82	13274
916.932	13358
917.044	13278
917.156	13247
917.268	13141
917.38	13263
917.491	13099
917.603	13175
917.715	13137
917.826	13198
917.938	13065
918.049	13015
918.161	13057
918.272	13156
918.384	13149
918.495	13114
918.606	12886
918.717	12882
918.828	12951
918.939	12863
919.05	12787
919.161	12829
919.272	12662
919.383	12734
919.494	12916
919.604	13031
919.715	12837
919.826	12726
919.936	12715
920.047	12875
920.157	12795
920.267	12981
920.378	12856
920.488	12768
920.598	12890
920.708	13057
920.818	12985
920.928	12867
921.038	13145
921.148	13031
921.258	12821
921.368	12730
921.477	12555
921.587	12490
921.697	12433
921.806	12563
921.916	12464
922.025	12228
922.134	12289
922.244	12201
922.353	12273
922.462	12114
922.571	12072
922.68	11855
922.789	11923
922.898	11897
923.007	11764
923.116	11901
923.224	11885
923.333	11878
923.442	11764
923.55	11748
923.659	11870
923.767	11779
923.876	11684
923.984	11699
924.092	11642
924.201	11668
924.309	11691
924.417	11623
924.525	11577
924.633	11634
924.741	12490
924.849	11406
924.956	11589
925.064	11490
925.172	11341
925.279	11391
925.387	11444
925.494	11368
925.602	11535
925.709	11455
925.816	11334
925.924	11360
926.031	11463
926.138	11334
926.245	11448
926.352	11379
926.459	11444
926.566	11482
926.673	11273
926.779	11174
926.886	11220
926.993	11071
927.099	11018
927.206	11003
927.312	10976
927.419	11117
927.525	10942
927.631	11025
927.737	10949
927.843	10900
927.95	10816
928.056	10854
928.162	10949
928.267	11041
928.373	11391
928.479	10968
928.585	10717
928.69	10816
928.796	10881
928.901	10774
929.007	10641
929.112	10854
929.218	10626
929.323	10736
929.428	10668
929.533	10755
929.638	10565
929.743	10679
929.848	10580
929.953	10675
930.058	10569
930.163	10356
930.267	10352
930.372	10519
930.477	10390
930.581	10607
930.685	10436
930.79	10337
930.894	10371
930.998	10249
931.103	10459
931.207	10093
931.311	10006
931.415	9915
931.519	9698
931.623	9690
