Data from test_V78500241_3714.txt Node
Date: Fri Mar 25 14:59:34 CST 2022
User: usil
Spectrometer: V785-0024
Trigger mode: 0
Integration Time (sec): 4.000000E-1
Scans to average: 1
Nonlinearity correction enabled: false
Boxcar width: 0
Storing dark spectrum: false
XAxis mode: Wavelengths
Number of Pixels in Spectrum: 1024
>>>>>Begin Spectral Data<<<<<
801.071	21884
801.214	21846
801.356	21492
801.499	21348
801.641	21279
801.783	21192
801.926	21237
802.068	21211
802.211	21150
802.353	20998
802.496	20765
802.638	20674
802.78	20686
802.923	20579
803.065	20629
803.208	20442
803.35	20678
803.492	20663
803.635	20720
803.777	20526
803.919	20583
804.061	20937
804.204	20613
804.346	20503
804.488	20427
804.63	20590
804.773	20396
804.915	20423
805.057	20636
805.199	20454
805.341	20571
805.483	20621
805.626	20526
805.768	20446
805.91	20381
806.052	20408
806.194	20419
806.336	20636
806.478	20499
806.62	20336
806.762	20454
806.904	20678
807.046	20883
807.188	20815
807.33	20781
807.472	20876
807.614	20807
807.756	20686
807.898	20560
808.04	20568
808.182	20545
808.324	20499
808.465	20625
808.607	20651
808.749	20883
808.891	20967
809.033	21058
809.174	20948
809.316	20724
809.458	20868
809.6	20743
809.741	20807
809.883	20883
810.025	20918
810.166	21017
810.308	21028
810.45	20891
810.591	20883
810.733	20632
810.875	20720
811.016	20617
811.158	20358
811.299	20522
811.441	20598
811.582	20716
811.724	20564
811.865	20674
812.007	20545
812.148	20594
812.29	20648
812.431	20796
812.573	20845
812.714	21001
812.855	21051
812.997	21279
813.138	21279
813.279	21192
813.421	20994
813.562	20952
813.703	20842
813.845	20720
813.986	20492
814.127	20202
814.268	20214
814.41	20252
814.551	20111
814.692	20233
814.833	20221
814.974	20027
815.115	20092
815.256	19974
815.397	20024
815.539	19955
815.68	19833
815.821	19860
815.962	19852
816.103	19799
816.244	19609
816.385	19632
816.526	19597
816.666	19419
816.807	19141
816.948	19460
817.089	19445
817.23	19217
817.371	19293
817.512	19266
817.653	19266
817.793	19171
817.934	19232
818.075	19289
818.216	19304
818.356	19266
818.497	19072
818.638	18916
818.778	18989
818.919	19000
819.06	18985
819.2	19084
819.341	19046
819.481	19126
819.622	19236
819.762	19407
819.903	19384
820.043	19343
820.184	19236
820.324	19289
820.465	19297
820.605	19194
820.746	19247
820.886	19168
821.026	19247
821.167	19194
821.307	19198
821.447	19004
821.588	19046
821.728	18867
821.868	18783
822.008	18711
822.149	18608
822.289	18620
822.429	18483
822.569	18353
822.709	18308
822.849	18163
822.99	18057
823.13	18163
823.27	18076
823.41	17984
823.55	17977
823.69	17912
823.83	18045
823.97	17813
824.11	17729
824.25	17634
824.389	17623
824.529	17790
824.669	17703
824.809	17847
824.949	17836
825.089	17828
825.228	17691
825.368	17558
825.508	17543
825.648	17547
825.787	17558
825.927	17619
826.067	17364
826.206	17478
826.346	17471
826.485	17547
826.625	17387
826.765	17608
826.904	17638
827.044	17269
827.183	17242
827.323	17136
827.462	17391
827.601	17155
827.741	17239
827.88	17315
828.02	17128
828.159	17376
828.298	17208
828.437	17258
828.577	17174
828.716	17322
828.855	17102
828.994	17048
829.134	17003
829.273	17181
829.412	17022
829.551	16919
829.69	16976
829.829	16946
829.968	17075
830.107	16991
830.246	16984
830.385	16953
830.524	16854
830.663	16809
830.802	16736
830.941	16675
831.08	16664
831.219	16694
831.357	16675
831.496	16797
831.635	16721
831.774	16653
831.913	16508
832.051	16489
832.19	16409
832.329	16466
832.467	16371
832.606	16356
832.744	16447
832.883	16379
833.022	16284
833.16	16398
833.299	16390
833.437	16291
833.576	16341
833.714	16348
833.852	16375
833.991	16413
834.129	16413
834.267	16443
834.406	16360
834.544	16455
834.682	16382
834.821	16508
834.959	16569
835.097	16341
835.235	16421
835.373	16341
835.511	16394
835.65	16249
835.788	16318
835.926	16192
836.064	16093
836.202	16246
836.34	16291
836.478	16371
836.615	16261
836.753	16341
836.891	16478
837.029	16329
837.167	16223
837.305	16200
837.443	16166
837.58	16071
837.718	16272
837.856	16219
837.993	16116
838.131	16101
838.269	16131
838.406	16025
838.544	16010
838.681	15884
838.819	15941
838.956	15701
839.094	15736
839.231	15736
839.369	15759
839.506	16150
839.643	15960
839.781	15709
839.918	15686
840.055	15701
840.193	15747
840.33	15667
840.467	15663
840.604	15717
840.742	16105
840.879	15637
841.016	15755
841.153	15599
841.29	15797
841.427	15743
841.564	15732
841.701	15751
841.838	15713
841.975	15667
842.112	15675
842.249	15504
842.385	15500
842.522	15713
842.659	15625
842.796	15462
842.933	15561
843.069	15447
843.206	15481
843.343	15496
843.479	15561
843.616	15519
843.752	15351
843.889	15256
844.025	15500
844.162	15351
844.298	15428
844.435	15340
844.571	15252
844.708	15363
844.844	15443
844.98	15496
845.117	15538
845.253	15237
845.389	15180
845.525	15230
845.661	15108
845.798	15119
845.934	15093
846.07	15047
846.206	15241
846.342	15249
846.478	15093
846.614	15001
846.75	14792
846.886	14845
847.022	15017
847.158	14838
847.294	14956
847.429	14929
847.565	14826
847.701	15116
847.837	14693
847.972	14629
848.108	14655
848.244	14712
848.379	14465
848.515	14461
848.65	14499
848.786	14454
848.921	14579
849.057	14590
849.192	14602
849.328	14438
849.463	14518
849.598	14492
849.734	14396
849.869	14381
850.004	14282
850.14	14343
850.275	14225
850.41	14142
850.545	14199
850.68	14263
850.815	14282
850.95	14252
851.085	14446
851.22	14343
851.355	14298
851.49	14267
851.625	14081
851.76	14210
851.895	14096
852.03	14161
852.165	14164
852.299	14259
852.434	14339
852.569	14282
852.703	14305
852.838	14252
852.973	14408
853.107	14381
853.242	14237
853.376	14153
853.511	13982
853.645	14187
853.78	14339
853.914	14157
854.048	14096
854.183	14092
854.317	14225
854.451	14313
854.585	14123
854.72	14191
854.854	14176
854.988	14088
855.122	14081
855.256	13951
855.39	14050
855.524	14275
855.658	14119
855.792	14119
855.926	14176
856.06	14123
856.194	14252
856.327	14050
856.461	14161
856.595	14069
856.729	13989
856.862	14317
856.996	14088
857.13	14225
857.263	14233
857.397	14294
857.53	14073
857.664	14164
857.797	14202
857.931	14229
858.064	14142
858.197	14237
858.331	14069
858.464	14024
858.597	14123
858.731	14214
858.864	14149
858.997	14157
859.13	14123
859.263	14157
859.396	14145
859.529	14081
859.662	14050
859.795	14005
859.928	14115
860.061	14275
860.194	14294
860.327	14225
860.46	14142
860.592	14157
860.725	14199
860.858	14214
860.99	14130
861.123	14039
861.256	14107
861.388	14046
861.521	14777
861.653	14046
861.786	13997
861.918	13947
862.05	14084
862.183	14027
862.315	14138
862.447	14202
862.58	14065
862.712	13875
862.844	13845
862.976	13959
863.108	14016
863.24	14389
863.372	13833
863.504	13890
863.636	13852
863.768	13989
863.9	13906
864.032	13833
864.164	13883
864.296	13963
864.428	14005
864.559	14024
864.691	14039
864.823	14012
864.954	13879
865.086	14031
865.217	13909
865.349	13750
865.48	13898
865.612	13932
865.743	13989
865.875	13959
866.006	13826
866.137	13864
866.269	13951
866.4	13902
866.531	13898
866.662	13860
866.793	13795
866.924	13833
867.055	13913
867.186	13898
867.317	13841
867.448	13811
867.579	13803
867.71	13791
867.841	13784
867.972	13849
868.103	13864
868.233	13890
868.364	13864
868.495	13970
868.625	14012
868.756	14225
868.886	14046
869.017	14016
869.147	14229
869.278	14172
869.408	14111
869.539	14092
869.669	14149
869.799	14202
869.929	14347
870.06	14298
870.19	14358
870.32	14575
870.45	14518
870.58	14568
870.71	14598
870.84	14602
870.97	14571
871.1	14514
871.23	14823
871.36	14678
871.489	14575
871.619	14762
871.749	14762
871.879	14849
872.008	14800
872.138	14807
872.267	14682
872.397	14629
872.526	14579
872.656	14594
872.785	14720
872.915	14762
873.044	14887
873.173	14804
873.303	14804
873.432	14773
873.561	14895
873.69	14765
873.819	14727
873.948	14765
874.077	14788
874.206	14762
874.335	14895
874.464	14982
874.593	15085
874.722	14971
874.851	15214
874.979	15070
875.108	15085
875.237	15005
875.365	14994
875.494	15085
875.623	15176
875.751	15184
875.88	15127
876.008	15298
876.136	15329
876.265	15553
876.393	15568
876.521	15618
876.65	15523
876.778	15526
876.906	15511
877.034	15507
877.162	15587
877.29	15500
877.418	15519
877.546	15549
877.674	15500
877.802	15496
877.93	15462
878.058	15507
878.185	15370
878.313	15519
878.441	15603
878.568	15340
878.696	15481
878.824	15538
878.951	15694
879.079	15679
879.206	15930
879.333	15564
879.461	15515
879.588	15660
879.715	15686
879.842	15709
879.97	15603
880.097	15279
880.224	15348
880.351	15348
880.478	15454
880.605	15386
880.732	15348
880.859	15584
880.986	15477
881.112	15439
881.239	15302
881.366	15207
881.493	15066
881.619	15005
881.746	15001
881.872	15043
881.999	15028
882.125	15017
882.252	15066
882.378	15146
882.505	15097
882.631	14982
882.757	14918
882.883	14872
883.01	14838
883.136	14792
883.262	14800
883.388	14670
883.514	14933
883.64	14933
883.766	14769
883.892	14636
884.018	14590
884.143	14899
884.269	14864
884.395	14727
884.52	14537
884.646	14450
884.772	14583
884.897	14415
885.023	14564
885.148	14587
885.274	14762
885.399	14667
885.524	14541
885.65	14617
885.775	14564
885.9	14499
886.025	14674
886.15	14549
886.275	14571
886.4	14511
886.525	14549
886.65	14583
886.775	14454
886.9	14697
887.025	14792
887.149	14522
887.274	14499
887.399	14343
887.523	14423
887.648	14374
887.773	14301
887.897	14499
888.021	14438
888.146	14358
888.27	14465
888.395	14579
888.519	14450
888.643	14415
888.767	14469
888.891	14275
889.015	14180
889.139	14263
889.263	14218
889.387	14374
889.511	14480
889.635	14339
889.759	14123
889.883	14252
890.006	14336
890.13	14385
890.254	14214
890.377	14187
890.501	14103
890.624	13986
890.748	14088
890.871	13967
890.995	13909
891.118	13814
891.241	14024
891.364	13852
891.488	14062
891.611	13944
891.734	13951
891.857	14001
891.98	14031
892.103	14111
892.226	14008
892.349	13932
892.471	13750
892.594	13921
892.717	14058
892.839	13887
892.962	13940
893.085	14001
893.207	14001
893.33	13894
893.452	13807
893.575	14031
893.697	13928
893.819	14126
893.941	14161
894.064	14050
894.186	13947
894.308	13963
894.43	14001
894.552	14134
894.674	14134
894.796	13826
894.918	14016
895.04	13940
895.161	14134
895.283	14119
895.405	14039
895.526	14119
895.648	14096
895.769	14130
895.891	14183
896.012	14191
896.134	14119
896.255	14088
896.376	14134
896.498	14123
896.619	14237
896.74	14126
896.861	14225
896.982	14358
897.103	14469
897.224	14389
897.345	14393
897.466	14343
897.587	14385
897.708	14560
897.828	14408
897.949	14404
898.07	14320
898.19	14343
898.311	14526
898.431	14450
898.552	14423
898.672	14530
898.792	14583
898.913	14473
899.033	14393
899.153	14328
899.273	14259
899.393	14324
899.513	14351
899.633	14252
899.753	14301
899.873	14370
899.993	14343
900.113	14214
900.232	14431
900.352	14385
900.472	14225
900.591	14149
900.711	14176
900.83	14214
900.95	14275
901.069	14267
901.189	14168
901.308	13830
901.427	13909
901.546	13940
901.665	13795
901.784	13868
901.904	13719
902.023	13563
902.141	13544
902.26	13396
902.379	13552
902.498	13396
902.617	13407
902.735	13430
902.854	13430
902.973	13434
903.091	13141
903.21	13080
903.328	13175
903.446	13118
903.565	13027
903.683	13061
903.801	12913
903.919	12943
904.038	13031
904.156	12852
904.274	13004
904.392	12768
904.51	12806
904.627	12844
904.745	12821
904.863	12916
904.981	12738
905.098	12525
905.216	12498
905.334	12604
905.451	12555
905.569	12483
905.686	12642
905.803	12544
905.921	12289
906.038	12391
906.155	12338
906.272	12239
906.389	12239
906.506	12155
906.623	12125
906.74	12129
906.857	12034
906.974	12003
907.091	12133
907.208	12300
907.324	12178
907.441	12030
907.557	11954
907.674	11878
907.79	11843
907.907	11821
908.023	11904
908.139	11977
908.256	11786
908.372	11790
908.488	11836
908.604	11653
908.72	11581
908.836	11547
908.952	11592
909.068	11619
909.184	11756
909.3	11684
909.415	11619
909.531	11642
909.647	11356
909.762	11330
909.878	11406
909.993	11490
910.108	11364
910.224	11284
910.339	11452
910.454	11364
910.57	11280
910.685	11170
910.8	11528
910.915	11402
911.03	11315
911.145	11193
911.259	11140
911.374	11105
911.489	11041
911.604	10961
911.718	10896
911.833	10904
911.947	10755
912.062	10740
912.176	10801
912.291	10927
912.405	10866
912.519	11064
912.633	11162
912.748	10900
912.862	10908
912.976	10744
913.09	10615
913.204	10668
913.318	10740
913.431	10805
913.545	10824
913.659	10828
913.772	10774
913.886	10687
914	10664
914.113	10653
914.226	10748
914.34	10710
914.453	10603
914.566	10622
914.68	10596
914.793	10546
914.906	10325
915.019	10405
915.132	10360
915.245	10402
915.358	10325
915.47	10470
915.583	10341
915.696	10432
915.809	10535
915.921	10489
916.034	10375
916.146	10337
916.259	10272
916.371	10413
916.483	10459
916.595	10306
916.708	10333
916.82	10394
916.932	10295
917.044	10261
917.156	10306
917.268	10188
917.38	10242
917.491	10196
917.603	10249
917.715	10322
917.826	10314
917.938	10158
918.049	10169
918.161	10185
918.272	10382
918.384	10363
918.495	10242
918.606	10093
918.717	10055
918.828	10131
918.939	10059
919.05	9991
919.161	10063
919.272	9888
919.383	10032
919.494	10154
919.604	10318
919.715	10067
919.826	9994
919.936	10090
920.047	10188
920.157	10124
920.267	10322
920.378	10200
920.488	10150
920.598	10322
920.708	10485
920.818	10363
920.928	10310
921.038	10478
921.148	10402
921.258	10150
921.368	10021
921.477	9983
921.587	9941
921.697	9899
921.806	10021
921.916	9838
922.025	9793
922.134	9671
922.244	9774
922.353	9660
922.462	9599
922.571	9580
922.68	9454
922.789	9374
922.898	9466
923.007	9325
923.116	9420
923.224	9325
923.333	9321
923.442	9253
923.55	9188
923.659	9374
923.767	9294
923.876	9203
923.984	9306
924.092	9211
924.201	9253
924.309	9294
924.417	9237
924.525	9222
924.633	9237
924.741	10143
924.849	8986
924.956	9169
925.064	8990
925.172	8960
925.279	8944
925.387	8941
925.494	9058
925.602	9146
925.709	9097
925.816	8971
925.924	9028
926.031	9116
926.138	9047
926.245	9070
926.352	9001
926.459	9108
926.566	9184
926.673	8975
926.779	8925
926.886	8883
926.993	8724
927.099	8739
927.206	8712
927.312	8796
927.419	8773
927.525	8712
927.631	8861
927.737	8670
927.843	8629
927.95	8511
928.056	8644
928.162	8602
928.267	8743
928.373	9184
928.479	8815
928.585	8507
928.69	8663
928.796	8636
928.901	8640
929.007	8400
929.112	8587
929.218	8461
929.323	8511
929.428	8484
929.533	8594
929.638	8431
929.743	8434
929.848	8488
929.953	8503
930.058	8370
930.163	8252
930.267	8271
930.372	8400
930.477	8168
930.581	8427
930.685	8336
930.79	8210
930.894	8240
930.998	8187
931.103	8328
931.207	7997
931.311	7849
931.415	7887
931.519	7704
931.623	7670
