Data from test_V78500241_1403.txt Node
Date: Fri Mar 25 14:43:29 CST 2022
User: usil
Spectrometer: V785-0024
Trigger mode: 0
Integration Time (sec): 4.000000E-1
Scans to average: 1
Nonlinearity correction enabled: false
Boxcar width: 0
Storing dark spectrum: false
XAxis mode: Wavelengths
Number of Pixels in Spectrum: 1024
>>>>>Begin Spectral Data<<<<<
801.071	22569
801.214	22169
801.356	22067
801.499	21975
801.641	21861
801.783	21766
801.926	21861
802.068	21816
802.211	21797
802.353	21500
802.496	21378
802.638	21397
802.78	21321
802.923	21188
803.065	21085
803.208	21081
803.35	21127
803.492	21173
803.635	21272
803.777	21161
803.919	21275
804.061	21583
804.204	21184
804.346	21051
804.488	20986
804.63	21020
804.773	20925
804.915	21119
805.057	21123
805.199	21047
805.341	21119
805.483	21298
805.626	21062
805.768	21020
805.91	21017
806.052	20975
806.194	20956
806.336	21150
806.478	21005
806.62	20986
806.762	21138
806.904	21310
807.046	21530
807.188	21488
807.33	21321
807.472	21519
807.614	21321
807.756	21416
807.898	21348
808.04	21249
808.182	21241
808.324	21306
808.465	21378
808.607	21679
808.749	21675
808.891	21934
809.033	21812
809.174	21797
809.316	21641
809.458	21652
809.6	21542
809.741	21591
809.883	21667
810.025	21663
810.166	21713
810.308	21564
810.45	21679
810.591	21595
810.733	21351
810.875	21344
811.016	21256
811.158	21180
811.299	21424
811.441	21507
811.582	21393
811.724	21291
811.865	21188
812.007	21283
812.148	21298
812.29	21340
812.431	21420
812.573	21580
812.714	21622
812.855	21732
812.997	21812
813.138	22048
813.279	21945
813.421	21770
813.562	21766
813.703	21545
813.845	21428
813.986	21150
814.127	20975
814.268	20758
814.41	20864
814.551	20849
814.692	20914
814.833	20773
814.974	20838
815.115	20701
815.256	20568
815.397	20678
815.539	20651
815.68	20617
815.821	20484
815.962	20621
816.103	20549
816.244	20412
816.385	20290
816.526	20313
816.666	20100
816.807	19967
816.948	20054
817.089	20111
817.23	19970
817.371	19936
817.512	20008
817.653	19936
817.793	19978
817.934	19868
818.075	19909
818.216	19940
818.356	19947
818.497	19742
818.638	19613
818.778	19548
818.919	19613
819.06	19639
819.2	19727
819.341	19871
819.481	19887
819.622	19993
819.762	20248
819.903	20237
820.043	20046
820.184	19833
820.324	19913
820.465	19932
820.605	19989
820.746	19951
820.886	19750
821.026	19963
821.167	19879
821.307	19925
821.447	19849
821.588	19658
821.728	19537
821.868	19491
822.008	19316
822.149	19206
822.289	19255
822.429	18996
822.569	19099
822.709	18989
822.849	18825
822.99	18905
823.13	18871
823.27	18837
823.41	18544
823.55	18517
823.69	18688
823.83	18635
823.97	18517
824.11	18388
824.25	18460
824.389	18429
824.529	18555
824.669	18300
824.809	18475
824.949	18464
825.089	18536
825.228	18376
825.368	18300
825.508	18311
825.648	18163
825.787	18171
825.927	18186
826.067	18167
826.206	18159
826.346	18247
826.485	18224
826.625	18167
826.765	18308
826.904	18273
827.044	17927
827.183	18003
827.323	17931
827.462	17969
827.601	17840
827.741	17878
827.88	17874
828.02	17714
828.159	17863
828.298	17882
828.437	17927
828.577	17775
828.716	18003
828.855	17863
828.994	17596
829.134	17680
829.273	17653
829.412	17657
829.551	17661
829.69	17585
829.829	17668
829.968	17882
830.107	17703
830.246	17665
830.385	17585
830.524	17452
830.663	17425
830.802	17440
830.941	17250
831.08	17239
831.219	17349
831.357	17326
831.496	17509
831.635	17273
831.774	17147
831.913	17117
832.051	16980
832.19	16999
832.329	17105
832.467	16957
832.606	16900
832.744	16930
832.883	17033
833.022	17006
833.16	17018
833.299	17010
833.437	16942
833.576	16953
833.714	17060
833.852	16980
833.991	17056
834.129	17071
834.267	17102
834.406	17060
834.544	17052
834.682	16980
834.821	17033
834.959	17136
835.097	16968
835.235	17090
835.373	16968
835.511	16946
835.65	16885
835.788	16919
835.926	16759
836.064	16603
836.202	16771
836.34	16904
836.478	16908
836.615	16919
836.753	16866
836.891	16911
837.029	16934
837.167	16904
837.305	16847
837.443	16679
837.58	16850
837.718	16930
837.856	16831
837.993	16626
838.131	16767
838.269	16698
838.406	16607
838.544	16580
838.681	16394
838.819	16405
838.956	16386
839.094	16348
839.231	16417
839.369	16493
839.506	16736
839.643	16519
839.781	16375
839.918	16303
840.055	16230
840.193	16344
840.33	16196
840.467	16363
840.604	16200
840.742	16497
840.879	16268
841.016	16128
841.153	16173
841.29	16291
841.427	16348
841.564	16291
841.701	16333
841.838	16322
841.975	16192
842.112	16143
842.249	16044
842.385	15994
842.522	16230
842.659	16063
842.796	16078
842.933	16055
843.069	16040
843.206	16002
843.343	16150
843.479	16101
843.616	16112
843.752	15751
843.889	15838
844.025	16105
844.162	15835
844.298	15964
844.435	15888
844.571	15812
844.708	15983
844.844	16006
844.98	15994
845.117	15937
845.253	15831
845.389	15869
845.525	15876
845.661	15892
845.798	15892
845.934	16059
846.07	15937
846.206	15968
846.342	15941
846.478	15892
846.614	15458
846.75	15526
846.886	15412
847.022	15496
847.158	15386
847.294	15397
847.429	15496
847.565	15412
847.701	15732
847.837	15184
847.972	15138
848.108	15279
848.244	15218
848.379	14975
848.515	15119
848.65	15020
848.786	15104
848.921	15051
849.057	15085
849.192	15062
849.328	15032
849.463	15036
849.598	14960
849.734	14880
849.869	14872
850.004	14811
850.14	14811
850.275	14815
850.41	14804
850.545	14705
850.68	14689
850.815	14750
850.95	14781
851.085	14929
851.22	14887
851.355	14788
851.49	14716
851.625	14731
851.76	14693
851.895	14663
852.03	14708
852.165	14697
852.299	14861
852.434	14868
852.569	14796
852.703	14868
852.838	14834
852.973	14902
853.107	14842
853.242	14800
853.376	14670
853.511	14537
853.645	14579
853.78	14785
853.914	14636
854.048	14617
854.183	14663
854.317	14674
854.451	14823
854.585	14632
854.72	14686
854.854	14674
854.988	14530
855.122	14670
855.256	14507
855.39	14670
855.524	14693
855.658	14743
855.792	14701
855.926	14712
856.06	14682
856.194	14769
856.327	14632
856.461	14693
856.595	14564
856.729	14587
856.862	14758
856.996	14708
857.13	14594
857.263	14716
857.397	14746
857.53	14686
857.664	14693
857.797	14724
857.931	14769
858.064	14762
858.197	14739
858.331	14674
858.464	14530
858.597	14488
858.731	14636
858.864	14689
858.997	14625
859.13	14697
859.263	14659
859.396	14724
859.529	14556
859.662	14552
859.795	14610
859.928	14579
860.061	14883
860.194	14830
860.327	14750
860.46	14735
860.592	14819
860.725	14758
860.858	14731
860.99	14720
861.123	14465
861.256	14564
861.388	14693
861.521	15435
861.653	14625
861.786	14530
861.918	14370
862.05	14602
862.183	14503
862.315	14686
862.447	14705
862.58	14545
862.712	14469
862.844	14290
862.976	14370
863.108	14450
863.24	14864
863.372	14362
863.504	14343
863.636	14396
863.768	14503
863.9	14473
864.032	14396
864.164	14450
864.296	14404
864.428	14545
864.559	14522
864.691	14488
864.823	14499
864.954	14370
865.086	14446
865.217	14317
865.349	14370
865.48	14336
865.612	14469
865.743	14495
865.875	14465
866.006	14396
866.137	14393
866.269	14434
866.4	14381
866.531	14442
866.662	14309
866.793	14385
866.924	14374
867.055	14393
867.186	14290
867.317	14400
867.448	14240
867.579	14377
867.71	14290
867.841	14286
867.972	14393
868.103	14385
868.233	14427
868.364	14415
868.495	14396
868.625	14564
868.756	14670
868.886	14552
869.017	14682
869.147	14720
869.278	14807
869.408	14598
869.539	14606
869.669	14743
869.799	14667
869.929	14838
870.06	14773
870.19	14971
870.32	14914
870.45	14986
870.58	15100
870.71	15093
870.84	15116
870.97	14914
871.1	14979
871.23	15298
871.36	15245
871.489	15157
871.619	15146
871.749	15256
871.879	15188
872.008	15367
872.138	15275
872.267	15226
872.397	15100
872.526	15009
872.656	15028
872.785	15074
872.915	15116
873.044	15317
873.173	15283
873.303	15336
873.432	15272
873.561	15447
873.69	15207
873.819	15313
873.948	15317
874.077	15370
874.206	15294
874.335	15260
874.464	15405
874.593	15458
874.722	15526
874.851	15584
874.979	15663
875.108	15610
875.237	15553
875.365	15530
875.494	15584
875.623	15572
875.751	15504
875.88	15625
876.008	15671
876.136	15876
876.265	16097
876.393	16131
876.521	16071
876.65	16143
876.778	15960
876.906	15911
877.034	15972
877.162	15994
877.29	15918
877.418	15994
877.546	16040
877.674	15956
877.802	16051
877.93	16124
878.058	15915
878.185	15941
878.313	16017
878.441	16112
878.568	15945
878.696	15937
878.824	16002
878.951	16143
879.079	16246
879.206	16428
879.333	16363
879.461	16253
879.588	16226
879.715	16440
879.842	16531
879.97	16051
880.097	15918
880.224	15960
880.351	15873
880.478	15918
880.605	15888
880.732	15781
880.859	16215
880.986	15937
881.112	15972
881.239	15751
881.366	15652
881.493	15633
881.619	15564
881.746	15595
881.872	15633
881.999	15462
882.125	15500
882.252	15576
882.378	15511
882.505	15599
882.631	15492
882.757	15367
882.883	15439
883.01	15359
883.136	15329
883.262	15184
883.388	15146
883.514	15321
883.64	15275
883.766	15272
883.892	15150
884.018	15085
884.143	15340
884.269	15462
884.395	15093
884.52	14979
884.646	14975
884.772	14994
884.897	14929
885.023	14998
885.148	15173
885.274	15173
885.399	15233
885.524	14975
885.65	15157
885.775	15047
885.9	15051
886.025	15119
886.15	15195
886.275	15116
886.4	14895
886.525	15043
886.65	14960
886.775	14967
886.9	15245
887.025	15272
887.149	15051
887.274	14906
887.399	14834
887.523	14727
887.648	14826
887.773	14724
887.897	14895
888.021	14921
888.146	14746
888.27	14986
888.395	14925
888.519	14929
888.643	14921
888.767	14941
888.891	14750
889.015	14743
889.139	14708
889.263	14754
889.387	14895
889.511	14868
889.635	14887
889.759	14731
889.883	14560
890.006	14735
890.13	14826
890.254	14625
890.377	14667
890.501	14484
890.624	14518
890.748	14610
890.871	14396
890.995	14374
891.118	14301
891.241	14454
891.364	14385
891.488	14355
891.611	14396
891.734	14408
891.857	14522
891.98	14484
892.103	14507
892.226	14423
892.349	14427
892.471	14309
892.594	14385
892.717	14419
892.839	14339
892.962	14393
893.085	14579
893.207	14423
893.33	14229
893.452	14385
893.575	14412
893.697	14366
893.819	14625
893.941	14648
894.064	14587
894.186	14389
894.308	14374
894.43	14484
894.552	14632
894.674	14552
894.796	14362
894.918	14431
895.04	14499
895.161	14469
895.283	14568
895.405	14461
895.526	14450
895.648	14495
895.769	14545
895.891	14583
896.012	14621
896.134	14670
896.255	14522
896.376	14427
896.498	14587
896.619	14473
896.74	14590
896.861	14629
896.982	14857
897.103	15028
897.224	14864
897.345	14864
897.466	14788
897.587	14868
897.708	14944
897.828	14849
897.949	14807
898.07	14758
898.19	14765
898.311	14952
898.431	14853
898.552	14845
898.672	14986
898.792	15005
898.913	15028
899.033	14800
899.153	14750
899.273	14613
899.393	14804
899.513	14823
899.633	14708
899.753	14705
899.873	14746
899.993	14826
900.113	14727
900.232	14830
900.352	14712
900.472	14598
900.591	14750
900.711	14651
900.83	14518
900.95	14693
901.069	14735
901.189	14503
901.308	14313
901.427	14305
901.546	14256
901.665	14298
901.784	14233
901.904	14149
902.023	14065
902.141	13871
902.26	13894
902.379	13864
902.498	13772
902.617	13826
902.735	13898
902.854	13731
902.973	13776
903.091	13548
903.21	13582
903.328	13578
903.446	13556
903.565	13487
903.683	13350
903.801	13263
903.919	13487
904.038	13331
904.156	13251
904.274	13285
904.392	13255
904.51	13255
904.627	13198
904.745	13247
904.863	13392
904.981	13023
905.098	12856
905.216	12958
905.334	12939
905.451	12958
905.569	12890
905.686	13046
905.803	12913
905.921	12669
906.038	12890
906.155	12791
906.272	12654
906.389	12715
906.506	12517
906.623	12418
906.74	12422
906.857	12334
906.974	12544
907.091	12513
907.208	12566
907.324	12589
907.441	12399
907.557	12296
907.674	12216
907.79	12171
907.907	12201
908.023	12300
908.139	12273
908.256	12232
908.372	12148
908.488	12125
908.604	12091
908.72	12003
908.836	11992
908.952	11996
909.068	12049
909.184	12114
909.3	12026
909.415	12045
909.531	12015
909.647	11794
909.762	11752
909.878	11703
909.993	11805
910.108	11741
910.224	11798
910.339	11726
910.454	11646
910.57	11490
910.685	11596
910.8	11786
910.915	11733
911.03	11611
911.145	11543
911.259	11421
911.374	11471
911.489	11463
911.604	11318
911.718	11189
911.833	11189
911.947	11071
912.062	11037
912.176	11094
912.291	11170
912.405	11223
912.519	11425
912.633	11425
912.748	11372
912.862	11235
912.976	11098
913.09	11022
913.204	11048
913.318	11079
913.431	11174
913.545	11193
913.659	11231
913.772	11090
913.886	10930
914	10908
914.113	11113
914.226	11064
914.34	10999
914.453	10934
914.566	11071
914.68	10877
914.793	10915
914.906	10759
915.019	10679
915.132	10622
915.245	10687
915.358	10668
915.47	10736
915.583	10698
915.696	10721
915.809	10790
915.921	10847
916.034	10672
916.146	10611
916.259	10565
916.371	10748
916.483	10664
916.595	10615
916.708	10622
916.82	10634
916.932	10599
917.044	10592
917.156	10573
917.268	10405
917.38	10516
917.491	10432
917.603	10538
917.715	10641
917.826	10641
917.938	10478
918.049	10421
918.161	10588
918.272	10645
918.384	10687
918.495	10615
918.606	10382
918.717	10409
918.828	10394
918.939	10428
919.05	10276
919.161	10390
919.272	10173
919.383	10329
919.494	10394
919.604	10584
919.715	10409
919.826	10375
919.936	10360
920.047	10546
920.157	10455
920.267	10706
920.378	10424
920.488	10428
920.598	10618
920.708	10694
920.818	10615
920.928	10603
921.038	10778
921.148	10740
921.258	10481
921.368	10428
921.477	10257
921.587	10272
921.697	10181
921.806	10238
921.916	10120
922.025	9994
922.134	9956
922.244	9937
922.353	9975
922.462	9850
922.571	9808
922.68	9694
922.789	9618
922.898	9641
923.007	9599
923.116	9740
923.224	9603
923.333	9606
923.442	9629
923.55	9584
923.659	9515
923.767	9614
923.876	9466
923.984	9701
924.092	9500
924.201	9534
924.309	9549
924.417	9492
924.525	9447
924.633	9496
924.741	10409
924.849	9222
924.956	9374
925.064	9256
925.172	9294
925.279	9336
925.387	9310
925.494	9287
925.602	9420
925.709	9374
925.816	9237
925.924	9302
926.031	9382
926.138	9397
926.245	9332
926.352	9241
926.459	9336
926.566	9382
926.673	9260
926.779	9157
926.886	9214
926.993	9085
927.099	8998
927.206	8880
927.312	8929
927.419	9001
927.525	9043
927.631	9089
927.737	8933
927.843	8891
927.95	8777
928.056	8842
928.162	8929
928.267	8891
928.373	9599
928.479	9093
928.585	8830
928.69	8853
928.796	8880
928.901	8838
929.007	8716
929.112	8788
929.218	8777
929.323	8716
929.428	8712
929.533	8800
929.638	8682
929.743	8697
929.848	8785
929.953	8701
930.058	8667
930.163	8446
930.267	8484
930.372	8674
930.477	8396
930.581	8720
930.685	8590
930.79	8492
930.894	8461
930.998	8377
931.103	8541
931.207	8267
931.311	8168
931.415	8100
931.519	7989
931.623	7890
