Data from test_V78500241_1881.txt Node
Date: Fri Mar 25 14:46:48 CST 2022
User: usil
Spectrometer: V785-0024
Trigger mode: 0
Integration Time (sec): 4.000000E-1
Scans to average: 1
Nonlinearity correction enabled: false
Boxcar width: 0
Storing dark spectrum: false
XAxis mode: Wavelengths
Number of Pixels in Spectrum: 1024
>>>>>Begin Spectral Data<<<<<
801.071	22093
801.214	21941
801.356	21747
801.499	21724
801.641	21686
801.783	21504
801.926	21523
802.068	21530
802.211	21325
802.353	21401
802.496	20998
802.638	20967
802.78	21020
802.923	21017
803.065	20857
803.208	20842
803.35	20743
803.492	20967
803.635	20868
803.777	20857
803.919	20925
804.061	21116
804.204	20811
804.346	20743
804.488	20731
804.63	20815
804.773	20754
804.915	20674
805.057	20815
805.199	20682
805.341	20724
805.483	20746
805.626	20796
805.768	20754
805.91	20697
806.052	20785
806.194	20724
806.336	20887
806.478	20712
806.62	20731
806.762	20777
806.904	20861
807.046	21127
807.188	21176
807.33	21039
807.472	21218
807.614	20967
807.756	20956
807.898	20796
808.04	20830
808.182	20796
808.324	20868
808.465	20876
808.607	21036
808.749	21157
808.891	21233
809.033	21275
809.174	21241
809.316	21066
809.458	21119
809.6	21070
809.741	21195
809.883	21195
810.025	21260
810.166	21317
810.308	21279
810.45	21184
810.591	21123
810.733	20994
810.875	20914
811.016	20804
811.158	20830
811.299	20842
811.441	20876
811.582	21085
811.724	20918
811.865	20967
812.007	20876
812.148	20853
812.29	20876
812.431	21222
812.573	21291
812.714	21291
812.855	21454
812.997	21458
813.138	21641
813.279	21431
813.421	21370
813.562	21393
813.703	20956
813.845	21024
813.986	20819
814.127	20712
814.268	20530
814.41	20488
814.551	20454
814.692	20473
814.833	20545
814.974	20412
815.115	20381
815.256	20195
815.397	20199
815.539	20347
815.68	20111
815.821	20077
815.962	20126
816.103	20035
816.244	19993
816.385	19898
816.526	19970
816.666	19780
816.807	19635
816.948	19765
817.089	19788
817.23	19651
817.371	19559
817.512	19635
817.653	19480
817.793	19544
817.934	19537
818.075	19487
818.216	19529
818.356	19544
818.497	19320
818.638	19187
818.778	19209
818.919	19187
819.06	19282
819.2	19358
819.341	19548
819.481	19521
819.622	19548
819.762	19791
819.903	19685
820.043	19628
820.184	19537
820.324	19613
820.465	19677
820.605	19609
820.746	19521
820.886	19403
821.026	19544
821.167	19441
821.307	19556
821.447	19480
821.588	19335
821.728	19297
821.868	19236
822.008	19076
822.149	18985
822.289	18966
822.429	18798
822.569	18551
822.709	18650
822.849	18460
822.99	18464
823.13	18376
823.27	18311
823.41	18281
823.55	18186
823.69	18228
823.83	18213
823.97	18171
824.11	18030
824.25	17946
824.389	18053
824.529	18125
824.669	18026
824.809	18190
824.949	18300
825.089	18083
825.228	18053
825.368	17893
825.508	17802
825.648	17950
825.787	17866
825.927	17901
826.067	17726
826.206	17790
826.346	17973
826.485	17882
826.625	17790
826.765	17863
826.904	17794
827.044	17524
827.183	17726
827.323	17505
827.462	17562
827.601	17551
827.741	17455
827.88	17585
828.02	17387
828.159	17486
828.298	17482
828.437	17676
828.577	17554
828.716	17581
828.855	17585
828.994	17307
829.134	17261
829.273	17395
829.412	17235
829.551	17277
829.69	17273
829.829	17299
829.968	17471
830.107	17391
830.246	17341
830.385	17200
830.524	17185
830.663	17159
830.802	17029
830.941	16957
831.08	16930
831.219	17029
831.357	16957
831.496	17136
831.635	16930
831.774	16790
831.913	16896
832.051	16721
832.19	16793
832.329	16835
832.467	16565
832.606	16653
832.744	16546
832.883	16641
833.022	16580
833.16	16687
833.299	16668
833.437	16607
833.576	16683
833.714	16580
833.852	16672
833.991	16706
834.129	16828
834.267	16683
834.406	16618
834.544	16653
834.682	16698
834.821	16664
834.959	16771
835.097	16687
835.235	16687
835.373	16721
835.511	16622
835.65	16592
835.788	16634
835.926	16386
836.064	16314
836.202	16428
836.34	16561
836.478	16645
836.615	16542
836.753	16664
836.891	16752
837.029	16546
837.167	16554
837.305	16618
837.443	16535
837.58	16375
837.718	16519
837.856	16386
837.993	16440
838.131	16462
838.269	16363
838.406	16375
838.544	16417
838.681	16150
838.819	16044
838.956	16055
839.094	15991
839.231	16036
839.369	16093
839.506	16424
839.643	16268
839.781	15972
839.918	15964
840.055	16059
840.193	15991
840.33	15941
840.467	15979
840.604	16006
840.742	16196
840.879	15899
841.016	15934
841.153	15903
841.29	16059
841.427	15998
841.564	15937
841.701	16040
841.838	15991
841.975	15918
842.112	15895
842.249	15895
842.385	15679
842.522	16029
842.659	15831
842.796	15766
842.933	15823
843.069	15656
843.206	15713
843.343	15819
843.479	15865
843.616	15918
843.752	15591
843.889	15606
844.025	15785
844.162	15538
844.298	15717
844.435	15492
844.571	15466
844.708	15648
844.844	15732
844.98	15747
845.117	15663
845.253	15564
845.389	15447
845.525	15553
845.661	15526
845.798	15359
845.934	15420
846.07	15313
846.206	15408
846.342	15488
846.478	15359
846.614	15233
846.75	15013
846.886	15085
847.022	15325
847.158	15161
847.294	15055
847.429	15138
847.565	15165
847.701	15386
847.837	14918
847.972	14842
848.108	14826
848.244	14910
848.379	14754
848.515	14743
848.65	14720
848.786	14632
848.921	14682
849.057	14906
849.192	14788
849.328	14697
849.463	14735
849.598	14701
849.734	14629
849.869	14583
850.004	14518
850.14	14568
850.275	14549
850.41	14564
850.545	14492
850.68	14473
850.815	14549
850.95	14492
851.085	14785
851.22	14708
851.355	14511
851.49	14484
851.625	14549
851.76	14423
851.895	14419
852.03	14404
852.165	14514
852.299	14533
852.434	14499
852.569	14724
852.703	14537
852.838	14541
852.973	14678
853.107	14648
853.242	14465
853.376	14427
853.511	14275
853.645	14396
853.78	14568
853.914	14324
854.048	14332
854.183	14419
854.317	14442
854.451	14499
854.585	14343
854.72	14294
854.854	14473
854.988	14309
855.122	14309
855.256	14206
855.39	14377
855.524	14465
855.658	14480
855.792	14473
855.926	14412
856.06	14419
856.194	14511
856.327	14317
856.461	14286
856.595	14298
856.729	14267
856.862	14545
856.996	14355
857.13	14355
857.263	14499
857.397	14522
857.53	14355
857.664	14408
857.797	14461
857.931	14526
858.064	14454
858.197	14503
858.331	14351
858.464	14305
858.597	14275
858.731	14419
858.864	14351
858.997	14332
859.13	14278
859.263	14423
859.396	14431
859.529	14355
859.662	14324
859.795	14351
859.928	14415
860.061	14499
860.194	14552
860.327	14415
860.46	14358
860.592	14419
860.725	14617
860.858	14457
860.99	14499
861.123	14332
861.256	14355
861.388	14400
861.521	14933
861.653	14339
861.786	14161
861.918	14267
862.05	14328
862.183	14248
862.315	14237
862.447	14396
862.58	14259
862.712	14119
862.844	14046
862.976	14138
863.108	14191
863.24	14476
863.372	14073
863.504	14187
863.636	14058
863.768	14180
863.9	14107
864.032	14157
864.164	14096
864.296	14130
864.428	14263
864.559	14199
864.691	14168
864.823	14278
864.954	14210
865.086	14233
865.217	14164
865.349	14126
865.48	14126
865.612	14248
865.743	14267
865.875	14187
866.006	14096
866.137	14138
866.269	14058
866.4	14096
866.531	14084
866.662	14100
866.793	14115
866.924	14134
867.055	14164
867.186	14187
867.317	14096
867.448	14031
867.579	14050
867.71	14050
867.841	14073
867.972	14092
868.103	14084
868.233	14225
868.364	14123
868.495	14195
868.625	14347
868.756	14492
868.886	14320
869.017	14313
869.147	14484
869.278	14454
869.408	14404
869.539	14347
869.669	14476
869.799	14393
869.929	14499
870.06	14400
870.19	14697
870.32	14701
870.45	14731
870.58	14663
870.71	14826
870.84	14857
870.97	14788
871.1	14697
871.23	14910
871.36	15066
871.489	14899
871.619	14937
871.749	14948
871.879	15138
872.008	15116
872.138	14956
872.267	14944
872.397	15001
872.526	14815
872.656	14838
872.785	14834
872.915	15001
873.044	15093
873.173	15024
873.303	15066
873.432	15013
873.561	15150
873.69	15047
873.819	15066
873.948	15218
874.077	15055
874.206	14937
874.335	15089
874.464	15097
874.593	15363
874.722	15321
874.851	15386
874.979	15313
875.108	15439
875.237	15260
875.365	15321
875.494	15268
875.623	15485
875.751	15268
875.88	15401
876.008	15485
876.136	15580
876.265	15724
876.393	15819
876.521	15739
876.65	15747
876.778	15835
876.906	15724
877.034	15671
877.162	15724
877.29	15736
877.418	15736
877.546	15778
877.674	15743
877.802	15774
877.93	15774
878.058	15770
878.185	15709
878.313	15781
878.441	15755
878.568	15545
878.696	15679
878.824	15819
878.951	15762
879.079	15915
879.206	15964
879.333	15911
879.461	15835
879.588	15800
879.715	15968
879.842	15968
879.97	15732
880.097	15641
880.224	15690
880.351	15599
880.478	15584
880.605	15580
880.732	15542
880.859	15880
880.986	15652
881.112	15629
881.239	15481
881.366	15355
881.493	15329
881.619	15279
881.746	15291
881.872	15203
881.999	15180
882.125	15325
882.252	15325
882.378	15222
882.505	15382
882.631	15211
882.757	15142
882.883	15112
883.01	15047
883.136	14971
883.262	14982
883.388	14868
883.514	15055
883.64	15119
883.766	15108
883.892	14857
884.018	14971
884.143	15051
884.269	15188
884.395	14880
884.52	14819
884.646	14724
884.772	14651
884.897	14667
885.023	14758
885.148	14975
885.274	14902
885.399	14815
885.524	14819
885.65	14735
885.775	14758
885.9	14674
886.025	14899
886.15	14815
886.275	14781
886.4	14762
886.525	14746
886.65	14686
886.775	14750
886.9	14849
887.025	15032
887.149	14887
887.274	14629
887.399	14594
887.523	14575
887.648	14469
887.773	14492
887.897	14689
888.021	14617
888.146	14545
888.27	14727
888.395	14739
888.519	14610
888.643	14720
888.767	14655
888.891	14590
889.015	14495
889.139	14507
889.263	14404
889.387	14579
889.511	14708
889.635	14514
889.759	14370
889.883	14434
890.006	14465
890.13	14632
890.254	14343
890.377	14415
890.501	14214
890.624	14153
890.748	14457
890.871	14244
890.995	14138
891.118	14138
891.241	14187
891.364	14142
891.488	14286
891.611	14225
891.734	14176
891.857	14275
891.98	14119
892.103	14301
892.226	14168
892.349	14142
892.471	14027
892.594	14214
892.717	14218
892.839	14206
892.962	14259
893.085	14180
893.207	14256
893.33	14126
893.452	14073
893.575	14256
893.697	14107
893.819	14412
893.941	14271
894.064	14324
894.186	14157
894.308	14100
894.43	14259
894.552	14389
894.674	14301
894.796	14195
894.918	14282
895.04	14221
895.161	14328
895.283	14256
895.405	14278
895.526	14180
895.648	14317
895.769	14294
895.891	14423
896.012	14358
896.134	14362
896.255	14389
896.376	14298
896.498	14355
896.619	14412
896.74	14237
896.861	14309
896.982	14701
897.103	14644
897.224	14670
897.345	14594
897.466	14473
897.587	14648
897.708	14632
897.828	14549
897.949	14590
898.07	14537
898.19	14636
898.311	14682
898.431	14602
898.552	14598
898.672	14731
898.792	14811
898.913	14777
899.033	14701
899.153	14568
899.273	14492
899.393	14469
899.513	14473
899.633	14484
899.753	14526
899.873	14450
899.993	14655
900.113	14568
900.232	14503
900.352	14522
900.472	14396
900.591	14385
900.711	14457
900.83	14317
900.95	14484
901.069	14457
901.189	14282
901.308	14096
901.427	14031
901.546	14134
901.665	14054
901.784	14176
901.904	13883
902.023	13890
902.141	13662
902.26	13643
902.379	13757
902.498	13548
902.617	13609
902.735	13639
902.854	13693
902.973	13597
903.091	13441
903.21	13266
903.328	13377
903.446	13308
903.565	13259
903.683	13274
903.801	13133
903.919	13251
904.038	13152
904.156	12958
904.274	13103
904.392	13057
904.51	13031
904.627	13004
904.745	13050
904.863	13065
904.981	12890
905.098	12616
905.216	12745
905.334	12726
905.451	12688
905.569	12738
905.686	12779
905.803	12749
905.921	12536
906.038	12563
906.155	12574
906.272	12418
906.389	12372
906.506	12380
906.623	12262
906.74	12319
906.857	12239
906.974	12159
907.091	12445
907.208	12429
907.324	12311
907.441	12175
907.557	11977
907.674	12038
907.79	11935
907.907	12045
908.023	12076
908.139	12068
908.256	11999
908.372	11882
908.488	11935
908.604	11882
908.72	11714
908.836	11783
908.952	11786
909.068	11847
909.184	11855
909.3	11767
909.415	11874
909.531	11817
909.647	11600
909.762	11547
909.878	11436
909.993	11649
910.108	11512
910.224	11547
910.339	11573
910.454	11554
910.57	11532
910.685	11330
910.8	11596
910.915	11619
911.03	11516
911.145	11345
911.259	11204
911.374	11299
911.489	11159
911.604	11105
911.718	11086
911.833	11124
911.947	10961
912.062	10881
912.176	11018
912.291	11029
912.405	11105
912.519	11239
912.633	11254
912.748	11143
912.862	11003
912.976	10942
913.09	10786
913.204	10862
913.318	10946
913.431	10976
913.545	10911
913.659	11018
913.772	10911
913.886	10733
914	10801
914.113	10782
914.226	10927
914.34	10923
914.453	10714
914.566	10805
914.68	10778
914.793	10675
914.906	10535
915.019	10455
915.132	10523
915.245	10436
915.358	10561
915.47	10580
915.583	10626
915.696	10641
915.809	10573
915.921	10702
916.034	10615
916.146	10481
916.259	10516
916.371	10664
916.483	10558
916.595	10379
916.708	10447
916.82	10481
916.932	10470
917.044	10462
917.156	10390
917.268	10344
917.38	10314
917.491	10337
917.603	10421
917.715	10424
917.826	10451
917.938	10367
918.049	10219
918.161	10390
918.272	10462
918.384	10519
918.495	10314
918.606	10238
918.717	10128
918.828	10253
918.939	10238
919.05	10227
919.161	10158
919.272	10029
919.383	10143
919.494	10287
919.604	10451
919.715	10276
919.826	10147
919.936	10227
920.047	10257
920.157	10253
920.267	10447
920.378	10280
920.488	10268
920.598	10405
920.708	10611
920.818	10474
920.928	10428
921.038	10675
921.148	10577
921.258	10303
921.368	10272
921.477	10177
921.587	10086
921.697	10025
921.806	10128
921.916	10040
922.025	9842
922.134	9804
922.244	9728
922.353	9838
922.462	9637
922.571	9648
922.68	9538
922.789	9492
922.898	9542
923.007	9515
923.116	9519
923.224	9458
923.333	9473
923.442	9416
923.55	9363
923.659	9424
923.767	9496
923.876	9378
923.984	9466
924.092	9374
924.201	9348
924.309	9237
924.417	9332
924.525	9298
924.633	9351
924.741	10299
924.849	9146
924.956	9283
925.064	9180
925.172	9020
925.279	9123
925.387	9226
925.494	9123
925.602	9313
925.709	9222
925.816	9066
925.924	9157
926.031	9218
926.138	9176
926.245	9218
926.352	9020
926.459	9241
926.566	9218
926.673	9074
926.779	9070
926.886	8952
926.993	8883
927.099	8887
927.206	8868
927.312	8819
927.419	8929
927.525	8986
927.631	8944
927.737	8716
927.843	8758
927.95	8701
928.056	8796
928.162	8834
928.267	8845
928.373	9310
928.479	8857
928.585	8587
928.69	8807
928.796	8785
928.901	8758
929.007	8541
929.112	8712
929.218	8663
929.323	8621
929.428	8632
929.533	8670
929.638	8549
929.743	8533
929.848	8587
929.953	8560
930.058	8556
930.163	8347
930.267	8408
930.372	8457
930.477	8309
930.581	8526
930.685	8423
930.79	8305
930.894	8332
930.998	8271
931.103	8446
931.207	8035
931.311	8020
931.415	7951
931.519	7826
931.623	7757
