Data from test_V78500241_1373.txt Node
Date: Fri Mar 25 14:43:16 CST 2022
User: usil
Spectrometer: V785-0024
Trigger mode: 0
Integration Time (sec): 4.000000E-1
Scans to average: 1
Nonlinearity correction enabled: false
Boxcar width: 0
Storing dark spectrum: false
XAxis mode: Wavelengths
Number of Pixels in Spectrum: 1024
>>>>>Begin Spectral Data<<<<<
801.071	22466
801.214	22333
801.356	22128
801.499	22067
801.641	21705
801.783	21857
801.926	21816
802.068	21759
802.211	21519
802.353	21473
802.496	21359
802.638	21363
802.78	21264
802.923	21165
803.065	21047
803.208	21100
803.35	21055
803.492	21093
803.635	21192
803.777	21252
803.919	21173
804.061	21515
804.204	21150
804.346	21146
804.488	20864
804.63	21127
804.773	21024
804.915	20986
805.057	21203
805.199	21081
805.341	21135
805.483	21184
805.626	21135
805.768	21005
805.91	20967
806.052	21043
806.194	20861
806.336	21241
806.478	21135
806.62	21032
806.762	21104
806.904	21283
807.046	21469
807.188	21382
807.33	21443
807.472	21538
807.614	21431
807.756	21401
807.898	21321
808.04	21127
808.182	21302
808.324	21283
808.465	21469
808.607	21507
808.749	21732
808.891	21907
809.033	21861
809.174	21720
809.316	21618
809.458	21583
809.6	21504
809.741	21545
809.883	21557
810.025	21663
810.166	21728
810.308	21606
810.45	21610
810.591	21344
810.733	21313
810.875	21241
811.016	21214
811.158	21146
811.299	21294
811.441	21306
811.582	21344
811.724	21188
811.865	21264
812.007	21173
812.148	21199
812.29	21211
812.431	21408
812.573	21473
812.714	21545
812.855	21842
812.997	21736
813.138	21953
813.279	21804
813.421	21713
813.562	21652
813.703	21507
813.845	21435
813.986	21055
814.127	20880
814.268	20826
814.41	20845
814.551	20758
814.692	20887
814.833	20834
814.974	20735
815.115	20819
815.256	20606
815.397	20594
815.539	20579
815.68	20473
815.821	20389
815.962	20667
816.103	20484
816.244	20343
816.385	20324
816.526	20122
816.666	20142
816.807	19837
816.948	19974
817.089	20065
817.23	19940
817.371	19955
817.512	19894
817.653	19883
817.793	19940
817.934	19963
818.075	19845
818.216	20027
818.356	19856
818.497	19841
818.638	19567
818.778	19578
818.919	19655
819.06	19632
819.2	19814
819.341	19868
819.481	19837
819.622	19852
819.762	19989
819.903	20115
820.043	19890
820.184	20005
820.324	19871
820.465	19986
820.605	19967
820.746	19769
820.886	19799
821.026	19826
821.167	19875
821.307	19974
821.447	19906
821.588	19689
821.728	19521
821.868	19502
822.008	19244
822.149	19293
822.289	19350
822.429	18958
822.569	19008
822.709	18954
822.849	18779
822.99	18688
823.13	18707
823.27	18711
823.41	18635
823.55	18528
823.69	18589
823.83	18677
823.97	18559
824.11	18464
824.25	18403
824.389	18369
824.529	18570
824.669	18308
824.809	18448
824.949	18604
825.089	18407
825.228	18304
825.368	18251
825.508	18232
825.648	18190
825.787	18201
825.927	18235
826.067	18152
826.206	18140
826.346	18171
826.485	18136
826.625	18110
826.765	18281
826.904	18197
827.044	17946
827.183	17977
827.323	17760
827.462	17893
827.601	17950
827.741	17752
827.88	17889
828.02	17710
828.159	17756
828.298	17897
828.437	17916
828.577	17805
828.716	17992
828.855	17649
828.994	17642
829.134	17524
829.273	17646
829.412	17619
829.551	17448
829.69	17566
829.829	17604
829.968	17733
830.107	17672
830.246	17490
830.385	17520
830.524	17532
830.663	17429
830.802	17242
830.941	17193
831.08	17079
831.219	17258
831.357	17410
831.496	17532
831.635	17143
831.774	17132
831.913	17022
832.051	17006
832.19	17041
832.329	17048
832.467	16911
832.606	16835
832.744	16934
832.883	16938
833.022	16862
833.16	16904
833.299	17109
833.437	16873
833.576	16908
833.714	16999
833.852	16984
833.991	16965
834.129	17113
834.267	17105
834.406	16892
834.544	16949
834.682	17075
834.821	17075
834.959	17029
835.097	16938
835.235	16961
835.373	16923
835.511	16961
835.65	16873
835.788	16942
835.926	16675
836.064	16565
836.202	16706
836.34	17003
836.478	16866
836.615	16778
836.753	16946
836.891	16953
837.029	16881
837.167	16965
837.305	16782
837.443	16850
837.58	16656
837.718	16763
837.856	16679
837.993	16660
838.131	16748
838.269	16744
838.406	16653
838.544	16622
838.681	16386
838.819	16386
838.956	16219
839.094	16276
839.231	16318
839.369	16424
839.506	16675
839.643	16500
839.781	16325
839.918	16306
840.055	16344
840.193	16314
840.33	16166
840.467	16257
840.604	16310
840.742	16569
840.879	16135
841.016	16135
841.153	16196
841.29	16382
841.427	16352
841.564	16299
841.701	16287
841.838	16162
841.975	16196
842.112	16192
842.249	16063
842.385	16021
842.522	16242
842.659	16002
842.796	16029
842.933	16048
843.069	15956
843.206	15949
843.343	16086
843.479	15975
843.616	16025
843.752	15816
843.889	15778
844.025	15960
844.162	15876
844.298	15998
844.435	15842
844.571	15850
844.708	15899
844.844	16105
844.98	15888
845.117	15937
845.253	15770
845.389	15766
845.525	15831
845.661	16021
845.798	15804
845.934	16006
846.07	15945
846.206	15934
846.342	15930
846.478	15823
846.614	15526
846.75	15424
846.886	15481
847.022	15542
847.158	15332
847.294	15458
847.429	15447
847.565	15450
847.701	15595
847.837	15176
847.972	15131
848.108	15249
848.244	15264
848.379	15058
848.515	14910
848.65	14906
848.786	15100
848.921	14986
849.057	15074
849.192	15123
849.328	15017
849.463	14956
849.598	14895
849.734	14899
849.869	14910
850.004	14811
850.14	14815
850.275	14819
850.41	14667
850.545	14697
850.68	14708
850.815	14743
850.95	14636
851.085	14887
851.22	14906
851.355	14708
851.49	14678
851.625	14758
851.76	14788
851.895	14674
852.03	14667
852.165	14781
852.299	14830
852.434	14834
852.569	14750
852.703	14830
852.838	14804
852.973	14883
853.107	14857
853.242	14746
853.376	14659
853.511	14499
853.645	14537
853.78	14720
853.914	14526
854.048	14541
854.183	14583
854.317	14701
854.451	14781
854.585	14613
854.72	14610
854.854	14636
854.988	14594
855.122	14575
855.256	14499
855.39	14549
855.524	14750
855.658	14712
855.792	14693
855.926	14644
856.06	14716
856.194	14682
856.327	14640
856.461	14583
856.595	14571
856.729	14533
856.862	14674
856.996	14754
857.13	14735
857.263	14716
857.397	14674
857.53	14644
857.664	14659
857.797	14758
857.931	14807
858.064	14640
858.197	14792
858.331	14644
858.464	14579
858.597	14545
858.731	14598
858.864	14594
858.997	14644
859.13	14727
859.263	14735
859.396	14830
859.529	14545
859.662	14568
859.795	14560
859.928	14625
860.061	14739
860.194	14819
860.327	14659
860.46	14663
860.592	14743
860.725	14758
860.858	14777
860.99	14590
861.123	14651
861.256	14598
861.388	14583
861.521	15321
861.653	14545
861.786	14511
861.918	14533
862.05	14541
862.183	14667
862.315	14632
862.447	14667
862.58	14556
862.712	14469
862.844	14381
862.976	14408
863.108	14488
863.24	14891
863.372	14362
863.504	14343
863.636	14454
863.768	14533
863.9	14324
864.032	14298
864.164	14370
864.296	14396
864.428	14507
864.559	14492
864.691	14473
864.823	14499
864.954	14427
865.086	14484
865.217	14408
865.349	14294
865.48	14332
865.612	14454
865.743	14484
865.875	14336
866.006	14301
866.137	14347
866.269	14412
866.4	14320
866.531	14381
866.662	14282
866.793	14328
866.924	14339
867.055	14434
867.186	14256
867.317	14377
867.448	14370
867.579	14259
867.71	14362
867.841	14206
867.972	14419
868.103	14423
868.233	14358
868.364	14370
868.495	14469
868.625	14613
868.756	14674
868.886	14518
869.017	14610
869.147	14773
869.278	14689
869.408	14648
869.539	14674
869.669	14716
869.799	14613
869.929	14857
870.06	14727
870.19	15058
870.32	14975
870.45	14952
870.58	15032
870.71	15127
870.84	15093
870.97	15009
871.1	15001
871.23	15188
871.36	15188
871.489	15093
871.619	15097
871.749	15081
871.879	15249
872.008	15382
872.138	15180
872.267	15272
872.397	15123
872.526	15093
872.656	14986
872.785	14986
872.915	15317
873.044	15355
873.173	15275
873.303	15302
873.432	15310
873.561	15397
873.69	15302
873.819	15264
873.948	15378
874.077	15294
874.206	15218
874.335	15378
874.464	15523
874.593	15610
874.722	15466
874.851	15580
874.979	15705
875.108	15679
875.237	15568
875.365	15507
875.494	15580
875.623	15652
875.751	15625
875.88	15625
876.008	15789
876.136	15873
876.265	15994
876.393	16223
876.521	16067
876.65	16082
876.778	15934
876.906	15975
877.034	16025
877.162	15987
877.29	15850
877.418	16021
877.546	15930
877.674	15960
877.802	16124
877.93	16017
878.058	16025
878.185	15884
878.313	15956
878.441	15941
878.568	15842
878.696	15991
878.824	16032
878.951	16036
879.079	16253
879.206	16356
879.333	16265
879.461	16230
879.588	16188
879.715	16291
879.842	16398
879.97	16268
880.097	15945
880.224	15941
880.351	15953
880.478	15899
880.605	15903
880.732	15800
880.859	16188
880.986	15854
881.112	15838
881.239	15785
881.366	15591
881.493	15504
881.619	15412
881.746	15603
881.872	15504
881.999	15515
882.125	15492
882.252	15610
882.378	15530
882.505	15694
882.631	15580
882.757	15370
882.883	15485
883.01	15428
883.136	15336
883.262	15226
883.388	15207
883.514	15477
883.64	15344
883.766	15287
883.892	15131
884.018	15245
884.143	15302
884.269	15382
884.395	15013
884.52	15013
884.646	15077
884.772	15058
884.897	15028
885.023	14990
885.148	15089
885.274	15287
885.399	15097
885.524	15100
885.65	15036
885.775	15032
885.9	15005
886.025	15135
886.15	15146
886.275	14998
886.4	14960
886.525	15043
886.65	15005
886.775	14948
886.9	15211
887.025	15230
887.149	15001
887.274	14941
887.399	14876
887.523	14834
887.648	14796
887.773	14834
887.897	14921
888.021	14880
888.146	14861
888.27	15009
888.395	15047
888.519	14914
888.643	14982
888.767	14933
888.891	14792
889.015	14804
889.139	14735
889.263	14788
889.387	14838
889.511	14899
889.635	14800
889.759	14765
889.883	14678
890.006	14811
890.13	14845
890.254	14663
890.377	14659
890.501	14545
890.624	14476
890.748	14526
890.871	14457
890.995	14355
891.118	14320
891.241	14385
891.364	14469
891.488	14419
891.611	14389
891.734	14427
891.857	14499
891.98	14419
892.103	14533
892.226	14434
892.349	14396
892.471	14244
892.594	14434
892.717	14355
892.839	14389
892.962	14404
893.085	14522
893.207	14461
893.33	14233
893.452	14313
893.575	14431
893.697	14362
893.819	14541
893.941	14594
894.064	14522
894.186	14282
894.308	14298
894.43	14484
894.552	14659
894.674	14552
894.796	14339
894.918	14396
895.04	14385
895.161	14579
895.283	14480
895.405	14442
895.526	14404
895.648	14457
895.769	14522
895.891	14583
896.012	14644
896.134	14552
896.255	14549
896.376	14552
896.498	14590
896.619	14549
896.74	14511
896.861	14621
896.982	14895
897.103	15135
897.224	14857
897.345	14743
897.466	14765
897.587	14895
897.708	14948
897.828	14830
897.949	14811
898.07	14651
898.19	14815
898.311	14868
898.431	14826
898.552	14887
898.672	15017
898.792	15028
898.913	14914
899.033	14773
899.153	14708
899.273	14777
899.393	14712
899.513	14826
899.633	14921
899.753	14842
899.873	14712
899.993	14788
900.113	14727
900.232	14629
900.352	14739
900.472	14640
900.591	14670
900.711	14636
900.83	14533
900.95	14720
901.069	14743
901.189	14560
901.308	14301
901.427	14206
901.546	14218
901.665	14286
901.784	14275
901.904	14210
902.023	14054
902.141	13982
902.26	13925
902.379	13951
902.498	13902
902.617	13780
902.735	13845
902.854	13925
902.973	13807
903.091	13563
903.21	13464
903.328	13521
903.446	13396
903.565	13384
903.683	13419
903.801	13255
903.919	13358
904.038	13346
904.156	13228
904.274	13331
904.392	13198
904.51	13228
904.627	13270
904.745	13221
904.863	13225
904.981	13065
905.098	12973
905.216	12894
905.334	12947
905.451	12905
905.569	12871
905.686	12954
905.803	12973
905.921	12707
906.038	12894
906.155	12707
906.272	12631
906.389	12684
906.506	12498
906.623	12525
906.74	12475
906.857	12460
906.974	12464
907.091	12494
907.208	12677
907.324	12544
907.441	12327
907.557	12216
907.674	12315
907.79	12205
907.907	12209
908.023	12235
908.139	12216
908.256	12098
908.372	12178
908.488	12106
908.604	12079
908.72	12026
908.836	11977
908.952	11984
909.068	11988
909.184	12064
909.3	11980
909.415	11999
909.531	11992
909.647	11805
909.762	11836
909.878	11741
909.993	11870
910.108	11748
910.224	11817
910.339	11809
910.454	11665
910.57	11615
910.685	11573
910.8	11813
910.915	11802
911.03	11722
911.145	11570
911.259	11497
911.374	11478
911.489	11425
911.604	11364
911.718	11227
911.833	11178
911.947	11102
912.062	11025
912.176	11231
912.291	11250
912.405	11193
912.519	11395
912.633	11440
912.748	11242
912.862	11128
912.976	11094
913.09	10987
913.204	11029
913.318	11140
913.431	11193
913.545	11246
913.659	11208
913.772	11067
913.886	11037
914	10946
914.113	10999
914.226	11014
914.34	11041
914.453	10904
914.566	10949
914.68	10934
914.793	10908
914.906	10679
915.019	10725
915.132	10630
915.245	10710
915.358	10664
915.47	10683
915.583	10843
915.696	10717
915.809	10805
915.921	10949
916.034	10691
916.146	10634
916.259	10634
916.371	10687
916.483	10694
916.595	10611
916.708	10683
916.82	10565
916.932	10542
917.044	10694
917.156	10599
917.268	10542
917.38	10519
917.491	10485
917.603	10523
917.715	10641
917.826	10683
917.938	10535
918.049	10428
918.161	10558
918.272	10675
918.384	10615
918.495	10535
918.606	10409
918.717	10348
918.828	10478
918.939	10447
919.05	10314
919.161	10375
919.272	10200
919.383	10249
919.494	10432
919.604	10668
919.715	10398
919.826	10287
919.936	10363
920.047	10485
920.157	10405
920.267	10584
920.378	10390
920.488	10421
920.598	10634
920.708	10683
920.818	10561
920.928	10554
921.038	10683
921.148	10748
921.258	10443
921.368	10329
921.477	10265
921.587	10242
921.697	10181
921.806	10375
921.916	10169
922.025	10017
922.134	9972
922.244	9915
922.353	10032
922.462	9892
922.571	9797
922.68	9720
922.789	9641
922.898	9644
923.007	9595
923.116	9694
923.224	9675
923.333	9644
923.442	9485
923.55	9485
923.659	9507
923.767	9591
923.876	9462
923.984	9572
924.092	9523
924.201	9511
924.309	9545
924.417	9500
924.525	9435
924.633	9477
924.741	10371
924.849	9264
924.956	9405
925.064	9294
925.172	9199
925.279	9226
925.387	9260
925.494	9298
925.602	9504
925.709	9370
925.816	9233
925.924	9355
926.031	9393
926.138	9306
926.245	9329
926.352	9218
926.459	9370
926.566	9386
926.673	9222
926.779	9138
926.886	9165
926.993	9043
927.099	9028
927.206	8910
927.312	8906
927.419	9036
927.525	9001
927.631	9058
927.737	8902
927.843	8925
927.95	8739
928.056	8979
928.162	8929
928.267	8952
928.373	9587
928.479	8971
928.585	8739
928.69	8895
928.796	8975
928.901	8815
929.007	8667
929.112	8792
929.218	8769
929.323	8705
929.428	8678
929.533	8857
929.638	8697
929.743	8705
929.848	8762
929.953	8693
930.058	8632
930.163	8530
930.267	8533
930.372	8636
930.477	8511
930.581	8640
930.685	8518
930.79	8431
930.894	8495
930.998	8400
931.103	8674
931.207	8180
931.311	8130
931.415	8084
931.519	7883
931.623	7879
