Data from test_V78500241_2746.txt Node
Date: Fri Mar 25 14:52:50 CST 2022
User: usil
Spectrometer: V785-0024
Trigger mode: 0
Integration Time (sec): 4.000000E-1
Scans to average: 1
Nonlinearity correction enabled: false
Boxcar width: 0
Storing dark spectrum: false
XAxis mode: Wavelengths
Number of Pixels in Spectrum: 1024
>>>>>Begin Spectral Data<<<<<
801.071	22044
801.214	21930
801.356	21679
801.499	21671
801.641	21477
801.783	21317
801.926	21435
802.068	21329
802.211	21264
802.353	21218
802.496	20910
802.638	20807
802.78	20906
802.923	20800
803.065	20708
803.208	20598
803.35	20716
803.492	20868
803.635	20872
803.777	20746
803.919	20811
804.061	21096
804.204	20815
804.346	20579
804.488	20583
804.63	20651
804.773	20579
804.915	20670
805.057	20697
805.199	20678
805.341	20750
805.483	20705
805.626	20743
805.768	20655
805.91	20571
806.052	20697
806.194	20488
806.336	20838
806.478	20640
806.62	20552
806.762	20625
806.904	20758
807.046	20998
807.188	20906
807.33	20895
807.472	20925
807.614	20804
807.756	20823
807.898	20731
808.04	20746
808.182	20648
808.324	20739
808.465	20731
808.607	20906
808.749	21001
808.891	21093
809.033	21207
809.174	21085
809.316	20960
809.458	21055
809.6	20842
809.741	21131
809.883	20925
810.025	21207
810.166	21195
810.308	21188
810.45	21047
810.591	21043
810.733	20906
810.875	20754
811.016	20598
811.158	20518
811.299	20872
811.441	20868
811.582	20880
811.724	20754
811.865	20868
812.007	20682
812.148	20834
812.29	20811
812.431	20895
812.573	21013
812.714	21055
812.855	21256
812.997	21252
813.138	21545
813.279	21344
813.421	21237
813.562	21214
813.703	21020
813.845	20914
813.986	20644
814.127	20476
814.268	20465
814.41	20336
814.551	20263
814.692	20408
814.833	20278
814.974	20248
815.115	20290
815.256	20119
815.397	20153
815.539	20084
815.68	20043
815.821	19944
815.962	20161
816.103	19986
816.244	19864
816.385	19719
816.526	19662
816.666	19586
816.807	19407
816.948	19487
817.089	19525
817.23	19384
817.371	19445
817.512	19460
817.653	19434
817.793	19259
817.934	19377
818.075	19426
818.216	19358
818.356	19495
818.497	19171
818.638	19110
818.778	19057
818.919	19076
819.06	19160
819.2	19160
819.341	19285
819.481	19255
819.622	19419
819.762	19495
819.903	19590
820.043	19377
820.184	19464
820.324	19407
820.465	19407
820.605	19339
820.746	19434
820.886	19415
821.026	19369
821.167	19381
821.307	19438
821.447	19373
821.588	19228
821.728	19148
821.868	18958
822.008	18814
822.149	18833
822.289	18749
822.429	18559
822.569	18464
822.709	18513
822.849	18270
822.99	18350
823.13	18235
823.27	18251
823.41	18114
823.55	18106
823.69	18251
823.83	18129
823.97	18087
824.11	17817
824.25	17817
824.389	17863
824.529	17961
824.669	17794
824.809	17935
824.949	18003
825.089	18045
825.228	17889
825.368	17756
825.508	17642
825.648	17745
825.787	17695
825.927	17813
826.067	17604
826.206	17630
826.346	17741
826.485	17691
826.625	17672
826.765	17859
826.904	17752
827.044	17410
827.183	17368
827.323	17467
827.462	17395
827.601	17349
827.741	17421
827.88	17326
828.02	17433
828.159	17455
828.298	17376
828.437	17463
828.577	17341
828.716	17455
828.855	17376
828.994	17193
829.134	17178
829.273	17159
829.412	17041
829.551	17109
829.69	17200
829.829	17254
829.968	17318
830.107	17235
830.246	17212
830.385	17090
830.524	17037
830.663	16995
830.802	16889
830.941	16759
831.08	16774
831.219	16820
831.357	16835
831.496	17037
831.635	16679
831.774	16729
831.913	16607
832.051	16668
832.19	16596
832.329	16580
832.467	16485
832.606	16516
832.744	16459
832.883	16512
833.022	16440
833.16	16440
833.299	16546
833.437	16478
833.576	16531
833.714	16466
833.852	16489
833.991	16542
834.129	16565
834.267	16660
834.406	16504
834.544	16519
834.682	16588
834.821	16500
834.959	16668
835.097	16500
835.235	16546
835.373	16645
835.511	16599
835.65	16443
835.788	16451
835.926	16352
836.064	16177
836.202	16322
836.34	16432
836.478	16535
836.615	16409
836.753	16386
836.891	16546
837.029	16455
837.167	16394
837.305	16276
837.443	16344
837.58	16284
837.718	16398
837.856	16398
837.993	16246
838.131	16379
838.269	16253
838.406	16162
838.544	16219
838.681	16120
838.819	16150
838.956	15827
839.094	15880
839.231	15819
839.369	16032
839.506	16295
839.643	16173
839.781	15869
839.918	15823
840.055	15899
840.193	15880
840.33	15873
840.467	15835
840.604	15854
840.742	16120
840.879	15743
841.016	15861
841.153	15808
841.29	15937
841.427	15949
841.564	15888
841.701	15857
841.838	15793
841.975	15732
842.112	15819
842.249	15728
842.385	15599
842.522	15827
842.659	15580
842.796	15709
842.933	15656
843.069	15507
843.206	15568
843.343	15751
843.479	15564
843.616	15660
843.752	15500
843.889	15363
844.025	15622
844.162	15412
844.298	15549
844.435	15336
844.571	15393
844.708	15412
844.844	15614
844.98	15561
845.117	15561
845.253	15287
845.389	15237
845.525	15393
845.661	15458
845.798	15195
845.934	15272
846.07	15192
846.206	15226
846.342	15344
846.478	15249
846.614	15142
846.75	14971
846.886	14891
847.022	15119
847.158	15036
847.294	15009
847.429	14925
847.565	14986
847.701	15272
847.837	14724
847.972	14845
848.108	14826
848.244	14902
848.379	14674
848.515	14590
848.65	14541
848.786	14610
848.921	14602
849.057	14769
849.192	14720
849.328	14682
849.463	14575
849.598	14575
849.734	14606
849.869	14374
850.004	14332
850.14	14377
850.275	14366
850.41	14282
850.545	14347
850.68	14259
850.815	14408
850.95	14343
851.085	14560
851.22	14480
851.355	14408
851.49	14301
851.625	14412
851.76	14347
851.895	14206
852.03	14267
852.165	14366
852.299	14427
852.434	14488
852.569	14450
852.703	14457
852.838	14492
852.973	14579
853.107	14541
853.242	14305
853.376	14221
853.511	14164
853.645	14176
853.78	14339
853.914	14214
854.048	14290
854.183	14271
854.317	14294
854.451	14469
854.585	14298
854.72	14256
854.854	14343
854.988	14153
855.122	14252
855.256	14069
855.39	14202
855.524	14370
855.658	14267
855.792	14168
855.926	14366
856.06	14324
856.194	14336
856.327	14362
856.461	14187
856.595	14202
856.729	14164
856.862	14366
856.996	14267
857.13	14446
857.263	14393
857.397	14389
857.53	14324
857.664	14298
857.797	14157
857.931	14427
858.064	14313
858.197	14366
858.331	14229
858.464	14157
858.597	14103
858.731	14244
858.864	14256
858.997	14206
859.13	14389
859.263	14298
859.396	14336
859.529	14221
859.662	14172
859.795	14180
859.928	14229
860.061	14442
860.194	14431
860.327	14343
860.46	14157
860.592	14332
860.725	14492
860.858	14332
860.99	14111
861.123	14168
861.256	14164
861.388	14229
861.521	14960
861.653	14092
861.786	14119
861.918	14065
862.05	14149
862.183	14153
862.315	14191
862.447	14233
862.58	14145
862.712	14024
862.844	13947
862.976	14149
863.108	14035
863.24	14461
863.372	13928
863.504	14008
863.636	14039
863.768	13974
863.9	14039
864.032	13917
864.164	13955
864.296	14081
864.428	14176
864.559	14043
864.691	14176
864.823	14016
864.954	14031
865.086	14062
865.217	14016
865.349	13959
865.48	13951
865.612	13997
865.743	14142
865.875	14100
866.006	13997
866.137	14024
866.269	13970
866.4	14046
866.531	14058
866.662	14012
866.793	13951
866.924	14046
867.055	14005
867.186	13951
867.317	13917
867.448	13913
867.579	13936
867.71	14001
867.841	13974
867.972	14024
868.103	14005
868.233	13993
868.364	13890
868.495	14062
868.625	14225
868.756	14320
868.886	14263
869.017	14320
869.147	14237
869.278	14377
869.408	14313
869.539	14237
869.669	14263
869.799	14358
869.929	14332
870.06	14427
870.19	14648
870.32	14530
870.45	14564
870.58	14686
870.71	14693
870.84	14712
870.97	14644
871.1	14674
871.23	14937
871.36	14880
871.489	14739
871.619	14712
871.749	14838
871.879	14876
872.008	15005
872.138	14864
872.267	14914
872.397	14743
872.526	14682
872.656	14682
872.785	14670
872.915	14994
873.044	14952
873.173	14849
873.303	14971
873.432	14857
873.561	15013
873.69	14899
873.819	14880
873.948	14986
874.077	14895
874.206	14830
874.335	14891
874.464	15108
874.593	15176
874.722	15157
874.851	15218
874.979	15233
875.108	15260
875.237	15256
875.365	15093
875.494	15165
875.623	15256
875.751	15157
875.88	15294
876.008	15351
876.136	15523
876.265	15644
876.393	15797
876.521	15663
876.65	15709
876.778	15732
876.906	15584
877.034	15542
877.162	15686
877.29	15629
877.418	15705
877.546	15580
877.674	15671
877.802	15660
877.93	15507
878.058	15610
878.185	15504
878.313	15610
878.441	15679
878.568	15454
878.696	15553
878.824	15618
878.951	15732
879.079	15766
879.206	15918
879.333	15778
879.461	15724
879.588	15804
879.715	15781
879.842	15911
879.97	15728
880.097	15564
880.224	15443
880.351	15412
880.478	15431
880.605	15447
880.732	15542
880.859	15690
880.986	15595
881.112	15519
881.239	15469
881.366	15256
881.493	15169
881.619	15203
881.746	15249
881.872	15085
881.999	15161
882.125	15097
882.252	15218
882.378	15173
882.505	15310
882.631	15116
882.757	14963
882.883	15051
883.01	14941
883.136	14967
883.262	14876
883.388	14800
883.514	14986
883.64	15043
883.766	15028
883.892	14804
884.018	14845
884.143	14918
884.269	14994
884.395	14762
884.52	14670
884.646	14648
884.772	14625
884.897	14571
885.023	14678
885.148	14739
885.274	14781
885.399	14769
885.524	14560
885.65	14670
885.775	14640
885.9	14701
886.025	14857
886.15	14758
886.275	14724
886.4	14469
886.525	14613
886.65	14670
886.775	14545
886.9	14777
887.025	14963
887.149	14640
887.274	14514
887.399	14549
887.523	14427
887.648	14393
887.773	14362
887.897	14469
888.021	14587
888.146	14427
888.27	14606
888.395	14655
888.519	14613
888.643	14530
888.767	14571
888.891	14457
889.015	14336
889.139	14427
889.263	14343
889.387	14480
889.511	14579
889.635	14495
889.759	14324
889.883	14290
890.006	14351
890.13	14461
890.254	14275
890.377	14263
890.501	14218
890.624	14096
890.748	14290
890.871	14183
890.995	14039
891.118	13974
891.241	14092
891.364	14111
891.488	14210
891.611	13951
891.734	14035
891.857	14092
891.98	14157
892.103	14157
892.226	14142
892.349	13944
892.471	13894
892.594	13940
892.717	14130
892.839	14001
892.962	14031
893.085	14138
893.207	14092
893.33	14001
893.452	14001
893.575	14100
893.697	14020
893.819	14294
893.941	14271
894.064	14244
894.186	14069
894.308	14043
894.43	14191
894.552	14240
894.674	14202
894.796	14012
894.918	14172
895.04	14050
895.161	14214
895.283	14225
895.405	14107
895.526	14069
895.648	14244
895.769	14278
895.891	14237
896.012	14225
896.134	14244
896.255	14244
896.376	14248
896.498	14263
896.619	14328
896.74	14202
896.861	14366
896.982	14545
897.103	14712
897.224	14537
897.345	14408
897.466	14408
897.587	14488
897.708	14625
897.828	14495
897.949	14480
898.07	14294
898.19	14610
898.311	14514
898.431	14549
898.552	14621
898.672	14701
898.792	14621
898.913	14640
899.033	14461
899.153	14495
899.273	14381
899.393	14415
899.513	14419
899.633	14389
899.753	14533
899.873	14431
899.993	14434
900.113	14389
900.232	14389
900.352	14408
900.472	14343
900.591	14256
900.711	14336
900.83	14149
900.95	14263
901.069	14404
901.189	14199
901.308	14016
901.427	14001
901.546	13986
901.665	14005
901.784	14012
901.904	13856
902.023	13826
902.141	13636
902.26	13563
902.379	13616
902.498	13518
902.617	13571
902.735	13559
902.854	13594
902.973	13445
903.091	13232
903.21	13327
903.328	13236
903.446	13194
903.565	13103
903.683	13031
903.801	12973
903.919	13038
904.038	13034
904.156	12935
904.274	13012
904.392	12924
904.51	12886
904.627	12951
904.745	12958
904.863	12973
904.981	12673
905.098	12585
905.216	12662
905.334	12696
905.451	12681
905.569	12677
905.686	12563
905.803	12627
905.921	12483
906.038	12650
906.155	12407
906.272	12467
906.389	12338
906.506	12220
906.623	12224
906.74	12125
906.857	12110
906.974	12205
907.091	12194
907.208	12315
907.324	12159
907.441	12076
907.557	11935
907.674	11946
907.79	11901
907.907	11832
908.023	11965
908.139	11954
908.256	11931
908.372	11859
908.488	11916
908.604	11703
908.72	11672
908.836	11722
908.952	11634
909.068	11745
909.184	11767
909.3	11722
909.415	11813
909.531	11722
909.647	11463
909.762	11539
909.878	11425
909.993	11528
910.108	11486
910.224	11512
910.339	11448
910.454	11455
910.57	11318
910.685	11318
910.8	11554
910.915	11505
911.03	11322
911.145	11147
911.259	11220
911.374	11178
911.489	11079
911.604	11151
911.718	10889
911.833	11045
911.947	10809
912.062	10733
912.176	10911
912.291	10976
912.405	10911
912.519	11136
912.633	11102
912.748	11029
912.862	10946
912.976	10831
913.09	10698
913.204	10759
913.318	10866
913.431	10915
913.545	10892
913.659	10915
913.772	10816
913.886	10771
914	10752
914.113	10744
914.226	10793
914.34	10812
914.453	10672
914.566	10733
914.68	10683
914.793	10622
914.906	10459
915.019	10382
915.132	10405
915.245	10466
915.358	10531
915.47	10489
915.583	10535
915.696	10538
915.809	10573
915.921	10588
916.034	10390
916.146	10405
916.259	10356
916.371	10489
916.483	10436
916.595	10386
916.708	10398
916.82	10428
916.932	10447
917.044	10348
917.156	10299
917.268	10238
917.38	10257
917.491	10299
917.603	10322
917.715	10398
917.826	10398
917.938	10238
918.049	10154
918.161	10310
918.272	10440
918.384	10440
918.495	10344
918.606	10207
918.717	10071
918.828	10169
918.939	10257
919.05	10055
919.161	10120
919.272	9994
919.383	10055
919.494	10120
919.604	10455
919.715	10158
919.826	10101
919.936	10101
920.047	10196
920.157	10211
920.267	10394
920.378	10246
920.488	10090
920.598	10409
920.708	10542
920.818	10421
920.928	10363
921.038	10527
921.148	10519
921.258	10303
921.368	10112
921.477	10017
921.587	9979
921.697	9915
921.806	10162
921.916	9953
922.025	9884
922.134	9732
922.244	9789
922.353	9816
922.462	9732
922.571	9511
922.68	9504
922.789	9363
922.898	9374
923.007	9389
923.116	9462
923.224	9447
923.333	9416
923.442	9321
923.55	9386
923.659	9291
923.767	9386
923.876	9260
923.984	9367
924.092	9256
924.201	9332
924.309	9298
924.417	9306
924.525	9283
924.633	9355
924.741	10017
924.849	9097
924.956	9321
925.064	9077
925.172	8975
925.279	9066
925.387	9135
925.494	9104
925.602	9161
925.709	9260
925.816	9036
925.924	9116
926.031	9214
926.138	9127
926.245	9173
926.352	9043
926.459	9127
926.566	9135
926.673	9077
926.779	8952
926.886	8902
926.993	8804
927.099	8800
927.206	8842
927.312	8735
927.419	8807
927.525	8766
927.631	8864
927.737	8834
927.843	8682
927.95	8579
928.056	8746
928.162	8651
928.267	8773
928.373	9393
928.479	8864
928.585	8583
928.69	8788
928.796	8693
928.901	8606
929.007	8492
929.112	8659
929.218	8568
929.323	8492
929.428	8480
929.533	8602
929.638	8533
929.743	8457
929.848	8533
929.953	8488
930.058	8465
930.163	8233
930.267	8317
930.372	8366
930.477	8248
930.581	8484
930.685	8381
930.79	8172
930.894	8317
930.998	8202
931.103	8374
931.207	8012
931.311	7978
931.415	7947
931.519	7780
931.623	7772
