Data from test_V78500241_2181.txt Node
Date: Fri Mar 25 14:48:53 CST 2022
User: usil
Spectrometer: V785-0024
Trigger mode: 0
Integration Time (sec): 4.000000E-1
Scans to average: 1
Nonlinearity correction enabled: false
Boxcar width: 0
Storing dark spectrum: false
XAxis mode: Wavelengths
Number of Pixels in Spectrum: 1024
>>>>>Begin Spectral Data<<<<<
801.071	22150
801.214	22002
801.356	21808
801.499	21667
801.641	21458
801.783	21492
801.926	21557
802.068	21454
802.211	21321
802.353	21397
802.496	21028
802.638	21070
802.78	21039
802.923	20914
803.065	20845
803.208	20792
803.35	20937
803.492	20842
803.635	21127
803.777	20876
803.919	20921
804.061	21180
804.204	20944
804.346	20746
804.488	20659
804.63	20800
804.773	20667
804.915	20754
805.057	20868
805.199	20842
805.341	20872
805.483	20963
805.626	20758
805.768	20811
805.91	20842
806.052	20811
806.194	20773
806.336	20826
806.478	20682
806.62	20830
806.762	20933
806.904	20979
807.046	21218
807.188	21123
807.33	21150
807.472	21169
807.614	21043
807.756	21089
807.898	20705
808.04	20792
808.182	20853
808.324	20887
808.465	20918
808.607	21089
808.749	21093
808.891	21264
809.033	21268
809.174	21287
809.316	21169
809.458	21081
809.6	21214
809.741	21154
809.883	21279
810.025	21268
810.166	21374
810.308	21325
810.45	21264
810.591	21173
810.733	21070
810.875	20921
811.016	20910
811.158	20788
811.299	20910
811.441	21100
811.582	21112
811.724	20876
811.865	20925
812.007	20788
812.148	20880
812.29	20864
812.431	21131
812.573	21154
812.714	21294
812.855	21458
812.997	21557
813.138	21641
813.279	21397
813.421	21485
813.562	21233
813.703	21112
813.845	21070
813.986	20819
814.127	20629
814.268	20473
814.41	20476
814.551	20419
814.692	20476
814.833	20317
814.974	20355
815.115	20431
815.256	20328
815.397	20187
815.539	20313
815.68	20237
815.821	20119
815.962	20343
816.103	20172
816.244	20153
816.385	19928
816.526	19970
816.666	19811
816.807	19601
816.948	19788
817.089	19712
817.23	19613
817.371	19635
817.512	19639
817.653	19693
817.793	19578
817.934	19594
818.075	19597
818.216	19616
818.356	19582
818.497	19419
818.638	19316
818.778	19221
818.919	19240
819.06	19263
819.2	19449
819.341	19518
819.481	19483
819.622	19563
819.762	19860
819.903	19696
820.043	19559
820.184	19567
820.324	19521
820.465	19712
820.605	19613
820.746	19464
820.886	19453
821.026	19658
821.167	19525
821.307	19605
821.447	19525
821.588	19457
821.728	19324
821.868	19118
822.008	18947
822.149	18966
822.289	18905
822.429	18749
822.569	18646
822.709	18620
822.849	18445
822.99	18502
823.13	18323
823.27	18395
823.41	18353
823.55	18285
823.69	18376
823.83	18292
823.97	18277
824.11	18155
824.25	18015
824.389	18038
824.529	18064
824.669	18026
824.809	18239
824.949	18174
825.089	18136
825.228	17988
825.368	17946
825.508	17836
825.648	17855
825.787	17863
825.927	17866
826.067	17798
826.206	17809
826.346	17722
826.485	17828
826.625	17771
826.765	17923
826.904	17961
827.044	17634
827.183	17566
827.323	17471
827.462	17634
827.601	17486
827.741	17433
827.88	17562
828.02	17444
828.159	17490
828.298	17490
828.437	17668
828.577	17387
828.716	17581
828.855	17589
828.994	17200
829.134	17345
829.273	17284
829.412	17174
829.551	17212
829.69	17208
829.829	17265
829.968	17318
830.107	17341
830.246	17235
830.385	17140
830.524	17223
830.663	17060
830.802	16953
830.941	16900
831.08	16850
831.219	17064
831.357	17052
831.496	16938
831.635	16869
831.774	16786
831.913	16748
832.051	16717
832.19	16641
832.329	16672
832.467	16660
832.606	16531
832.744	16626
832.883	16580
833.022	16474
833.16	16531
833.299	16634
833.437	16596
833.576	16538
833.714	16577
833.852	16679
833.991	16664
834.129	16687
834.267	16683
834.406	16504
834.544	16687
834.682	16637
834.821	16660
834.959	16797
835.097	16565
835.235	16660
835.373	16733
835.511	16634
835.65	16603
835.788	16554
835.926	16455
836.064	16325
836.202	16341
836.34	16531
836.478	16694
836.615	16546
836.753	16584
836.891	16512
837.029	16558
837.167	16500
837.305	16508
837.443	16493
837.58	16356
837.718	16485
837.856	16409
837.993	16402
838.131	16318
838.269	16265
838.406	16344
838.544	16284
838.681	16169
838.819	16051
838.956	15968
839.094	15991
839.231	16051
839.369	16109
839.506	16268
839.643	16219
839.781	16059
839.918	15934
840.055	15941
840.193	15960
840.33	15941
840.467	15880
840.604	15968
840.742	16234
840.879	15831
841.016	15873
841.153	15835
841.29	16135
841.427	15892
841.564	16055
841.701	15987
841.838	15926
841.975	15869
842.112	15823
842.249	15781
842.385	15751
842.522	15945
842.659	15743
842.796	15618
842.933	15751
843.069	15682
843.206	15648
843.343	15785
843.479	15660
843.616	15751
843.752	15488
843.889	15515
844.025	15720
844.162	15561
844.298	15576
844.435	15515
844.571	15420
844.708	15610
844.844	15690
844.98	15625
845.117	15644
845.253	15469
845.389	15397
845.525	15405
845.661	15386
845.798	15298
845.934	15405
846.07	15340
846.206	15252
846.342	15450
846.478	15348
846.614	15108
846.75	15116
846.886	15047
847.022	15074
847.158	15093
847.294	15123
847.429	15062
847.565	15028
847.701	15283
847.837	14849
847.972	14815
848.108	14929
848.244	14746
848.379	14750
848.515	14708
848.65	14655
848.786	14663
848.921	14716
849.057	14815
849.192	14743
849.328	14724
849.463	14659
849.598	14629
849.734	14648
849.869	14568
850.004	14469
850.14	14408
850.275	14431
850.41	14275
850.545	14385
850.68	14488
850.815	14476
850.95	14484
851.085	14541
851.22	14507
851.355	14438
851.49	14370
851.625	14423
851.76	14366
851.895	14317
852.03	14305
852.165	14377
852.299	14454
852.434	14541
852.569	14427
852.703	14537
852.838	14583
852.973	14613
853.107	14590
853.242	14454
853.376	14294
853.511	14206
853.645	14336
853.78	14518
853.914	14396
854.048	14275
854.183	14237
854.317	14450
854.451	14545
854.585	14298
854.72	14320
854.854	14355
854.988	14294
855.122	14259
855.256	14210
855.39	14298
855.524	14457
855.658	14343
855.792	14362
855.926	14412
856.06	14389
856.194	14343
856.327	14366
856.461	14233
856.595	14320
856.729	14259
856.862	14336
856.996	14381
857.13	14309
857.263	14499
857.397	14419
857.53	14271
857.664	14457
857.797	14484
857.931	14389
858.064	14301
858.197	14415
858.331	14282
858.464	14313
858.597	14240
858.731	14351
858.864	14278
858.997	14282
859.13	14339
859.263	14278
859.396	14431
859.529	14301
859.662	14248
859.795	14206
859.928	14317
860.061	14431
860.194	14446
860.327	14362
860.46	14320
860.592	14454
860.725	14457
860.858	14450
860.99	14393
861.123	14294
861.256	14244
861.388	14271
861.521	14979
861.653	14100
861.786	14172
861.918	14221
862.05	14191
862.183	14267
862.315	14309
862.447	14400
862.58	14210
862.712	14115
862.844	14062
862.976	14115
863.108	14138
863.24	14457
863.372	14012
863.504	14027
863.636	14092
863.768	14164
863.9	14081
864.032	13982
864.164	14069
864.296	14138
864.428	14206
864.559	14126
864.691	14168
864.823	14145
864.954	14111
865.086	14073
865.217	14206
865.349	13951
865.48	13993
865.612	14081
865.743	14286
865.875	14107
866.006	14073
866.137	14115
866.269	14142
866.4	14001
866.531	14054
866.662	13944
866.793	14058
866.924	13936
867.055	14115
867.186	14081
867.317	14088
867.448	14043
867.579	13997
867.71	13917
867.841	13993
867.972	14046
868.103	14103
868.233	14130
868.364	14024
868.495	14138
868.625	14286
868.756	14370
868.886	14229
869.017	14396
869.147	14400
869.278	14423
869.408	14370
869.539	14339
869.669	14415
869.799	14434
869.929	14480
870.06	14457
870.19	14648
870.32	14598
870.45	14678
870.58	14762
870.71	14823
870.84	14807
870.97	14731
871.1	14743
871.23	14864
871.36	15036
871.489	14807
871.619	14853
871.749	14899
871.879	14975
872.008	15104
872.138	14902
872.267	14826
872.397	14811
872.526	14773
872.656	14777
872.785	14868
872.915	14925
873.044	15020
873.173	15017
873.303	15013
873.432	14918
873.561	15055
873.69	14971
873.819	14944
873.948	15017
874.077	15097
874.206	14853
874.335	14937
874.464	15104
874.593	15291
874.722	15135
874.851	15359
874.979	15367
875.108	15367
875.237	15275
875.365	15214
875.494	15157
875.623	15374
875.751	15344
875.88	15291
876.008	15401
876.136	15553
876.265	15679
876.393	15865
876.521	15778
876.65	15732
876.778	15713
876.906	15587
877.034	15641
877.162	15774
877.29	15675
877.418	15652
877.546	15800
877.674	15682
877.802	15671
877.93	15698
878.058	15667
878.185	15610
878.313	15720
878.441	15675
878.568	15553
878.696	15622
878.824	15720
878.951	15724
879.079	15865
879.206	16002
879.333	15823
879.461	15797
879.588	15766
879.715	16013
879.842	15998
879.97	15736
880.097	15500
880.224	15538
880.351	15610
880.478	15545
880.605	15553
880.732	15511
880.859	15766
880.986	15568
881.112	15633
881.239	15435
881.366	15344
881.493	15195
881.619	15252
881.746	15085
881.872	15230
881.999	15169
882.125	15142
882.252	15233
882.378	15241
882.505	15386
882.631	15154
882.757	14910
882.883	15097
883.01	15066
883.136	15009
883.262	14937
883.388	14883
883.514	15066
883.64	15062
883.766	15047
883.892	14720
884.018	14716
884.143	15020
884.269	15081
884.395	14781
884.52	14651
884.646	14845
884.772	14708
884.897	14632
885.023	14746
885.148	14819
885.274	14887
885.399	14743
885.524	14708
885.65	14697
885.775	14743
885.9	14648
886.025	14853
886.15	14686
886.275	14735
886.4	14610
886.525	14545
886.65	14670
886.775	14590
886.9	14853
887.025	14948
887.149	14758
887.274	14594
887.399	14492
887.523	14522
887.648	14511
887.773	14412
887.897	14739
888.021	14518
888.146	14545
888.27	14629
888.395	14746
888.519	14484
888.643	14644
888.767	14667
888.891	14480
889.015	14404
889.139	14434
889.263	14328
889.387	14579
889.511	14708
889.635	14488
889.759	14404
889.883	14370
890.006	14381
890.13	14594
890.254	14336
890.377	14347
890.501	14362
890.624	14111
890.748	14336
890.871	14187
890.995	14084
891.118	14126
891.241	14134
891.364	14142
891.488	14267
891.611	14142
891.734	14153
891.857	14157
891.98	14119
892.103	14233
892.226	14237
892.349	14107
892.471	13921
892.594	14084
892.717	14092
892.839	14027
892.962	14134
893.085	14168
893.207	14111
893.33	13963
893.452	14020
893.575	14161
893.697	14115
893.819	14286
893.941	14358
894.064	14294
894.186	14073
894.308	14088
894.43	14206
894.552	14225
894.674	14225
894.796	14107
894.918	14126
895.04	14202
895.161	14317
895.283	14130
895.405	14164
895.526	14191
895.648	14317
895.769	14157
895.891	14267
896.012	14404
896.134	14278
896.255	14221
896.376	14233
896.498	14328
896.619	14336
896.74	14366
896.861	14393
896.982	14564
897.103	14762
897.224	14552
897.345	14480
897.466	14495
897.587	14476
897.708	14632
897.828	14632
897.949	14610
898.07	14427
898.19	14488
898.311	14590
898.431	14610
898.552	14579
898.672	14762
898.792	14655
898.913	14678
899.033	14480
899.153	14419
899.273	14351
899.393	14495
899.513	14454
899.633	14499
899.753	14556
899.873	14537
899.993	14564
900.113	14480
900.232	14461
900.352	14427
900.472	14499
900.591	14290
900.711	14328
900.83	14259
900.95	14415
901.069	14533
901.189	14305
901.308	14187
901.427	14058
901.546	13955
901.665	14008
901.784	14073
901.904	13963
902.023	13871
902.141	13674
902.26	13628
902.379	13666
902.498	13590
902.617	13616
902.735	13693
902.854	13605
902.973	13567
903.091	13266
903.21	13285
903.328	13289
903.446	13285
903.565	13206
903.683	13183
903.801	13065
903.919	13152
904.038	13190
904.156	13012
904.274	13046
904.392	13008
904.51	12875
904.627	12939
904.745	13088
904.863	13034
904.981	12798
905.098	12684
905.216	12677
905.334	12715
905.451	12681
905.569	12578
905.686	12730
905.803	12726
905.921	12525
906.038	12642
906.155	12551
906.272	12486
906.389	12452
906.506	12232
906.623	12296
906.74	12262
906.857	12167
906.974	12201
907.091	12380
907.208	12448
907.324	12342
907.441	12159
907.557	12019
907.674	12022
907.79	12026
907.907	12019
908.023	12091
908.139	12034
908.256	11980
908.372	11920
908.488	11889
908.604	11714
908.72	11775
908.836	11794
908.952	11771
909.068	11866
909.184	11935
909.3	11840
909.415	11805
909.531	11882
909.647	11554
909.762	11535
909.878	11558
909.993	11630
910.108	11592
910.224	11539
910.339	11592
910.454	11532
910.57	11368
910.685	11349
910.8	11707
910.915	11562
911.03	11471
911.145	11250
911.259	11280
911.374	11360
911.489	11239
911.604	11105
911.718	11052
911.833	11056
911.947	10946
912.062	10835
912.176	10995
912.291	11079
912.405	11102
912.519	11193
912.633	11254
912.748	11071
912.862	11067
912.976	10957
913.09	10797
913.204	10843
913.318	10949
913.431	10976
913.545	10987
913.659	11010
913.772	10949
913.886	10885
914	10748
914.113	10934
914.226	10953
914.34	10915
914.453	10729
914.566	10835
914.68	10710
914.793	10748
914.906	10618
915.019	10538
915.132	10485
915.245	10554
915.358	10554
915.47	10622
915.583	10561
915.696	10691
915.809	10668
915.921	10759
916.034	10489
916.146	10535
916.259	10455
916.371	10512
916.483	10542
916.595	10550
916.708	10497
916.82	10508
916.932	10481
917.044	10470
917.156	10462
917.268	10356
917.38	10390
917.491	10310
917.603	10424
917.715	10485
917.826	10489
917.938	10356
918.049	10238
918.161	10325
918.272	10512
918.384	10508
918.495	10375
918.606	10261
918.717	10112
918.828	10295
918.939	10181
919.05	10246
919.161	10169
919.272	10029
919.383	10120
919.494	10303
919.604	10459
919.715	10188
919.826	10124
919.936	10253
920.047	10329
920.157	10329
920.267	10428
920.378	10337
920.488	10215
920.598	10481
920.708	10577
920.818	10554
920.928	10478
921.038	10615
921.148	10558
921.258	10356
921.368	10246
921.477	10204
921.587	10078
921.697	9998
921.806	10166
921.916	10059
922.025	9835
922.134	9785
922.244	9751
922.353	9861
922.462	9606
922.571	9618
922.68	9599
922.789	9519
922.898	9519
923.007	9405
923.116	9511
923.224	9507
923.333	9485
923.442	9424
923.55	9405
923.659	9439
923.767	9488
923.876	9389
923.984	9408
924.092	9275
924.201	9351
924.309	9344
924.417	9389
924.525	9336
924.633	9367
924.741	10093
924.849	9195
924.956	9211
925.064	9146
925.172	9138
925.279	9089
925.387	9241
925.494	9108
925.602	9268
925.709	9268
925.816	9188
925.924	9138
926.031	9241
926.138	9154
926.245	9237
926.352	9070
926.459	9294
926.566	9302
926.673	9245
926.779	9051
926.886	9028
926.993	8971
927.099	8918
927.206	8918
927.312	8823
927.419	8948
927.525	8891
927.631	8979
927.737	8868
927.843	8766
927.95	8667
928.056	8724
928.162	8788
928.267	8777
928.373	9485
928.479	8849
928.585	8663
928.69	8773
928.796	8743
928.901	8686
929.007	8575
929.112	8731
929.218	8689
929.323	8689
929.428	8613
929.533	8712
929.638	8560
929.743	8545
929.848	8613
929.953	8602
930.058	8499
930.163	8339
930.267	8385
930.372	8541
930.477	8374
930.581	8625
930.685	8442
930.79	8290
930.894	8343
930.998	8267
931.103	8476
931.207	8065
931.311	8077
931.415	7993
931.519	7807
931.623	7811
