Data from test_V78500241_1180.txt Node
Date: Fri Mar 25 14:41:55 CST 2022
User: usil
Spectrometer: V785-0024
Trigger mode: 0
Integration Time (sec): 4.000000E-1
Scans to average: 1
Nonlinearity correction enabled: false
Boxcar width: 0
Storing dark spectrum: false
XAxis mode: Wavelengths
Number of Pixels in Spectrum: 1024
>>>>>Begin Spectral Data<<<<<
801.071	22436
801.214	22462
801.356	22109
801.499	22116
801.641	21934
801.783	21732
801.926	21895
802.068	21747
802.211	21625
802.353	21488
802.496	21344
802.638	21336
802.78	21260
802.923	21329
803.065	21207
803.208	21142
803.35	21169
803.492	21188
803.635	21211
803.777	21150
803.919	21222
804.061	21530
804.204	21211
804.346	21116
804.488	21036
804.63	20971
804.773	20982
804.915	21100
805.057	21294
805.199	21043
805.341	21062
805.483	21222
805.626	21283
805.768	21055
805.91	21077
806.052	21066
806.194	20967
806.336	21146
806.478	21176
806.62	21043
806.762	21100
806.904	21348
807.046	21515
807.188	21538
807.33	21542
807.472	21428
807.614	21348
807.756	21466
807.898	21230
808.04	21165
808.182	21214
808.324	21291
808.465	21287
808.607	21462
808.749	21576
808.891	21739
809.033	21705
809.174	21610
809.316	21500
809.458	21549
809.6	21530
809.741	21675
809.883	21542
810.025	21743
810.166	21671
810.308	21751
810.45	21663
810.591	21526
810.733	21454
810.875	21195
811.016	21252
811.158	21116
811.299	21298
811.441	21526
811.582	21378
811.724	21416
811.865	21176
812.007	21256
812.148	21252
812.29	21374
812.431	21435
812.573	21614
812.714	21561
812.855	21774
812.997	21880
813.138	21991
813.279	21808
813.421	21781
813.562	21682
813.703	21466
813.845	21344
813.986	21051
814.127	20998
814.268	20948
814.41	20933
814.551	20800
814.692	20918
814.833	20781
814.974	20819
815.115	20861
815.256	20602
815.397	20750
815.539	20674
815.68	20552
815.821	20511
815.962	20571
816.103	20476
816.244	20377
816.385	20278
816.526	20252
816.666	20206
816.807	19947
816.948	20176
817.089	20012
817.23	20107
817.371	20039
817.512	20016
817.653	20001
817.793	19837
817.934	19944
818.075	20008
818.216	19974
818.356	19944
818.497	19906
818.638	19658
818.778	19616
818.919	19647
819.06	19662
819.2	19761
819.341	19845
819.481	19826
819.622	19925
819.762	20031
819.903	20058
820.043	19989
820.184	19970
820.324	19967
820.465	20016
820.605	20062
820.746	20024
820.886	19814
821.026	19932
821.167	19898
821.307	20046
821.447	19909
821.588	19704
821.728	19609
821.868	19658
822.008	19495
822.149	19354
822.289	19274
822.429	19209
822.569	19004
822.709	19141
822.849	18981
822.99	18856
823.13	18810
823.27	18958
823.41	18749
823.55	18631
823.69	18669
823.83	18711
823.97	18574
824.11	18635
824.25	18467
824.389	18551
824.529	18532
824.669	18486
824.809	18681
824.949	18593
825.089	18460
825.228	18574
825.368	18384
825.508	18376
825.648	18304
825.787	18319
825.927	18296
826.067	18228
826.206	18235
826.346	18292
826.485	18277
826.625	18190
826.765	18380
826.904	18194
827.044	18072
827.183	17996
827.323	17954
827.462	18125
827.601	17950
827.741	17931
827.88	17961
828.02	17908
828.159	17984
828.298	18007
828.437	18049
828.577	17988
828.716	18178
828.855	17965
828.994	17687
829.134	17783
829.273	17920
829.412	17699
829.551	17707
829.69	17703
829.829	17722
829.968	17805
830.107	17813
830.246	17726
830.385	17661
830.524	17646
830.663	17452
830.802	17459
830.941	17410
831.08	17269
831.219	17398
831.357	17414
831.496	17577
831.635	17303
831.774	17280
831.913	17181
832.051	17200
832.19	17136
832.329	17216
832.467	16957
832.606	16923
832.744	17056
832.883	17124
833.022	17045
833.16	17102
833.299	17086
833.437	17105
833.576	17060
833.714	16976
833.852	17204
833.991	17075
834.129	17178
834.267	17143
834.406	17083
834.544	17166
834.682	17124
834.821	17166
834.959	17204
835.097	17045
835.235	17189
835.373	17128
835.511	17064
835.65	17010
835.788	17102
835.926	16854
836.064	16820
836.202	16862
836.34	17102
836.478	17094
836.615	16961
836.753	17045
836.891	17098
837.029	17090
837.167	16984
837.305	16854
837.443	16946
837.58	16763
837.718	16972
837.856	16927
837.993	16805
838.131	16847
838.269	16755
838.406	16664
838.544	16672
838.681	16573
838.819	16588
838.956	16443
839.094	16398
839.231	16493
839.369	16497
839.506	16869
839.643	16672
839.781	16451
839.918	16287
840.055	16402
840.193	16424
840.33	16371
840.467	16394
840.604	16451
840.742	16653
840.879	16333
841.016	16325
841.153	16310
841.29	16550
841.427	16432
841.564	16367
841.701	16421
841.838	16356
841.975	16310
842.112	16333
842.249	16177
842.385	16185
842.522	16284
842.659	16139
842.796	16120
842.933	16188
843.069	16169
843.206	16154
843.343	16276
843.479	16257
843.616	16253
843.752	15953
843.889	15895
844.025	16173
844.162	15964
844.298	16101
844.435	15979
844.571	15960
844.708	15941
844.844	16207
844.98	16135
845.117	16082
845.253	15960
845.389	15846
845.525	15915
845.661	15861
845.798	15838
845.934	15979
846.07	15937
846.206	15991
846.342	15949
846.478	15907
846.614	15595
846.75	15523
846.886	15507
847.022	15614
847.158	15584
847.294	15523
847.429	15587
847.565	15572
847.701	15785
847.837	15306
847.972	15222
848.108	15405
848.244	15408
848.379	15237
848.515	15188
848.65	15100
848.786	15222
848.921	15097
849.057	15233
849.192	15252
849.328	15211
849.463	15161
849.598	15043
849.734	14979
849.869	14899
850.004	14967
850.14	14975
850.275	14845
850.41	14800
850.545	14880
850.68	14982
850.815	14925
850.95	14876
851.085	15047
851.22	14971
851.355	14952
851.49	14937
851.625	14838
851.76	14838
851.895	14781
852.03	14853
852.165	14845
852.299	14876
852.434	14921
852.569	14925
852.703	15001
852.838	14948
852.973	15051
853.107	15047
853.242	14914
853.376	14952
853.511	14667
853.645	14746
853.78	14807
853.914	14838
854.048	14697
854.183	14826
854.317	14807
854.451	14960
854.585	14712
854.72	14788
854.854	14887
854.988	14727
855.122	14788
855.256	14629
855.39	14800
855.524	14777
855.658	14823
855.792	14712
855.926	14838
856.06	14849
856.194	14914
856.327	14739
856.461	14739
856.595	14724
856.729	14667
856.862	14804
856.996	14777
857.13	14849
857.263	14967
857.397	14925
857.53	14819
857.664	14735
857.797	14876
857.931	14864
858.064	14804
858.197	14880
858.331	14644
858.464	14746
858.597	14724
858.731	14743
858.864	14708
858.997	14712
859.13	14887
859.263	14883
859.396	14906
859.529	14697
859.662	14743
859.795	14727
859.928	14807
860.061	14902
860.194	15097
860.327	14788
860.46	14735
860.592	14861
860.725	14895
860.858	14830
860.99	14727
861.123	14712
861.256	14686
861.388	14754
861.521	15485
861.653	14594
861.786	14541
861.918	14693
862.05	14644
862.183	14712
862.315	14705
862.447	14720
862.58	14678
862.712	14480
862.844	14583
862.976	14583
863.108	14617
863.24	15043
863.372	14427
863.504	14541
863.636	14503
863.768	14568
863.9	14507
864.032	14511
864.164	14507
864.296	14537
864.428	14648
864.559	14598
864.691	14583
864.823	14594
864.954	14606
865.086	14530
865.217	14575
865.349	14461
865.48	14495
865.612	14507
865.743	14629
865.875	14530
866.006	14492
866.137	14480
866.269	14488
866.4	14583
866.531	14511
866.662	14412
866.793	14503
866.924	14552
867.055	14560
867.186	14571
867.317	14495
867.448	14415
867.579	14514
867.71	14366
867.841	14358
867.972	14442
868.103	14492
868.233	14522
868.364	14545
868.495	14530
868.625	14693
868.756	14785
868.886	14705
869.017	14720
869.147	14853
869.278	14853
869.408	14788
869.539	14735
869.669	14864
869.799	14716
869.929	14868
870.06	14891
870.19	15047
870.32	15055
870.45	15039
870.58	15097
870.71	15123
870.84	15355
870.97	15157
871.1	15199
871.23	15306
871.36	15348
871.489	15249
871.619	15294
871.749	15351
871.879	15351
872.008	15469
872.138	15302
872.267	15287
872.397	15161
872.526	15176
872.656	15131
872.785	15249
872.915	15287
873.044	15504
873.173	15359
873.303	15310
873.432	15473
873.561	15466
873.69	15568
873.819	15370
873.948	15469
874.077	15393
874.206	15325
874.335	15504
874.464	15603
874.593	15732
874.722	15652
874.851	15694
874.979	15667
875.108	15728
875.237	15686
875.365	15679
875.494	15637
875.623	15747
875.751	15614
875.88	15720
876.008	15835
876.136	15941
876.265	16188
876.393	16196
876.521	16135
876.65	16150
876.778	15998
876.906	16048
877.034	15968
877.162	16074
877.29	15949
877.418	16181
877.546	16150
877.674	16101
877.802	16124
877.93	16139
878.058	16124
878.185	15968
878.313	16109
878.441	16150
878.568	15922
878.696	16040
878.824	16196
878.951	16287
879.079	16341
879.206	16493
879.333	16226
879.461	16337
879.588	16371
879.715	16443
879.842	16519
879.97	16352
880.097	16006
880.224	15972
880.351	16010
880.478	15998
880.605	15956
880.732	16029
880.859	16196
880.986	16055
881.112	16013
881.239	15816
881.366	15789
881.493	15637
881.619	15686
881.746	15682
881.872	15660
881.999	15534
882.125	15652
882.252	15663
882.378	15564
882.505	15804
882.631	15568
882.757	15420
882.883	15469
883.01	15500
883.136	15359
883.262	15329
883.388	15367
883.514	15447
883.64	15587
883.766	15298
883.892	15268
884.018	15321
884.143	15389
884.269	15515
884.395	15252
884.52	15070
884.646	15218
884.772	15180
884.897	15055
885.023	15192
885.148	15321
885.274	15237
885.399	15275
885.524	15157
885.65	15207
885.775	15184
885.9	15062
886.025	15142
886.15	15127
886.275	15142
886.4	15070
886.525	15154
886.65	15043
886.775	15032
886.9	15313
887.025	15397
887.149	15123
887.274	14994
887.399	14910
887.523	15013
887.648	14960
887.773	14842
887.897	14971
888.021	15036
888.146	14872
888.27	15036
888.395	15032
888.519	14986
888.643	14975
888.767	14967
888.891	14967
889.015	14861
889.139	14929
889.263	14781
889.387	14906
889.511	15169
889.635	14842
889.759	14830
889.883	14796
890.006	14773
890.13	14899
890.254	14682
890.377	14708
890.501	14560
890.624	14712
890.748	14617
890.871	14526
890.995	14374
891.118	14370
891.241	14549
891.364	14465
891.488	14583
891.611	14613
891.734	14518
891.857	14568
891.98	14549
892.103	14575
892.226	14511
892.349	14415
892.471	14404
892.594	14545
892.717	14480
892.839	14495
892.962	14560
893.085	14495
893.207	14537
893.33	14355
893.452	14419
893.575	14469
893.697	14454
893.819	14644
893.941	14739
894.064	14697
894.186	14442
894.308	14461
894.43	14568
894.552	14686
894.674	14724
894.796	14480
894.918	14530
895.04	14434
895.161	14712
895.283	14606
895.405	14533
895.526	14575
895.648	14644
895.769	14731
895.891	14644
896.012	14670
896.134	14765
896.255	14629
896.376	14644
896.498	14754
896.619	14720
896.74	14610
896.861	14762
896.982	15028
897.103	15085
897.224	14975
897.345	14921
897.466	14895
897.587	14899
897.708	15009
897.828	14990
897.949	14914
898.07	14804
898.19	14975
898.311	15116
898.431	14971
898.552	15001
898.672	15074
898.792	15127
898.913	15081
899.033	14918
899.153	14876
899.273	14651
899.393	14857
899.513	14883
899.633	14823
899.753	14861
899.873	14777
899.993	14937
900.113	14777
900.232	15020
900.352	14735
900.472	14804
900.591	14564
900.711	14708
900.83	14693
900.95	14758
901.069	14899
901.189	14632
901.308	14427
901.427	14275
901.546	14473
901.665	14442
901.784	14404
901.904	14244
902.023	14157
902.141	14020
902.26	13997
902.379	14073
902.498	13970
902.617	13925
902.735	14020
902.854	13887
902.973	13837
903.091	13632
903.21	13655
903.328	13601
903.446	13582
903.565	13514
903.683	13559
903.801	13411
903.919	13457
904.038	13491
904.156	13350
904.274	13377
904.392	13350
904.51	13255
904.627	13297
904.745	13282
904.863	13308
904.981	13122
905.098	12935
905.216	12951
905.334	13042
905.451	12985
905.569	12973
905.686	13118
905.803	13107
905.921	12791
906.038	12852
906.155	12802
906.272	12658
906.389	12806
906.506	12578
906.623	12559
906.74	12593
906.857	12525
906.974	12471
907.091	12677
907.208	12703
907.324	12604
907.441	12464
907.557	12300
907.674	12350
907.79	12330
907.907	12334
908.023	12315
908.139	12395
908.256	12281
908.372	12235
908.488	12228
908.604	12148
908.72	11992
908.836	12053
908.952	12083
909.068	12117
909.184	12167
909.3	12110
909.415	12182
909.531	12076
909.647	11863
909.762	11927
909.878	11855
909.993	11897
910.108	11859
910.224	11874
910.339	11935
910.454	11802
910.57	11661
910.685	11688
910.8	11923
910.915	11828
911.03	11752
911.145	11535
911.259	11547
911.374	11581
911.489	11406
911.604	11486
911.718	11277
911.833	11296
911.947	11269
912.062	11117
912.176	11227
912.291	11349
912.405	11235
912.519	11463
912.633	11455
912.748	11345
912.862	11258
912.976	11235
913.09	11105
913.204	11075
913.318	11102
913.431	11250
913.545	11299
913.659	11220
913.772	11155
913.886	11075
914	11037
914.113	11284
914.226	11128
914.34	11121
914.453	10976
914.566	11121
914.68	11037
914.793	10904
914.906	10748
915.019	10755
915.132	10660
915.245	10748
915.358	10904
915.47	10778
915.583	10850
915.696	10824
915.809	10923
915.921	10927
916.034	10778
916.146	10729
916.259	10694
916.371	10843
916.483	10744
916.595	10717
916.708	10710
916.82	10714
916.932	10725
917.044	10729
917.156	10611
917.268	10622
917.38	10577
917.491	10554
917.603	10653
917.715	10706
917.826	10759
917.938	10584
918.049	10466
918.161	10535
918.272	10744
918.384	10759
918.495	10603
918.606	10432
918.717	10417
918.828	10440
918.939	10512
919.05	10432
919.161	10379
919.272	10242
919.383	10337
919.494	10565
919.604	10706
919.715	10512
919.826	10485
919.936	10497
920.047	10577
920.157	10508
920.267	10687
920.378	10542
920.488	10474
920.598	10725
920.708	10839
920.818	10535
920.928	10641
921.038	10767
921.148	10866
921.258	10443
921.368	10462
921.477	10306
921.587	10291
921.697	10257
921.806	10379
921.916	10242
922.025	10013
922.134	10059
922.244	9949
922.353	10067
922.462	9915
922.571	9861
922.68	9762
922.789	9717
922.898	9713
923.007	9705
923.116	9671
923.224	9690
923.333	9720
923.442	9618
923.55	9610
923.659	9587
923.767	9701
923.876	9603
923.984	9686
924.092	9572
924.201	9618
924.309	9584
924.417	9542
924.525	9564
924.633	9625
924.741	10246
924.849	9317
924.956	9519
925.064	9382
925.172	9310
925.279	9329
925.387	9355
925.494	9336
925.602	9462
925.709	9431
925.816	9306
925.924	9367
926.031	9424
926.138	9424
926.245	9431
926.352	9310
926.459	9397
926.566	9454
926.673	9321
926.779	9279
926.886	9237
926.993	9161
927.099	9055
927.206	9085
927.312	9028
927.419	9127
927.525	9097
927.631	9146
927.737	8952
927.843	8967
927.95	8849
928.056	8933
928.162	8944
928.267	8971
928.373	9557
928.479	9062
928.585	8868
928.69	8899
928.796	8967
928.901	8849
929.007	8762
929.112	8914
929.218	8819
929.323	8735
929.428	8769
929.533	8906
929.638	8720
929.743	8667
929.848	8785
929.953	8773
930.058	8724
930.163	8507
930.267	8556
930.372	8670
930.477	8514
930.581	8705
930.685	8598
930.79	8484
930.894	8552
930.998	8446
931.103	8693
931.207	8221
931.311	8229
931.415	8191
931.519	8008
931.623	7989
