Data from test_V78500241_2494.txt Node
Date: Fri Mar 25 14:51:04 CST 2022
User: usil
Spectrometer: V785-0024
Trigger mode: 0
Integration Time (sec): 4.000000E-1
Scans to average: 1
Nonlinearity correction enabled: false
Boxcar width: 0
Storing dark spectrum: false
XAxis mode: Wavelengths
Number of Pixels in Spectrum: 1024
>>>>>Begin Spectral Data<<<<<
801.071	22086
801.214	21869
801.356	21728
801.499	21667
801.641	21435
801.783	21450
801.926	21511
802.068	21302
802.211	21405
802.353	21237
802.496	20952
802.638	20998
802.78	20796
802.923	20838
803.065	20670
803.208	20701
803.35	20602
803.492	20872
803.635	20986
803.777	20777
803.919	20807
804.061	21005
804.204	20762
804.346	20773
804.488	20689
804.63	20705
804.773	20674
804.915	20724
805.057	20705
805.199	20632
805.341	20640
805.483	20823
805.626	20765
805.768	20659
805.91	20861
806.052	20640
806.194	20697
806.336	20769
806.478	20648
806.62	20621
806.762	20693
806.904	20910
807.046	21058
807.188	20994
807.33	21055
807.472	21055
807.614	20929
807.756	20895
807.898	20891
808.04	20708
808.182	20777
808.324	20804
808.465	20891
808.607	21039
808.749	21047
808.891	21157
809.033	21165
809.174	21096
809.316	21108
809.458	21203
809.6	20883
809.741	21161
809.883	21195
810.025	21123
810.166	21192
810.308	21226
810.45	21173
810.591	21020
810.733	20937
810.875	20937
811.016	20864
811.158	20693
811.299	20887
811.441	20921
811.582	20937
811.724	20895
811.865	20678
812.007	20716
812.148	20804
812.29	20716
812.431	20861
812.573	21138
812.714	21275
812.855	21249
812.997	21580
813.138	21603
813.279	21439
813.421	21306
813.562	21169
813.703	21024
813.845	21055
813.986	20686
814.127	20579
814.268	20377
814.41	20427
814.551	20313
814.692	20545
814.833	20278
814.974	20434
815.115	20336
815.256	20164
815.397	20202
815.539	20267
815.68	20157
815.821	20054
815.962	20134
816.103	20058
816.244	19902
816.385	19784
816.526	19841
816.666	19632
816.807	19628
816.948	19571
817.089	19601
817.23	19544
817.371	19499
817.512	19464
817.653	19487
817.793	19506
817.934	19476
818.075	19502
818.216	19487
818.356	19502
818.497	19312
818.638	19129
818.778	19171
818.919	19244
819.06	19282
819.2	19316
819.341	19533
819.481	19335
819.622	19537
819.762	19727
819.903	19605
820.043	19658
820.184	19567
820.324	19518
820.465	19502
820.605	19453
820.746	19453
820.886	19343
821.026	19563
821.167	19483
821.307	19540
821.447	19350
821.588	19392
821.728	19244
821.868	19019
822.008	18966
822.149	18951
822.289	18848
822.429	18639
822.569	18483
822.709	18574
822.849	18319
822.99	18311
823.13	18422
823.27	18380
823.41	18155
823.55	18182
823.69	18266
823.83	18155
823.97	18068
824.11	17946
824.25	17992
824.389	18019
824.529	17965
824.669	17946
824.809	18087
824.949	18034
825.089	17999
825.228	17950
825.368	17756
825.508	17863
825.648	17752
825.787	17707
825.927	17726
826.067	17695
826.206	17752
826.346	17748
826.485	17870
826.625	17619
826.765	17775
826.904	17802
827.044	17532
827.183	17501
827.323	17341
827.462	17497
827.601	17440
827.741	17349
827.88	17524
828.02	17330
828.159	17406
828.298	17490
828.437	17391
828.577	17353
828.716	17600
828.855	17391
828.994	17254
829.134	17132
829.273	17292
829.412	17128
829.551	17094
829.69	17159
829.829	17162
829.968	17273
830.107	17231
830.246	17261
830.385	17105
830.524	17098
830.663	17037
830.802	16961
830.941	16782
831.08	16668
831.219	16927
831.357	16923
831.496	17105
831.635	16713
831.774	16675
831.913	16675
832.051	16607
832.19	16569
832.329	16721
832.467	16577
832.606	16455
832.744	16443
832.883	16436
833.022	16348
833.16	16478
833.299	16497
833.437	16584
833.576	16523
833.714	16470
833.852	16698
833.991	16573
834.129	16710
834.267	16611
834.406	16542
834.544	16599
834.682	16554
834.821	16455
834.959	16736
835.097	16516
835.235	16603
835.373	16531
835.511	16542
835.65	16523
835.788	16402
835.926	16257
836.064	16219
836.202	16272
836.34	16474
836.478	16493
836.615	16459
836.753	16493
836.891	16580
837.029	16462
837.167	16417
837.305	16447
837.443	16299
837.58	16329
837.718	16337
837.856	16314
837.993	16173
838.131	16318
838.269	16192
838.406	16223
838.544	16238
838.681	16032
838.819	15956
838.956	15975
839.094	15892
839.231	15911
839.369	16048
839.506	16226
839.643	16093
839.781	15823
839.918	15778
840.055	15892
840.193	15873
840.33	15819
840.467	15934
840.604	15888
840.742	16139
840.879	15637
841.016	15713
841.153	15701
841.29	15949
841.427	15880
841.564	15907
841.701	15945
841.838	15854
841.975	15797
842.112	15865
842.249	15671
842.385	15694
842.522	15884
842.659	15762
842.796	15557
842.933	15610
843.069	15564
843.206	15591
843.343	15743
843.479	15610
843.616	15747
843.752	15481
843.889	15447
844.025	15511
844.162	15435
844.298	15504
844.435	15477
844.571	15504
844.708	15545
844.844	15450
844.98	15564
845.117	15553
845.253	15351
845.389	15291
845.525	15329
845.661	15363
845.798	15260
845.934	15165
846.07	15097
846.206	15260
846.342	15393
846.478	15272
846.614	14948
846.75	15043
846.886	15020
847.022	15097
847.158	15108
847.294	14998
847.429	15119
847.565	14925
847.701	15154
847.837	14769
847.972	14712
848.108	14868
848.244	14857
848.379	14606
848.515	14621
848.65	14636
848.786	14598
848.921	14674
849.057	14716
849.192	14815
849.328	14644
849.463	14629
849.598	14621
849.734	14507
849.869	14518
850.004	14347
850.14	14400
850.275	14332
850.41	14339
850.545	14434
850.68	14377
850.815	14366
850.95	14427
851.085	14503
851.22	14461
851.355	14263
851.49	14339
851.625	14294
851.76	14389
851.895	14142
852.03	14229
852.165	14393
852.299	14320
852.434	14450
852.569	14408
852.703	14332
852.838	14465
852.973	14518
853.107	14499
853.242	14309
853.376	14347
853.511	14164
853.645	14103
853.78	14339
853.914	14240
854.048	14176
854.183	14252
854.317	14320
854.451	14427
854.585	14237
854.72	14301
854.854	14263
854.988	14138
855.122	14206
855.256	14187
855.39	14202
855.524	14237
855.658	14256
855.792	14301
855.926	14347
856.06	14347
856.194	14446
856.327	14214
856.461	14259
856.595	14263
856.729	14214
856.862	14336
856.996	14252
857.13	14389
857.263	14393
857.397	14286
857.53	14252
857.664	14248
857.797	14324
857.931	14438
858.064	14301
858.197	14370
858.331	14248
858.464	14111
858.597	14183
858.731	14278
858.864	14172
858.997	14142
859.13	14267
859.263	14298
859.396	14294
859.529	14286
859.662	14229
859.795	14309
859.928	14286
860.061	14434
860.194	14480
860.327	14278
860.46	14183
860.592	14396
860.725	14415
860.858	14286
860.99	14290
861.123	14187
861.256	14164
861.388	14267
861.521	14800
861.653	14210
861.786	14119
861.918	14153
862.05	14103
862.183	14210
862.315	14252
862.447	14366
862.58	14237
862.712	14069
862.844	13970
862.976	14069
863.108	14046
863.24	14305
863.372	14001
863.504	14035
863.636	14016
863.768	14008
863.9	14031
864.032	13913
864.164	14081
864.296	14043
864.428	14138
864.559	14084
864.691	14069
864.823	14073
864.954	14157
865.086	14088
865.217	14020
865.349	14005
865.48	14027
865.612	14073
865.743	14149
865.875	13997
866.006	14058
866.137	13963
866.269	13959
866.4	14062
866.531	14016
866.662	13913
866.793	14012
866.924	14077
867.055	13940
867.186	14005
867.317	13963
867.448	13902
867.579	14054
867.71	14058
867.841	13887
867.972	14069
868.103	14062
868.233	14046
868.364	13993
868.495	14088
868.625	14164
868.756	14343
868.886	14183
869.017	14244
869.147	14427
869.278	14320
869.408	14252
869.539	14290
869.669	14271
869.799	14305
869.929	14358
870.06	14408
870.19	14564
870.32	14579
870.45	14549
870.58	14625
870.71	14765
870.84	14758
870.97	14625
871.1	14648
871.23	14743
871.36	14849
871.489	14686
871.619	14876
871.749	14720
871.879	14796
872.008	15020
872.138	14910
872.267	14868
872.397	14678
872.526	14636
872.656	14716
872.785	14701
872.915	14864
873.044	14979
873.173	14861
873.303	14883
873.432	14830
873.561	15028
873.69	14933
873.819	14971
873.948	14861
874.077	14910
874.206	14887
874.335	14979
874.464	15039
874.593	15226
874.722	15127
874.851	15317
874.979	15161
875.108	15298
875.237	15116
875.365	15123
875.494	15165
875.623	15332
875.751	15298
875.88	15287
876.008	15424
876.136	15443
876.265	15637
876.393	15743
876.521	15705
876.65	15728
876.778	15629
876.906	15580
877.034	15557
877.162	15591
877.29	15622
877.418	15637
877.546	15682
877.674	15641
877.802	15637
877.93	15633
878.058	15652
878.185	15420
878.313	15576
878.441	15641
878.568	15504
878.696	15519
878.824	15667
878.951	15713
879.079	15850
879.206	16093
879.333	15812
879.461	15698
879.588	15781
879.715	15789
879.842	15838
879.97	15732
880.097	15481
880.224	15386
880.351	15591
880.478	15553
880.605	15511
880.732	15496
880.859	15717
880.986	15637
881.112	15538
881.239	15401
881.366	15310
881.493	15169
881.619	15081
881.746	15260
881.872	15135
881.999	15135
882.125	15074
882.252	15245
882.378	15180
882.505	15146
882.631	15074
882.757	14906
882.883	15108
883.01	14925
883.136	14868
883.262	14849
883.388	14788
883.514	14929
883.64	15036
883.766	14941
883.892	14792
884.018	14804
884.143	14910
884.269	14979
884.395	14792
884.52	14648
884.646	14632
884.772	14598
884.897	14480
885.023	14689
885.148	14720
885.274	14777
885.399	14910
885.524	14663
885.65	14678
885.775	14743
885.9	14701
886.025	14785
886.15	14792
886.275	14632
886.4	14575
886.525	14613
886.65	14583
886.775	14625
886.9	14804
887.025	14960
887.149	14670
887.274	14552
887.399	14408
887.523	14450
887.648	14473
887.773	14404
887.897	14488
888.021	14530
888.146	14351
888.27	14533
888.395	14590
888.519	14530
888.643	14556
888.767	14530
888.891	14355
889.015	14320
889.139	14457
889.263	14336
889.387	14484
889.511	14556
889.635	14457
889.759	14320
889.883	14263
890.006	14393
890.13	14492
890.254	14225
890.377	14332
890.501	14221
890.624	14199
890.748	14214
890.871	14172
890.995	14100
891.118	13989
891.241	14142
891.364	14062
891.488	14183
891.611	14126
891.734	14043
891.857	14123
891.98	14123
892.103	14073
892.226	14039
892.349	14069
892.471	13917
892.594	14096
892.717	14103
892.839	14058
892.962	14130
893.085	14130
893.207	14031
893.33	13963
893.452	13997
893.575	14119
893.697	14103
893.819	14153
893.941	14244
894.064	14210
894.186	14012
894.308	14084
894.43	14187
894.552	14282
894.674	14157
894.796	14062
894.918	14145
895.04	14107
895.161	14195
895.283	14149
895.405	14081
895.526	14187
895.648	14142
895.769	14161
895.891	14210
896.012	14244
896.134	14252
896.255	14214
896.376	14199
896.498	14164
896.619	14237
896.74	14134
896.861	14259
896.982	14575
897.103	14705
897.224	14495
897.345	14488
897.466	14461
897.587	14545
897.708	14678
897.828	14533
897.949	14537
898.07	14332
898.19	14480
898.311	14667
898.431	14587
898.552	14522
898.672	14602
898.792	14720
898.913	14617
899.033	14571
899.153	14511
899.273	14412
899.393	14412
899.513	14358
899.633	14492
899.753	14419
899.873	14431
899.993	14446
900.113	14454
900.232	14541
900.352	14358
900.472	14362
900.591	14294
900.711	14370
900.83	14229
900.95	14400
901.069	14408
901.189	14161
901.308	14005
901.427	13898
901.546	14065
901.665	14024
901.784	14046
901.904	13864
902.023	13734
902.141	13616
902.26	13582
902.379	13525
902.498	13582
902.617	13540
902.735	13552
902.854	13567
902.973	13510
903.091	13324
903.21	13293
903.328	13304
903.446	13129
903.565	13145
903.683	13152
903.801	13069
903.919	13133
904.038	13069
904.156	12962
904.274	12947
904.392	12916
904.51	12939
904.627	12837
904.745	12935
904.863	12989
904.981	12741
905.098	12677
905.216	12654
905.334	12620
905.451	12627
905.569	12616
905.686	12646
905.803	12665
905.921	12441
906.038	12544
906.155	12410
906.272	12323
906.389	12338
906.506	12201
906.623	12277
906.74	12243
906.857	12083
906.974	12148
907.091	12311
907.208	12369
907.324	12251
907.441	12178
907.557	11992
907.674	12003
907.79	11931
907.907	11977
908.023	11977
908.139	11954
908.256	11984
908.372	11855
908.488	11893
908.604	11718
908.72	11668
908.836	11691
908.952	11718
909.068	11695
909.184	11783
909.3	11794
909.415	11828
909.531	11760
909.647	11524
909.762	11562
909.878	11436
909.993	11463
910.108	11398
910.224	11482
910.339	11528
910.454	11455
910.57	11322
910.685	11299
910.8	11596
910.915	11547
911.03	11440
911.145	11220
911.259	11220
911.374	11208
911.489	11162
911.604	11124
911.718	10999
911.833	10923
911.947	10930
912.062	10812
912.176	10915
912.291	11006
912.405	10991
912.519	11132
912.633	11143
912.748	11010
912.862	10900
912.976	10824
913.09	10694
913.204	10797
913.318	10793
913.431	10930
913.545	10953
913.659	10976
913.772	10752
913.886	10759
914	10740
914.113	10801
914.226	10771
914.34	10763
914.453	10637
914.566	10748
914.68	10702
914.793	10656
914.906	10538
915.019	10481
915.132	10363
915.245	10428
915.358	10508
915.47	10489
915.583	10535
915.696	10519
915.809	10611
915.921	10603
916.034	10436
916.146	10405
916.259	10398
916.371	10519
916.483	10443
916.595	10379
916.708	10390
916.82	10447
916.932	10459
917.044	10333
917.156	10447
917.268	10207
917.38	10329
917.491	10280
917.603	10341
917.715	10375
917.826	10386
917.938	10287
918.049	10181
918.161	10238
918.272	10508
918.384	10428
918.495	10337
918.606	10211
918.717	10090
918.828	10188
918.939	10177
919.05	10086
919.161	10124
919.272	9915
919.383	10032
919.494	10295
919.604	10337
919.715	10177
919.826	10029
919.936	10124
920.047	10139
920.157	10128
920.267	10405
920.378	10261
920.488	10185
920.598	10375
920.708	10561
920.818	10466
920.928	10333
921.038	10592
921.148	10500
921.258	10177
921.368	10185
921.477	10055
921.587	10116
921.697	9922
921.806	10147
921.916	10010
922.025	9701
922.134	9713
922.244	9690
922.353	9842
922.462	9591
922.571	9580
922.68	9530
922.789	9408
922.898	9515
923.007	9367
923.116	9515
923.224	9492
923.333	9382
923.442	9260
923.55	9317
923.659	9306
923.767	9382
923.876	9268
923.984	9378
924.092	9260
924.201	9268
924.309	9313
924.417	9329
924.525	9340
924.633	9294
924.741	10021
924.849	9036
924.956	9253
925.064	9097
925.172	8986
925.279	9131
925.387	9119
925.494	9104
925.602	9214
925.709	9116
925.816	9039
925.924	9077
926.031	9176
926.138	9085
926.245	9108
926.352	9066
926.459	9108
926.566	9188
926.673	9043
926.779	8998
926.886	8921
926.993	8830
927.099	8811
927.206	8785
927.312	8804
927.419	8819
927.525	8872
927.631	8842
927.737	8727
927.843	8716
927.95	8659
928.056	8766
928.162	8834
928.267	8777
928.373	9291
928.479	8834
928.585	8583
928.69	8754
928.796	8727
928.901	8629
929.007	8495
929.112	8689
929.218	8499
929.323	8579
929.428	8514
929.533	8617
929.638	8499
929.743	8522
929.848	8552
929.953	8503
930.058	8415
930.163	8282
930.267	8199
930.372	8396
930.477	8282
930.581	8522
930.685	8431
930.79	8229
930.894	8279
930.998	8267
931.103	8381
931.207	8046
931.311	8016
931.415	7940
931.519	7765
931.623	7681
