Data from test_V78500241_3229.txt Node
Date: Fri Mar 25 14:56:11 CST 2022
User: usil
Spectrometer: V785-0024
Trigger mode: 0
Integration Time (sec): 4.000000E-1
Scans to average: 1
Nonlinearity correction enabled: false
Boxcar width: 0
Storing dark spectrum: false
XAxis mode: Wavelengths
Number of Pixels in Spectrum: 1024
>>>>>Begin Spectral Data<<<<<
801.071	22078
801.214	21774
801.356	21587
801.499	21583
801.641	21439
801.783	21180
801.926	21393
802.068	21275
802.211	21302
802.353	21150
802.496	20899
802.638	20902
802.78	20921
802.923	20731
803.065	20682
803.208	20693
803.35	20667
803.492	20807
803.635	20941
803.777	20731
803.919	20758
804.061	21001
804.204	20781
804.346	20598
804.488	20644
804.63	20678
804.773	20495
804.915	20708
805.057	20583
805.199	20511
805.341	20640
805.483	20739
805.626	20594
805.768	20469
805.91	20686
806.052	20636
806.194	20590
806.336	20769
806.478	20450
806.62	20552
806.762	20670
806.904	20735
807.046	20994
807.188	20967
807.33	20857
807.472	21017
807.614	20792
807.756	20918
807.898	20807
808.04	20674
808.182	20648
808.324	20602
808.465	20823
808.607	20849
808.749	20941
808.891	21096
809.033	21051
809.174	21112
809.316	20967
809.458	20929
809.6	20921
809.741	21039
809.883	21028
810.025	21104
810.166	21116
810.308	21150
810.45	21058
810.591	20941
810.733	20906
810.875	20830
811.016	20632
811.158	20674
811.299	20712
811.441	20899
811.582	20807
811.724	20705
811.865	20682
812.007	20587
812.148	20602
812.29	20758
812.431	20921
812.573	20994
812.714	21024
812.855	21291
812.997	21439
813.138	21416
813.279	21348
813.421	21108
813.562	21195
813.703	20956
813.845	20910
813.986	20579
814.127	20457
814.268	20248
814.41	20202
814.551	20225
814.692	20324
814.833	20138
814.974	20130
815.115	20225
815.256	20103
815.397	20252
815.539	20103
815.68	20035
815.821	19970
815.962	20153
816.103	20039
816.244	19780
816.385	19776
816.526	19689
816.666	19514
816.807	19457
816.948	19388
817.089	19609
817.23	19499
817.371	19426
817.512	19407
817.653	19369
817.793	19324
817.934	19449
818.075	19343
818.216	19453
818.356	19304
818.497	19255
818.638	19213
818.778	19133
818.919	19065
819.06	19065
819.2	19148
819.341	19244
819.481	19324
819.622	19460
819.762	19738
819.903	19480
820.043	19396
820.184	19293
820.324	19354
820.465	19377
820.605	19407
820.746	19419
820.886	19202
821.026	19327
821.167	19339
821.307	19384
821.447	19304
821.588	19114
821.728	19080
821.868	18993
822.008	18859
822.149	18779
822.289	18757
822.429	18547
822.569	18471
822.709	18410
822.849	18357
822.99	18190
823.13	18262
823.27	18224
823.41	17935
823.55	18034
823.69	17965
823.83	18019
823.97	18102
824.11	17874
824.25	17843
824.389	17832
824.529	17897
824.669	17908
824.809	17889
824.949	17946
825.089	17946
825.228	17939
825.368	17684
825.508	17630
825.648	17657
825.787	17642
825.927	17562
826.067	17627
826.206	17573
826.346	17604
826.485	17684
826.625	17627
826.765	17714
826.904	17726
827.044	17356
827.183	17440
827.323	17296
827.462	17387
827.601	17383
827.741	17307
827.88	17330
828.02	17265
828.159	17212
828.298	17326
828.437	17315
828.577	17326
828.716	17425
828.855	17345
828.994	17140
829.134	17029
829.273	17109
829.412	17151
829.551	16972
829.69	17045
829.829	17140
829.968	17113
830.107	17128
830.246	17079
830.385	16930
830.524	17025
830.663	16839
830.802	16801
830.941	16706
831.08	16611
831.219	16774
831.357	16744
831.496	16911
831.635	16717
831.774	16653
831.913	16561
832.051	16527
832.19	16542
832.329	16432
832.467	16462
832.606	16318
832.744	16371
832.883	16348
833.022	16272
833.16	16291
833.299	16466
833.437	16382
833.576	16424
833.714	16432
833.852	16508
833.991	16508
834.129	16519
834.267	16386
834.406	16466
834.544	16626
834.682	16485
834.821	16447
834.959	16615
835.097	16409
835.235	16550
835.373	16470
835.511	16478
835.65	16352
835.788	16341
835.926	16207
836.064	16177
836.202	16272
836.34	16310
836.478	16390
836.615	16360
836.753	16341
836.891	16497
837.029	16409
837.167	16303
837.305	16261
837.443	16314
837.58	16238
837.718	16314
837.856	16261
837.993	16238
838.131	16268
838.269	16124
838.406	16185
838.544	16131
838.681	15949
838.819	15930
838.956	15766
839.094	15823
839.231	15720
839.369	15911
839.506	16219
839.643	16017
839.781	15755
839.918	15717
840.055	15736
840.193	15842
840.33	15739
840.467	15762
840.604	15789
840.742	16048
840.879	15557
841.016	15663
841.153	15682
841.29	15861
841.427	15797
841.564	15876
841.701	15717
841.838	15762
841.975	15679
842.112	15774
842.249	15538
842.385	15587
842.522	15671
842.659	15633
842.796	15526
842.933	15568
843.069	15622
843.206	15439
843.343	15603
843.479	15576
843.616	15610
843.752	15340
843.889	15378
844.025	15462
844.162	15272
844.298	15397
844.435	15329
844.571	15275
844.708	15424
844.844	15462
844.98	15462
845.117	15466
845.253	15325
845.389	15100
845.525	15211
845.661	15203
845.798	15074
845.934	15260
846.07	15169
846.206	15161
846.342	15230
846.478	15146
846.614	15005
846.75	14925
846.886	14880
847.022	14986
847.158	14956
847.294	14956
847.429	14971
847.565	14918
847.701	15116
847.837	14678
847.972	14670
848.108	14750
848.244	14697
848.379	14503
848.515	14507
848.65	14374
848.786	14473
848.921	14522
849.057	14560
849.192	14564
849.328	14511
849.463	14480
849.598	14488
849.734	14362
849.869	14271
850.004	14298
850.14	14271
850.275	14244
850.41	14168
850.545	14145
850.68	14278
850.815	14351
850.95	14237
851.085	14511
851.22	14358
851.355	14370
851.49	14225
851.625	14233
851.76	14282
851.895	14164
852.03	14176
852.165	14240
852.299	14180
852.434	14339
852.569	14248
852.703	14301
852.838	14355
852.973	14442
853.107	14457
853.242	14332
853.376	14134
853.511	14020
853.645	14191
853.78	14286
853.914	14138
854.048	14149
854.183	14107
854.317	14153
854.451	14263
854.585	14145
854.72	14043
854.854	14119
854.988	14073
855.122	14062
855.256	13932
855.39	14138
855.524	14214
855.658	14164
855.792	14161
855.926	14126
856.06	14191
856.194	14202
856.327	14191
856.461	14161
856.595	14092
856.729	14096
856.862	14298
856.996	14168
857.13	14168
857.263	14259
857.397	14180
857.53	14100
857.664	14229
857.797	14191
857.931	14153
858.064	14202
858.197	14301
858.331	14237
858.464	14123
858.597	14115
858.731	14081
858.864	14134
858.997	14096
859.13	14134
859.263	14187
859.396	14282
859.529	14130
859.662	14092
859.795	14092
859.928	14180
860.061	14271
860.194	14396
860.327	14168
860.46	14172
860.592	14202
860.725	14221
860.858	14271
860.99	14275
861.123	14043
861.256	14058
861.388	14157
861.521	14937
861.653	14069
861.786	14088
861.918	14012
862.05	14012
862.183	14092
862.315	14218
862.447	14244
862.58	14092
862.712	13902
862.844	13925
862.976	14012
863.108	14077
863.24	14442
863.372	13993
863.504	13902
863.636	13967
863.768	14081
863.9	13940
864.032	13852
864.164	13887
864.296	14035
864.428	13993
864.559	13955
864.691	14050
864.823	13974
864.954	13989
865.086	13993
865.217	13871
865.349	13894
865.48	13887
865.612	13932
865.743	14020
865.875	14062
866.006	13856
866.137	13959
866.269	13883
866.4	13883
866.531	13837
866.662	13788
866.793	13849
866.924	13753
867.055	13928
867.186	13963
867.317	13864
867.448	13830
867.579	13898
867.71	13807
867.841	13807
867.972	13913
868.103	13993
868.233	14001
868.364	13955
868.495	14062
868.625	14202
868.756	14199
868.886	14115
869.017	14214
869.147	14320
869.278	14290
869.408	14130
869.539	14176
869.669	14225
869.799	14214
869.929	14313
870.06	14294
870.19	14480
870.32	14465
870.45	14438
870.58	14610
870.71	14568
870.84	14640
870.97	14545
871.1	14621
871.23	14670
871.36	14861
871.489	14682
871.619	14811
871.749	14686
871.879	14811
872.008	14842
872.138	14838
872.267	14773
872.397	14651
872.526	14621
872.656	14625
872.785	14640
872.915	14712
873.044	14785
873.173	14724
873.303	14826
873.432	14872
873.561	14937
873.69	14906
873.819	14785
873.948	14925
874.077	14899
874.206	14769
874.335	14845
874.464	14979
874.593	15074
874.722	15161
874.851	15173
874.979	15169
875.108	15245
875.237	15093
875.365	15001
875.494	15135
875.623	15157
875.751	15070
875.88	15017
876.008	15233
876.136	15374
876.265	15557
876.393	15663
876.521	15595
876.65	15667
876.778	15599
876.906	15549
877.034	15523
877.162	15534
877.29	15496
877.418	15625
877.546	15595
877.674	15561
877.802	15580
877.93	15526
878.058	15553
878.185	15363
878.313	15477
878.441	15469
878.568	15336
878.696	15553
878.824	15538
878.951	15762
879.079	15793
879.206	15873
879.333	15614
879.461	15568
879.588	15667
879.715	15679
879.842	15854
879.97	15584
880.097	15405
880.224	15397
880.351	15382
880.478	15462
880.605	15401
880.732	15348
880.859	15671
880.986	15412
881.112	15424
881.239	15291
881.366	15192
881.493	15093
881.619	15001
881.746	15058
881.872	15039
881.999	15024
882.125	15013
882.252	15097
882.378	15104
882.505	15230
882.631	15036
882.757	14807
882.883	14811
883.01	14887
883.136	14830
883.262	14720
883.388	14758
883.514	14800
883.64	14899
883.766	14853
883.892	14754
884.018	14682
884.143	14887
884.269	14998
884.395	14613
884.52	14560
884.646	14598
884.772	14484
884.897	14568
885.023	14651
885.148	14735
885.274	14686
885.399	14674
885.524	14602
885.65	14530
885.775	14545
885.9	14568
886.025	14716
886.15	14682
886.275	14648
886.4	14476
886.525	14587
886.65	14457
886.775	14537
886.9	14701
887.025	14891
887.149	14587
887.274	14465
887.399	14450
887.523	14431
887.648	14313
887.773	14313
887.897	14526
888.021	14518
888.146	14476
888.27	14522
888.395	14571
888.519	14522
888.643	14461
888.767	14530
888.891	14328
889.015	14195
889.139	14313
889.263	14271
889.387	14393
889.511	14511
889.635	14381
889.759	14305
889.883	14358
890.006	14275
890.13	14442
890.254	14168
890.377	14138
890.501	14088
890.624	14065
890.748	14115
890.871	14039
890.995	13928
891.118	13982
891.241	14027
891.364	13967
891.488	14195
891.611	13963
891.734	14027
891.857	14138
891.98	13982
892.103	14065
892.226	13951
892.349	13997
892.471	13833
892.594	13959
892.717	14020
892.839	14020
892.962	13970
893.085	14054
893.207	13940
893.33	13887
893.452	13955
893.575	14077
893.697	13959
893.819	14126
893.941	14240
894.064	14164
894.186	13864
894.308	13940
894.43	14168
894.552	14168
894.674	14145
894.796	14016
894.918	14073
895.04	14031
895.161	14180
895.283	14100
895.405	14081
895.526	14058
895.648	14084
895.769	14134
895.891	14115
896.012	14210
896.134	14123
896.255	14161
896.376	14069
896.498	14183
896.619	14240
896.74	14153
896.861	14202
896.982	14564
897.103	14610
897.224	14431
897.345	14332
897.466	14355
897.587	14374
897.708	14632
897.828	14442
897.949	14434
898.07	14305
898.19	14374
898.311	14583
898.431	14541
898.552	14514
898.672	14590
898.792	14503
898.913	14632
899.033	14415
899.153	14404
899.273	14286
899.393	14419
899.513	14362
899.633	14320
899.753	14450
899.873	14358
899.993	14385
900.113	14370
900.232	14412
900.352	14355
900.472	14252
900.591	14229
900.711	14142
900.83	14111
900.95	14286
901.069	14271
901.189	14161
901.308	13913
901.427	13932
901.546	13936
901.665	13913
901.784	13833
901.904	13765
902.023	13708
902.141	13639
902.26	13540
902.379	13559
902.498	13403
902.617	13499
902.735	13453
902.854	13457
902.973	13415
903.091	13221
903.21	13194
903.328	13274
903.446	13171
903.565	13103
903.683	13114
903.801	13015
903.919	13057
904.038	12947
904.156	12806
904.274	12935
904.392	12848
904.51	12878
904.627	12878
904.745	12924
904.863	12867
904.981	12585
905.098	12559
905.216	12513
905.334	12547
905.451	12532
905.569	12544
905.686	12639
905.803	12544
905.921	12403
906.038	12372
906.155	12330
906.272	12346
906.389	12330
906.506	12182
906.623	12220
906.74	12148
906.857	12064
906.974	12148
907.091	12201
907.208	12254
907.324	12254
907.441	12049
907.557	11969
907.674	11931
907.79	11805
907.907	11855
908.023	11920
908.139	11851
908.256	11874
908.372	11863
908.488	11817
908.604	11722
908.72	11668
908.836	11646
908.952	11638
909.068	11638
909.184	11832
909.3	11600
909.415	11729
909.531	11638
909.647	11421
909.762	11539
909.878	11391
909.993	11455
910.108	11459
910.224	11455
910.339	11436
910.454	11417
910.57	11372
910.685	11162
910.8	11562
910.915	11433
911.03	11311
911.145	11143
911.259	11105
911.374	11178
911.489	11056
911.604	11006
911.718	10911
911.833	10877
911.947	10812
912.062	10706
912.176	10854
912.291	10942
912.405	10858
912.519	11083
912.633	11037
912.748	10923
912.862	10968
912.976	10858
913.09	10675
913.204	10694
913.318	10782
913.431	10843
913.545	10824
913.659	10995
913.772	10755
913.886	10645
914	10637
914.113	10782
914.226	10740
914.34	10653
914.453	10622
914.566	10812
914.68	10603
914.793	10554
914.906	10443
915.019	10318
915.132	10299
915.245	10363
915.358	10424
915.47	10375
915.583	10459
915.696	10489
915.809	10500
915.921	10516
916.034	10417
916.146	10398
916.259	10306
916.371	10371
916.483	10474
916.595	10299
916.708	10284
916.82	10375
916.932	10295
917.044	10287
917.156	10238
917.268	10261
917.38	10287
917.491	10135
917.603	10223
917.715	10352
917.826	10440
917.938	10249
918.049	10124
918.161	10265
918.272	10348
918.384	10325
918.495	10402
918.606	10131
918.717	10154
918.828	10139
918.939	10230
919.05	9964
919.161	10055
919.272	9899
919.383	9968
919.494	10272
919.604	10371
919.715	10162
919.826	10017
919.936	10109
920.047	10291
920.157	10131
920.267	10390
920.378	10173
920.488	10109
920.598	10402
920.708	10527
920.818	10360
920.928	10341
921.038	10550
921.148	10516
921.258	10223
921.368	10139
921.477	9987
921.587	9975
921.697	9953
921.806	10036
921.916	9972
922.025	9797
922.134	9797
922.244	9660
922.353	9800
922.462	9652
922.571	9580
922.68	9507
922.789	9435
922.898	9431
923.007	9382
923.116	9485
923.224	9405
923.333	9473
923.442	9291
923.55	9249
923.659	9294
923.767	9348
923.876	9237
923.984	9401
924.092	9264
924.201	9306
924.309	9298
924.417	9302
924.525	9207
924.633	9294
924.741	10143
924.849	9047
924.956	9195
925.064	9070
925.172	8975
925.279	9058
925.387	9154
925.494	9119
925.602	9176
925.709	9245
925.816	9108
925.924	9127
926.031	9195
926.138	9074
926.245	9104
926.352	8982
926.459	9165
926.566	9256
926.673	9100
926.779	8971
926.886	8952
926.993	8857
927.099	8724
927.206	8773
927.312	8758
927.419	8849
927.525	8773
927.631	8796
927.737	8762
927.843	8705
927.95	8598
928.056	8682
928.162	8678
928.267	8754
928.373	9275
928.479	8895
928.585	8598
928.69	8648
928.796	8724
928.901	8621
929.007	8457
929.112	8670
929.218	8571
929.323	8514
929.428	8571
929.533	8636
929.638	8484
929.743	8503
929.848	8636
929.953	8484
930.058	8484
930.163	8286
930.267	8332
930.372	8415
930.477	8320
930.581	8476
930.685	8415
930.79	8206
930.894	8267
930.998	8225
931.103	8362
931.207	8050
931.311	7951
931.415	7879
931.519	7723
931.623	7784
