Data from test_V78500241_1168.txt Node
Date: Fri Mar 25 14:41:50 CST 2022
User: usil
Spectrometer: V785-0024
Trigger mode: 0
Integration Time (sec): 4.000000E-1
Scans to average: 1
Nonlinearity correction enabled: false
Boxcar width: 0
Storing dark spectrum: false
XAxis mode: Wavelengths
Number of Pixels in Spectrum: 1024
>>>>>Begin Spectral Data<<<<<
801.071	22500
801.214	22375
801.356	22128
801.499	22074
801.641	21842
801.783	21774
801.926	21827
802.068	21934
802.211	21713
802.353	21682
802.496	21416
802.638	21317
802.78	21321
802.923	21287
803.065	21066
803.208	21222
803.35	21195
803.492	21336
803.635	21249
803.777	21230
803.919	21211
804.061	21515
804.204	21218
804.346	21226
804.488	21047
804.63	21150
804.773	21066
804.915	21112
805.057	21150
805.199	21112
805.341	21203
805.483	21207
805.626	21184
805.768	21074
805.91	21009
806.052	21192
806.194	21039
806.336	21336
806.478	21146
806.62	21104
806.762	21249
806.904	21287
807.046	21561
807.188	21447
807.33	21408
807.472	21545
807.614	21428
807.756	21492
807.898	21454
808.04	21279
808.182	21275
808.324	21275
808.465	21496
808.607	21557
808.749	21587
808.891	21762
809.033	21846
809.174	21736
809.316	21564
809.458	21641
809.6	21610
809.741	21736
809.883	21831
810.025	21854
810.166	21717
810.308	21789
810.45	21523
810.591	21466
810.733	21435
810.875	21336
811.016	21260
811.158	21214
811.299	21317
811.441	21538
811.582	21412
811.724	21317
811.865	21291
812.007	21401
812.148	21431
812.29	21294
812.431	21481
812.573	21507
812.714	21618
812.855	21759
812.997	21884
813.138	22082
813.279	21838
813.421	21717
813.562	21762
813.703	21637
813.845	21485
813.986	21211
814.127	21005
814.268	20823
814.41	21017
814.551	20933
814.692	20948
814.833	20830
814.974	20716
815.115	20750
815.256	20773
815.397	20636
815.539	20746
815.68	20571
815.821	20495
815.962	20613
816.103	20545
816.244	20385
816.385	20385
816.526	20408
816.666	20252
816.807	20035
816.948	20138
817.089	20065
817.23	20069
817.371	19974
817.512	20043
817.653	20035
817.793	19921
817.934	19917
818.075	20058
818.216	20012
818.356	19936
818.497	19849
818.638	19655
818.778	19738
818.919	19643
819.06	19830
819.2	19906
819.341	19898
819.481	19986
819.622	20043
819.762	20286
819.903	20100
820.043	20008
820.184	20031
820.324	19928
820.465	20062
820.605	19997
820.746	19967
820.886	19803
821.026	19997
821.167	19947
821.307	19970
821.447	19883
821.588	19845
821.728	19639
821.868	19586
822.008	19518
822.149	19419
822.289	19438
822.429	19266
822.569	19194
822.709	19183
822.849	18977
822.99	18962
823.13	18996
823.27	18886
823.41	18661
823.55	18703
823.69	18867
823.83	18852
823.97	18540
824.11	18471
824.25	18399
824.389	18410
824.529	18570
824.669	18475
824.809	18525
824.949	18574
825.089	18479
825.228	18540
825.368	18338
825.508	18224
825.648	18285
825.787	18319
825.927	18353
826.067	18258
826.206	18190
826.346	18155
826.485	18308
826.625	18308
826.765	18285
826.904	18323
827.044	17999
827.183	18098
827.323	17901
827.462	18022
827.601	17920
827.741	17965
827.88	18057
828.02	17821
828.159	17965
828.298	17984
828.437	17992
828.577	17912
828.716	17965
828.855	17931
828.994	17699
829.134	17699
829.273	17726
829.412	17668
829.551	17585
829.69	17680
829.829	17828
829.968	17817
830.107	17767
830.246	17726
830.385	17718
830.524	17619
830.663	17638
830.802	17414
830.941	17292
831.08	17242
831.219	17387
831.357	17452
831.496	17611
831.635	17261
831.774	17288
831.913	17227
832.051	17102
832.19	17113
832.329	17102
832.467	16999
832.606	17033
832.744	17071
832.883	16991
833.022	17052
833.16	16896
833.299	17025
833.437	17048
833.576	17083
833.714	17102
833.852	17193
833.991	17010
834.129	17105
834.267	17121
834.406	17022
834.544	17079
834.682	17200
834.821	17098
834.959	17212
835.097	17037
835.235	17200
835.373	17128
835.511	17010
835.65	17029
835.788	16987
835.926	16824
836.064	16843
836.202	16854
836.34	17018
836.478	17064
836.615	16927
836.753	17048
836.891	17105
837.029	17037
837.167	16957
837.305	16911
837.443	16911
837.58	16843
837.718	16805
837.856	16889
837.993	16873
838.131	16885
838.269	16900
838.406	16881
838.544	16603
838.681	16649
838.819	16542
838.956	16405
839.094	16413
839.231	16561
839.369	16523
839.506	16736
839.643	16683
839.781	16485
839.918	16405
840.055	16371
840.193	16356
840.33	16344
840.467	16447
840.604	16516
840.742	16531
840.879	16405
841.016	16287
841.153	16280
841.29	16504
841.427	16561
841.564	16478
841.701	16516
841.838	16363
841.975	16303
842.112	16436
842.249	16246
842.385	16158
842.522	16367
842.659	16207
842.796	16192
842.933	16131
843.069	16158
843.206	16093
843.343	16322
843.479	16162
843.616	16253
843.752	16029
843.889	15991
844.025	16166
844.162	15915
844.298	16029
844.435	15998
844.571	15907
844.708	16082
844.844	16177
844.98	16101
845.117	16101
845.253	16029
845.389	15983
845.525	15915
845.661	15922
845.798	15949
845.934	15983
846.07	15918
846.206	16017
846.342	16082
846.478	15930
846.614	15717
846.75	15511
846.886	15542
847.022	15599
847.158	15599
847.294	15576
847.429	15526
847.565	15534
847.701	15762
847.837	15389
847.972	15249
848.108	15348
848.244	15336
848.379	15176
848.515	15146
848.65	15119
848.786	15108
848.921	15203
849.057	15321
849.192	15230
849.328	15184
849.463	15165
849.598	15245
849.734	15047
849.869	14956
850.004	15013
850.14	14929
850.275	14910
850.41	14800
850.545	14849
850.68	14918
850.815	14906
850.95	14967
851.085	15207
851.22	14956
851.355	14967
851.49	14853
851.625	14876
851.76	14880
851.895	14876
852.03	14792
852.165	14796
852.299	14979
852.434	14933
852.569	14906
852.703	14925
852.838	15051
852.973	15032
853.107	15017
853.242	14868
853.376	14788
853.511	14640
853.645	14743
853.78	14842
853.914	14838
854.048	14773
854.183	14845
854.317	14788
854.451	14876
854.585	14750
854.72	14727
854.854	14845
854.988	14610
855.122	14705
855.256	14667
855.39	14758
855.524	14830
855.658	14804
855.792	14746
855.926	14796
856.06	14769
856.194	14944
856.327	14823
856.461	14655
856.595	14689
856.729	14773
856.862	14933
856.996	14845
857.13	14861
857.263	14941
857.397	14971
857.53	14849
857.664	14769
857.797	14834
857.931	14857
858.064	14762
858.197	14804
858.331	14785
858.464	14648
858.597	14693
858.731	14735
858.864	14819
858.997	14689
859.13	14845
859.263	14781
859.396	14853
859.529	14750
859.662	14712
859.795	14682
859.928	14682
860.061	14929
860.194	14933
860.327	14788
860.46	14705
860.592	14823
860.725	14933
860.858	14906
860.99	14765
861.123	14785
861.256	14731
861.388	14857
861.521	15492
861.653	14640
861.786	14598
861.918	14712
862.05	14705
862.183	14724
862.315	14701
862.447	14716
862.58	14670
862.712	14598
862.844	14473
862.976	14670
863.108	14530
863.24	15051
863.372	14461
863.504	14507
863.636	14549
863.768	14651
863.9	14511
864.032	14488
864.164	14419
864.296	14648
864.428	14610
864.559	14651
864.691	14701
864.823	14667
864.954	14552
865.086	14560
865.217	14587
865.349	14549
865.48	14514
865.612	14526
865.743	14621
865.875	14533
866.006	14541
866.137	14427
866.269	14541
866.4	14526
866.531	14499
866.662	14480
866.793	14514
866.924	14427
867.055	14465
867.186	14484
867.317	14480
867.448	14454
867.579	14469
867.71	14454
867.841	14355
867.972	14549
868.103	14507
868.233	14617
868.364	14568
868.495	14651
868.625	14746
868.756	14804
868.886	14651
869.017	14697
869.147	14914
869.278	14731
869.408	14861
869.539	14644
869.669	14910
869.799	14845
869.929	14891
870.06	14906
870.19	15138
870.32	15100
870.45	15135
870.58	15218
870.71	15249
870.84	15195
870.97	15199
871.1	15093
871.23	15382
871.36	15378
871.489	15245
871.619	15268
871.749	15287
871.879	15367
872.008	15523
872.138	15447
872.267	15317
872.397	15329
872.526	15237
872.656	15211
872.785	15233
872.915	15405
873.044	15500
873.173	15481
873.303	15545
873.432	15389
873.561	15526
873.69	15481
873.819	15435
873.948	15545
874.077	15386
874.206	15416
874.335	15424
874.464	15656
874.593	15709
874.722	15766
874.851	15793
874.979	15770
875.108	15804
875.237	15701
875.365	15572
875.494	15778
875.623	15838
875.751	15789
875.88	15797
876.008	15983
876.136	15994
876.265	16246
876.393	16295
876.521	16234
876.65	16295
876.778	16173
876.906	16139
877.034	16143
877.162	16204
877.29	16185
877.418	16188
877.546	16226
877.674	16188
877.802	16249
877.93	16093
878.058	16124
878.185	16055
878.313	16166
878.441	16150
878.568	16169
878.696	16150
878.824	16242
878.951	16226
879.079	16405
879.206	16516
879.333	16432
879.461	16306
879.588	16432
879.715	16409
879.842	16580
879.97	16268
880.097	16185
880.224	16036
880.351	16055
880.478	15941
880.605	16112
880.732	16032
880.859	16253
880.986	16013
881.112	16112
881.239	16006
881.366	15884
881.493	15728
881.619	15728
881.746	15584
881.872	15724
881.999	15743
882.125	15625
882.252	15663
882.378	15698
882.505	15831
882.631	15633
882.757	15511
882.883	15542
883.01	15504
883.136	15458
883.262	15355
883.388	15332
883.514	15443
883.64	15671
883.766	15374
883.892	15279
884.018	15310
884.143	15485
884.269	15530
884.395	15370
884.52	15195
884.646	15268
884.772	14998
884.897	15066
885.023	15146
885.148	15420
885.274	15351
885.399	15203
885.524	15291
885.65	15169
885.775	15173
885.9	15169
886.025	15348
886.15	15332
886.275	15260
886.4	15112
886.525	15176
886.65	15165
886.775	15112
886.9	15294
887.025	15348
887.149	15230
887.274	14948
887.399	15005
887.523	15119
887.648	14906
887.773	14975
887.897	15123
888.021	15097
888.146	14941
888.27	15184
888.395	15214
888.519	15009
888.643	15043
888.767	15108
888.891	14887
889.015	14861
889.139	14906
889.263	14804
889.387	15036
889.511	15070
889.635	15020
889.759	14902
889.883	14807
890.006	14902
890.13	14918
890.254	14788
890.377	14788
890.501	14667
890.624	14625
890.748	14731
890.871	14644
890.995	14564
891.118	14473
891.241	14545
891.364	14636
891.488	14686
891.611	14545
891.734	14514
891.857	14697
891.98	14625
892.103	14670
892.226	14663
892.349	14541
892.471	14339
892.594	14461
892.717	14659
892.839	14568
892.962	14564
893.085	14617
893.207	14541
893.33	14461
893.452	14473
893.575	14590
893.697	14499
893.819	14762
893.941	14811
894.064	14727
894.186	14492
894.308	14450
894.43	14670
894.552	14667
894.674	14750
894.796	14503
894.918	14541
895.04	14492
895.161	14697
895.283	14678
895.405	14610
895.526	14758
895.648	14777
895.769	14689
895.891	14663
896.012	14659
896.134	14781
896.255	14621
896.376	14716
896.498	14701
896.619	14785
896.74	14644
896.861	14811
896.982	15066
897.103	15233
897.224	15020
897.345	14891
897.466	14891
897.587	14979
897.708	15070
897.828	15051
897.949	14963
898.07	14967
898.19	14921
898.311	15077
898.431	14982
898.552	15036
898.672	15058
898.792	15157
898.913	15119
899.033	14971
899.153	14929
899.273	14777
899.393	14880
899.513	14876
899.633	14899
899.753	14883
899.873	14929
899.993	14994
900.113	14979
900.232	14899
900.352	14845
900.472	14811
900.591	14712
900.711	14769
900.83	14769
900.95	14815
901.069	14823
901.189	14678
901.308	14526
901.427	14389
901.546	14454
901.665	14461
901.784	14385
901.904	14370
902.023	14187
902.141	14035
902.26	13875
902.379	14020
902.498	14008
902.617	13932
902.735	13932
902.854	13883
902.973	13940
903.091	13704
903.21	13677
903.328	13613
903.446	13563
903.565	13483
903.683	13616
903.801	13491
903.919	13480
904.038	13419
904.156	13335
904.274	13369
904.392	13339
904.51	13285
904.627	13434
904.745	13411
904.863	13434
904.981	13213
905.098	13019
905.216	13065
905.334	13088
905.451	13046
905.569	12947
905.686	13107
905.803	12977
905.921	12833
906.038	12894
906.155	12905
906.272	12772
906.389	12665
906.506	12681
906.623	12601
906.74	12627
906.857	12532
906.974	12536
907.091	12677
907.208	12700
907.324	12589
907.441	12551
907.557	12445
907.674	12357
907.79	12308
907.907	12296
908.023	12376
908.139	12388
908.256	12338
908.372	12304
908.488	12239
908.604	12220
908.72	12045
908.836	12178
908.952	12102
909.068	12095
909.184	12289
909.3	12038
909.415	12121
909.531	12133
909.647	11870
909.762	11923
909.878	11863
909.993	11988
910.108	11893
910.224	11859
910.339	11958
910.454	11798
910.57	11710
910.685	11676
910.8	11954
910.915	11885
911.03	11710
911.145	11630
911.259	11611
911.374	11570
911.489	11532
911.604	11493
911.718	11429
911.833	11356
911.947	11299
912.062	11235
912.176	11265
912.291	11341
912.405	11299
912.519	11604
912.633	11539
912.748	11448
912.862	11288
912.976	11220
913.09	11143
913.204	11162
913.318	11174
913.431	11307
913.545	11269
913.659	11433
913.772	11231
913.886	11067
914	11025
914.113	11170
914.226	11242
914.34	11197
914.453	10953
914.566	11147
914.68	11022
914.793	11064
914.906	10889
915.019	10839
915.132	10740
915.245	10797
915.358	10824
915.47	10881
915.583	10877
915.696	10847
915.809	10987
915.921	11006
916.034	10847
916.146	10778
916.259	10687
916.371	10885
916.483	10812
916.595	10740
916.708	10744
916.82	10748
916.932	10797
917.044	10771
917.156	10675
917.268	10672
917.38	10622
917.491	10569
917.603	10641
917.715	10755
917.826	10752
917.938	10599
918.049	10516
918.161	10622
918.272	10752
918.384	10763
918.495	10698
918.606	10516
918.717	10459
918.828	10592
918.939	10569
919.05	10344
919.161	10504
919.272	10318
919.383	10413
919.494	10664
919.604	10752
919.715	10470
919.826	10405
919.936	10489
920.047	10550
920.157	10527
920.267	10805
920.378	10550
920.488	10485
920.598	10687
920.708	10889
920.818	10733
920.928	10645
921.038	10946
921.148	10839
921.258	10535
921.368	10462
921.477	10432
921.587	10440
921.697	10291
921.806	10382
921.916	10230
922.025	10059
922.134	10078
922.244	9991
922.353	10112
922.462	10029
922.571	9945
922.68	9838
922.789	9804
922.898	9736
923.007	9663
923.116	9808
923.224	9755
923.333	9740
923.442	9717
923.55	9618
923.659	9656
923.767	9679
923.876	9534
923.984	9652
924.092	9591
924.201	9603
924.309	9603
924.417	9675
924.525	9557
924.633	9526
924.741	10276
924.849	9397
924.956	9606
925.064	9344
925.172	9302
925.279	9424
925.387	9420
925.494	9428
925.602	9492
925.709	9458
925.816	9408
925.924	9416
926.031	9435
926.138	9397
926.245	9469
926.352	9332
926.459	9424
926.566	9523
926.673	9397
926.779	9302
926.886	9237
926.993	9119
927.099	9108
927.206	9081
927.312	9066
927.419	9188
927.525	9085
927.631	9116
927.737	9005
927.843	8979
927.95	8967
928.056	9017
928.162	8979
928.267	8967
928.373	9694
928.479	9074
928.585	8906
928.69	8990
928.796	8994
928.901	8902
929.007	8746
929.112	8857
929.218	8853
929.323	8815
929.428	8834
929.533	8929
929.638	8754
929.743	8788
929.848	8838
929.953	8781
930.058	8686
930.163	8503
930.267	8602
930.372	8670
930.477	8560
930.581	8804
930.685	8632
930.79	8454
930.894	8522
930.998	8522
931.103	8625
931.207	8324
931.311	8275
931.415	8183
931.519	7982
931.623	7963
