Data from test_V78500241_2694.txt Node
Date: Fri Mar 25 14:52:28 CST 2022
User: usil
Spectrometer: V785-0024
Trigger mode: 0
Integration Time (sec): 4.000000E-1
Scans to average: 1
Nonlinearity correction enabled: false
Boxcar width: 0
Storing dark spectrum: false
XAxis mode: Wavelengths
Number of Pixels in Spectrum: 1024
>>>>>Begin Spectral Data<<<<<
801.071	22067
801.214	21797
801.356	21618
801.499	21428
801.641	21420
801.783	21378
801.926	21443
802.068	21420
802.211	21256
802.353	21230
802.496	20986
802.638	20773
802.78	20944
802.923	20705
803.065	20587
803.208	20640
803.35	20815
803.492	20910
803.635	20834
803.777	20777
803.919	20648
804.061	20994
804.204	20655
804.346	20629
804.488	20564
804.63	20674
804.773	20636
804.915	20640
805.057	20712
805.199	20598
805.341	20613
805.483	20773
805.626	20648
805.768	20564
805.91	20629
806.052	20640
806.194	20514
806.336	20720
806.478	20575
806.62	20598
806.762	20602
806.904	20944
807.046	21028
807.188	21020
807.33	21032
807.472	20979
807.614	20781
807.756	20777
807.898	20689
808.04	20590
808.182	20579
808.324	20727
808.465	20659
808.607	20861
808.749	20994
808.891	21051
809.033	21142
809.174	20971
809.316	20891
809.458	20857
809.6	20876
809.741	20853
809.883	21013
810.025	21138
810.166	21154
810.308	21207
810.45	21077
810.591	20880
810.733	20842
810.875	20834
811.016	20727
811.158	20625
811.299	20811
811.441	20842
811.582	20838
811.724	20743
811.865	20765
812.007	20655
812.148	20750
812.29	20731
812.431	20910
812.573	20994
812.714	21074
812.855	21230
812.997	21405
813.138	21561
813.279	21264
813.421	21218
813.562	21169
813.703	20823
813.845	20845
813.986	20609
814.127	20431
814.268	20263
814.41	20374
814.551	20275
814.692	20415
814.833	20168
814.974	20301
815.115	20282
815.256	19963
815.397	20172
815.539	20233
815.68	20035
815.821	20115
815.962	19978
816.103	19925
816.244	19894
816.385	19696
816.526	19791
816.666	19616
816.807	19411
816.948	19590
817.089	19594
817.23	19476
817.371	19449
817.512	19358
817.653	19282
817.793	19308
817.934	19365
818.075	19396
818.216	19407
818.356	19392
818.497	19164
818.638	19190
818.778	19141
818.919	19194
819.06	19213
819.2	19209
819.341	19270
819.481	19316
819.622	19403
819.762	19464
819.903	19590
820.043	19464
820.184	19487
820.324	19312
820.465	19491
820.605	19426
820.746	19468
820.886	19263
821.026	19483
821.167	19377
821.307	19369
821.447	19369
821.588	19183
821.728	19042
821.868	18947
822.008	18715
822.149	18856
822.289	18829
822.429	18429
822.569	18555
822.709	18456
822.849	18281
822.99	18262
823.13	18399
823.27	18262
823.41	18076
823.55	18019
823.69	18167
823.83	17980
823.97	18038
824.11	17836
824.25	17863
824.389	17931
824.529	17836
824.669	17805
824.809	17958
824.949	18045
825.089	18007
825.228	17809
825.368	17699
825.508	17729
825.648	17756
825.787	17726
825.927	17710
826.067	17619
826.206	17562
826.346	17764
826.485	17638
826.625	17714
826.765	17668
826.904	17627
827.044	17566
827.183	17368
827.323	17311
827.462	17452
827.601	17341
827.741	17330
827.88	17398
828.02	17197
828.159	17288
828.298	17512
828.437	17360
828.577	17349
828.716	17524
828.855	17269
828.994	17166
829.134	17258
829.273	17200
829.412	17064
829.551	17056
829.69	17105
829.829	17064
829.968	17277
830.107	17117
830.246	17048
830.385	17086
830.524	17025
830.663	16809
830.802	16862
830.941	16801
831.08	16725
831.219	16721
831.357	16873
831.496	16942
831.635	16774
831.774	16645
831.913	16527
832.051	16558
832.19	16645
832.329	16634
832.467	16459
832.606	16344
832.744	16421
832.883	16371
833.022	16337
833.16	16478
833.299	16421
833.437	16474
833.576	16497
833.714	16363
833.852	16519
833.991	16436
834.129	16500
834.267	16569
834.406	16417
834.544	16497
834.682	16500
834.821	16474
834.959	16668
835.097	16462
835.235	16626
835.373	16523
835.511	16504
835.65	16363
835.788	16440
835.926	16204
836.064	16082
836.202	16341
836.34	16428
836.478	16493
836.615	16341
836.753	16394
836.891	16493
837.029	16375
837.167	16325
837.305	16348
837.443	16356
837.58	16333
837.718	16299
837.856	16265
837.993	16192
838.131	16284
838.269	16162
838.406	16246
838.544	16158
838.681	15991
838.819	16006
838.956	15892
839.094	15838
839.231	15827
839.369	15930
839.506	16280
839.643	16036
839.781	15781
839.918	15770
840.055	15884
840.193	15945
840.33	15774
840.467	15953
840.604	15846
840.742	16032
840.879	15568
841.016	15781
841.153	15751
841.29	16025
841.427	15800
841.564	15842
841.701	15880
841.838	15778
841.975	15709
842.112	15759
842.249	15652
842.385	15625
842.522	15804
842.659	15622
842.796	15629
842.933	15622
843.069	15656
843.206	15584
843.343	15679
843.479	15648
843.616	15572
843.752	15393
843.889	15488
844.025	15545
844.162	15397
844.298	15504
844.435	15291
844.571	15389
844.708	15439
844.844	15557
844.98	15515
845.117	15462
845.253	15420
845.389	15321
845.525	15336
845.661	15272
845.798	15230
845.934	15199
846.07	15138
846.206	15310
846.342	15344
846.478	15161
846.614	15013
846.75	14990
846.886	14971
847.022	15020
847.158	15066
847.294	14994
847.429	15062
847.565	14883
847.701	15264
847.837	14743
847.972	14560
848.108	14807
848.244	14743
848.379	14594
848.515	14564
848.65	14545
848.786	14575
848.921	14579
849.057	14655
849.192	14587
849.328	14598
849.463	14689
849.598	14590
849.734	14461
849.869	14355
850.004	14366
850.14	14362
850.275	14263
850.41	14214
850.545	14339
850.68	14362
850.815	14351
850.95	14393
851.085	14488
851.22	14446
851.355	14355
851.49	14282
851.625	14423
851.76	14305
851.895	14267
852.03	14237
852.165	14339
852.299	14328
852.434	14431
852.569	14381
852.703	14336
852.838	14537
852.973	14442
853.107	14537
853.242	14290
853.376	14233
853.511	14149
853.645	14069
853.78	14278
853.914	14244
854.048	14206
854.183	14100
854.317	14244
854.451	14377
854.585	14225
854.72	14195
854.854	14164
854.988	14069
855.122	14180
855.256	14103
855.39	14176
855.524	14256
855.658	14233
855.792	14252
855.926	14271
856.06	14187
856.194	14294
856.327	14225
856.461	14199
856.595	14107
856.729	14145
856.862	14374
856.996	14271
857.13	14286
857.263	14317
857.397	14324
857.53	14202
857.664	14317
857.797	14252
857.931	14355
858.064	14191
858.197	14328
858.331	14252
858.464	14134
858.597	14050
858.731	14183
858.864	14168
858.997	14168
859.13	14298
859.263	14317
859.396	14263
859.529	14256
859.662	14199
859.795	14107
859.928	14252
860.061	14408
860.194	14446
860.327	14309
860.46	14126
860.592	14313
860.725	14396
860.858	14351
860.99	14256
861.123	14221
861.256	14214
861.388	14191
861.521	14807
861.653	14084
861.786	14149
861.918	14195
862.05	14176
862.183	14168
862.315	14119
862.447	14290
862.58	14206
862.712	14016
862.844	13951
862.976	14027
863.108	14005
863.24	14457
863.372	13917
863.504	13906
863.636	13982
863.768	13909
863.9	13986
864.032	13989
864.164	13963
864.296	14035
864.428	14062
864.559	14115
864.691	14111
864.823	14077
864.954	14039
865.086	14005
865.217	13967
865.349	14024
865.48	13989
865.612	13982
865.743	14164
865.875	14039
866.006	14020
866.137	13993
866.269	13967
866.4	13963
866.531	13902
866.662	13902
866.793	13913
866.924	13986
867.055	14016
867.186	14024
867.317	13947
867.448	13856
867.579	13909
867.71	13951
867.841	13928
867.972	14058
868.103	14005
868.233	14043
868.364	14077
868.495	14073
868.625	14161
868.756	14309
868.886	14149
869.017	14172
869.147	14309
869.278	14339
869.408	14214
869.539	14271
869.669	14358
869.799	14161
869.929	14347
870.06	14305
870.19	14518
870.32	14480
870.45	14499
870.58	14705
870.71	14689
870.84	14777
870.97	14655
871.1	14583
871.23	14861
871.36	14800
871.489	14708
871.619	14842
871.749	14849
871.879	14918
872.008	14834
872.138	14826
872.267	14887
872.397	14743
872.526	14651
872.656	14640
872.785	14716
872.915	14933
873.044	14982
873.173	14819
873.303	14861
873.432	14895
873.561	14948
873.69	14868
873.819	14914
873.948	14982
874.077	14868
874.206	14830
874.335	14902
874.464	15051
874.593	15249
874.722	15081
874.851	15226
874.979	15287
875.108	15249
875.237	15245
875.365	15093
875.494	15165
875.623	15230
875.751	15150
875.88	15260
876.008	15306
876.136	15298
876.265	15610
876.393	15770
876.521	15709
876.65	15709
876.778	15572
876.906	15660
877.034	15557
877.162	15580
877.29	15405
877.418	15610
877.546	15618
877.674	15526
877.802	15584
877.93	15564
878.058	15542
878.185	15481
878.313	15587
878.441	15675
878.568	15450
878.696	15485
878.824	15614
878.951	15606
879.079	15713
879.206	15979
879.333	15823
879.461	15644
879.588	15778
879.715	15774
879.842	15797
879.97	15625
880.097	15454
880.224	15412
880.351	15523
880.478	15568
880.605	15412
880.732	15496
880.859	15690
880.986	15485
881.112	15477
881.239	15370
881.366	15272
881.493	15116
881.619	15093
881.746	15146
881.872	15024
881.999	15074
882.125	15070
882.252	15150
882.378	15214
882.505	15386
882.631	15058
882.757	14895
882.883	15017
883.01	14971
883.136	14857
883.262	14857
883.388	14750
883.514	14960
883.64	15077
883.766	14868
883.892	14743
884.018	14754
884.143	14902
884.269	14960
884.395	14743
884.52	14617
884.646	14613
884.772	14549
884.897	14530
885.023	14617
885.148	14754
885.274	14735
885.399	14762
885.524	14651
885.65	14701
885.775	14724
885.9	14678
886.025	14785
886.15	14659
886.275	14644
886.4	14556
886.525	14625
886.65	14579
886.775	14629
886.9	14720
887.025	14929
887.149	14701
887.274	14473
887.399	14415
887.523	14533
887.648	14396
887.773	14324
887.897	14621
888.021	14587
888.146	14507
888.27	14568
888.395	14549
888.519	14518
888.643	14450
888.767	14480
888.891	14343
889.015	14355
889.139	14336
889.263	14317
889.387	14423
889.511	14606
889.635	14495
889.759	14385
889.883	14237
890.006	14347
890.13	14476
890.254	14313
890.377	14275
890.501	14123
890.624	14183
890.748	14252
890.871	14138
890.995	14020
891.118	13932
891.241	14058
891.364	14039
891.488	14084
891.611	14065
891.734	14073
891.857	14111
891.98	14020
892.103	14043
892.226	14035
892.349	14119
892.471	13875
892.594	14012
892.717	14020
892.839	14012
892.962	14008
893.085	14050
893.207	14016
893.33	13970
893.452	13925
893.575	14172
893.697	13947
893.819	14199
893.941	14233
894.064	14096
894.186	14012
894.308	14081
894.43	14199
894.552	14229
894.674	14202
894.796	13963
894.918	14058
895.04	14073
895.161	14134
895.283	14164
895.405	14142
895.526	14096
895.648	14134
895.769	14225
895.891	14256
896.012	14286
896.134	14313
896.255	14161
896.376	14233
896.498	14157
896.619	14294
896.74	14282
896.861	14290
896.982	14549
897.103	14765
897.224	14526
897.345	14400
897.466	14457
897.587	14507
897.708	14537
897.828	14442
897.949	14404
898.07	14313
898.19	14533
898.311	14518
898.431	14560
898.552	14598
898.672	14617
898.792	14575
898.913	14575
899.033	14473
899.153	14434
899.273	14366
899.393	14286
899.513	14507
899.633	14275
899.753	14530
899.873	14355
899.993	14514
900.113	14469
900.232	14381
900.352	14423
900.472	14320
900.591	14294
900.711	14183
900.83	14225
900.95	14347
901.069	14499
901.189	14142
901.308	14050
901.427	13940
901.546	13917
901.665	14005
901.784	14107
901.904	13826
902.023	13803
902.141	13639
902.26	13518
902.379	13521
902.498	13453
902.617	13506
902.735	13537
902.854	13525
902.973	13491
903.091	13183
903.21	13251
903.328	13244
903.446	13103
903.565	13061
903.683	13122
903.801	13023
903.919	13133
904.038	13057
904.156	12939
904.274	12989
904.392	12962
904.51	12829
904.627	12848
904.745	12935
904.863	13076
904.981	12719
905.098	12646
905.216	12650
905.334	12639
905.451	12642
905.569	12627
905.686	12635
905.803	12608
905.921	12502
906.038	12525
906.155	12429
906.272	12308
906.389	12338
906.506	12213
906.623	12262
906.74	12095
906.857	12095
906.974	12102
907.091	12251
907.208	12289
907.324	12281
907.441	12057
907.557	11920
907.674	11958
907.79	11851
907.907	11901
908.023	11973
908.139	11901
908.256	11882
908.372	11954
908.488	11851
908.604	11737
908.72	11680
908.836	11729
908.952	11634
909.068	11764
909.184	11809
909.3	11680
909.415	11733
909.531	11714
909.647	11482
909.762	11471
909.878	11429
909.993	11516
910.108	11467
910.224	11421
910.339	11532
910.454	11356
910.57	11372
910.685	11269
910.8	11570
910.915	11410
911.03	11318
911.145	11189
911.259	11261
911.374	11185
911.489	11121
911.604	11109
911.718	11029
911.833	10904
911.947	10866
912.062	10820
912.176	10949
912.291	10965
912.405	10961
912.519	11022
912.633	11223
912.748	10987
912.862	10961
912.976	10866
913.09	10729
913.204	10835
913.318	10854
913.431	11014
913.545	10927
913.659	10991
913.772	10900
913.886	10736
914	10656
914.113	10828
914.226	10816
914.34	10786
914.453	10656
914.566	10797
914.68	10797
914.793	10599
914.906	10512
915.019	10432
915.132	10367
915.245	10451
915.358	10497
915.47	10455
915.583	10459
915.696	10455
915.809	10542
915.921	10573
916.034	10413
916.146	10409
916.259	10379
916.371	10493
916.483	10447
916.595	10402
916.708	10455
916.82	10318
916.932	10360
917.044	10367
917.156	10379
917.268	10318
917.38	10379
917.491	10253
917.603	10306
917.715	10379
917.826	10360
917.938	10215
918.049	10109
918.161	10268
918.272	10409
918.384	10367
918.495	10390
918.606	10112
918.717	10128
918.828	10230
918.939	10211
919.05	10093
919.161	10169
919.272	9941
919.383	9956
919.494	10154
919.604	10409
919.715	10227
919.826	10074
919.936	10128
920.047	10276
920.157	10253
920.267	10417
920.378	10257
920.488	10150
920.598	10421
920.708	10580
920.818	10348
920.928	10371
921.038	10459
921.148	10546
921.258	10242
921.368	10139
921.477	10078
921.587	9915
921.697	9918
921.806	10051
921.916	9888
922.025	9781
922.134	9728
922.244	9633
922.353	9804
922.462	9587
922.571	9625
922.68	9435
922.789	9450
922.898	9458
923.007	9351
923.116	9447
923.224	9443
923.333	9405
923.442	9336
923.55	9260
923.659	9283
923.767	9454
923.876	9310
923.984	9405
924.092	9294
924.201	9386
924.309	9260
924.417	9275
924.525	9161
924.633	9329
924.741	10040
924.849	9135
924.956	9256
925.064	9119
925.172	9043
925.279	9051
925.387	9154
925.494	9043
925.602	9275
925.709	9161
925.816	8971
925.924	9104
926.031	9127
926.138	9112
926.245	9104
926.352	9051
926.459	9192
926.566	9173
926.673	9100
926.779	8948
926.886	8891
926.993	8819
927.099	8838
927.206	8788
927.312	8727
927.419	8868
927.525	8804
927.631	8876
927.737	8762
927.843	8689
927.95	8594
928.056	8678
928.162	8682
928.267	8735
928.373	9325
928.479	8857
928.585	8541
928.69	8735
928.796	8739
928.901	8625
929.007	8469
929.112	8651
929.218	8575
929.323	8518
929.428	8499
929.533	8636
929.638	8434
929.743	8533
929.848	8545
929.953	8476
930.058	8415
930.163	8229
930.267	8305
930.372	8431
930.477	8275
930.581	8495
930.685	8377
930.79	8233
930.894	8252
930.998	8233
931.103	8415
931.207	8012
931.311	7944
931.415	7864
931.519	7769
931.623	7719
