Data from test_V78500241_2398.txt Node
Date: Fri Mar 25 14:50:24 CST 2022
User: usil
Spectrometer: V785-0024
Trigger mode: 0
Integration Time (sec): 4.000000E-1
Scans to average: 1
Nonlinearity correction enabled: false
Boxcar width: 0
Storing dark spectrum: false
XAxis mode: Wavelengths
Number of Pixels in Spectrum: 1024
>>>>>Begin Spectral Data<<<<<
801.071	22200
801.214	22051
801.356	21759
801.499	21606
801.641	21530
801.783	21507
801.926	21405
802.068	21435
802.211	21306
802.353	21287
802.496	21112
802.638	20929
802.78	20967
802.923	20834
803.065	20765
803.208	20712
803.35	20788
803.492	20952
803.635	20914
803.777	20754
803.919	20944
804.061	21173
804.204	21017
804.346	20758
804.488	20625
804.63	20777
804.773	20765
804.915	20777
805.057	20849
805.199	20644
805.341	20807
805.483	20815
805.626	20796
805.768	20724
805.91	20804
806.052	20785
806.194	20606
806.336	20845
806.478	20705
806.62	20617
806.762	20876
806.904	20838
807.046	21119
807.188	20982
807.33	21024
807.472	21043
807.614	20906
807.756	20979
807.898	20724
808.04	20815
808.182	20781
808.324	20788
808.465	20830
808.607	21081
808.749	21135
808.891	21237
809.033	21321
809.174	21093
809.316	21051
809.458	21195
809.6	21138
809.741	21070
809.883	21142
810.025	21298
810.166	21249
810.308	21294
810.45	21275
810.591	21104
810.733	21154
810.875	20971
811.016	20826
811.158	20823
811.299	21013
811.441	20986
811.582	20902
811.724	20724
811.865	20876
812.007	20861
812.148	20849
812.29	20967
812.431	21077
812.573	21169
812.714	21199
812.855	21420
812.997	21580
813.138	21610
813.279	21389
813.421	21386
813.562	21233
813.703	21195
813.845	21043
813.986	20739
814.127	20640
814.268	20537
814.41	20469
814.551	20473
814.692	20499
814.833	20278
814.974	20511
815.115	20480
815.256	20237
815.397	20294
815.539	20324
815.68	20259
815.821	20077
815.962	20138
816.103	20016
816.244	20050
816.385	19955
816.526	19868
816.666	19757
816.807	19590
816.948	19597
817.089	19731
817.23	19734
817.371	19510
817.512	19616
817.653	19544
817.793	19518
817.934	19483
818.075	19502
818.216	19601
818.356	19594
818.497	19430
818.638	19141
818.778	19259
818.919	19206
819.06	19206
819.2	19411
819.341	19392
819.481	19441
819.622	19655
819.762	19696
819.903	19677
820.043	19540
820.184	19510
820.324	19586
820.465	19571
820.605	19533
820.746	19529
820.886	19346
821.026	19441
821.167	19460
821.307	19480
821.447	19544
821.588	19304
821.728	19206
821.868	19137
822.008	19019
822.149	19042
822.289	18814
822.429	18669
822.569	18620
822.709	18646
822.849	18437
822.99	18323
823.13	18353
823.27	18361
823.41	18266
823.55	18079
823.69	18209
823.83	18213
823.97	18213
824.11	18053
824.25	18110
824.389	18106
824.529	18121
824.669	17942
824.809	18057
824.949	18106
825.089	18015
825.228	18091
825.368	17866
825.508	17775
825.648	17809
825.787	17775
825.927	17805
826.067	17748
826.206	17790
826.346	17775
826.485	17756
826.625	17627
826.765	17973
826.904	17722
827.044	17596
827.183	17512
827.323	17493
827.462	17467
827.601	17528
827.741	17474
827.88	17573
828.02	17391
828.159	17452
828.298	17379
828.437	17478
828.577	17414
828.716	17649
828.855	17414
828.994	17212
829.134	17227
829.273	17318
829.412	17200
829.551	17159
829.69	17155
829.829	17204
829.968	17223
830.107	17212
830.246	17200
830.385	17334
830.524	17166
830.663	17128
830.802	16934
830.941	16763
831.08	16793
831.219	16869
831.357	16820
831.496	17060
831.635	16725
831.774	16782
831.913	16778
832.051	16607
832.19	16497
832.329	16535
832.467	16550
832.606	16523
832.744	16546
832.883	16527
833.022	16455
833.16	16523
833.299	16615
833.437	16535
833.576	16596
833.714	16573
833.852	16668
833.991	16508
834.129	16698
834.267	16607
834.406	16436
834.544	16607
834.682	16538
834.821	16497
834.959	16706
835.097	16538
835.235	16603
835.373	16550
835.511	16554
835.65	16447
835.788	16405
835.926	16325
836.064	16333
836.202	16360
836.34	16512
836.478	16630
836.615	16363
836.753	16443
836.891	16561
837.029	16584
837.167	16474
837.305	16363
837.443	16390
837.58	16287
837.718	16478
837.856	16341
837.993	16234
838.131	16291
838.269	16303
838.406	16257
838.544	16261
838.681	16158
838.819	16040
838.956	15907
839.094	15930
839.231	15998
839.369	16101
839.506	16325
839.643	15979
839.781	15876
839.918	15842
840.055	15827
840.193	15850
840.33	15842
840.467	15808
840.604	15918
840.742	16211
840.879	15701
841.016	15770
841.153	15804
841.29	16059
841.427	15918
841.564	15854
841.701	15861
841.838	15816
841.975	15800
842.112	15808
842.249	15663
842.385	15682
842.522	15911
842.659	15789
842.796	15671
842.933	15641
843.069	15629
843.206	15656
843.343	15698
843.479	15717
843.616	15736
843.752	15405
843.889	15542
844.025	15584
844.162	15420
844.298	15523
844.435	15389
844.571	15408
844.708	15496
844.844	15614
844.98	15591
845.117	15545
845.253	15382
845.389	15291
845.525	15340
845.661	15389
845.798	15249
845.934	15302
846.07	15287
846.206	15294
846.342	15378
846.478	15283
846.614	15123
846.75	14925
846.886	14990
847.022	15142
847.158	15055
847.294	15051
847.429	15066
847.565	14982
847.701	15173
847.837	14845
847.972	14697
848.108	14849
848.244	14758
848.379	14632
848.515	14651
848.65	14556
848.786	14659
848.921	14610
849.057	14724
849.192	14686
849.328	14629
849.463	14640
849.598	14590
849.734	14583
849.869	14423
850.004	14339
850.14	14427
850.275	14370
850.41	14278
850.545	14267
850.68	14450
850.815	14377
850.95	14229
851.085	14537
851.22	14545
851.355	14385
851.49	14358
851.625	14366
851.76	14339
851.895	14267
852.03	14282
852.165	14313
852.299	14431
852.434	14484
852.569	14389
852.703	14385
852.838	14423
852.973	14393
853.107	14636
853.242	14351
853.376	14290
853.511	14164
853.645	14259
853.78	14328
853.914	14286
854.048	14282
854.183	14332
854.317	14259
854.451	14320
854.585	14256
854.72	14210
854.854	14324
854.988	14271
855.122	14305
855.256	14134
855.39	14275
855.524	14282
855.658	14358
855.792	14240
855.926	14282
856.06	14294
856.194	14389
856.327	14275
856.461	14336
856.595	14229
856.729	14240
856.862	14400
856.996	14320
857.13	14336
857.263	14336
857.397	14450
857.53	14199
857.664	14328
857.797	14374
857.931	14347
858.064	14347
858.197	14396
858.331	14339
858.464	14229
858.597	14237
858.731	14366
858.864	14328
858.997	14229
859.13	14358
859.263	14389
859.396	14389
859.529	14256
859.662	14248
859.795	14320
859.928	14381
860.061	14495
860.194	14377
860.327	14244
860.46	14317
860.592	14446
860.725	14454
860.858	14450
860.99	14339
861.123	14252
861.256	14210
861.388	14263
861.521	14842
861.653	14202
861.786	14218
861.918	14164
862.05	14199
862.183	14145
862.315	14244
862.447	14317
862.58	14202
862.712	14069
862.844	14005
862.976	14153
863.108	14123
863.24	14434
863.372	13982
863.504	14107
863.636	14024
863.768	14024
863.9	13974
864.032	13925
864.164	14046
864.296	14130
864.428	14172
864.559	14149
864.691	14115
864.823	14119
864.954	14081
865.086	14149
865.217	14096
865.349	14035
865.48	14065
865.612	14081
865.743	14183
865.875	14084
866.006	14012
866.137	14191
866.269	14016
866.4	14012
866.531	13974
866.662	13936
866.793	14073
866.924	13974
867.055	14126
867.186	14069
867.317	14039
867.448	13967
867.579	14005
867.71	14031
867.841	13936
867.972	14065
868.103	14012
868.233	14100
868.364	14100
868.495	14149
868.625	14252
868.756	14400
868.886	14244
869.017	14305
869.147	14434
869.278	14457
869.408	14305
869.539	14294
869.669	14450
869.799	14324
869.929	14393
870.06	14366
870.19	14590
870.32	14549
870.45	14549
870.58	14773
870.71	14781
870.84	14788
870.97	14636
871.1	14648
871.23	14788
871.36	14963
871.489	14845
871.619	14842
871.749	14956
871.879	14899
872.008	15017
872.138	14948
872.267	14868
872.397	14746
872.526	14712
872.656	14686
872.785	14765
872.915	14941
873.044	15024
873.173	14921
873.303	14960
873.432	14967
873.561	15017
873.69	15043
873.819	14986
873.948	15077
874.077	14979
874.206	14868
874.335	14887
874.464	15104
874.593	15237
874.722	15154
874.851	15264
874.979	15291
875.108	15332
875.237	15264
875.365	15268
875.494	15272
875.623	15378
875.751	15226
875.88	15275
876.008	15412
876.136	15526
876.265	15679
876.393	15785
876.521	15701
876.65	15770
876.778	15747
876.906	15610
877.034	15648
877.162	15656
877.29	15644
877.418	15736
877.546	15739
877.674	15576
877.802	15709
877.93	15610
878.058	15656
878.185	15580
878.313	15778
878.441	15618
878.568	15466
878.696	15599
878.824	15736
878.951	15713
879.079	15930
879.206	15968
879.333	15926
879.461	15785
879.588	15766
879.715	15861
879.842	15960
879.97	15728
880.097	15553
880.224	15469
880.351	15568
880.478	15610
880.605	15488
880.732	15523
880.859	15781
880.986	15584
881.112	15614
881.239	15370
881.366	15222
881.493	15279
881.619	15165
881.746	15264
881.872	15195
881.999	15157
882.125	15119
882.252	15317
882.378	15230
882.505	15306
882.631	15104
882.757	15104
882.883	15077
883.01	14998
883.136	14998
883.262	14834
883.388	14842
883.514	15024
883.64	15119
883.766	14982
883.892	14830
884.018	14906
884.143	14960
884.269	15142
884.395	14792
884.52	14716
884.646	14659
884.772	14617
884.897	14632
885.023	14727
885.148	14819
885.274	14944
885.399	14796
885.524	14754
885.65	14765
885.775	14667
885.9	14682
886.025	14845
886.15	14735
886.275	14655
886.4	14686
886.525	14640
886.65	14613
886.775	14613
886.9	14823
887.025	14952
887.149	14792
887.274	14556
887.399	14537
887.523	14495
887.648	14450
887.773	14514
887.897	14678
888.021	14511
888.146	14495
888.27	14598
888.395	14686
888.519	14587
888.643	14564
888.767	14575
888.891	14446
889.015	14442
889.139	14469
889.263	14343
889.387	14522
889.511	14716
889.635	14514
889.759	14351
889.883	14465
890.006	14442
890.13	14549
890.254	14446
890.377	14381
890.501	14210
890.624	14149
890.748	14396
890.871	14084
890.995	14050
891.118	13974
891.241	14065
891.364	14103
891.488	14100
891.611	13947
891.734	14046
891.857	14138
891.98	14119
892.103	14176
892.226	14164
892.349	13986
892.471	13967
892.594	14039
892.717	14161
892.839	13993
892.962	14073
893.085	14218
893.207	14183
893.33	13993
893.452	14043
893.575	14202
893.697	14145
893.819	14271
893.941	14267
894.064	14130
894.186	14031
894.308	14058
894.43	14183
894.552	14324
894.674	14305
894.796	14073
894.918	14100
895.04	14058
895.161	14263
895.283	14126
895.405	14134
895.526	14259
895.648	14202
895.769	14320
895.891	14267
896.012	14317
896.134	14351
896.255	14157
896.376	14275
896.498	14298
896.619	14267
896.74	14286
896.861	14343
896.982	14678
897.103	14785
897.224	14636
897.345	14564
897.466	14332
897.587	14579
897.708	14720
897.828	14621
897.949	14533
898.07	14370
898.19	14473
898.311	14644
898.431	14507
898.552	14613
898.672	14670
898.792	14686
898.913	14724
899.033	14613
899.153	14404
899.273	14499
899.393	14442
899.513	14560
899.633	14533
899.753	14526
899.873	14476
899.993	14473
900.113	14522
900.232	14545
900.352	14450
900.472	14339
900.591	14362
900.711	14358
900.83	14370
900.95	14507
901.069	14454
901.189	14343
901.308	14073
901.427	14084
901.546	14008
901.665	13974
901.784	14062
901.904	13925
902.023	13841
902.141	13655
902.26	13510
902.379	13670
902.498	13578
902.617	13514
902.735	13597
902.854	13590
902.973	13502
903.091	13175
903.21	13324
903.328	13339
903.446	13187
903.565	13183
903.683	13179
903.801	13156
903.919	13228
904.038	13259
904.156	13053
904.274	13095
904.392	12913
904.51	12947
904.627	13015
904.745	13038
904.863	12928
904.981	12688
905.098	12608
905.216	12692
905.334	12688
905.451	12684
905.569	12658
905.686	12654
905.803	12601
905.921	12525
906.038	12623
906.155	12452
906.272	12365
906.389	12403
906.506	12285
906.623	12323
906.74	12167
906.857	12144
906.974	12182
907.091	12330
907.208	12388
907.324	12266
907.441	12167
907.557	12030
907.674	12095
907.79	11984
907.907	12011
908.023	11999
908.139	12022
908.256	12011
908.372	11958
908.488	11847
908.604	11828
908.72	11733
908.836	11813
908.952	11691
909.068	11722
909.184	11775
909.3	11764
909.415	11809
909.531	11741
909.647	11554
909.762	11566
909.878	11482
909.993	11566
910.108	11505
910.224	11512
910.339	11570
910.454	11402
910.57	11364
910.685	11239
910.8	11577
910.915	11524
911.03	11467
911.145	11299
911.259	11143
911.374	11261
911.489	11166
911.604	11132
911.718	10965
911.833	11052
911.947	10885
912.062	10889
912.176	10999
912.291	10965
912.405	10877
912.519	11181
912.633	11140
912.748	11102
912.862	11010
912.976	10923
913.09	10748
913.204	10702
913.318	10972
913.431	10930
913.545	10961
913.659	10946
913.772	10877
913.886	10805
914	10740
914.113	10816
914.226	10946
914.34	10904
914.453	10721
914.566	10835
914.68	10710
914.793	10637
914.906	10565
915.019	10497
915.132	10360
915.245	10561
915.358	10573
915.47	10565
915.583	10527
915.696	10546
915.809	10698
915.921	10618
916.034	10405
916.146	10459
916.259	10428
916.371	10497
916.483	10474
916.595	10390
916.708	10417
916.82	10390
916.932	10424
917.044	10333
917.156	10318
917.268	10291
917.38	10329
917.491	10303
917.603	10344
917.715	10356
917.826	10405
917.938	10314
918.049	10158
918.161	10318
918.272	10459
918.384	10451
918.495	10367
918.606	10192
918.717	10082
918.828	10268
918.939	10158
919.05	10154
919.161	10128
919.272	10010
919.383	10051
919.494	10131
919.604	10455
919.715	10219
919.826	10154
919.936	10120
920.047	10207
920.157	10280
920.267	10394
920.378	10230
920.488	10253
920.598	10402
920.708	10542
920.818	10462
920.928	10421
921.038	10687
921.148	10538
921.258	10265
921.368	10181
921.477	10139
921.587	10021
921.697	9934
921.806	10139
921.916	9949
922.025	9846
922.134	9793
922.244	9797
922.353	9808
922.462	9622
922.571	9648
922.68	9412
922.789	9405
922.898	9515
923.007	9348
923.116	9485
923.224	9545
923.333	9481
923.442	9408
923.55	9340
923.659	9428
923.767	9386
923.876	9275
923.984	9477
924.092	9355
924.201	9359
924.309	9340
924.417	9386
924.525	9245
924.633	9393
924.741	10097
924.849	9169
924.956	9329
925.064	9150
925.172	9100
925.279	9108
925.387	9226
925.494	9108
925.602	9264
925.709	9180
925.816	9116
925.924	9135
926.031	9237
926.138	9154
926.245	9241
926.352	9165
926.459	9173
926.566	9207
926.673	9100
926.779	9062
926.886	9028
926.993	8944
927.099	8842
927.206	8811
927.312	8826
927.419	8864
927.525	8906
927.631	8975
927.737	8781
927.843	8750
927.95	8686
928.056	8712
928.162	8735
928.267	8887
928.373	9355
928.479	8883
928.585	8682
928.69	8705
928.796	8811
928.901	8743
929.007	8606
929.112	8708
929.218	8629
929.323	8674
929.428	8644
929.533	8663
929.638	8511
929.743	8568
929.848	8648
929.953	8564
930.058	8454
930.163	8313
930.267	8366
930.372	8454
930.477	8336
930.581	8545
930.685	8434
930.79	8301
930.894	8336
930.998	8259
931.103	8423
931.207	8130
931.311	8069
931.415	8046
931.519	7811
931.623	7814
