Data from test_V78500241_2079.txt Node
Date: Fri Mar 25 14:48:11 CST 2022
User: usil
Spectrometer: V785-0024
Trigger mode: 0
Integration Time (sec): 4.000000E-1
Scans to average: 1
Nonlinearity correction enabled: false
Boxcar width: 0
Storing dark spectrum: false
XAxis mode: Wavelengths
Number of Pixels in Spectrum: 1024
>>>>>Begin Spectral Data<<<<<
801.071	22188
801.214	22013
801.356	21789
801.499	21698
801.641	21500
801.783	21644
801.926	21431
802.068	21595
802.211	21450
802.353	21317
802.496	21009
802.638	21055
802.78	20899
802.923	20910
803.065	20838
803.208	20762
803.35	20727
803.492	20925
803.635	21013
803.777	20880
803.919	20910
804.061	21154
804.204	20853
804.346	20883
804.488	20644
804.63	20773
804.773	20697
804.915	20712
805.057	20765
805.199	20731
805.341	20925
805.483	20800
805.626	20804
805.768	20708
805.91	20792
806.052	20758
806.194	20667
806.336	20868
806.478	20731
806.62	20670
806.762	20842
806.904	20998
807.046	21214
807.188	20944
807.33	21169
807.472	21112
807.614	20986
807.756	20960
807.898	20899
808.04	20842
808.182	20838
808.324	20853
808.465	20868
808.607	20941
808.749	21127
808.891	21180
809.033	21374
809.174	21173
809.316	21058
809.458	21173
809.6	21123
809.741	21066
809.883	21146
810.025	21150
810.166	21313
810.308	21344
810.45	21245
810.591	21119
810.733	20982
810.875	21028
811.016	20796
811.158	20743
811.299	20883
811.441	21066
811.582	21028
811.724	20982
811.865	20804
812.007	20834
812.148	20708
812.29	20979
812.431	20990
812.573	21317
812.714	21112
812.855	21447
812.997	21542
813.138	21660
813.279	21447
813.421	21564
813.562	21291
813.703	21077
813.845	21085
813.986	20705
814.127	20526
814.268	20507
814.41	20503
814.551	20526
814.692	20579
814.833	20427
814.974	20347
815.115	20396
815.256	20317
815.397	20290
815.539	20244
815.68	20088
815.821	20054
815.962	20199
816.103	20149
816.244	19947
816.385	19940
816.526	19989
816.666	19727
816.807	19582
816.948	19616
817.089	19704
817.23	19556
817.371	19639
817.512	19590
817.653	19605
817.793	19556
817.934	19548
818.075	19575
818.216	19643
818.356	19495
818.497	19415
818.638	19141
818.778	19179
818.919	19236
819.06	19403
819.2	19392
819.341	19373
819.481	19392
819.622	19643
819.762	19734
819.903	19628
820.043	19567
820.184	19590
820.324	19548
820.465	19746
820.605	19510
820.746	19544
820.886	19415
821.026	19483
821.167	19552
821.307	19639
821.447	19495
821.588	19449
821.728	19171
821.868	19183
822.008	19004
822.149	19099
822.289	18901
822.429	18734
822.569	18608
822.709	18738
822.849	18509
822.99	18429
823.13	18479
823.27	18365
823.41	18220
823.55	18216
823.69	18334
823.83	18178
823.97	18194
824.11	18144
824.25	17931
824.389	18121
824.529	18178
824.669	17904
824.809	18087
824.949	18083
825.089	18053
825.228	18053
825.368	17851
825.508	17859
825.648	17771
825.787	17783
825.927	17817
826.067	17760
826.206	17817
826.346	17836
826.485	17832
826.625	17760
826.765	17908
826.904	17855
827.044	17551
827.183	17600
827.323	17330
827.462	17566
827.601	17501
827.741	17558
827.88	17471
828.02	17239
828.159	17463
828.298	17566
828.437	17562
828.577	17528
828.716	17596
828.855	17406
828.994	17170
829.134	17216
829.273	17246
829.412	17212
829.551	17102
829.69	17223
829.829	17227
829.968	17258
830.107	17379
830.246	17246
830.385	17181
830.524	17162
830.663	17140
830.802	16911
830.941	16930
831.08	16858
831.219	17003
831.357	16915
831.496	16991
831.635	16831
831.774	16748
831.913	16866
832.051	16630
832.19	16702
832.329	16672
832.467	16592
832.606	16459
832.744	16535
832.883	16554
833.022	16565
833.16	16500
833.299	16577
833.437	16615
833.576	16641
833.714	16618
833.852	16660
833.991	16660
834.129	16672
834.267	16649
834.406	16660
834.544	16668
834.682	16615
834.821	16599
834.959	16771
835.097	16698
835.235	16706
835.373	16672
835.511	16664
835.65	16519
835.788	16390
835.926	16375
836.064	16417
836.202	16466
836.34	16558
836.478	16538
836.615	16523
836.753	16675
836.891	16679
837.029	16508
837.167	16577
837.305	16333
837.443	16394
837.58	16348
837.718	16634
837.856	16466
837.993	16356
838.131	16417
838.269	16249
838.406	16287
838.544	16139
838.681	16158
838.819	16051
838.956	15819
839.094	15895
839.231	16036
839.369	16082
839.506	16371
839.643	16154
839.781	16013
839.918	15785
840.055	15934
840.193	15926
840.33	15854
840.467	15945
840.604	15945
840.742	16230
840.879	15717
841.016	15831
841.153	15842
841.29	16112
841.427	15945
841.564	15964
841.701	15987
841.838	15895
841.975	15873
842.112	15831
842.249	15747
842.385	15667
842.522	15873
842.659	15755
842.796	15660
842.933	15778
843.069	15644
843.206	15686
843.343	15781
843.479	15778
843.616	15778
843.752	15572
843.889	15534
844.025	15694
844.162	15389
844.298	15606
844.435	15488
844.571	15481
844.708	15492
844.844	15625
844.98	15652
845.117	15485
845.253	15424
845.389	15363
845.525	15450
845.661	15408
845.798	15325
845.934	15428
846.07	15260
846.206	15393
846.342	15496
846.478	15275
846.614	15062
846.75	14982
846.886	15062
847.022	15116
847.158	15051
847.294	15051
847.429	15127
847.565	15066
847.701	15378
847.837	14815
847.972	14807
848.108	14921
848.244	14845
848.379	14796
848.515	14743
848.65	14648
848.786	14712
848.921	14678
849.057	14773
849.192	14693
849.328	14731
849.463	14617
849.598	14693
849.734	14552
849.869	14594
850.004	14492
850.14	14556
850.275	14415
850.41	14332
850.545	14355
850.68	14343
850.815	14492
850.95	14351
851.085	14587
851.22	14579
851.355	14381
851.49	14415
851.625	14400
851.76	14396
851.895	14282
852.03	14366
852.165	14434
852.299	14526
852.434	14461
852.569	14419
852.703	14514
852.838	14537
852.973	14556
853.107	14564
853.242	14530
853.376	14317
853.511	14199
853.645	14199
853.78	14396
853.914	14362
854.048	14225
854.183	14278
854.317	14301
854.451	14514
854.585	14248
854.72	14202
854.854	14431
854.988	14202
855.122	14320
855.256	14244
855.39	14282
855.524	14404
855.658	14389
855.792	14332
855.926	14332
856.06	14362
856.194	14381
856.327	14309
856.461	14183
856.595	14252
856.729	14240
856.862	14415
856.996	14294
857.13	14294
857.263	14286
857.397	14423
857.53	14317
857.664	14374
857.797	14351
857.931	14450
858.064	14294
858.197	14377
858.331	14336
858.464	14240
858.597	14164
858.731	14332
858.864	14343
858.997	14240
859.13	14328
859.263	14332
859.396	14423
859.529	14355
859.662	14305
859.795	14301
859.928	14263
860.061	14461
860.194	14499
860.327	14377
860.46	14317
860.592	14480
860.725	14434
860.858	14454
860.99	14412
861.123	14225
861.256	14336
861.388	14400
861.521	15028
861.653	14221
861.786	14187
861.918	14199
862.05	14267
862.183	14332
862.315	14374
862.447	14408
862.58	14237
862.712	14210
862.844	14111
862.976	14218
863.108	14096
863.24	14545
863.372	14107
863.504	14119
863.636	14069
863.768	14073
863.9	14084
864.032	14081
864.164	14149
864.296	14237
864.428	14298
864.559	14221
864.691	14240
864.823	14164
864.954	14187
865.086	14138
865.217	14225
865.349	14096
865.48	14168
865.612	14115
865.743	14339
865.875	14073
866.006	14138
866.137	14130
866.269	14073
866.4	14176
866.531	14062
866.662	14107
866.793	13993
866.924	14081
867.055	14149
867.186	14088
867.317	14020
867.448	13989
867.579	14016
867.71	13917
867.841	14039
867.972	14138
868.103	14115
868.233	14172
868.364	14161
868.495	14210
868.625	14309
868.756	14556
868.886	14278
869.017	14301
869.147	14526
869.278	14438
869.408	14393
869.539	14393
869.669	14495
869.799	14408
869.929	14518
870.06	14412
870.19	14754
870.32	14746
870.45	14731
870.58	14758
870.71	14895
870.84	14891
870.97	14743
871.1	14735
871.23	15036
871.36	14914
871.489	14800
871.619	14944
871.749	14853
871.879	14979
872.008	15150
872.138	15009
872.267	14975
872.397	14807
872.526	14906
872.656	14792
872.785	14788
872.915	15036
873.044	15093
873.173	14967
873.303	14948
873.432	14963
873.561	15093
873.69	14982
873.819	15024
873.948	15108
874.077	15055
874.206	15028
874.335	15036
874.464	15237
874.593	15287
874.722	15252
874.851	15294
874.979	15389
875.108	15374
875.237	15226
875.365	15230
875.494	15279
875.623	15420
875.751	15233
875.88	15317
876.008	15515
876.136	15473
876.265	15774
876.393	15873
876.521	15854
876.65	15774
876.778	15751
876.906	15781
877.034	15587
877.162	15785
877.29	15797
877.418	15770
877.546	15816
877.674	15656
877.802	15816
877.93	15671
878.058	15720
878.185	15614
878.313	15648
878.441	15797
878.568	15568
878.696	15698
878.824	15804
878.951	15762
879.079	15972
879.206	15994
879.333	15991
879.461	15751
879.588	15800
879.715	15953
879.842	16128
879.97	15838
880.097	15515
880.224	15618
880.351	15549
880.478	15561
880.605	15549
880.732	15648
880.859	15701
880.986	15584
881.112	15557
881.239	15519
881.366	15431
881.493	15252
881.619	15173
881.746	15218
881.872	15188
881.999	15211
882.125	15184
882.252	15329
882.378	15344
882.505	15348
882.631	15131
882.757	15066
882.883	15051
883.01	15116
883.136	15001
883.262	15001
883.388	14872
883.514	15108
883.64	15043
883.766	15013
883.892	14960
884.018	14994
884.143	15150
884.269	15154
884.395	14823
884.52	14796
884.646	14724
884.772	14636
884.897	14670
885.023	14765
885.148	14781
885.274	14937
885.399	14845
885.524	14762
885.65	14804
885.775	14792
885.9	14693
886.025	14830
886.15	14910
886.275	14746
886.4	14602
886.525	14674
886.65	14651
886.775	14705
886.9	14872
887.025	15081
887.149	14727
887.274	14594
887.399	14610
887.523	14594
887.648	14503
887.773	14549
887.897	14674
888.021	14701
888.146	14545
888.27	14708
888.395	14686
888.519	14648
888.643	14590
888.767	14705
888.891	14549
889.015	14393
889.139	14549
889.263	14377
889.387	14549
889.511	14648
889.635	14526
889.759	14476
889.883	14427
890.006	14446
890.13	14575
890.254	14355
890.377	14484
890.501	14225
890.624	14229
890.748	14313
890.871	14187
890.995	14126
891.118	14142
891.241	14161
891.364	14157
891.488	14191
891.611	14142
891.734	14115
891.857	14252
891.98	14195
892.103	14240
892.226	14123
892.349	14145
892.471	14039
892.594	14202
892.717	14145
892.839	14126
892.962	14199
893.085	14214
893.207	14046
893.33	14062
893.452	14054
893.575	14191
893.697	14161
893.819	14301
893.941	14396
894.064	14294
894.186	14195
894.308	14073
894.43	14298
894.552	14362
894.674	14377
894.796	14199
894.918	14157
895.04	14126
895.161	14275
895.283	14332
895.405	14130
895.526	14256
895.648	14176
895.769	14210
895.891	14347
896.012	14298
896.134	14290
896.255	14271
896.376	14294
896.498	14267
896.619	14393
896.74	14278
896.861	14309
896.982	14606
897.103	14842
897.224	14659
897.345	14511
897.466	14556
897.587	14533
897.708	14701
897.828	14629
897.949	14503
898.07	14450
898.19	14568
898.311	14731
898.431	14632
898.552	14678
898.672	14693
898.792	14727
898.913	14735
899.033	14556
899.153	14473
899.273	14446
899.393	14419
899.513	14606
899.633	14545
899.753	14598
899.873	14511
899.993	14533
900.113	14621
900.232	14507
900.352	14488
900.472	14400
900.591	14294
900.711	14381
900.83	14343
900.95	14465
901.069	14480
901.189	14305
901.308	14134
901.427	14107
901.546	14069
901.665	14062
901.784	14145
901.904	13989
902.023	13864
902.141	13643
902.26	13662
902.379	13693
902.498	13620
902.617	13552
902.735	13662
902.854	13594
902.973	13483
903.091	13362
903.21	13396
903.328	13316
903.446	13228
903.565	13206
903.683	13152
903.801	13137
903.919	13293
904.038	13171
904.156	13061
904.274	13065
904.392	13099
904.51	12943
904.627	13053
904.745	13084
904.863	13164
904.981	12741
905.098	12719
905.216	12658
905.334	12783
905.451	12700
905.569	12585
905.686	12802
905.803	12715
905.921	12528
906.038	12608
906.155	12597
906.272	12342
906.389	12433
906.506	12254
906.623	12304
906.74	12338
906.857	12133
906.974	12121
907.091	12399
907.208	12528
907.324	12311
907.441	12175
907.557	12117
907.674	11969
907.79	11923
907.907	11999
908.023	12076
908.139	12019
908.256	11916
908.372	11923
908.488	11863
908.604	11813
908.72	11767
908.836	11889
908.952	11756
909.068	11741
909.184	11935
909.3	11798
909.415	11798
909.531	11775
909.647	11558
909.762	11516
909.878	11509
909.993	11608
910.108	11577
910.224	11570
910.339	11611
910.454	11448
910.57	11360
910.685	11315
910.8	11577
910.915	11501
911.03	11429
911.145	11299
911.259	11322
911.374	11208
911.489	11162
911.604	11124
911.718	10961
911.833	10957
911.947	10850
912.062	10873
912.176	10991
912.291	11048
912.405	10961
912.519	11254
912.633	11185
912.748	11079
912.862	10980
912.976	10965
913.09	10782
913.204	10908
913.318	10854
913.431	10965
913.545	11014
913.659	11041
913.772	10938
913.886	10839
914	10793
914.113	10873
914.226	10858
914.34	10828
914.453	10733
914.566	10885
914.68	10763
914.793	10691
914.906	10535
915.019	10424
915.132	10451
915.245	10519
915.358	10592
915.47	10519
915.583	10558
915.696	10580
915.809	10706
915.921	10706
916.034	10527
916.146	10519
916.259	10405
916.371	10531
916.483	10440
916.595	10386
916.708	10440
916.82	10409
916.932	10405
917.044	10424
917.156	10478
917.268	10295
917.38	10398
917.491	10295
917.603	10310
917.715	10371
917.826	10360
917.938	10333
918.049	10253
918.161	10455
918.272	10466
918.384	10489
918.495	10432
918.606	10261
918.717	10150
918.828	10261
918.939	10261
919.05	10124
919.161	10204
919.272	10017
919.383	10109
919.494	10287
919.604	10379
919.715	10265
919.826	10120
919.936	10192
920.047	10223
920.157	10253
920.267	10451
920.378	10200
920.488	10192
920.598	10466
920.708	10660
920.818	10394
920.928	10474
921.038	10485
921.148	10542
921.258	10257
921.368	10257
921.477	10158
921.587	10097
921.697	10032
921.806	10040
921.916	10002
922.025	9789
922.134	9797
922.244	9644
922.353	9861
922.462	9717
922.571	9705
922.68	9496
922.789	9477
922.898	9523
923.007	9473
923.116	9545
923.224	9447
923.333	9485
923.442	9389
923.55	9351
923.659	9450
923.767	9511
923.876	9287
923.984	9435
924.092	9268
924.201	9370
924.309	9317
924.417	9386
924.525	9294
924.633	9359
924.741	10246
924.849	9203
924.956	9294
925.064	9085
925.172	9097
925.279	9146
925.387	9218
925.494	9195
925.602	9222
925.709	9260
925.816	9150
925.924	9188
926.031	9233
926.138	9104
926.245	9287
926.352	8994
926.459	9218
926.566	9264
926.673	9112
926.779	9043
926.886	9039
926.993	8929
927.099	8902
927.206	8811
927.312	8842
927.419	8899
927.525	8853
927.631	8857
927.737	8830
927.843	8705
927.95	8651
928.056	8785
928.162	8788
928.267	8804
928.373	9458
928.479	8880
928.585	8606
928.69	8815
928.796	8769
928.901	8727
929.007	8564
929.112	8651
929.218	8659
929.323	8648
929.428	8613
929.533	8739
929.638	8492
929.743	8564
929.848	8655
929.953	8560
930.058	8503
930.163	8408
930.267	8309
930.372	8469
930.477	8370
930.581	8522
930.685	8518
930.79	8309
930.894	8298
930.998	8298
931.103	8473
931.207	8119
931.311	8005
931.415	7986
931.519	7814
931.623	7875
