Data from test_V78500241_647.txt Node
Date: Fri Mar 25 14:38:13 CST 2022
User: usil
Spectrometer: V785-0024
Trigger mode: 0
Integration Time (sec): 4.000000E-1
Scans to average: 1
Nonlinearity correction enabled: false
Boxcar width: 0
Storing dark spectrum: false
XAxis mode: Wavelengths
Number of Pixels in Spectrum: 1024
>>>>>Begin Spectral Data<<<<<
801.071	27956
801.214	27838
801.356	27591
801.499	27458
801.641	27401
801.783	27241
801.926	27268
802.068	27165
802.211	27184
802.353	27005
802.496	26979
802.638	26826
802.78	26807
802.923	26708
803.065	26796
803.208	26769
803.35	26785
803.492	26937
803.635	27089
803.777	27058
803.919	26986
804.061	27313
804.204	26960
804.346	26918
804.488	26994
804.63	27154
804.773	26971
804.915	27180
805.057	27332
805.199	27237
805.341	27389
805.483	27420
805.626	27618
805.768	27355
805.91	27580
806.052	27850
806.194	27690
806.336	28059
806.478	28120
806.62	28181
806.762	28649
806.904	28888
807.046	29440
807.188	29554
807.33	29935
807.472	30544
807.614	30973
807.756	31791
807.898	32864
808.04	33991
808.182	35935
808.324	38229
808.465	40736
808.607	43616
808.749	46089
808.891	47741
809.033	47767
809.174	46379
809.316	43791
809.458	40691
809.6	37765
809.741	35482
809.883	33622
810.025	32453
810.166	31411
810.308	30821
810.45	30338
810.591	29817
810.733	29140
810.875	28934
811.016	28702
811.158	28379
811.299	28329
811.441	28341
811.582	28246
811.724	27987
811.865	27781
812.007	27766
812.148	27667
812.29	27724
812.431	27789
812.573	27880
812.714	27979
812.855	27964
812.997	27895
813.138	27960
813.279	27937
813.421	27823
813.562	27610
813.703	27420
813.845	27397
813.986	27036
814.127	26929
814.268	26701
814.41	26629
814.551	26655
814.692	26739
814.833	26549
814.974	26492
815.115	26526
815.256	26301
815.397	26431
815.539	26305
815.68	26218
815.821	26233
815.962	26084
816.103	26073
816.244	26046
816.385	25997
816.526	25803
816.666	25655
816.807	25514
816.948	25441
817.089	25533
817.23	25430
817.371	25628
817.512	25487
817.653	25400
817.793	25384
817.934	25518
818.075	25453
818.216	25400
818.356	25388
818.497	25270
818.638	25000
818.778	25118
818.919	25164
819.06	25088
819.2	25175
819.341	25362
819.481	25403
819.622	25403
819.762	25597
819.903	25514
820.043	25483
820.184	25297
820.324	25251
820.465	25407
820.605	25324
820.746	25293
820.886	25236
821.026	25175
821.167	25084
821.307	25168
821.447	25072
821.588	25076
821.728	24886
821.868	24673
822.008	24551
822.149	24604
822.289	24407
822.429	24254
822.569	24220
822.709	24235
822.849	23999
822.99	24083
823.13	23912
823.27	23866
823.41	23745
823.55	23634
823.69	23756
823.83	23771
823.97	23573
824.11	23444
824.25	23337
824.389	23535
824.529	23611
824.669	23581
824.809	23573
824.949	23509
825.089	23471
825.228	23638
825.368	23330
825.508	23376
825.648	23444
825.787	23288
825.927	23345
826.067	23299
826.206	23216
826.346	23345
826.485	23265
826.625	23265
826.765	23368
826.904	23376
827.044	23090
827.183	23014
827.323	23033
827.462	23029
827.601	22915
827.741	22953
827.88	22873
828.02	22801
828.159	22904
828.298	22911
828.437	22919
828.577	22820
828.716	23056
828.855	22858
828.994	22683
829.134	22702
829.273	22569
829.412	22554
829.551	22603
829.69	22618
829.829	22618
829.968	22733
830.107	22767
830.246	22466
830.385	22649
830.524	22554
830.663	22459
830.802	22299
830.941	22150
831.08	22188
831.219	22169
831.357	22223
831.496	22512
831.635	22223
831.774	22082
831.913	22128
832.051	22017
832.19	22021
832.329	22078
832.467	22055
832.606	21994
832.744	22124
832.883	22032
833.022	22287
833.16	22234
833.299	22261
833.437	22432
833.576	22500
833.714	22710
833.852	22927
833.991	22984
834.129	23025
834.267	22999
834.406	22984
834.544	22965
834.682	22755
834.821	22649
834.959	22786
835.097	22360
835.235	22527
835.373	22356
835.511	22219
835.65	22021
835.788	21998
835.926	21895
836.064	21743
836.202	21637
836.34	21785
836.478	21873
836.615	21751
836.753	21819
836.891	21865
837.029	21736
837.167	21595
837.305	21595
837.443	21534
837.58	21591
837.718	21656
837.856	21648
837.993	21583
838.131	21606
838.269	21420
838.406	21477
838.544	21389
838.681	21199
838.819	21169
838.956	21013
839.094	20986
839.231	21135
839.369	21123
839.506	21344
839.643	21241
839.781	20941
839.918	20910
840.055	20971
840.193	21043
840.33	20902
840.467	20937
840.604	20941
840.742	21207
840.879	20845
841.016	20887
841.153	20872
841.29	21017
841.427	20864
841.564	20895
841.701	20971
841.838	20861
841.975	20785
842.112	20796
842.249	20670
842.385	20712
842.522	21058
842.659	20727
842.796	20792
842.933	20823
843.069	20735
843.206	20750
843.343	20887
843.479	20948
843.616	20910
843.752	20739
843.889	20830
844.025	20838
844.162	20834
844.298	21024
844.435	21032
844.571	21378
844.708	21469
844.844	21972
844.98	22284
845.117	22710
845.253	23482
845.389	25061
845.525	28131
845.661	33260
845.798	39127
845.934	43597
846.07	45310
846.206	44161
846.342	40166
846.478	34188
846.614	28946
846.75	25734
846.886	23672
847.022	22733
847.158	21911
847.294	21245
847.429	21017
847.565	20648
847.701	20678
847.837	20225
847.972	20039
848.108	20016
848.244	20161
848.379	19791
848.515	19757
848.65	19601
848.786	19814
848.921	19693
849.057	19731
849.192	19719
849.328	19719
849.463	19681
849.598	19419
849.734	19624
849.869	19449
850.004	19377
850.14	19354
850.275	19247
850.41	19148
850.545	19137
850.68	19289
850.815	19384
850.95	19251
851.085	19362
851.22	19354
851.355	19297
851.49	19183
851.625	19270
851.76	19339
851.895	19282
852.03	19255
852.165	19145
852.299	19289
852.434	19392
852.569	19324
852.703	19365
852.838	19438
852.973	19533
853.107	19396
853.242	19426
853.376	19331
853.511	19316
853.645	19358
853.78	19506
853.914	19396
854.048	19403
854.183	19438
854.317	19491
854.451	19719
854.585	19578
854.72	19514
854.854	19624
854.988	19400
855.122	19400
855.256	19247
855.39	19324
855.524	19282
855.658	19122
855.792	19171
855.926	19171
856.06	19251
856.194	19289
856.327	19122
856.461	19080
856.595	19152
856.729	19019
856.862	19251
856.996	19069
857.13	19244
857.263	19137
857.397	19088
857.53	19023
857.664	19099
857.797	19141
857.931	19175
858.064	19057
858.197	19072
858.331	19072
858.464	18947
858.597	18863
858.731	19122
858.864	18905
858.997	18947
859.13	18962
859.263	19008
859.396	19107
859.529	18878
859.662	19023
859.795	18973
859.928	18962
860.061	19141
860.194	19270
860.327	19015
860.46	19015
860.592	19023
860.725	19027
860.858	19206
860.99	18886
861.123	18852
861.256	18875
861.388	18916
861.521	19529
861.653	18840
861.786	18719
861.918	18795
862.05	18852
862.183	18966
862.315	19012
862.447	19080
862.58	18882
862.712	18776
862.844	18601
862.976	18783
863.108	18730
863.24	19065
863.372	18593
863.504	18741
863.636	18665
863.768	18741
863.9	18688
864.032	18502
864.164	18506
864.296	18563
864.428	18776
864.559	18650
864.691	18585
864.823	18658
864.954	18608
865.086	18563
865.217	18525
865.349	18570
865.48	18601
865.612	18532
865.743	18570
865.875	18597
866.006	18536
866.137	18521
866.269	18517
866.4	18464
866.531	18589
866.662	18456
866.793	18574
866.924	18418
867.055	18456
867.186	18509
867.317	18456
867.448	18521
867.579	18471
867.71	18399
867.841	18399
867.972	18441
868.103	18479
868.233	18532
868.364	18391
868.495	18627
868.625	18616
868.756	18779
868.886	18738
869.017	18696
869.147	18909
869.278	18901
869.408	18696
869.539	18700
869.669	18871
869.799	18829
869.929	18943
870.06	18875
870.19	19091
870.32	19069
870.45	19122
870.58	19152
870.71	19327
870.84	19263
870.97	19179
871.1	19171
871.23	19343
871.36	19525
871.489	19308
871.619	19464
871.749	19400
871.879	19529
872.008	19632
872.138	19518
872.267	19464
872.397	19506
872.526	19365
872.656	19346
872.785	19445
872.915	19597
873.044	19651
873.173	19487
873.303	19685
873.432	19696
873.561	19814
873.69	19769
873.819	19662
873.948	19753
874.077	19727
874.206	19696
874.335	19780
874.464	19894
874.593	19947
874.722	20024
874.851	20263
874.979	20290
875.108	20313
875.237	20210
875.365	20172
875.494	20252
875.623	20404
875.751	20358
875.88	20427
876.008	20640
876.136	20670
876.265	20975
876.393	20963
876.521	21066
876.65	21055
876.778	21108
876.906	21161
877.034	21188
877.162	21283
877.29	21116
877.418	21408
877.546	21344
877.674	21564
877.802	21606
877.93	21747
878.058	21888
878.185	22017
878.313	22318
878.441	22523
878.568	22759
878.696	23326
878.824	24205
878.951	25164
879.079	26438
879.206	28272
879.333	30068
879.461	31434
879.588	32393
879.715	32469
879.842	31693
879.97	30144
880.097	28120
880.224	26724
880.351	25662
880.478	24962
880.605	24369
880.732	24026
880.859	24117
880.986	23779
881.112	23634
881.239	23615
881.366	23337
881.493	23429
881.619	23292
881.746	23337
881.872	23284
881.999	23269
882.125	23296
882.252	23398
882.378	23395
882.505	23570
882.631	23436
882.757	23277
882.883	23391
883.01	23296
883.136	23086
883.262	23166
883.388	23022
883.514	23185
883.64	23364
883.766	23113
883.892	22915
884.018	23064
884.143	23128
884.269	23330
884.395	22911
884.52	22885
884.646	22881
884.772	22976
884.897	22908
885.023	22942
885.148	23006
885.274	22892
885.399	22805
885.524	22592
885.65	22554
885.775	22523
885.9	22402
886.025	22390
886.15	22207
886.275	22010
886.4	21823
886.525	21720
886.65	21485
886.775	21561
886.9	21595
887.025	21587
887.149	21321
887.274	21013
887.399	21020
887.523	20960
887.648	20606
887.773	20663
887.897	20724
888.021	20686
888.146	20457
888.27	20625
888.395	20617
888.519	20423
888.643	20457
888.767	20381
888.891	20180
889.015	20084
889.139	20092
889.263	20062
889.387	20130
889.511	20164
889.635	20134
889.759	19951
889.883	19887
890.006	19841
890.13	19925
890.254	19689
890.377	19647
890.501	19495
890.624	19476
890.748	19567
890.871	19422
890.995	19232
891.118	19126
891.241	19358
891.364	19118
891.488	19335
891.611	19050
891.734	19103
891.857	19171
891.98	19080
892.103	19122
892.226	18977
892.349	18913
892.471	18810
892.594	18840
892.717	18920
892.839	18875
892.962	18837
893.085	18935
893.207	18825
893.33	18715
893.452	18688
893.575	18776
893.697	18715
893.819	18772
893.941	18852
894.064	18745
894.186	18540
894.308	18532
894.43	18597
894.552	18749
894.674	18646
894.796	18502
894.918	18490
895.04	18494
895.161	18403
895.283	18467
895.405	18509
895.526	18471
895.648	18494
895.769	18384
895.891	18353
896.012	18563
896.134	18475
896.255	18395
896.376	18486
896.498	18338
896.619	18483
896.74	18319
896.861	18445
896.982	18741
897.103	18856
897.224	18669
897.345	18502
897.466	18502
897.587	18521
897.708	18757
897.828	18570
897.949	18589
898.07	18391
898.19	18551
898.311	18608
898.431	18410
898.552	18559
898.672	18669
898.792	18608
898.913	18593
899.033	18456
899.153	18441
899.273	18152
899.393	18247
899.513	18376
899.633	18327
899.753	18391
899.873	18262
899.993	18357
900.113	18254
900.232	18380
900.352	18285
900.472	18247
900.591	18072
900.711	18197
900.83	18117
900.95	18171
901.069	18174
901.189	18030
901.308	17779
901.427	17680
901.546	17786
901.665	17653
901.784	17687
901.904	17592
902.023	17474
902.141	17258
902.26	17250
902.379	17239
902.498	17117
902.617	17037
902.735	17216
902.854	17124
902.973	16980
903.091	16949
903.21	16740
903.328	16892
903.446	16801
903.565	16550
903.683	16542
903.801	16489
903.919	16523
904.038	16634
904.156	16329
904.274	16398
904.392	16238
904.51	16421
904.627	16276
904.745	16386
904.863	16382
904.981	16044
905.098	15975
905.216	15956
905.334	16006
905.451	16044
905.569	16055
905.686	16025
905.803	15918
905.921	15675
906.038	15865
906.155	15797
906.272	15622
906.389	15637
906.506	15526
906.623	15523
906.74	15405
906.857	15359
906.974	15386
907.091	15591
907.208	15553
907.324	15458
907.441	15374
907.557	15260
907.674	15112
907.79	15169
907.907	15119
908.023	15154
908.139	15138
908.256	15138
908.372	15032
908.488	15055
908.604	14921
908.72	14861
908.836	14906
908.952	14834
909.068	15005
909.184	14979
909.3	14918
909.415	15005
909.531	14864
909.647	14648
909.762	14560
909.878	14678
909.993	14632
910.108	14598
910.224	14583
910.339	14743
910.454	14556
910.57	14362
910.685	14415
910.8	14644
910.915	14533
911.03	14396
911.145	14301
911.259	14256
911.374	14180
911.489	14161
911.604	14130
911.718	13997
911.833	14050
911.947	13936
912.062	13818
912.176	14035
912.291	13875
912.405	13993
912.519	14187
912.633	14180
912.748	14046
912.862	13917
912.976	13811
913.09	13674
913.204	13788
913.318	13826
913.431	13890
913.545	13879
913.659	13993
913.772	13906
913.886	13772
914	13769
914.113	13799
914.226	13799
914.34	13704
914.453	13639
914.566	13731
914.68	13597
914.793	13643
914.906	13369
915.019	13304
915.132	13335
915.245	13373
915.358	13331
915.47	13441
915.583	13384
915.696	13449
915.809	13468
915.921	13502
916.034	13335
916.146	13327
916.259	13320
916.371	13396
916.483	13365
916.595	13327
916.708	13365
916.82	13320
916.932	13346
917.044	13244
917.156	13266
917.268	13202
917.38	13050
917.491	13099
917.603	13110
917.715	13164
917.826	13270
917.938	13057
918.049	12943
918.161	13038
918.272	13232
918.384	13149
918.495	12954
918.606	12966
918.717	12817
918.828	12916
918.939	12928
919.05	12760
919.161	12760
919.272	12642
919.383	12741
919.494	12840
919.604	13027
919.715	12856
919.826	12734
919.936	12779
920.047	12916
920.157	12734
920.267	12962
920.378	12867
920.488	12753
920.598	12943
920.708	13122
920.818	12871
920.928	12928
921.038	13118
921.148	13122
921.258	12791
921.368	12582
921.477	12604
921.587	12521
921.697	12483
921.806	12631
921.916	12365
922.025	12330
922.134	12251
922.244	12201
922.353	12285
922.462	12144
922.571	12140
922.68	11965
922.789	11885
922.898	11916
923.007	11824
923.116	11923
923.224	11874
923.333	11832
923.442	11760
923.55	11710
923.659	11726
923.767	11885
923.876	11661
923.984	11771
924.092	11630
924.201	11741
924.309	11657
924.417	11775
924.525	11657
924.633	11665
924.741	12300
924.849	11433
924.956	11592
925.064	11455
925.172	11299
925.279	11360
925.387	11376
925.494	11497
925.602	11482
925.709	11505
925.816	11383
925.924	11307
926.031	11402
926.138	11478
926.245	11429
926.352	11398
926.459	11356
926.566	11376
926.673	11368
926.779	11212
926.886	11212
926.993	11147
927.099	10972
927.206	10995
927.312	10942
927.419	11079
927.525	11033
927.631	11140
927.737	10968
927.843	10854
927.95	10820
928.056	10831
928.162	10919
928.267	10987
928.373	11474
928.479	10850
928.585	10691
928.69	10896
928.796	10911
928.901	10634
929.007	10656
929.112	10763
929.218	10740
929.323	10710
929.428	10615
929.533	10831
929.638	10592
929.743	10580
929.848	10698
929.953	10672
930.058	10550
930.163	10360
930.267	10344
930.372	10470
930.477	10306
930.581	10561
930.685	10402
930.79	10230
930.894	10322
930.998	10287
931.103	10333
931.207	10036
931.311	9930
931.415	9926
931.519	9785
931.623	9614
