Data from test_V78500241_2693.txt Node
Date: Fri Mar 25 14:52:28 CST 2022
User: usil
Spectrometer: V785-0024
Trigger mode: 0
Integration Time (sec): 4.000000E-1
Scans to average: 1
Nonlinearity correction enabled: false
Boxcar width: 0
Storing dark spectrum: false
XAxis mode: Wavelengths
Number of Pixels in Spectrum: 1024
>>>>>Begin Spectral Data<<<<<
801.071	22029
801.214	21857
801.356	21698
801.499	21511
801.641	21450
801.783	21466
801.926	21428
802.068	21264
802.211	21195
802.353	21165
802.496	20895
802.638	20800
802.78	20765
802.923	20674
803.065	20587
803.208	20743
803.35	20674
803.492	20781
803.635	20956
803.777	20598
803.919	20701
804.061	21104
804.204	20720
804.346	20651
804.488	20549
804.63	20788
804.773	20552
804.915	20689
805.057	20731
805.199	20606
805.341	20705
805.483	20663
805.626	20659
805.768	20541
805.91	20598
806.052	20587
806.194	20552
806.336	20686
806.478	20606
806.62	20431
806.762	20541
806.904	20826
807.046	21066
807.188	20994
807.33	20921
807.472	20963
807.614	20819
807.756	20864
807.898	20670
808.04	20667
808.182	20750
808.324	20560
808.465	20731
808.607	20876
808.749	21001
808.891	21005
809.033	21157
809.174	21020
809.316	20979
809.458	20982
809.6	20880
809.741	21081
809.883	20986
810.025	21116
810.166	20979
810.308	21127
810.45	21051
810.591	20914
810.733	20876
810.875	20689
811.016	20667
811.158	20659
811.299	20735
811.441	20834
811.582	20769
811.724	20712
811.865	20743
812.007	20727
812.148	20678
812.29	20781
812.431	20864
812.573	21119
812.714	21100
812.855	21214
812.997	21363
813.138	21477
813.279	21264
813.421	21173
813.562	21104
813.703	20899
813.845	20845
813.986	20602
814.127	20358
814.268	20370
814.41	20317
814.551	20313
814.692	20347
814.833	20164
814.974	20298
815.115	20210
815.256	20145
815.397	20214
815.539	20168
815.68	20008
815.821	19928
815.962	20016
816.103	19906
816.244	19780
816.385	19708
816.526	19795
816.666	19499
816.807	19419
816.948	19544
817.089	19548
817.23	19396
817.371	19480
817.512	19540
817.653	19415
817.793	19396
817.934	19491
818.075	19411
818.216	19324
818.356	19274
818.497	19259
818.638	19034
818.778	19133
818.919	19004
819.06	19076
819.2	19263
819.341	19266
819.481	19251
819.622	19453
819.762	19518
819.903	19525
820.043	19403
820.184	19312
820.324	19312
820.465	19392
820.605	19411
820.746	19346
820.886	19251
821.026	19221
821.167	19358
821.307	19430
821.447	19327
821.588	19301
821.728	19019
821.868	18920
822.008	18760
822.149	18779
822.289	18798
822.429	18566
822.569	18536
822.709	18414
822.849	18342
822.99	18346
823.13	18319
823.27	18296
823.41	18102
823.55	17965
823.69	18114
823.83	18060
823.97	18041
824.11	17870
824.25	17889
824.389	17897
824.529	17882
824.669	17748
824.809	18053
824.949	17954
825.089	17908
825.228	17824
825.368	17745
825.508	17657
825.648	17653
825.787	17771
825.927	17718
826.067	17642
826.206	17691
826.346	17729
826.485	17623
826.625	17672
826.765	17878
826.904	17733
827.044	17421
827.183	17410
827.323	17360
827.462	17414
827.601	17250
827.741	17379
827.88	17448
828.02	17212
828.159	17334
828.298	17322
828.437	17376
828.577	17242
828.716	17448
828.855	17303
828.994	17041
829.134	17079
829.273	17048
829.412	17029
829.551	17003
829.69	17140
829.829	17197
829.968	17265
830.107	17102
830.246	17155
830.385	16987
830.524	17041
830.663	17006
830.802	16809
830.941	16698
831.08	16782
831.219	16805
831.357	16729
831.496	17006
831.635	16710
831.774	16634
831.913	16717
832.051	16542
832.19	16622
832.329	16577
832.467	16443
832.606	16405
832.744	16375
832.883	16421
833.022	16333
833.16	16421
833.299	16485
833.437	16474
833.576	16550
833.714	16489
833.852	16504
833.991	16535
834.129	16497
834.267	16519
834.406	16405
834.544	16565
834.682	16455
834.821	16512
834.959	16656
835.097	16413
835.235	16466
835.373	16516
835.511	16493
835.65	16382
835.788	16341
835.926	16310
836.064	16344
836.202	16295
836.34	16478
836.478	16546
836.615	16409
836.753	16497
836.891	16500
837.029	16382
837.167	16314
837.305	16329
837.443	16318
837.58	16150
837.718	16219
837.856	16284
837.993	16253
838.131	16367
838.269	16306
838.406	16173
838.544	16147
838.681	15964
838.819	15941
838.956	15808
839.094	15686
839.231	15972
839.369	16059
839.506	16196
839.643	16036
839.781	15800
839.918	15770
840.055	15972
840.193	15743
840.33	15892
840.467	15918
840.604	15800
840.742	16063
840.879	15637
841.016	15732
841.153	15789
841.29	15880
841.427	15930
841.564	15911
841.701	15789
841.838	15808
841.975	15690
842.112	15682
842.249	15599
842.385	15553
842.522	15789
842.659	15629
842.796	15641
842.933	15561
843.069	15637
843.206	15625
843.343	15618
843.479	15553
843.616	15625
843.752	15450
843.889	15485
844.025	15568
844.162	15393
844.298	15591
844.435	15374
844.571	15317
844.708	15466
844.844	15557
844.98	15519
845.117	15485
845.253	15386
845.389	15233
845.525	15313
845.661	15313
845.798	15180
845.934	15241
846.07	15180
846.206	15207
846.342	15348
846.478	15192
846.614	14975
846.75	14952
846.886	14979
847.022	14994
847.158	15020
847.294	15039
847.429	15024
847.565	14845
847.701	15218
847.837	14724
847.972	14659
848.108	14765
848.244	14697
848.379	14602
848.515	14518
848.65	14594
848.786	14621
848.921	14636
849.057	14663
849.192	14594
849.328	14549
849.463	14571
849.598	14579
849.734	14526
849.869	14415
850.004	14377
850.14	14473
850.275	14377
850.41	14278
850.545	14301
850.68	14240
850.815	14309
850.95	14358
851.085	14507
851.22	14503
851.355	14362
851.49	14282
851.625	14301
851.76	14377
851.895	14195
852.03	14271
852.165	14305
852.299	14362
852.434	14351
852.569	14339
852.703	14355
852.838	14393
852.973	14499
853.107	14366
853.242	14343
853.376	14237
853.511	14103
853.645	14157
853.78	14275
853.914	14206
854.048	14214
854.183	14202
854.317	14244
854.451	14351
854.585	14309
854.72	14214
854.854	14290
854.988	14084
855.122	14218
855.256	14092
855.39	14218
855.524	14259
855.658	14278
855.792	14240
855.926	14305
856.06	14290
856.194	14339
856.327	14115
856.461	14077
856.595	14168
856.729	14210
856.862	14320
856.996	14278
857.13	14309
857.263	14290
857.397	14305
857.53	14240
857.664	14252
857.797	14317
857.931	14294
858.064	14275
858.197	14271
858.331	14229
858.464	14157
858.597	14210
858.731	14248
858.864	14161
858.997	14195
859.13	14157
859.263	14240
859.396	14305
859.529	14195
859.662	14191
859.795	14119
859.928	14221
860.061	14385
860.194	14393
860.327	14210
860.46	14210
860.592	14320
860.725	14404
860.858	14301
860.99	14240
861.123	14195
861.256	14195
861.388	14282
861.521	14716
861.653	14119
861.786	14001
861.918	14130
862.05	14115
862.183	14195
862.315	14218
862.447	14221
862.58	14164
862.712	13978
862.844	13909
862.976	13974
863.108	13974
863.24	14381
863.372	13913
863.504	13940
863.636	14081
863.768	13970
863.9	14046
864.032	13906
864.164	13906
864.296	14020
864.428	14054
864.559	14035
864.691	14092
864.823	14012
864.954	14008
865.086	13974
865.217	13970
865.349	13894
865.48	13925
865.612	13940
865.743	14054
865.875	13951
866.006	13951
866.137	14005
866.269	13989
866.4	13864
866.531	13951
866.662	13883
866.793	13917
866.924	13868
867.055	13963
867.186	13989
867.317	13951
867.448	13898
867.579	13909
867.71	13879
867.841	13955
867.972	13993
868.103	14008
868.233	13944
868.364	14020
868.495	14020
868.625	14214
868.756	14377
868.886	14153
869.017	14313
869.147	14385
869.278	14381
869.408	14240
869.539	14221
869.669	14320
869.799	14381
869.929	14339
870.06	14355
870.19	14537
870.32	14575
870.45	14583
870.58	14659
870.71	14655
870.84	14727
870.97	14743
871.1	14568
871.23	14739
871.36	14777
871.489	14705
871.619	14864
871.749	14826
871.879	14842
872.008	14941
872.138	14754
872.267	14887
872.397	14743
872.526	14712
872.656	14689
872.785	14739
872.915	14883
873.044	14853
873.173	14796
873.303	14849
873.432	14960
873.561	14960
873.69	14937
873.819	14929
873.948	15043
874.077	14925
874.206	14834
874.335	14971
874.464	15070
874.593	15157
874.722	15085
874.851	15287
874.979	15317
875.108	15294
875.237	15173
875.365	14986
875.494	15146
875.623	15245
875.751	15150
875.88	15112
876.008	15348
876.136	15462
876.265	15587
876.393	15770
876.521	15682
876.65	15614
876.778	15682
876.906	15606
877.034	15542
877.162	15553
877.29	15587
877.418	15572
877.546	15584
877.674	15610
877.802	15526
877.93	15561
878.058	15587
878.185	15534
878.313	15667
878.441	15553
878.568	15481
878.696	15466
878.824	15679
878.951	15698
879.079	15854
879.206	15915
879.333	15797
879.461	15644
879.588	15732
879.715	15911
879.842	15850
879.97	15709
880.097	15458
880.224	15500
880.351	15526
880.478	15481
880.605	15389
880.732	15408
880.859	15580
880.986	15504
881.112	15488
881.239	15359
881.366	15245
881.493	15138
881.619	15051
881.746	15127
881.872	15097
881.999	15154
882.125	15066
882.252	15146
882.378	15203
882.505	15340
882.631	15135
882.757	14910
882.883	15024
883.01	14990
883.136	14948
883.262	14800
883.388	14807
883.514	14956
883.64	15081
883.766	14845
883.892	14838
884.018	14731
884.143	14921
884.269	14979
884.395	14705
884.52	14503
884.646	14682
884.772	14594
884.897	14571
885.023	14693
885.148	14743
885.274	14872
885.399	14777
885.524	14674
885.65	14636
885.775	14632
885.9	14640
886.025	14868
886.15	14705
886.275	14617
886.4	14575
886.525	14602
886.65	14587
886.775	14571
886.9	14785
887.025	14933
887.149	14602
887.274	14511
887.399	14393
887.523	14389
887.648	14412
887.773	14396
887.897	14488
888.021	14564
888.146	14400
888.27	14583
888.395	14575
888.519	14564
888.643	14571
888.767	14552
888.891	14408
889.015	14305
889.139	14320
889.263	14298
889.387	14503
889.511	14533
889.635	14507
889.759	14301
889.883	14374
890.006	14400
890.13	14442
890.254	14263
890.377	14317
890.501	14202
890.624	14096
890.748	14240
890.871	14043
890.995	14069
891.118	14035
891.241	14096
891.364	14035
891.488	14168
891.611	14031
891.734	14035
891.857	14012
891.98	14016
892.103	14084
892.226	14153
892.349	14107
892.471	13868
892.594	14126
892.717	14088
892.839	14084
892.962	13989
893.085	14043
893.207	14039
893.33	13986
893.452	14016
893.575	14039
893.697	14001
893.819	14142
893.941	14240
894.064	14183
894.186	13986
894.308	13932
894.43	14187
894.552	14290
894.674	14195
894.796	14077
894.918	14123
895.04	14043
895.161	14202
895.283	14176
895.405	14161
895.526	14100
895.648	14149
895.769	14157
895.891	14244
896.012	14301
896.134	14252
896.255	14149
896.376	14130
896.498	14218
896.619	14199
896.74	14199
896.861	14343
896.982	14568
897.103	14731
897.224	14492
897.345	14465
897.466	14434
897.587	14408
897.708	14621
897.828	14549
897.949	14415
898.07	14400
898.19	14446
898.311	14731
898.431	14564
898.552	14556
898.672	14636
898.792	14568
898.913	14613
899.033	14541
899.153	14431
899.273	14324
899.393	14366
899.513	14533
899.633	14438
899.753	14434
899.873	14309
899.993	14423
900.113	14358
900.232	14404
900.352	14446
900.472	14336
900.591	14282
900.711	14298
900.83	14244
900.95	14404
901.069	14377
901.189	14195
901.308	13974
901.427	13917
901.546	13982
901.665	13959
901.784	13970
901.904	13894
902.023	13685
902.141	13445
902.26	13529
902.379	13510
902.498	13495
902.617	13472
902.735	13548
902.854	13506
902.973	13491
903.091	13217
903.21	13183
903.328	13327
903.446	13194
903.565	13031
903.683	13141
903.801	13065
903.919	13107
904.038	13091
904.156	12928
904.274	13046
904.392	12882
904.51	12897
904.627	12859
904.745	12947
904.863	12958
904.981	12700
905.098	12635
905.216	12658
905.334	12547
905.451	12574
905.569	12642
905.686	12604
905.803	12658
905.921	12426
906.038	12517
906.155	12426
906.272	12315
906.389	12277
906.506	12254
906.623	12144
906.74	12155
906.857	12072
906.974	12095
907.091	12239
907.208	12323
907.324	12277
907.441	12110
907.557	12003
907.674	12007
907.79	11885
907.907	11927
908.023	11961
908.139	11958
908.256	11954
908.372	11893
908.488	11840
908.604	11771
908.72	11646
908.836	11722
908.952	11634
909.068	11748
909.184	11874
909.3	11657
909.415	11851
909.531	11745
909.647	11547
909.762	11516
909.878	11478
909.993	11562
910.108	11509
910.224	11425
910.339	11455
910.454	11372
910.57	11364
910.685	11265
910.8	11535
910.915	11463
911.03	11402
911.145	11136
911.259	11174
911.374	11140
911.489	11159
911.604	10949
911.718	10881
911.833	10953
911.947	10919
912.062	10801
912.176	10984
912.291	10896
912.405	10919
912.519	11155
912.633	11113
912.748	11086
912.862	10923
912.976	10759
913.09	10702
913.204	10847
913.318	10763
913.431	10927
913.545	10908
913.659	10946
913.772	10843
913.886	10774
914	10683
914.113	10782
914.226	10835
914.34	10679
914.453	10615
914.566	10778
914.68	10607
914.793	10683
914.906	10421
915.019	10459
915.132	10436
915.245	10413
915.358	10481
915.47	10443
915.583	10398
915.696	10478
915.809	10618
915.921	10573
916.034	10386
916.146	10363
916.259	10375
916.371	10497
916.483	10508
916.595	10386
916.708	10375
916.82	10333
916.932	10261
917.044	10451
917.156	10280
917.268	10257
917.38	10284
917.491	10188
917.603	10375
917.715	10386
917.826	10344
917.938	10344
918.049	10135
918.161	10249
918.272	10432
918.384	10379
918.495	10333
918.606	10166
918.717	10090
918.828	10188
918.939	10177
919.05	10074
919.161	10131
919.272	9930
919.383	10044
919.494	10211
919.604	10386
919.715	10207
919.826	10105
919.936	10109
920.047	10299
920.157	10173
920.267	10341
920.378	10177
920.488	10143
920.598	10367
920.708	10588
920.818	10386
920.928	10402
921.038	10546
921.148	10455
921.258	10238
921.368	10147
921.477	9956
921.587	10021
921.697	9892
921.806	10059
921.916	9854
922.025	9747
922.134	9747
922.244	9648
922.353	9785
922.462	9690
922.571	9599
922.68	9393
922.789	9405
922.898	9420
923.007	9408
923.116	9428
923.224	9397
923.333	9397
923.442	9416
923.55	9291
923.659	9348
923.767	9397
923.876	9310
923.984	9435
924.092	9264
924.201	9279
924.309	9310
924.417	9332
924.525	9272
924.633	9302
924.741	10010
924.849	9036
924.956	9313
925.064	9089
925.172	9051
925.279	9036
925.387	9070
925.494	9112
925.602	9214
925.709	9184
925.816	9093
925.924	9135
926.031	9207
926.138	9165
926.245	9104
926.352	9020
926.459	9150
926.566	9176
926.673	9017
926.779	8975
926.886	8975
926.993	8754
927.099	8815
927.206	8682
927.312	8823
927.419	8857
927.525	8838
927.631	8800
927.737	8735
927.843	8731
927.95	8651
928.056	8663
928.162	8674
928.267	8781
928.373	9367
928.479	8785
928.585	8583
928.69	8727
928.796	8716
928.901	8590
929.007	8431
929.112	8610
929.218	8579
929.323	8526
929.428	8457
929.533	8617
929.638	8446
929.743	8522
929.848	8587
929.953	8465
930.058	8415
930.163	8248
930.267	8309
930.372	8446
930.477	8248
930.581	8476
930.685	8347
930.79	8244
930.894	8221
930.998	8244
931.103	8393
931.207	8016
931.311	7967
931.415	7932
931.519	7746
931.623	7784
