Data from test_V78500241_453.txt Node
Date: Fri Mar 25 14:36:52 CST 2022
User: usil
Spectrometer: V785-0024
Trigger mode: 0
Integration Time (sec): 4.000000E-1
Scans to average: 1
Nonlinearity correction enabled: false
Boxcar width: 0
Storing dark spectrum: false
XAxis mode: Wavelengths
Number of Pixels in Spectrum: 1024
>>>>>Begin Spectral Data<<<<<
801.071	26678
801.214	26453
801.356	26172
801.499	26191
801.641	25928
801.783	26081
801.926	26073
802.068	25970
802.211	25799
802.353	25833
802.496	25666
802.638	25681
802.78	25373
802.923	25457
803.065	25327
803.208	25388
803.35	25426
803.492	25453
803.635	25746
803.777	25453
803.919	25597
804.061	25868
804.204	25597
804.346	25419
804.488	25499
804.63	25419
804.773	25324
804.915	25373
805.057	25582
805.199	25582
805.341	25491
805.483	25540
805.626	25605
805.768	25293
805.91	25460
806.052	25575
806.194	25518
806.336	25586
806.478	25479
806.62	25396
806.762	25529
806.904	25723
807.046	25993
807.188	25757
807.33	25887
807.472	25879
807.614	25902
807.756	25696
807.898	25803
808.04	25685
808.182	25597
808.324	25628
808.465	25769
808.607	25868
808.749	25868
808.891	26161
809.033	26237
809.174	26073
809.316	26005
809.458	26005
809.6	26046
809.741	25974
809.883	26119
810.025	26084
810.166	26164
810.308	26290
810.45	26153
810.591	26058
810.733	25986
810.875	25940
811.016	25712
811.158	25780
811.299	25803
811.441	26031
811.582	25890
811.724	25761
811.865	25788
812.007	25791
812.148	25830
812.29	25788
812.431	26008
812.573	26092
812.714	26130
812.855	26301
812.997	26522
813.138	26476
813.279	26427
813.421	26275
813.562	26130
813.703	26058
813.845	26107
813.986	25643
814.127	25476
814.268	25472
814.41	25472
814.551	25388
814.692	25411
814.833	25190
814.974	25209
815.115	25225
815.256	25236
815.397	25259
815.539	25320
815.68	25107
815.821	25137
815.962	25084
816.103	25015
816.244	25023
816.385	24894
816.526	24738
816.666	24772
816.807	24597
816.948	24570
817.089	24608
817.23	24471
817.371	24612
817.512	24521
817.653	24505
817.793	24517
817.934	24475
818.075	24563
818.216	24479
818.356	24437
818.497	24292
818.638	24235
818.778	24121
818.919	24201
819.06	24251
819.2	24270
819.341	24277
819.481	24418
819.622	24620
819.762	24783
819.903	24669
820.043	24517
820.184	24479
820.324	24517
820.465	24532
820.605	24563
820.746	24502
820.886	24403
821.026	24479
821.167	24327
821.307	24513
821.447	24338
821.588	24289
821.728	24152
821.868	24083
822.008	23882
822.149	23832
822.289	23805
822.429	23707
822.569	23547
822.709	23425
822.849	23216
822.99	23337
823.13	23292
823.27	23315
823.41	23113
823.55	22987
823.69	23079
823.83	23094
823.97	23003
824.11	22889
824.25	22869
824.389	22759
824.529	22968
824.669	22793
824.809	22812
824.949	22942
825.089	23018
825.228	22911
825.368	22626
825.508	22645
825.648	22713
825.787	22664
825.927	22717
826.067	22565
826.206	22630
826.346	22675
826.485	22797
826.625	22573
826.765	22721
826.904	22668
827.044	22443
827.183	22405
827.323	22291
827.462	22318
827.601	22356
827.741	22333
827.88	22424
828.02	22200
828.159	22295
828.298	22299
828.437	22405
828.577	22261
828.716	22352
828.855	22280
828.994	21975
829.134	22135
829.273	22097
829.412	22017
829.551	22150
829.69	21972
829.829	22067
829.968	22048
830.107	22017
830.246	21930
830.385	22002
830.524	21949
830.663	21827
830.802	21652
830.941	21568
831.08	21625
831.219	21743
831.357	21633
831.496	21633
831.635	21553
831.774	21576
831.913	21557
832.051	21431
832.19	21313
832.329	21363
832.467	21264
832.606	21272
832.744	21207
832.883	21291
833.022	21112
833.16	21260
833.299	21161
833.437	21329
833.576	21344
833.714	21367
833.852	21256
833.991	21241
834.129	21408
834.267	21340
834.406	21355
834.544	21188
834.682	21256
834.821	21317
834.959	21515
835.097	21245
835.235	21287
835.373	21298
835.511	21192
835.65	21081
835.788	21074
835.926	21013
836.064	20960
836.202	20982
836.34	21150
836.478	21157
836.615	21062
836.753	21184
836.891	21127
837.029	21024
837.167	21062
837.305	21081
837.443	20963
837.58	20944
837.718	21108
837.856	20960
837.993	21047
838.131	20941
838.269	20750
838.406	20864
838.544	20765
838.681	20701
838.819	20674
838.956	20434
839.094	20404
839.231	20492
839.369	20629
839.506	20830
839.643	20609
839.781	20427
839.918	20176
840.055	20358
840.193	20377
840.33	20374
840.467	20377
840.604	20419
840.742	20541
840.879	20267
841.016	20267
841.153	20282
841.29	20377
841.427	20396
841.564	20278
841.701	20275
841.838	20210
841.975	20298
842.112	20172
842.249	20180
842.385	20035
842.522	20347
842.659	20096
842.796	20077
842.933	19989
843.069	19940
843.206	19917
843.343	20081
843.479	20005
843.616	20077
843.752	19944
843.889	19898
844.025	20012
844.162	19811
844.298	19860
844.435	19833
844.571	19769
844.708	19856
844.844	19936
844.98	19803
845.117	19841
845.253	19757
845.389	19738
845.525	19624
845.661	19689
845.798	19556
845.934	19708
846.07	19540
846.206	19662
846.342	19666
846.478	19624
846.614	19422
846.75	19236
846.886	19289
847.022	19339
847.158	19316
847.294	19411
847.429	19354
847.565	19244
847.701	19460
847.837	19053
847.972	18886
848.108	19046
848.244	19061
848.379	18871
848.515	18894
848.65	18779
848.786	18890
848.921	18882
849.057	18859
849.192	18856
849.328	18806
849.463	18787
849.598	18772
849.734	18795
849.869	18783
850.004	18494
850.14	18635
850.275	18517
850.41	18490
850.545	18578
850.68	18525
850.815	18604
850.95	18650
851.085	18730
851.22	18745
851.355	18570
851.49	18540
851.625	18513
851.76	18547
851.895	18388
852.03	18426
852.165	18464
852.299	18574
852.434	18593
852.569	18540
852.703	18677
852.838	18494
852.973	18700
853.107	18684
853.242	18498
853.376	18399
853.511	18232
853.645	18281
853.78	18506
853.914	18433
854.048	18338
854.183	18300
854.317	18460
854.451	18574
854.585	18380
854.72	18235
854.854	18372
854.988	18270
855.122	18395
855.256	18243
855.39	18323
855.524	18467
855.658	18445
855.792	18357
855.926	18464
856.06	18330
856.194	18532
856.327	18315
856.461	18201
856.595	18426
856.729	18277
856.862	18490
856.996	18433
857.13	18380
857.263	18555
857.397	18403
857.53	18353
857.664	18395
857.797	18517
857.931	18475
858.064	18395
858.197	18388
858.331	18323
858.464	18247
858.597	18174
858.731	18300
858.864	18300
858.997	18315
859.13	18350
859.263	18277
859.396	18426
859.529	18243
859.662	18243
859.795	18296
859.928	18235
860.061	18414
860.194	18517
860.327	18338
860.46	18285
860.592	18399
860.725	18441
860.858	18467
860.99	18296
861.123	18243
861.256	18201
861.388	18281
861.521	18993
861.653	18205
861.786	18152
861.918	18258
862.05	18201
862.183	18372
862.315	18372
862.447	18464
862.58	18350
862.712	17984
862.844	17988
862.976	18144
863.108	18136
863.24	18448
863.372	17977
863.504	18098
863.636	18041
863.768	18110
863.9	18095
864.032	17874
864.164	18019
864.296	18057
864.428	18136
864.559	18083
864.691	18083
864.823	18003
864.954	18026
865.086	18102
865.217	18117
865.349	17794
865.48	18060
865.612	17889
865.743	18102
865.875	18068
866.006	18011
866.137	17996
866.269	18011
866.4	17942
866.531	17885
866.662	17923
866.793	17874
866.924	17999
867.055	17992
867.186	17866
867.317	17786
867.448	17790
867.579	17901
867.71	17798
867.841	17908
867.972	17942
868.103	17984
868.233	17863
868.364	17874
868.495	18079
868.625	18022
868.756	18262
868.886	18213
869.017	17999
869.147	18220
869.278	18251
869.408	18220
869.539	18178
869.669	18239
869.799	18114
869.929	18270
870.06	18228
870.19	18418
870.32	18407
870.45	18475
870.58	18544
870.71	18665
870.84	18585
870.97	18566
871.1	18604
871.23	18703
871.36	18669
871.489	18642
871.619	18684
871.749	18673
871.879	18764
872.008	18753
872.138	18814
872.267	18646
872.397	18559
872.526	18502
872.656	18563
872.785	18559
872.915	18627
873.044	18859
873.173	18745
873.303	18741
873.432	18875
873.561	18795
873.69	18837
873.819	18856
873.948	18795
874.077	18692
874.206	18787
874.335	18810
874.464	18871
874.593	19031
874.722	18993
874.851	19129
874.979	19000
875.108	19118
875.237	18962
875.365	18973
875.494	18996
875.623	19122
875.751	19080
875.88	19042
876.008	19118
876.136	19251
876.265	19365
876.393	19544
876.521	19533
876.65	19567
876.778	19476
876.906	19381
877.034	19419
877.162	19464
877.29	19346
877.418	19510
877.546	19343
877.674	19362
877.802	19460
877.93	19529
878.058	19441
878.185	19388
878.313	19274
878.441	19369
878.568	19358
878.696	19396
878.824	19449
878.951	19499
879.079	19559
879.206	19803
879.333	19670
879.461	19518
879.588	19639
879.715	19696
879.842	19780
879.97	19468
880.097	19206
880.224	19320
880.351	19324
880.478	19236
880.605	19293
880.732	19422
880.859	19434
880.986	19331
881.112	19297
881.239	19263
881.366	19015
881.493	19038
881.619	18951
881.746	18981
881.872	18901
881.999	18905
882.125	18814
882.252	18901
882.378	18989
882.505	18947
882.631	18802
882.757	18654
882.883	18715
883.01	18623
883.136	18589
883.262	18506
883.388	18525
883.514	18848
883.64	18589
883.766	18612
883.892	18490
884.018	18509
884.143	18604
884.269	18741
884.395	18403
884.52	18418
884.646	18220
884.772	18209
884.897	18209
885.023	18422
885.148	18384
885.274	18437
885.399	18414
885.524	18270
885.65	18353
885.775	18361
885.9	18205
886.025	18441
886.15	18330
886.275	18243
886.4	18079
886.525	18304
886.65	18205
886.775	18319
886.9	18384
887.025	18448
887.149	18289
887.274	18129
887.399	18174
887.523	18121
887.648	18091
887.773	18102
887.897	18251
888.021	18117
888.146	18095
888.27	18152
888.395	18140
888.519	18159
888.643	18076
888.767	18144
888.891	17988
889.015	17969
889.139	17977
889.263	17847
889.387	18095
889.511	18140
889.635	17897
889.759	17874
889.883	17817
890.006	18030
890.13	17988
890.254	17882
890.377	17828
890.501	17676
890.624	17665
890.748	17680
890.871	17627
890.995	17505
891.118	17532
891.241	17516
891.364	17440
891.488	17638
891.611	17619
891.734	17592
891.857	17566
891.98	17562
892.103	17581
892.226	17543
892.349	17471
892.471	17284
892.594	17573
892.717	17490
892.839	17474
892.962	17493
893.085	17623
893.207	17414
893.33	17299
893.452	17398
893.575	17608
893.697	17425
893.819	17649
893.941	17665
894.064	17638
894.186	17471
894.308	17509
894.43	17539
894.552	17710
894.674	17512
894.796	17379
894.918	17532
895.04	17532
895.161	17619
895.283	17505
895.405	17410
895.526	17471
895.648	17505
895.769	17554
895.891	17471
896.012	17600
896.134	17619
896.255	17535
896.376	17509
896.498	17463
896.619	17497
896.74	17558
896.861	17577
896.982	17901
897.103	18038
897.224	17942
897.345	17798
897.466	17790
897.587	17805
897.708	17843
897.828	17866
897.949	17783
898.07	17695
898.19	17821
898.311	17855
898.431	17771
898.552	17824
898.672	17939
898.792	17748
898.913	17794
899.033	17589
899.153	17604
899.273	17433
899.393	17452
899.513	17600
899.633	17501
899.753	17630
899.873	17604
899.993	17657
900.113	17459
900.232	17528
900.352	17478
900.472	17406
900.591	17326
900.711	17311
900.83	17372
900.95	17471
901.069	17554
901.189	17421
901.308	17094
901.427	17025
901.546	17159
901.665	17102
901.784	17067
901.904	17018
902.023	16801
902.141	16660
902.26	16599
902.379	16569
902.498	16607
902.617	16527
902.735	16489
902.854	16542
902.973	16466
903.091	16188
903.21	16234
903.328	16223
903.446	16257
903.565	16067
903.683	16124
903.801	16013
903.919	16067
904.038	16025
904.156	15915
904.274	15983
904.392	15895
904.51	15903
904.627	15869
904.745	15861
904.863	15899
904.981	15762
905.098	15606
905.216	15458
905.334	15534
905.451	15580
905.569	15431
905.686	15530
905.803	15534
905.921	15408
906.038	15424
906.155	15264
906.272	15294
906.389	15329
906.506	14990
906.623	15058
906.74	15097
906.857	14948
906.974	15013
907.091	15195
907.208	15203
907.324	15131
907.441	14933
907.557	14819
907.674	14804
907.79	14659
907.907	14735
908.023	14796
908.139	14792
908.256	14651
908.372	14743
908.488	14659
908.604	14568
908.72	14492
908.836	14495
908.952	14545
909.068	14427
909.184	14632
909.3	14473
909.415	14549
909.531	14423
909.647	14263
909.762	14191
909.878	14252
909.993	14278
910.108	14294
910.224	14115
910.339	14161
910.454	14176
910.57	14149
910.685	13951
910.8	14180
910.915	14176
911.03	14001
911.145	13833
911.259	13845
911.374	13811
911.489	13750
911.604	13696
911.718	13601
911.833	13590
911.947	13559
912.062	13426
912.176	13540
912.291	13594
912.405	13567
912.519	13681
912.633	13689
912.748	13578
912.862	13571
912.976	13441
913.09	13331
913.204	13384
913.318	13422
913.431	13502
913.545	13449
913.659	13582
913.772	13460
913.886	13274
914	13194
914.113	13327
914.226	13491
914.34	13377
914.453	13213
914.566	13346
914.68	13129
914.793	13175
914.906	12958
915.019	12970
915.132	12920
915.245	12943
915.358	12886
915.47	12943
915.583	12943
915.696	13072
915.809	13118
915.921	13072
916.034	12909
916.146	12875
916.259	12833
916.371	12970
916.483	12970
916.595	12753
916.708	12757
916.82	12783
916.932	12768
917.044	12882
917.156	12658
917.268	12681
917.38	12726
917.491	12662
917.603	12692
917.715	12741
917.826	12734
917.938	12582
918.049	12662
918.161	12703
918.272	12749
918.384	12871
918.495	12776
918.606	12437
918.717	12448
918.828	12601
918.939	12509
919.05	12388
919.161	12471
919.272	12285
919.383	12342
919.494	12502
919.604	12734
919.715	12448
919.826	12380
919.936	12342
920.047	12395
920.157	12452
920.267	12528
920.378	12471
920.488	12384
920.598	12589
920.708	12719
920.818	12631
920.928	12517
921.038	12726
921.148	12726
921.258	12448
921.368	12315
921.477	12251
921.587	12155
921.697	12083
921.806	12262
921.916	12064
922.025	11950
922.134	11836
922.244	11893
922.353	11977
922.462	11718
922.571	11767
922.68	11539
922.789	11539
922.898	11516
923.007	11478
923.116	11558
923.224	11615
923.333	11490
923.442	11349
923.55	11368
923.659	11433
923.767	11444
923.876	11318
923.984	11379
924.092	11341
924.201	11322
924.309	11288
924.417	11376
924.525	11296
924.633	11360
924.741	12197
924.849	11090
924.956	11315
925.064	11102
925.172	11022
925.279	11048
925.387	11033
925.494	11056
925.602	11212
925.709	11189
925.816	11025
925.924	11109
926.031	11132
926.138	11147
926.245	11102
926.352	11022
926.459	11025
926.566	11117
926.673	10968
926.779	10869
926.886	10858
926.993	10778
927.099	10755
927.206	10717
927.312	10634
927.419	10740
927.525	10763
927.631	10782
927.737	10550
927.843	10611
927.95	10485
928.056	10573
928.162	10588
928.267	10664
928.373	11242
928.479	10554
928.585	10386
928.69	10546
928.796	10630
928.901	10474
929.007	10303
929.112	10440
929.218	10455
929.323	10344
929.428	10299
929.533	10455
929.638	10322
929.743	10306
929.848	10306
929.953	10306
930.058	10185
930.163	10059
930.267	10109
930.372	10215
930.477	9941
930.581	10204
930.685	10093
930.79	9956
930.894	10017
930.998	9915
931.103	10029
931.207	9736
931.311	9584
931.415	9595
931.519	9370
931.623	9431
