Data from test_V78500241_1956.txt Node
Date: Fri Mar 25 14:47:19 CST 2022
User: usil
Spectrometer: V785-0024
Trigger mode: 0
Integration Time (sec): 4.000000E-1
Scans to average: 1
Nonlinearity correction enabled: false
Boxcar width: 0
Storing dark spectrum: false
XAxis mode: Wavelengths
Number of Pixels in Spectrum: 1024
>>>>>Begin Spectral Data<<<<<
801.071	21983
801.214	21892
801.356	21709
801.499	21435
801.641	21492
801.783	21435
801.926	21359
802.068	21397
802.211	21298
802.353	21154
802.496	20925
802.638	20979
802.78	20921
802.923	20792
803.065	20807
803.208	20682
803.35	20853
803.492	20842
803.635	20883
803.777	20861
803.919	20921
804.061	21119
804.204	20830
804.346	20686
804.488	20708
804.63	20823
804.773	20674
804.915	20712
805.057	20815
805.199	20571
805.341	20800
805.483	20773
805.626	20823
805.768	20796
805.91	20735
806.052	20826
806.194	20712
806.336	21020
806.478	20689
806.62	20560
806.762	20724
806.904	20929
807.046	21161
807.188	21013
807.33	20979
807.472	21112
807.614	20944
807.756	20906
807.898	20773
808.04	20640
808.182	20849
808.324	20773
808.465	20891
808.607	20956
808.749	21047
808.891	21119
809.033	21233
809.174	21165
809.316	21104
809.458	21024
809.6	21070
809.741	21116
809.883	21188
810.025	21199
810.166	21264
810.308	21138
810.45	21192
810.591	21195
810.733	20948
810.875	20952
811.016	20731
811.158	20613
811.299	20933
811.441	20914
811.582	21058
811.724	20708
811.865	20861
812.007	20834
812.148	20944
812.29	20906
812.431	20975
812.573	21066
812.714	21252
812.855	21272
812.997	21466
813.138	21542
813.279	21378
813.421	21294
813.562	21176
813.703	21093
813.845	21104
813.986	20659
814.127	20598
814.268	20469
814.41	20484
814.551	20332
814.692	20461
814.833	20309
814.974	20305
815.115	20305
815.256	20168
815.397	20267
815.539	20233
815.68	20202
815.821	20043
815.962	20050
816.103	20126
816.244	20005
816.385	19947
816.526	19822
816.666	19655
816.807	19559
816.948	19750
817.089	19765
817.23	19666
817.371	19495
817.512	19464
817.653	19396
817.793	19518
817.934	19571
818.075	19430
818.216	19571
818.356	19396
818.497	19339
818.638	19270
818.778	19164
818.919	19232
819.06	19274
819.2	19289
819.341	19392
819.481	19339
819.622	19438
819.762	19647
819.903	19453
820.043	19552
820.184	19499
820.324	19449
820.465	19582
820.605	19499
820.746	19480
820.886	19301
821.026	19506
821.167	19571
821.307	19540
821.447	19339
821.588	19381
821.728	19255
821.868	18920
822.008	18916
822.149	19023
822.289	18901
822.429	18852
822.569	18612
822.709	18631
822.849	18513
822.99	18452
823.13	18372
823.27	18262
823.41	18251
823.55	18083
823.69	18171
823.83	18346
823.97	18060
824.11	18041
824.25	17965
824.389	18003
824.529	18201
824.669	17969
824.809	18102
824.949	18022
825.089	18053
825.228	17931
825.368	17779
825.508	17783
825.648	17847
825.787	17828
825.927	17798
826.067	17691
826.206	17771
826.346	17665
826.485	17798
826.625	17729
826.765	17882
826.904	17737
827.044	17604
827.183	17608
827.323	17455
827.462	17520
827.601	17493
827.741	17471
827.88	17402
828.02	17376
828.159	17444
828.298	17474
828.437	17608
828.577	17459
828.716	17573
828.855	17410
828.994	17273
829.134	17258
829.273	17216
829.412	17189
829.551	17128
829.69	17094
829.829	17292
829.968	17254
830.107	17216
830.246	17258
830.385	17208
830.524	17086
830.663	16889
830.802	16961
830.941	16797
831.08	16786
831.219	16980
831.357	16828
831.496	17117
831.635	16930
831.774	16782
831.913	16668
832.051	16580
832.19	16679
832.329	16752
832.467	16550
832.606	16523
832.744	16565
832.883	16531
833.022	16417
833.16	16618
833.299	16622
833.437	16504
833.576	16611
833.714	16672
833.852	16626
833.991	16653
834.129	16656
834.267	16569
834.406	16626
834.544	16523
834.682	16622
834.821	16512
834.959	16793
835.097	16577
835.235	16668
835.373	16607
835.511	16725
835.65	16447
835.788	16440
835.926	16402
836.064	16325
836.202	16322
836.34	16497
836.478	16573
836.615	16447
836.753	16599
836.891	16569
837.029	16440
837.167	16382
837.305	16424
837.443	16413
837.58	16352
837.718	16417
837.856	16375
837.993	16322
838.131	16291
838.269	16276
838.406	16360
838.544	16379
838.681	16109
838.819	16131
838.956	15880
839.094	15869
839.231	15956
839.369	16101
839.506	16303
839.643	16147
839.781	15968
839.918	15892
840.055	15888
840.193	15846
840.33	15911
840.467	15983
840.604	15949
840.742	16249
840.879	15823
841.016	15846
841.153	15816
841.29	16017
841.427	16002
841.564	16086
841.701	15899
841.838	15861
841.975	15823
842.112	15812
842.249	15682
842.385	15698
842.522	15975
842.659	15732
842.796	15686
842.933	15675
843.069	15667
843.206	15633
843.343	15789
843.479	15759
843.616	15770
843.752	15488
843.889	15584
844.025	15656
844.162	15344
844.298	15614
844.435	15568
844.571	15606
844.708	15625
844.844	15698
844.98	15709
845.117	15637
845.253	15420
845.389	15329
845.525	15393
845.661	15389
845.798	15131
845.934	15374
846.07	15306
846.206	15386
846.342	15374
846.478	15214
846.614	15154
846.75	15020
846.886	15097
847.022	15184
847.158	15005
847.294	15020
847.429	15116
847.565	15047
847.701	15214
847.837	14830
847.972	14830
848.108	14872
848.244	14910
848.379	14743
848.515	14667
848.65	14750
848.786	14674
848.921	14705
849.057	14758
849.192	14819
849.328	14648
849.463	14785
849.598	14648
849.734	14533
849.869	14514
850.004	14488
850.14	14438
850.275	14484
850.41	14408
850.545	14434
850.68	14476
850.815	14583
850.95	14419
851.085	14640
851.22	14590
851.355	14381
851.49	14396
851.625	14415
851.76	14465
851.895	14244
852.03	14317
852.165	14393
852.299	14632
852.434	14488
852.569	14400
852.703	14427
852.838	14545
852.973	14682
853.107	14602
853.242	14358
853.376	14317
853.511	14221
853.645	14214
853.78	14404
853.914	14408
854.048	14225
854.183	14313
854.317	14313
854.451	14499
854.585	14393
854.72	14301
854.854	14374
854.988	14210
855.122	14206
855.256	14164
855.39	14393
855.524	14362
855.658	14393
855.792	14343
855.926	14412
856.06	14358
856.194	14465
856.327	14374
856.461	14267
856.595	14313
856.729	14301
856.862	14419
856.996	14339
857.13	14370
857.263	14374
857.397	14522
857.53	14374
857.664	14252
857.797	14343
857.931	14381
858.064	14301
858.197	14469
858.331	14233
858.464	14237
858.597	14149
858.731	14438
858.864	14400
858.997	14320
859.13	14362
859.263	14415
859.396	14377
859.529	14248
859.662	14180
859.795	14328
859.928	14301
860.061	14389
860.194	14499
860.327	14275
860.46	14275
860.592	14336
860.725	14423
860.858	14385
860.99	14313
861.123	14199
861.256	14199
861.388	14301
861.521	15036
861.653	14187
861.786	14111
861.918	14225
862.05	14267
862.183	14294
862.315	14294
862.447	14343
862.58	14256
862.712	14180
862.844	13951
862.976	14202
863.108	14081
863.24	14511
863.372	14073
863.504	14088
863.636	14096
863.768	14229
863.9	14100
864.032	14134
864.164	14077
864.296	14096
864.428	14237
864.559	14256
864.691	14172
864.823	14119
864.954	14100
865.086	14183
865.217	14054
865.349	14050
865.48	14016
865.612	14062
865.743	14278
865.875	14119
866.006	14065
866.137	14180
866.269	13986
866.4	14077
866.531	14073
866.662	14088
866.793	14100
866.924	13986
867.055	14195
867.186	13997
867.317	14005
867.448	13963
867.579	14031
867.71	14008
867.841	14024
867.972	14103
868.103	13993
868.233	14138
868.364	14103
868.495	14172
868.625	14339
868.756	14408
868.886	14199
869.017	14385
869.147	14404
869.278	14507
869.408	14461
869.539	14172
869.669	14488
869.799	14469
869.929	14473
870.06	14400
870.19	14667
870.32	14682
870.45	14765
870.58	14777
870.71	14826
870.84	14880
870.97	14743
871.1	14598
871.23	14815
871.36	14845
871.489	14830
871.619	14857
871.749	14941
871.879	14956
872.008	14948
872.138	15024
872.267	14956
872.397	14773
872.526	14857
872.656	14659
872.785	14716
872.915	14925
873.044	15142
873.173	15005
873.303	14998
873.432	14944
873.561	15089
873.69	14990
873.819	14990
873.948	15081
874.077	14941
874.206	14963
874.335	15020
874.464	15116
874.593	15348
874.722	15291
874.851	15291
874.979	15370
875.108	15374
875.237	15260
875.365	15233
875.494	15249
875.623	15355
875.751	15332
875.88	15340
876.008	15492
876.136	15542
876.265	15800
876.393	15778
876.521	15808
876.65	15717
876.778	15724
876.906	15629
877.034	15595
877.162	15599
877.29	15625
877.418	15701
877.546	15766
877.674	15694
877.802	15713
877.93	15663
878.058	15599
878.185	15614
878.313	15660
878.441	15671
878.568	15553
878.696	15671
878.824	15682
878.951	15793
879.079	15892
879.206	16021
879.333	15892
879.461	15743
879.588	15751
879.715	15835
879.842	15949
879.97	15789
880.097	15485
880.224	15534
880.351	15618
880.478	15644
880.605	15545
880.732	15568
880.859	15808
880.986	15622
881.112	15542
881.239	15389
881.366	15310
881.493	15268
881.619	15116
881.746	15131
881.872	15245
881.999	15165
882.125	15142
882.252	15211
882.378	15184
882.505	15298
882.631	15165
882.757	14998
882.883	15077
883.01	14971
883.136	14971
883.262	14834
883.388	14880
883.514	15058
883.64	15005
883.766	14979
883.892	14929
884.018	14933
884.143	15043
884.269	15116
884.395	14788
884.52	14682
884.646	14727
884.772	14735
884.897	14632
885.023	14765
885.148	14872
885.274	14872
885.399	14811
885.524	14674
885.65	14651
885.775	14754
885.9	14712
886.025	14876
886.15	14834
886.275	14663
886.4	14693
886.525	14693
886.65	14693
886.775	14674
886.9	14925
887.025	14994
887.149	14659
887.274	14575
887.399	14594
887.523	14514
887.648	14503
887.773	14450
887.897	14613
888.021	14625
888.146	14602
888.27	14678
888.395	14693
888.519	14701
888.643	14594
888.767	14762
888.891	14488
889.015	14446
889.139	14400
889.263	14522
889.387	14526
889.511	14625
889.635	14533
889.759	14423
889.883	14301
890.006	14537
890.13	14552
890.254	14324
890.377	14370
890.501	14161
890.624	14168
890.748	14343
890.871	14126
890.995	14081
891.118	14115
891.241	14058
891.364	14039
891.488	14218
891.611	14027
891.734	14157
891.857	14161
891.98	14119
892.103	14221
892.226	14138
892.349	14058
892.471	13955
892.594	14107
892.717	14126
892.839	14039
892.962	14077
893.085	14035
893.207	14123
893.33	14046
893.452	14039
893.575	14130
893.697	14069
893.819	14278
893.941	14358
894.064	14328
894.186	14096
894.308	14096
894.43	14195
894.552	14362
894.674	14256
894.796	14081
894.918	14183
895.04	14077
895.161	14180
895.283	14282
895.405	14115
895.526	14206
895.648	14233
895.769	14244
895.891	14393
896.012	14385
896.134	14377
896.255	14237
896.376	14210
896.498	14286
896.619	14347
896.74	14381
896.861	14343
896.982	14644
897.103	14705
897.224	14629
897.345	14598
897.466	14522
897.587	14629
897.708	14648
897.828	14632
897.949	14514
898.07	14492
898.19	14514
898.311	14632
898.431	14556
898.552	14598
898.672	14697
898.792	14800
898.913	14727
899.033	14606
899.153	14438
899.273	14442
899.393	14533
899.513	14549
899.633	14560
899.753	14568
899.873	14427
899.993	14545
900.113	14454
900.232	14469
900.352	14400
900.472	14396
900.591	14298
900.711	14370
900.83	14385
900.95	14434
901.069	14476
901.189	14248
901.308	14012
901.427	13982
901.546	13997
901.665	14092
901.784	14149
901.904	13849
902.023	13868
902.141	13681
902.26	13639
902.379	13757
902.498	13521
902.617	13571
902.735	13746
902.854	13468
902.973	13499
903.091	13350
903.21	13331
903.328	13301
903.446	13270
903.565	13160
903.683	13251
903.801	13114
903.919	13110
904.038	13103
904.156	13038
904.274	13042
904.392	12985
904.51	13038
904.627	12905
904.745	13065
904.863	13050
904.981	12821
905.098	12692
905.216	12719
905.334	12719
905.451	12677
905.569	12650
905.686	12707
905.803	12642
905.921	12547
906.038	12604
906.155	12597
906.272	12350
906.389	12437
906.506	12327
906.623	12194
906.74	12247
906.857	12121
906.974	12235
907.091	12315
907.208	12448
907.324	12350
907.441	12235
907.557	12007
907.674	12057
907.79	11996
907.907	11999
908.023	12068
908.139	12038
908.256	11912
908.372	11901
908.488	11931
908.604	11821
908.72	11794
908.836	11745
908.952	11737
909.068	11764
909.184	11904
909.3	11904
909.415	11726
909.531	11741
909.647	11585
909.762	11543
909.878	11501
909.993	11532
910.108	11493
910.224	11570
910.339	11539
910.454	11421
910.57	11376
910.685	11334
910.8	11657
910.915	11600
911.03	11455
911.145	11216
911.259	11231
911.374	11220
911.489	11254
911.604	11105
911.718	11102
911.833	11006
911.947	10919
912.062	10797
912.176	11056
912.291	11098
912.405	10968
912.519	11254
912.633	11185
912.748	11071
912.862	11064
912.976	10892
913.09	10771
913.204	10774
913.318	10915
913.431	11029
913.545	11003
913.659	10999
913.772	10820
913.886	10763
914	10687
914.113	10847
914.226	10927
914.34	10877
914.453	10675
914.566	10831
914.68	10687
914.793	10736
914.906	10504
915.019	10478
915.132	10455
915.245	10531
915.358	10504
915.47	10504
915.583	10504
915.696	10626
915.809	10656
915.921	10630
916.034	10485
916.146	10447
916.259	10428
916.371	10565
916.483	10546
916.595	10493
916.708	10443
916.82	10363
916.932	10394
917.044	10508
917.156	10421
917.268	10371
917.38	10314
917.491	10363
917.603	10299
917.715	10413
917.826	10394
917.938	10306
918.049	10166
918.161	10352
918.272	10535
918.384	10489
918.495	10230
918.606	10234
918.717	10230
918.828	10181
918.939	10337
919.05	10158
919.161	10253
919.272	10002
919.383	10051
919.494	10291
919.604	10478
919.715	10192
919.826	10169
919.936	10166
920.047	10291
920.157	10227
920.267	10436
920.378	10215
920.488	10276
920.598	10459
920.708	10577
920.818	10432
920.928	10481
921.038	10611
921.148	10584
921.258	10207
921.368	10147
921.477	10101
921.587	10029
921.697	9994
921.806	10093
921.916	10025
922.025	9770
922.134	9770
922.244	9774
922.353	9827
922.462	9679
922.571	9698
922.68	9488
922.789	9454
922.898	9530
923.007	9507
923.116	9542
923.224	9485
923.333	9374
923.442	9477
923.55	9302
923.659	9382
923.767	9401
923.876	9351
923.984	9389
924.092	9245
924.201	9336
924.309	9378
924.417	9332
924.525	9389
924.633	9321
924.741	10227
924.849	9131
924.956	9359
925.064	9081
925.172	9055
925.279	9047
925.387	9214
925.494	9165
925.602	9287
925.709	9203
925.816	9058
925.924	9161
926.031	9218
926.138	9131
926.245	9165
926.352	9135
926.459	9146
926.566	9207
926.673	9058
926.779	9032
926.886	8929
926.993	8834
927.099	8838
927.206	8853
927.312	8769
927.419	8838
927.525	8819
927.631	8868
927.737	8727
927.843	8731
927.95	8682
928.056	8724
928.162	8743
928.267	8686
928.373	9424
928.479	8857
928.585	8621
928.69	8746
928.796	8766
928.901	8678
929.007	8514
929.112	8651
929.218	8651
929.323	8552
929.428	8518
929.533	8712
929.638	8549
929.743	8518
929.848	8602
929.953	8549
930.058	8431
930.163	8324
930.267	8370
930.372	8484
930.477	8351
930.581	8575
930.685	8423
930.79	8214
930.894	8301
930.998	8206
931.103	8415
931.207	8103
931.311	7997
931.415	7986
931.519	7723
931.623	7860
