Data from test_V78500241_2376.txt Node
Date: Fri Mar 25 14:50:15 CST 2022
User: usil
Spectrometer: V785-0024
Trigger mode: 0
Integration Time (sec): 4.000000E-1
Scans to average: 1
Nonlinearity correction enabled: false
Boxcar width: 0
Storing dark spectrum: false
XAxis mode: Wavelengths
Number of Pixels in Spectrum: 1024
>>>>>Begin Spectral Data<<<<<
801.071	22169
801.214	22097
801.356	21781
801.499	21705
801.641	21694
801.783	21526
801.926	21557
802.068	21515
802.211	21374
802.353	21291
802.496	21135
802.638	21036
802.78	20998
802.923	21020
803.065	20899
803.208	20842
803.35	20941
803.492	21024
803.635	20895
803.777	20861
803.919	20952
804.061	21218
804.204	20941
804.346	20804
804.488	20826
804.63	20861
804.773	20735
804.915	20788
805.057	20895
805.199	20800
805.341	20899
805.483	20792
805.626	20819
805.768	20758
805.91	20811
806.052	20777
806.194	20689
806.336	20937
806.478	20842
806.62	20663
806.762	20826
806.904	20948
807.046	21104
807.188	21036
807.33	21066
807.472	21123
807.614	20998
807.756	21104
807.898	20765
808.04	20788
808.182	20815
808.324	20872
808.465	20826
808.607	20960
808.749	21226
808.891	21241
809.033	21370
809.174	21268
809.316	21096
809.458	21268
809.6	21150
809.741	21055
809.883	21062
810.025	21283
810.166	21287
810.308	21298
810.45	21268
810.591	21154
810.733	21036
810.875	21017
811.016	20830
811.158	20849
811.299	20990
811.441	21009
811.582	21032
811.724	20933
811.865	20880
812.007	20921
812.148	20861
812.29	20975
812.431	21142
812.573	21195
812.714	21154
812.855	21500
812.997	21496
813.138	21759
813.279	21462
813.421	21416
813.562	21351
813.703	21233
813.845	21074
813.986	20830
814.127	20530
814.268	20579
814.41	20431
814.551	20423
814.692	20537
814.833	20438
814.974	20377
815.115	20499
815.256	20332
815.397	20381
815.539	20252
815.68	20157
815.821	20164
815.962	20183
816.103	20206
816.244	20077
816.385	19906
816.526	19921
816.666	19826
816.807	19620
816.948	19655
817.089	19670
817.23	19700
817.371	19620
817.512	19662
817.653	19529
817.793	19563
817.934	19666
818.075	19586
818.216	19677
818.356	19487
818.497	19460
818.638	19316
818.778	19331
818.919	19293
819.06	19354
819.2	19453
819.341	19499
819.481	19502
819.622	19643
819.762	19761
819.903	19746
820.043	19639
820.184	19559
820.324	19609
820.465	19746
820.605	19647
820.746	19491
820.886	19529
821.026	19567
821.167	19464
821.307	19586
821.447	19445
821.588	19430
821.728	19320
821.868	19103
822.008	18833
822.149	18973
822.289	18947
822.429	18745
822.569	18768
822.709	18684
822.849	18464
822.99	18464
823.13	18414
823.27	18479
823.41	18323
823.55	18251
823.69	18296
823.83	18285
823.97	18247
824.11	18117
824.25	17977
824.389	18152
824.529	18087
824.669	18011
824.809	18194
824.949	18140
825.089	18064
825.228	18003
825.368	17889
825.508	17703
825.648	17882
825.787	17866
825.927	17939
826.067	17771
826.206	17703
826.346	17863
826.485	17798
826.625	17767
826.765	17885
826.904	17832
827.044	17684
827.183	17512
827.323	17436
827.462	17524
827.601	17471
827.741	17524
827.88	17543
828.02	17425
828.159	17410
828.298	17463
828.437	17615
828.577	17474
828.716	17604
828.855	17444
828.994	17246
829.134	17277
829.273	17258
829.412	17288
829.551	17189
829.69	17159
829.829	17197
829.968	17299
830.107	17337
830.246	17208
830.385	17197
830.524	17159
830.663	16904
830.802	16972
830.941	16919
831.08	16778
831.219	16896
831.357	16843
831.496	17006
831.635	16793
831.774	16828
831.913	16691
832.051	16725
832.19	16580
832.329	16691
832.467	16630
832.606	16596
832.744	16550
832.883	16538
833.022	16596
833.16	16569
833.299	16603
833.437	16447
833.576	16599
833.714	16664
833.852	16531
833.991	16588
834.129	16626
834.267	16664
834.406	16538
834.544	16580
834.682	16649
834.821	16622
834.959	16740
835.097	16478
835.235	16630
835.373	16596
835.511	16577
835.65	16504
835.788	16443
835.926	16367
836.064	16348
836.202	16310
836.34	16516
836.478	16493
836.615	16451
836.753	16508
836.891	16577
837.029	16447
837.167	16436
837.305	16409
837.443	16394
837.58	16322
837.718	16466
837.856	16363
837.993	16257
838.131	16390
838.269	16219
838.406	16268
838.544	16268
838.681	15960
838.819	16040
838.956	15915
839.094	15880
839.231	15911
839.369	16048
839.506	16325
839.643	16086
839.781	15934
839.918	15899
840.055	15941
840.193	15979
840.33	15846
840.467	15884
840.604	15994
840.742	16071
840.879	15743
841.016	15785
841.153	15850
841.29	15983
841.427	15937
841.564	15991
841.701	15823
841.838	15842
841.975	15682
842.112	15816
842.249	15698
842.385	15656
842.522	15945
842.659	15641
842.796	15682
842.933	15694
843.069	15709
843.206	15671
843.343	15701
843.479	15576
843.616	15686
843.752	15439
843.889	15473
844.025	15709
844.162	15416
844.298	15580
844.435	15504
844.571	15477
844.708	15424
844.844	15656
844.98	15599
845.117	15629
845.253	15386
845.389	15416
845.525	15401
845.661	15416
845.798	15317
845.934	15370
846.07	15184
846.206	15351
846.342	15374
846.478	15252
846.614	15024
846.75	15043
846.886	14982
847.022	15161
847.158	15043
847.294	14971
847.429	15180
847.565	15119
847.701	15279
847.837	14800
847.972	14743
848.108	14895
848.244	14861
848.379	14693
848.515	14705
848.65	14644
848.786	14724
848.921	14708
849.057	14746
849.192	14750
849.328	14720
849.463	14708
849.598	14678
849.734	14606
849.869	14648
850.004	14438
850.14	14400
850.275	14427
850.41	14313
850.545	14362
850.68	14404
850.815	14469
850.95	14438
851.085	14575
851.22	14610
851.355	14438
851.49	14461
851.625	14511
851.76	14404
851.895	14347
852.03	14290
852.165	14423
852.299	14488
852.434	14514
852.569	14514
852.703	14541
852.838	14568
852.973	14587
853.107	14484
853.242	14431
853.376	14324
853.511	14195
853.645	14294
853.78	14305
853.914	14294
854.048	14320
854.183	14343
854.317	14229
854.451	14514
854.585	14142
854.72	14343
854.854	14511
854.988	14267
855.122	14339
855.256	14240
855.39	14324
855.524	14381
855.658	14305
855.792	14370
855.926	14309
856.06	14271
856.194	14298
856.327	14332
856.461	14244
856.595	14225
856.729	14244
856.862	14328
856.996	14339
857.13	14347
857.263	14389
857.397	14427
857.53	14267
857.664	14358
857.797	14408
857.931	14431
858.064	14488
858.197	14431
858.331	14214
858.464	14195
858.597	14233
858.731	14320
858.864	14278
858.997	14256
859.13	14385
859.263	14423
859.396	14385
859.529	14294
859.662	14317
859.795	14324
859.928	14275
860.061	14469
860.194	14465
860.327	14343
860.46	14305
860.592	14336
860.725	14484
860.858	14450
860.99	14366
861.123	14248
861.256	14237
861.388	14267
861.521	14826
861.653	14172
861.786	14134
861.918	14187
862.05	14187
862.183	14229
862.315	14267
862.447	14339
862.58	14214
862.712	14142
862.844	14065
862.976	14202
863.108	14103
863.24	14480
863.372	14012
863.504	14046
863.636	14138
863.768	14225
863.9	14145
864.032	14012
864.164	14084
864.296	14202
864.428	14248
864.559	14111
864.691	14149
864.823	14138
864.954	14084
865.086	14100
865.217	14069
865.349	13986
865.48	13913
865.612	14016
865.743	14218
865.875	14039
866.006	14027
866.137	14016
866.269	14077
866.4	14096
866.531	14123
866.662	13997
866.793	14016
866.924	14145
867.055	14001
867.186	14008
867.317	14005
867.448	13993
867.579	14092
867.71	14008
867.841	13982
867.972	14046
868.103	14119
868.233	13967
868.364	14035
868.495	14119
868.625	14282
868.756	14385
868.886	14161
869.017	14172
869.147	14431
869.278	14343
869.408	14301
869.539	14339
869.669	14396
869.799	14256
869.929	14415
870.06	14473
870.19	14705
870.32	14640
870.45	14659
870.58	14701
870.71	14800
870.84	14773
870.97	14625
871.1	14708
871.23	14826
871.36	14910
871.489	14773
871.619	14864
871.749	14830
871.879	14967
872.008	15062
872.138	14921
872.267	14979
872.397	14769
872.526	14727
872.656	14765
872.785	14720
872.915	14979
873.044	15089
873.173	14857
873.303	15017
873.432	15013
873.561	14971
873.69	15005
873.819	14960
873.948	15047
874.077	14990
874.206	14887
874.335	14902
874.464	15127
874.593	15294
874.722	15184
874.851	15306
874.979	15325
875.108	15397
875.237	15230
875.365	15150
875.494	15264
875.623	15431
875.751	15310
875.88	15351
876.008	15344
876.136	15485
876.265	15705
876.393	15812
876.521	15812
876.65	15682
876.778	15652
876.906	15736
877.034	15568
877.162	15709
877.29	15576
877.418	15755
877.546	15648
877.674	15648
877.802	15648
877.93	15641
878.058	15652
878.185	15549
878.313	15690
878.441	15701
878.568	15488
878.696	15587
878.824	15705
878.951	15762
879.079	15732
879.206	15968
879.333	15838
879.461	15819
879.588	15778
879.715	15797
879.842	15907
879.97	15679
880.097	15477
880.224	15477
880.351	15622
880.478	15595
880.605	15538
880.732	15393
880.859	15816
880.986	15572
881.112	15507
881.239	15523
881.366	15291
881.493	15195
881.619	15138
881.746	15245
881.872	15233
881.999	15195
882.125	15081
882.252	15165
882.378	15230
882.505	15363
882.631	15036
882.757	15081
882.883	15123
883.01	15051
883.136	14998
883.262	14979
883.388	14906
883.514	14921
883.64	15074
883.766	14967
883.892	14819
884.018	14853
884.143	15047
884.269	15100
884.395	14804
884.52	14724
884.646	14640
884.772	14670
884.897	14644
885.023	14716
885.148	14845
885.274	14864
885.399	14781
885.524	14644
885.65	14796
885.775	14800
885.9	14644
886.025	14735
886.15	14754
886.275	14667
886.4	14644
886.525	14720
886.65	14590
886.775	14632
886.9	14834
887.025	14910
887.149	14796
887.274	14522
887.399	14480
887.523	14507
887.648	14446
887.773	14320
887.897	14587
888.021	14541
888.146	14530
888.27	14659
888.395	14686
888.519	14568
888.643	14659
888.767	14613
888.891	14533
889.015	14366
889.139	14476
889.263	14374
889.387	14526
889.511	14575
889.635	14473
889.759	14343
889.883	14355
890.006	14450
890.13	14431
890.254	14275
890.377	14385
890.501	14195
890.624	14187
890.748	14389
890.871	14111
890.995	14027
891.118	14020
891.241	14092
891.364	14092
891.488	14202
891.611	14145
891.734	14088
891.857	14176
891.98	14115
892.103	14164
892.226	14058
892.349	14202
892.471	14039
892.594	14062
892.717	14206
892.839	14081
892.962	14088
893.085	14149
893.207	14115
893.33	13913
893.452	13993
893.575	14126
893.697	14065
893.819	14317
893.941	14332
894.064	14343
894.186	14077
894.308	14142
894.43	14191
894.552	14199
894.674	14320
894.796	14252
894.918	14111
895.04	14115
895.161	14309
895.283	14240
895.405	14115
895.526	14206
895.648	14275
895.769	14225
895.891	14286
896.012	14412
896.134	14286
896.255	14355
896.376	14225
896.498	14301
896.619	14263
896.74	14259
896.861	14374
896.982	14522
897.103	14762
897.224	14552
897.345	14499
897.466	14461
897.587	14499
897.708	14648
897.828	14575
897.949	14594
898.07	14404
898.19	14575
898.311	14773
898.431	14522
898.552	14579
898.672	14712
898.792	14724
898.913	14758
899.033	14545
899.153	14408
899.273	14370
899.393	14461
899.513	14389
899.633	14564
899.753	14518
899.873	14454
899.993	14545
900.113	14438
900.232	14537
900.352	14484
900.472	14469
900.591	14313
900.711	14328
900.83	14187
900.95	14469
901.069	14457
901.189	14267
901.308	14115
901.427	13993
901.546	14054
901.665	13978
901.784	14012
901.904	13959
902.023	13856
902.141	13681
902.26	13643
902.379	13738
902.498	13628
902.617	13472
902.735	13655
902.854	13567
902.973	13613
903.091	13350
903.21	13297
903.328	13331
903.446	13335
903.565	13160
903.683	13168
903.801	13080
903.919	13129
904.038	13133
904.156	12962
904.274	13023
904.392	12973
904.51	12890
904.627	12939
904.745	13042
904.863	13038
904.981	12707
905.098	12665
905.216	12688
905.334	12658
905.451	12639
905.569	12635
905.686	12795
905.803	12715
905.921	12502
906.038	12585
906.155	12490
906.272	12281
906.389	12380
906.506	12262
906.623	12292
906.74	12205
906.857	12163
906.974	12159
907.091	12216
907.208	12441
907.324	12273
907.441	12239
907.557	11958
907.674	12007
907.79	11946
907.907	12007
908.023	11965
908.139	11999
908.256	12011
908.372	11958
908.488	11923
908.604	11783
908.72	11832
908.836	11676
908.952	11745
909.068	11802
909.184	11813
909.3	11790
909.415	11771
909.531	11764
909.647	11592
909.762	11611
909.878	11429
909.993	11532
910.108	11376
910.224	11497
910.339	11528
910.454	11398
910.57	11383
910.685	11223
910.8	11600
910.915	11490
911.03	11398
911.145	11212
911.259	11273
911.374	11181
911.489	11155
911.604	11105
911.718	10961
911.833	11029
911.947	10839
912.062	10850
912.176	10961
912.291	10957
912.405	11014
912.519	11204
912.633	11151
912.748	10995
912.862	11048
912.976	10866
913.09	10805
913.204	10805
913.318	10976
913.431	10889
913.545	10881
913.659	10991
913.772	10866
913.886	10755
914	10733
914.113	10816
914.226	10900
914.34	10869
914.453	10725
914.566	10782
914.68	10740
914.793	10622
914.906	10508
915.019	10459
915.132	10390
915.245	10371
915.358	10417
915.47	10481
915.583	10519
915.696	10580
915.809	10584
915.921	10653
916.034	10470
916.146	10405
916.259	10409
916.371	10508
916.483	10531
916.595	10394
916.708	10455
916.82	10451
916.932	10379
917.044	10466
917.156	10413
917.268	10299
917.38	10344
917.491	10344
917.603	10360
917.715	10390
917.826	10390
917.938	10367
918.049	10265
918.161	10333
918.272	10443
918.384	10474
918.495	10394
918.606	10261
918.717	10219
918.828	10219
918.939	10284
919.05	10093
919.161	10242
919.272	10021
919.383	10063
919.494	10314
919.604	10451
919.715	10219
919.826	10162
919.936	10158
920.047	10303
920.157	10207
920.267	10386
920.378	10246
920.488	10177
920.598	10413
920.708	10485
920.818	10405
920.928	10352
921.038	10599
921.148	10531
921.258	10253
921.368	10169
921.477	10128
921.587	10086
921.697	9994
921.806	10150
921.916	9915
922.025	9789
922.134	9732
922.244	9717
922.353	9812
922.462	9648
922.571	9595
922.68	9450
922.789	9492
922.898	9511
923.007	9393
923.116	9447
923.224	9412
923.333	9435
923.442	9351
923.55	9329
923.659	9443
923.767	9443
923.876	9351
923.984	9386
924.092	9268
924.201	9279
924.309	9291
924.417	9389
924.525	9291
924.633	9237
924.741	10086
924.849	9097
924.956	9268
925.064	9097
925.172	9081
925.279	9097
925.387	9138
925.494	9138
925.602	9272
925.709	9154
925.816	9097
925.924	9093
926.031	9275
926.138	9116
926.245	9138
926.352	9032
926.459	9203
926.566	9192
926.673	9062
926.779	9032
926.886	8975
926.993	8842
927.099	8788
927.206	8811
927.312	8754
927.419	8883
927.525	8895
927.631	8906
927.737	8804
927.843	8682
927.95	8663
928.056	8667
928.162	8724
928.267	8861
928.373	9386
928.479	8826
928.585	8606
928.69	8724
928.796	8826
928.901	8670
929.007	8484
929.112	8663
929.218	8651
929.323	8617
929.428	8590
929.533	8701
929.638	8431
929.743	8541
929.848	8537
929.953	8617
930.058	8408
930.163	8248
930.267	8328
930.372	8396
930.477	8309
930.581	8545
930.685	8400
930.79	8240
930.894	8301
930.998	8252
931.103	8389
931.207	8115
931.311	8054
931.415	7986
931.519	7742
931.623	7788
