Data from test_V78500241_2014.txt Node
Date: Fri Mar 25 14:47:44 CST 2022
User: usil
Spectrometer: V785-0024
Trigger mode: 0
Integration Time (sec): 4.000000E-1
Scans to average: 1
Nonlinearity correction enabled: false
Boxcar width: 0
Storing dark spectrum: false
XAxis mode: Wavelengths
Number of Pixels in Spectrum: 1024
>>>>>Begin Spectral Data<<<<<
801.071	22204
801.214	22128
801.356	21778
801.499	21717
801.641	21511
801.783	21401
801.926	21519
802.068	21351
802.211	21321
802.353	21340
802.496	20975
802.638	20998
802.78	20906
802.923	20819
803.065	20712
803.208	20823
803.35	20689
803.492	20876
803.635	20845
803.777	20864
803.919	20880
804.061	21062
804.204	20796
804.346	20705
804.488	20800
804.63	20815
804.773	20613
804.915	20750
805.057	20800
805.199	20716
805.341	20720
805.483	20804
805.626	20811
805.768	20743
805.91	20826
806.052	20765
806.194	20663
806.336	20986
806.478	20678
806.62	20663
806.762	20792
806.904	20880
807.046	21165
807.188	21119
807.33	20921
807.472	21123
807.614	20887
807.756	21017
807.898	20830
808.04	20781
808.182	20796
808.324	20891
808.465	20918
808.607	20918
808.749	21135
808.891	21199
809.033	21157
809.174	21192
809.316	20963
809.458	21085
809.6	21013
809.741	21100
809.883	21154
810.025	21336
810.166	21287
810.308	21245
810.45	21157
810.591	21104
810.733	20967
810.875	20849
811.016	20769
811.158	20758
811.299	20899
811.441	21055
811.582	20941
811.724	20895
811.865	20724
812.007	20845
812.148	20769
812.29	20975
812.431	21070
812.573	21085
812.714	21294
812.855	21405
812.997	21469
813.138	21599
813.279	21477
813.421	21344
813.562	21317
813.703	21039
813.845	21074
813.986	20731
814.127	20594
814.268	20518
814.41	20431
814.551	20446
814.692	20469
814.833	20377
814.974	20434
815.115	20602
815.256	20290
815.397	20275
815.539	20176
815.68	20172
815.821	20096
815.962	20111
816.103	20107
816.244	19978
816.385	19814
816.526	19890
816.666	19731
816.807	19563
816.948	19601
817.089	19677
817.23	19613
817.371	19620
817.512	19533
817.653	19571
817.793	19472
817.934	19525
818.075	19559
818.216	19601
818.356	19514
818.497	19464
818.638	19270
818.778	19331
818.919	19247
819.06	19183
819.2	19384
819.341	19400
819.481	19441
819.622	19578
819.762	19791
819.903	19689
820.043	19620
820.184	19639
820.324	19533
820.465	19769
820.605	19556
820.746	19480
820.886	19358
821.026	19681
821.167	19449
821.307	19533
821.447	19388
821.588	19460
821.728	19198
821.868	19137
822.008	18954
822.149	18909
822.289	18890
822.429	18726
822.569	18760
822.709	18635
822.849	18452
822.99	18380
823.13	18407
823.27	18376
823.41	18224
823.55	18167
823.69	18190
823.83	18243
823.97	18220
824.11	17992
824.25	18057
824.389	18045
824.529	18068
824.669	18045
824.809	18114
824.949	18216
825.089	18022
825.228	18038
825.368	17779
825.508	17832
825.648	17870
825.787	17836
825.927	17901
826.067	17726
826.206	17767
826.346	17726
826.485	17737
826.625	17722
826.765	17897
826.904	17908
827.044	17570
827.183	17535
827.323	17509
827.462	17589
827.601	17452
827.741	17440
827.88	17554
828.02	17395
828.159	17463
828.298	17543
828.437	17490
828.577	17429
828.716	17668
828.855	17337
828.994	17318
829.134	17303
829.273	17258
829.412	17185
829.551	17113
829.69	17204
829.829	17227
829.968	17318
830.107	17360
830.246	17231
830.385	17235
830.524	17204
830.663	17003
830.802	16911
830.941	16942
831.08	16782
831.219	16980
831.357	16911
831.496	17052
831.635	16942
831.774	16771
831.913	16721
832.051	16767
832.19	16535
832.329	16687
832.467	16558
832.606	16523
832.744	16615
832.883	16577
833.022	16554
833.16	16538
833.299	16466
833.437	16626
833.576	16535
833.714	16596
833.852	16615
833.991	16649
834.129	16637
834.267	16668
834.406	16546
834.544	16687
834.682	16615
834.821	16694
834.959	16774
835.097	16508
835.235	16683
835.373	16615
835.511	16519
835.65	16500
835.788	16459
835.926	16436
836.064	16344
836.202	16310
836.34	16573
836.478	16630
836.615	16542
836.753	16554
836.891	16710
837.029	16508
837.167	16466
837.305	16474
837.443	16421
837.58	16371
837.718	16413
837.856	16386
837.993	16299
838.131	16352
838.269	16329
838.406	16325
838.544	16265
838.681	16093
838.819	16029
838.956	16021
839.094	15941
839.231	15915
839.369	16169
839.506	16382
839.643	16143
839.781	16002
839.918	15819
840.055	15983
840.193	15926
840.33	15926
840.467	15838
840.604	15895
840.742	16158
840.879	15812
841.016	15915
841.153	15972
841.29	16082
841.427	16002
841.564	16025
841.701	15937
841.838	15949
841.975	15800
842.112	15884
842.249	15698
842.385	15694
842.522	15983
842.659	15797
842.796	15644
842.933	15694
843.069	15625
843.206	15656
843.343	15895
843.479	15789
843.616	15724
843.752	15481
843.889	15492
844.025	15709
844.162	15545
844.298	15614
844.435	15473
844.571	15515
844.708	15580
844.844	15675
844.98	15701
845.117	15629
845.253	15454
845.389	15355
845.525	15416
845.661	15424
845.798	15355
845.934	15355
846.07	15272
846.206	15336
846.342	15412
846.478	15329
846.614	15097
846.75	15020
846.886	14979
847.022	15199
847.158	15070
847.294	15195
847.429	15066
847.565	15154
847.701	15336
847.837	14845
847.972	14765
848.108	14963
848.244	14960
848.379	14667
848.515	14602
848.65	14655
848.786	14644
848.921	14693
849.057	14769
849.192	14785
849.328	14670
849.463	14769
849.598	14621
849.734	14602
849.869	14575
850.004	14454
850.14	14465
850.275	14488
850.41	14438
850.545	14442
850.68	14393
850.815	14571
850.95	14358
851.085	14693
851.22	14533
851.355	14492
851.49	14526
851.625	14427
851.76	14423
851.895	14324
852.03	14408
852.165	14457
852.299	14457
852.434	14507
852.569	14590
852.703	14514
852.838	14610
852.973	14583
853.107	14583
853.242	14461
853.376	14366
853.511	14168
853.645	14301
853.78	14362
853.914	14320
854.048	14336
854.183	14221
854.317	14442
854.451	14499
854.585	14305
854.72	14267
854.854	14404
854.988	14309
855.122	14263
855.256	14221
855.39	14176
855.524	14408
855.658	14355
855.792	14427
855.926	14389
856.06	14412
856.194	14427
856.327	14309
856.461	14237
856.595	14233
856.729	14351
856.862	14393
856.996	14412
857.13	14343
857.263	14473
857.397	14412
857.53	14328
857.664	14358
857.797	14396
857.931	14511
858.064	14370
858.197	14461
858.331	14290
858.464	14305
858.597	14221
858.731	14305
858.864	14275
858.997	14286
859.13	14347
859.263	14298
859.396	14465
859.529	14396
859.662	14393
859.795	14339
859.928	14286
860.061	14461
860.194	14454
860.327	14374
860.46	14309
860.592	14514
860.725	14427
860.858	14438
860.99	14328
861.123	14309
861.256	14252
861.388	14389
861.521	15039
861.653	14313
861.786	14142
861.918	14240
862.05	14290
862.183	14229
862.315	14393
862.447	14328
862.58	14339
862.712	14126
862.844	14065
862.976	14134
863.108	14107
863.24	14465
863.372	14062
863.504	14103
863.636	14054
863.768	14134
863.9	14031
864.032	14046
864.164	14069
864.296	14069
864.428	14214
864.559	14187
864.691	14183
864.823	14278
864.954	14081
865.086	14183
865.217	14123
865.349	14005
865.48	14092
865.612	14107
865.743	14248
865.875	14062
866.006	14138
866.137	14149
866.269	14046
866.4	14088
866.531	14035
866.662	14024
866.793	14046
866.924	14111
867.055	14084
867.186	14043
867.317	14062
867.448	13959
867.579	14031
867.71	13921
867.841	14107
867.972	14024
868.103	14107
868.233	14119
868.364	14096
868.495	14206
868.625	14271
868.756	14431
868.886	14309
869.017	14313
869.147	14347
869.278	14419
869.408	14385
869.539	14347
869.669	14457
869.799	14332
869.929	14457
870.06	14419
870.19	14705
870.32	14587
870.45	14659
870.58	14693
870.71	14861
870.84	14796
870.97	14739
871.1	14773
871.23	14982
871.36	14994
871.489	14815
871.619	14906
871.749	14963
871.879	14857
872.008	15081
872.138	14944
872.267	14921
872.397	14781
872.526	14689
872.656	14716
872.785	14823
872.915	14986
873.044	15089
873.173	14990
873.303	14982
873.432	14994
873.561	15001
873.69	15142
873.819	14986
873.948	15005
874.077	15001
874.206	14960
874.335	15032
874.464	15157
874.593	15336
874.722	15298
874.851	15218
874.979	15363
875.108	15351
875.237	15306
875.365	15275
875.494	15355
875.623	15473
875.751	15195
875.88	15275
876.008	15500
876.136	15500
876.265	15793
876.393	15895
876.521	15747
876.65	15701
876.778	15701
876.906	15629
877.034	15660
877.162	15587
877.29	15660
877.418	15705
877.546	15766
877.674	15652
877.802	15724
877.93	15739
878.058	15648
878.185	15523
878.313	15732
878.441	15755
878.568	15618
878.696	15667
878.824	15778
878.951	15781
879.079	15915
879.206	16063
879.333	15880
879.461	15728
879.588	15812
879.715	15873
879.842	15994
879.97	15694
880.097	15641
880.224	15469
880.351	15572
880.478	15648
880.605	15538
880.732	15553
880.859	15762
880.986	15614
881.112	15694
881.239	15485
881.366	15192
881.493	15260
881.619	15207
881.746	15272
881.872	15161
881.999	15146
882.125	15222
882.252	15226
882.378	15359
882.505	15370
882.631	15275
882.757	15070
882.883	15051
883.01	15173
883.136	14952
883.262	14979
883.388	15001
883.514	15085
883.64	15112
883.766	15017
883.892	14963
884.018	14914
884.143	15036
884.269	15116
884.395	14849
884.52	14693
884.646	14705
884.772	14663
884.897	14640
885.023	14853
885.148	14861
885.274	14785
885.399	14807
885.524	14724
885.65	14670
885.775	14667
885.9	14819
886.025	14777
886.15	14762
886.275	14796
886.4	14701
886.525	14735
886.65	14636
886.775	14739
886.9	14826
887.025	14933
887.149	14708
887.274	14644
887.399	14396
887.523	14552
887.648	14454
887.773	14396
887.897	14549
888.021	14689
888.146	14545
888.27	14674
888.395	14796
888.519	14594
888.643	14648
888.767	14629
888.891	14503
889.015	14374
889.139	14427
889.263	14385
889.387	14549
889.511	14651
889.635	14549
889.759	14423
889.883	14366
890.006	14419
890.13	14522
890.254	14457
890.377	14393
890.501	14271
890.624	14153
890.748	14370
890.871	14183
890.995	14088
891.118	13947
891.241	14172
891.364	14149
891.488	14187
891.611	14084
891.734	14233
891.857	14172
891.98	14115
892.103	14218
892.226	14081
892.349	14119
892.471	13921
892.594	14199
892.717	14149
892.839	14115
892.962	14142
893.085	14202
893.207	14199
893.33	13989
893.452	14081
893.575	14206
893.697	14065
893.819	14294
893.941	14317
894.064	14290
894.186	14100
894.308	14084
894.43	14252
894.552	14218
894.674	14286
894.796	14073
894.918	14176
895.04	14157
895.161	14320
895.283	14317
895.405	14157
895.526	14218
895.648	14271
895.769	14237
895.891	14225
896.012	14286
896.134	14237
896.255	14370
896.376	14305
896.498	14309
896.619	14328
896.74	14347
896.861	14362
896.982	14689
897.103	14750
897.224	14575
897.345	14530
897.466	14480
897.587	14568
897.708	14648
897.828	14689
897.949	14545
898.07	14480
898.19	14503
898.311	14682
898.431	14549
898.552	14678
898.672	14602
898.792	14674
898.913	14667
899.033	14594
899.153	14473
899.273	14366
899.393	14476
899.513	14533
899.633	14362
899.753	14518
899.873	14434
899.993	14575
900.113	14514
900.232	14587
900.352	14473
900.472	14434
900.591	14237
900.711	14377
900.83	14347
900.95	14488
901.069	14480
901.189	14374
901.308	14103
901.427	14054
901.546	13997
901.665	13989
901.784	14115
901.904	13940
902.023	13784
902.141	13639
902.26	13666
902.379	13685
902.498	13567
902.617	13601
902.735	13590
902.854	13567
902.973	13510
903.091	13282
903.21	13392
903.328	13350
903.446	13316
903.565	13156
903.683	13198
903.801	13072
903.919	13114
904.038	13114
904.156	13050
904.274	13145
904.392	12981
904.51	13015
904.627	12901
904.745	13012
904.863	13008
904.981	12753
905.098	12719
905.216	12749
905.334	12665
905.451	12684
905.569	12616
905.686	12715
905.803	12741
905.921	12418
906.038	12665
906.155	12551
906.272	12445
906.389	12418
906.506	12292
906.623	12338
906.74	12247
906.857	12216
906.974	12171
907.091	12289
907.208	12479
907.324	12365
907.441	12205
907.557	12083
907.674	12034
907.79	11992
907.907	12015
908.023	12072
908.139	12076
908.256	11969
908.372	12015
908.488	12003
908.604	11855
908.72	11775
908.836	11771
908.952	11775
909.068	11741
909.184	11866
909.3	11805
909.415	11798
909.531	11775
909.647	11604
909.762	11619
909.878	11474
909.993	11512
910.108	11532
910.224	11535
910.339	11520
910.454	11463
910.57	11360
910.685	11296
910.8	11608
910.915	11577
911.03	11391
911.145	11223
911.259	11204
911.374	11326
911.489	11235
911.604	11075
911.718	11048
911.833	10991
911.947	10942
912.062	10824
912.176	10972
912.291	11045
912.405	11033
912.519	11102
912.633	11201
912.748	11060
912.862	11056
912.976	10934
913.09	10767
913.204	10824
913.318	10866
913.431	11033
913.545	10892
913.659	11041
913.772	10938
913.886	10740
914	10733
914.113	10911
914.226	10934
914.34	10889
914.453	10698
914.566	10828
914.68	10759
914.793	10759
914.906	10611
915.019	10550
915.132	10451
915.245	10493
915.358	10569
915.47	10500
915.583	10519
915.696	10523
915.809	10656
915.921	10694
916.034	10493
916.146	10443
916.259	10459
916.371	10573
916.483	10630
916.595	10394
916.708	10443
916.82	10459
916.932	10478
917.044	10394
917.156	10447
917.268	10333
917.38	10375
917.491	10325
917.603	10360
917.715	10485
917.826	10443
917.938	10371
918.049	10223
918.161	10318
918.272	10512
918.384	10451
918.495	10398
918.606	10249
918.717	10211
918.828	10211
918.939	10253
919.05	10234
919.161	10162
919.272	10116
919.383	10063
919.494	10318
919.604	10508
919.715	10196
919.826	10162
919.936	10230
920.047	10280
920.157	10211
920.267	10424
920.378	10295
920.488	10230
920.598	10424
920.708	10584
920.818	10417
920.928	10417
921.038	10615
921.148	10523
921.258	10268
921.368	10147
921.477	10150
921.587	10116
921.697	10002
921.806	10048
921.916	9998
922.025	9831
922.134	9755
922.244	9797
922.353	9842
922.462	9641
922.571	9648
922.68	9473
922.789	9492
922.898	9553
923.007	9382
923.116	9523
923.224	9439
923.333	9454
923.442	9332
923.55	9313
923.659	9370
923.767	9477
923.876	9359
923.984	9420
924.092	9260
924.201	9412
924.309	9401
924.417	9317
924.525	9332
924.633	9351
924.741	10291
924.849	9138
924.956	9291
925.064	9169
925.172	9020
925.279	9142
925.387	9184
925.494	9157
925.602	9222
925.709	9207
925.816	9047
925.924	9176
926.031	9249
926.138	9123
926.245	9245
926.352	9074
926.459	9230
926.566	9283
926.673	9169
926.779	8971
926.886	8986
926.993	8891
927.099	8864
927.206	8727
927.312	8781
927.419	8948
927.525	8861
927.631	8902
927.737	8762
927.843	8708
927.95	8655
928.056	8739
928.162	8750
928.267	8819
928.373	9401
928.479	8933
928.585	8644
928.69	8693
928.796	8781
928.901	8644
929.007	8541
929.112	8617
929.218	8735
929.323	8613
929.428	8541
929.533	8724
929.638	8511
929.743	8552
929.848	8613
929.953	8587
930.058	8545
930.163	8351
930.267	8404
930.372	8442
930.477	8286
930.581	8594
930.685	8374
930.79	8290
930.894	8328
930.998	8301
931.103	8370
931.207	8065
931.311	8027
931.415	7936
931.519	7841
931.623	7746
