Data from test_V78500241_486.txt Node
Date: Fri Mar 25 14:37:06 CST 2022
User: usil
Spectrometer: V785-0024
Trigger mode: 0
Integration Time (sec): 4.000000E-1
Scans to average: 1
Nonlinearity correction enabled: false
Boxcar width: 0
Storing dark spectrum: false
XAxis mode: Wavelengths
Number of Pixels in Spectrum: 1024
>>>>>Begin Spectral Data<<<<<
801.071	26568
801.214	26453
801.356	26214
801.499	26282
801.641	25993
801.783	25913
801.926	26138
802.068	25894
802.211	25780
802.353	25871
802.496	25624
802.638	25578
802.78	25422
802.923	25499
803.065	25327
803.208	25441
803.35	25445
803.492	25548
803.635	25567
803.777	25529
803.919	25582
804.061	25776
804.204	25590
804.346	25506
804.488	25403
804.63	25320
804.773	25320
804.915	25540
805.057	25533
805.199	25327
805.341	25438
805.483	25544
805.626	25540
805.768	25468
805.91	25415
806.052	25506
806.194	25476
806.336	25521
806.478	25567
806.62	25460
806.762	25655
806.904	25556
807.046	25982
807.188	25871
807.33	25887
807.472	25947
807.614	25704
807.756	25868
807.898	25746
808.04	25750
808.182	25799
808.324	25902
808.465	25761
808.607	25978
808.749	26187
808.891	26263
809.033	26415
809.174	26187
809.316	26119
809.458	26168
809.6	26005
809.741	26062
809.883	26077
810.025	26358
810.166	26027
810.308	26271
810.45	26073
810.591	26210
810.733	25932
810.875	25898
811.016	25841
811.158	25753
811.299	25852
811.441	25944
811.582	26005
811.724	25799
811.865	25719
812.007	25738
812.148	25772
812.29	25727
812.431	25833
812.573	26145
812.714	26153
812.855	26396
812.997	26393
813.138	26533
813.279	26408
813.421	26358
813.562	26206
813.703	26119
813.845	25864
813.986	25681
814.127	25540
814.268	25506
814.41	25365
814.551	25190
814.692	25445
814.833	25278
814.974	25240
815.115	25369
815.256	25099
815.397	25202
815.539	25259
815.68	25145
815.821	25069
815.962	25015
816.103	25091
816.244	25019
816.385	24821
816.526	24715
816.666	24563
816.807	24410
816.948	24509
817.089	24703
817.23	24513
817.371	24509
817.512	24540
817.653	24566
817.793	24388
817.934	24502
818.075	24513
818.216	24334
818.356	24464
818.497	24296
818.638	24144
818.778	24133
818.919	24038
819.06	24110
819.2	24273
819.341	24285
819.481	24327
819.622	24422
819.762	24741
819.903	24585
820.043	24593
820.184	24551
820.324	24448
820.465	24574
820.605	24517
820.746	24471
820.886	24350
821.026	24490
821.167	24365
821.307	24388
821.447	24266
821.588	24076
821.728	24091
821.868	23954
822.008	23874
822.149	23802
822.289	23756
822.429	23551
822.569	23554
822.709	23486
822.849	23345
822.99	23239
823.13	23360
823.27	23299
823.41	23037
823.55	23025
823.69	23071
823.83	23014
823.97	22904
824.11	22698
824.25	22675
824.389	22778
824.529	22911
824.669	22778
824.809	22938
824.949	22831
825.089	22850
825.228	22733
825.368	22634
825.508	22664
825.648	22603
825.787	22573
825.927	22603
826.067	22596
826.206	22500
826.346	22569
826.485	22641
826.625	22565
826.765	22744
826.904	22710
827.044	22314
827.183	22280
827.323	22223
827.462	22379
827.601	22276
827.741	22253
827.88	22291
828.02	22044
828.159	22234
828.298	22276
828.437	22295
828.577	22333
828.716	22310
828.855	22128
828.994	22032
829.134	21964
829.273	21838
829.412	21979
829.551	21846
829.69	21960
829.829	22093
829.968	21968
830.107	21945
830.246	21987
830.385	21907
830.524	21781
830.663	21846
830.802	21603
830.941	21526
831.08	21545
831.219	21564
831.357	21496
831.496	21739
831.635	21629
831.774	21454
831.913	21454
832.051	21313
832.19	21382
832.329	21397
832.467	21131
832.606	21173
832.744	21199
832.883	21207
833.022	21173
833.16	21169
833.299	21260
833.437	21203
833.576	21321
833.714	21355
833.852	21306
833.991	21317
834.129	21214
834.267	21393
834.406	21256
834.544	21214
834.682	21157
834.821	21123
834.959	21302
835.097	21028
835.235	21226
835.373	21157
835.511	21116
835.65	21047
835.788	21047
835.926	20788
836.064	20815
836.202	20826
836.34	20998
836.478	21180
836.615	20902
836.753	21093
836.891	21108
837.029	21020
837.167	20876
837.305	20921
837.443	21039
837.58	20868
837.718	20929
837.856	20967
837.993	20872
838.131	20952
838.269	20746
838.406	20777
838.544	20712
838.681	20636
838.819	20484
838.956	20381
839.094	20389
839.231	20476
839.369	20473
839.506	20754
839.643	20667
839.781	20343
839.918	20180
840.055	20313
840.193	20233
840.33	20237
840.467	20244
840.604	20248
840.742	20446
840.879	20062
841.016	20206
841.153	20096
841.29	20301
841.427	20237
841.564	20317
841.701	20214
841.838	20172
841.975	20065
842.112	20039
842.249	20008
842.385	20062
842.522	20134
842.659	19951
842.796	19917
842.933	20008
843.069	19913
843.206	19902
843.343	19989
843.479	19974
843.616	20126
843.752	19852
843.889	19731
844.025	19875
844.162	19700
844.298	19875
844.435	19746
844.571	19681
844.708	19647
844.844	19807
844.98	19856
845.117	19898
845.253	19685
845.389	19750
845.525	19693
845.661	19795
845.798	19765
845.934	19830
846.07	19780
846.206	19719
846.342	19856
846.478	19651
846.614	19346
846.75	19350
846.886	19168
847.022	19251
847.158	19251
847.294	19221
847.429	19324
847.565	19103
847.701	19426
847.837	18837
847.972	18886
848.108	19069
848.244	18985
848.379	18840
848.515	18745
848.65	18753
848.786	18730
848.921	18840
849.057	18894
849.192	18806
849.328	18783
849.463	18772
849.598	18677
849.734	18760
849.869	18540
850.004	18623
850.14	18544
850.275	18544
850.41	18525
850.545	18289
850.68	18494
850.815	18566
850.95	18437
851.085	18696
851.22	18635
851.355	18521
851.49	18353
851.625	18391
851.76	18490
851.895	18407
852.03	18395
852.165	18521
852.299	18426
852.434	18494
852.569	18475
852.703	18490
852.838	18494
852.973	18703
853.107	18738
853.242	18437
853.376	18399
853.511	18228
853.645	18228
853.78	18441
853.914	18296
854.048	18270
854.183	18285
854.317	18350
854.451	18410
854.585	18296
854.72	18319
854.854	18372
854.988	18235
855.122	18380
855.256	18197
855.39	18315
855.524	18384
855.658	18433
855.792	18395
855.926	18319
856.06	18384
856.194	18422
856.327	18357
856.461	18327
856.595	18251
856.729	18266
856.862	18429
856.996	18273
857.13	18422
857.263	18426
857.397	18437
857.53	18357
857.664	18300
857.797	18429
857.931	18376
858.064	18395
858.197	18452
858.331	18361
858.464	18247
858.597	18220
858.731	18235
858.864	18171
858.997	18289
859.13	18441
859.263	18330
859.396	18270
859.529	18270
859.662	18258
859.795	18190
859.928	18346
860.061	18350
860.194	18361
860.327	18311
860.46	18277
860.592	18361
860.725	18308
860.858	18395
860.99	18319
861.123	18239
861.256	18186
861.388	18201
861.521	18981
861.653	18243
861.786	18091
861.918	18144
862.05	18327
862.183	18285
862.315	18251
862.447	18399
862.58	18334
862.712	18091
862.844	18114
862.976	18026
863.108	18072
863.24	18391
863.372	18022
863.504	18068
863.636	17992
863.768	18053
863.9	17988
864.032	17973
864.164	17969
864.296	18060
864.428	18053
864.559	18133
864.691	17969
864.823	18072
864.954	17942
865.086	17870
865.217	17999
865.349	17984
865.48	17916
865.612	17984
865.743	18117
865.875	17935
866.006	17901
866.137	17931
866.269	17942
866.4	17904
866.531	17866
866.662	17874
866.793	17798
866.924	17843
867.055	17824
867.186	17855
867.317	17882
867.448	17798
867.579	17851
867.71	17783
867.841	17859
867.972	17832
868.103	17904
868.233	17923
868.364	17965
868.495	17965
868.625	18091
868.756	18197
868.886	18076
869.017	18087
869.147	18125
869.278	18311
869.408	18216
869.539	18136
869.669	18186
869.799	18102
869.929	18262
870.06	18155
870.19	18448
870.32	18304
870.45	18486
870.58	18490
870.71	18661
870.84	18604
870.97	18578
871.1	18563
871.23	18707
871.36	18646
871.489	18544
871.619	18696
871.749	18654
871.879	18707
872.008	18825
872.138	18734
872.267	18677
872.397	18506
872.526	18460
872.656	18467
872.785	18441
872.915	18741
873.044	18806
873.173	18722
873.303	18757
873.432	18730
873.561	18825
873.69	18730
873.819	18795
873.948	18768
874.077	18837
874.206	18673
874.335	18696
874.464	18897
874.593	18962
874.722	18966
874.851	19012
874.979	19065
875.108	19069
875.237	19015
875.365	18951
875.494	19027
875.623	19000
875.751	19034
875.88	19015
876.008	19168
876.136	19285
876.265	19441
876.393	19567
876.521	19449
876.65	19586
876.778	19407
876.906	19388
877.034	19415
877.162	19483
877.29	19377
877.418	19407
877.546	19468
877.674	19362
877.802	19308
877.93	19392
878.058	19232
878.185	19362
878.313	19441
878.441	19487
878.568	19289
878.696	19457
878.824	19438
878.951	19510
879.079	19601
879.206	19879
879.333	19712
879.461	19491
879.588	19814
879.715	19769
879.842	19799
879.97	19559
880.097	19381
880.224	19358
880.351	19365
880.478	19282
880.605	19354
880.732	19164
880.859	19529
880.986	19320
881.112	19400
881.239	19251
881.366	19137
881.493	18947
881.619	18871
881.746	18962
881.872	18966
881.999	18837
882.125	18947
882.252	18924
882.378	18905
882.505	18996
882.631	18821
882.757	18703
882.883	18753
883.01	18658
883.136	18536
883.262	18597
883.388	18616
883.514	18806
883.64	18787
883.766	18566
883.892	18471
884.018	18479
884.143	18639
884.269	18749
884.395	18448
884.52	18292
884.646	18285
884.772	18315
884.897	18350
885.023	18273
885.148	18433
885.274	18471
885.399	18445
885.524	18441
885.65	18350
885.775	18216
885.9	18311
886.025	18319
886.15	18429
886.275	18365
886.4	18110
886.525	18357
886.65	18232
886.775	18224
886.9	18376
887.025	18559
887.149	18296
887.274	18095
887.399	18060
887.523	18053
887.648	18064
887.773	17996
887.897	18174
888.021	18106
888.146	18007
888.27	18182
888.395	18155
888.519	18174
888.643	18098
888.767	18091
888.891	18003
889.015	17786
889.139	17984
889.263	17874
889.387	18049
889.511	18178
889.635	18038
889.759	17870
889.883	17840
890.006	17904
890.13	17973
890.254	17840
890.377	17798
890.501	17695
890.624	17642
890.748	17718
890.871	17535
890.995	17425
891.118	17402
891.241	17547
891.364	17520
891.488	17532
891.611	17467
891.734	17459
891.857	17619
891.98	17596
892.103	17649
892.226	17463
892.349	17330
892.471	17429
892.594	17474
892.717	17395
892.839	17402
892.962	17490
893.085	17570
893.207	17501
893.33	17414
893.452	17353
893.575	17433
893.697	17452
893.819	17577
893.941	17619
894.064	17611
894.186	17433
894.308	17455
894.43	17482
894.552	17611
894.674	17558
894.796	17402
894.918	17452
895.04	17429
895.161	17486
895.283	17493
895.405	17406
895.526	17452
895.648	17383
895.769	17589
895.891	17535
896.012	17604
896.134	17554
896.255	17501
896.376	17478
896.498	17516
896.619	17573
896.74	17543
896.861	17600
896.982	17805
897.103	18053
897.224	17870
897.345	17767
897.466	17767
897.587	17741
897.708	17988
897.828	17863
897.949	17718
898.07	17661
898.19	17764
898.311	17897
898.431	17714
898.552	17737
898.672	17859
898.792	17851
898.913	17836
899.033	17714
899.153	17634
899.273	17532
899.393	17459
899.513	17566
899.633	17539
899.753	17585
899.873	17608
899.993	17672
900.113	17467
900.232	17684
900.352	17562
900.472	17376
900.591	17341
900.711	17398
900.83	17345
900.95	17501
901.069	17410
901.189	17273
901.308	17056
901.427	16980
901.546	16949
901.665	17014
901.784	17121
901.904	16995
902.023	16797
902.141	16607
902.26	16637
902.379	16702
902.498	16531
902.617	16516
902.735	16596
902.854	16531
902.973	16550
903.091	16310
903.21	16234
903.328	16219
903.446	16200
903.565	16169
903.683	15987
903.801	15994
903.919	15979
904.038	15975
904.156	15857
904.274	15937
904.392	15854
904.51	15778
904.627	15903
904.745	15808
904.863	15850
904.981	15667
905.098	15488
905.216	15538
905.334	15534
905.451	15424
905.569	15469
905.686	15553
905.803	15500
905.921	15283
906.038	15355
906.155	15279
906.272	15214
906.389	15214
906.506	15055
906.623	15093
906.74	15119
906.857	14929
906.974	14990
907.091	14998
907.208	15173
907.324	14967
907.441	14952
907.557	14800
907.674	14804
907.79	14632
907.907	14712
908.023	14674
908.139	14746
908.256	14610
908.372	14541
908.488	14629
908.604	14408
908.72	14450
908.836	14545
908.952	14442
909.068	14492
909.184	14583
909.3	14400
909.415	14488
909.531	14469
909.647	14259
909.762	14183
909.878	14191
909.993	14259
910.108	14187
910.224	14020
910.339	14130
910.454	14088
910.57	13978
910.685	13864
910.8	14210
910.915	14145
911.03	13989
911.145	13788
911.259	13803
911.374	13841
911.489	13700
911.604	13658
911.718	13578
911.833	13636
911.947	13460
912.062	13384
912.176	13430
912.291	13556
912.405	13533
912.519	13734
912.633	13674
912.748	13597
912.862	13518
912.976	13411
913.09	13263
913.204	13365
913.318	13354
913.431	13480
913.545	13487
913.659	13499
913.772	13373
913.886	13308
914	13244
914.113	13282
914.226	13346
914.34	13278
914.453	13190
914.566	13278
914.68	13152
914.793	13171
914.906	12905
915.019	12977
915.132	12791
915.245	12985
915.358	12962
915.47	12981
915.583	12973
915.696	12863
915.809	13053
915.921	13046
916.034	12859
916.146	12871
916.259	12795
916.371	12913
916.483	12897
916.595	12795
916.708	12810
916.82	12791
916.932	12688
917.044	12688
917.156	12749
917.268	12616
917.38	12642
917.491	12563
917.603	12604
917.715	12715
917.826	12707
917.938	12563
918.049	12483
918.161	12620
918.272	12730
918.384	12738
918.495	12639
918.606	12494
918.717	12407
918.828	12452
918.939	12445
919.05	12296
919.161	12403
919.272	12334
919.383	12270
919.494	12407
919.604	12551
919.715	12372
919.826	12365
919.936	12422
920.047	12429
920.157	12452
920.267	12513
920.378	12502
920.488	12479
920.598	12525
920.708	12700
920.818	12631
920.928	12506
921.038	12654
921.148	12681
921.258	12388
921.368	12315
921.477	12216
921.587	12007
921.697	12175
921.806	12133
921.916	12053
922.025	11939
922.134	11904
922.244	11870
922.353	11866
922.462	11752
922.571	11661
922.68	11543
922.789	11566
922.898	11524
923.007	11524
923.116	11577
923.224	11463
923.333	11543
923.442	11356
923.55	11349
923.659	11440
923.767	11402
923.876	11406
923.984	11345
924.092	11356
924.201	11387
924.309	11311
924.417	11341
924.525	11242
924.633	11258
924.741	12197
924.849	11075
924.956	11265
925.064	11113
925.172	11052
925.279	11045
925.387	11170
925.494	11105
925.602	11273
925.709	11086
925.816	11022
925.924	11098
926.031	11128
926.138	11102
926.245	11079
926.352	10946
926.459	11067
926.566	11159
926.673	10976
926.779	10866
926.886	10763
926.993	10771
927.099	10687
927.206	10725
927.312	10675
927.419	10793
927.525	10759
927.631	10801
927.737	10630
927.843	10615
927.95	10478
928.056	10481
928.162	10577
928.267	10714
928.373	11113
928.479	10675
928.585	10375
928.69	10519
928.796	10592
928.901	10504
929.007	10360
929.112	10489
929.218	10474
929.323	10295
929.428	10344
929.533	10542
929.638	10253
929.743	10295
929.848	10371
929.953	10382
930.058	10177
930.163	10067
930.267	10059
930.372	10131
930.477	10017
930.581	10295
930.685	10074
930.79	10021
930.894	9994
930.998	9915
931.103	10090
931.207	9831
931.311	9625
931.415	9633
931.519	9431
931.623	9416
