Data from test_V78500241_3150.txt Node
Date: Fri Mar 25 14:55:38 CST 2022
User: usil
Spectrometer: V785-0024
Trigger mode: 0
Integration Time (sec): 4.000000E-1
Scans to average: 1
Nonlinearity correction enabled: false
Boxcar width: 0
Storing dark spectrum: false
XAxis mode: Wavelengths
Number of Pixels in Spectrum: 1024
>>>>>Begin Spectral Data<<<<<
801.071	22067
801.214	21964
801.356	21804
801.499	21717
801.641	21466
801.783	21389
801.926	21416
802.068	21393
802.211	21294
802.353	21287
802.496	21077
802.638	21032
802.78	20971
802.923	20857
803.065	20720
803.208	20705
803.35	20838
803.492	20819
803.635	20902
803.777	20682
803.919	20872
804.061	21211
804.204	20758
804.346	20659
804.488	20659
804.63	20686
804.773	20583
804.915	20552
805.057	20727
805.199	20598
805.341	20708
805.483	20792
805.626	20712
805.768	20583
805.91	20693
806.052	20644
806.194	20648
806.336	20663
806.478	20632
806.62	20598
806.762	20731
806.904	20834
807.046	21013
807.188	21055
807.33	20960
807.472	20975
807.614	20765
807.756	20956
807.898	20887
808.04	20754
808.182	20739
808.324	20830
808.465	20804
808.607	20902
808.749	21009
808.891	21119
809.033	21142
809.174	21142
809.316	20925
809.458	21036
809.6	20998
809.741	21081
809.883	21119
810.025	21214
810.166	21173
810.308	21188
810.45	21089
810.591	21112
810.733	21017
810.875	20918
811.016	20765
811.158	20686
811.299	20941
811.441	20994
811.582	20925
811.724	20785
811.865	20811
812.007	20674
812.148	20754
812.29	20872
812.431	21043
812.573	21119
812.714	21203
812.855	21096
812.997	21317
813.138	21462
813.279	21469
813.421	21279
813.562	21237
813.703	21070
813.845	20921
813.986	20632
814.127	20541
814.268	20381
814.41	20412
814.551	20377
814.692	20389
814.833	20252
814.974	20275
815.115	20320
815.256	20119
815.397	20221
815.539	20225
815.68	20077
815.821	20092
815.962	20157
816.103	20031
816.244	19879
816.385	19845
816.526	19822
816.666	19620
816.807	19502
816.948	19582
817.089	19693
817.23	19472
817.371	19533
817.512	19407
817.653	19533
817.793	19365
817.934	19510
818.075	19354
818.216	19403
818.356	19460
818.497	19244
818.638	19156
818.778	19285
818.919	19137
819.06	19171
819.2	19320
819.341	19377
819.481	19304
819.622	19499
819.762	19715
819.903	19670
820.043	19407
820.184	19434
820.324	19415
820.465	19415
820.605	19483
820.746	19293
820.886	19301
821.026	19438
821.167	19365
821.307	19537
821.447	19362
821.588	19285
821.728	19213
821.868	19038
822.008	18844
822.149	18779
822.289	18821
822.429	18612
822.569	18528
822.709	18620
822.849	18254
822.99	18414
823.13	18338
823.27	18273
823.41	18228
823.55	18076
823.69	18186
823.83	18163
823.97	18098
824.11	17942
824.25	17832
824.389	17908
824.529	17950
824.669	17866
824.809	18034
824.949	18057
825.089	18034
825.228	17984
825.368	17733
825.508	17745
825.648	17798
825.787	17680
825.927	17638
826.067	17680
826.206	17680
826.346	17699
826.485	17726
826.625	17653
826.765	17733
826.904	17726
827.044	17463
827.183	17383
827.323	17337
827.462	17452
827.601	17421
827.741	17337
827.88	17334
828.02	17258
828.159	17311
828.298	17429
828.437	17486
828.577	17334
828.716	17448
828.855	17299
828.994	17166
829.134	17109
829.273	17143
829.412	17067
829.551	17079
829.69	17128
829.829	17151
829.968	17193
830.107	17200
830.246	17086
830.385	17140
830.524	17041
830.663	16923
830.802	16835
830.941	16694
831.08	16607
831.219	16854
831.357	16767
831.496	17045
831.635	16702
831.774	16637
831.913	16622
832.051	16504
832.19	16565
832.329	16611
832.467	16432
832.606	16348
832.744	16402
832.883	16371
833.022	16314
833.16	16382
833.299	16382
833.437	16413
833.576	16497
833.714	16504
833.852	16462
833.991	16527
834.129	16558
834.267	16565
834.406	16459
834.544	16512
834.682	16558
834.821	16474
834.959	16634
835.097	16519
835.235	16744
835.373	16523
835.511	16538
835.65	16356
835.788	16428
835.926	16200
836.064	16314
836.202	16112
836.34	16474
836.478	16436
836.615	16363
836.753	16443
836.891	16493
837.029	16402
837.167	16352
837.305	16276
837.443	16318
837.58	16272
837.718	16272
837.856	16322
837.993	16211
838.131	16261
838.269	16158
838.406	16284
838.544	16120
838.681	15960
838.819	15884
838.956	15850
839.094	15918
839.231	15709
839.369	15899
839.506	16116
839.643	16048
839.781	15838
839.918	15781
840.055	15895
840.193	15831
840.33	15747
840.467	15823
840.604	15899
840.742	16063
840.879	15618
841.016	15682
841.153	15682
841.29	15797
841.427	15755
841.564	15846
841.701	15800
841.838	15739
841.975	15652
842.112	15789
842.249	15667
842.385	15606
842.522	15728
842.659	15591
842.796	15568
842.933	15644
843.069	15462
843.206	15504
843.343	15713
843.479	15545
843.616	15515
843.752	15374
843.889	15367
844.025	15572
844.162	15310
844.298	15321
844.435	15367
844.571	15332
844.708	15336
844.844	15473
844.98	15504
845.117	15382
845.253	15378
845.389	15119
845.525	15272
845.661	15355
845.798	15211
845.934	15241
846.07	15195
846.206	15188
846.342	15359
846.478	15245
846.614	15047
846.75	14921
846.886	14925
847.022	15024
847.158	14963
847.294	14994
847.429	14960
847.565	14986
847.701	15157
847.837	14682
847.972	14560
848.108	14724
848.244	14716
848.379	14617
848.515	14457
848.65	14503
848.786	14457
848.921	14541
849.057	14697
849.192	14560
849.328	14545
849.463	14579
849.598	14507
849.734	14518
849.869	14366
850.004	14324
850.14	14389
850.275	14278
850.41	14187
850.545	14271
850.68	14240
850.815	14210
850.95	14263
851.085	14488
851.22	14339
851.355	14256
851.49	14267
851.625	14343
851.76	14229
851.895	14183
852.03	14073
852.165	14199
852.299	14362
852.434	14377
852.569	14244
852.703	14309
852.838	14457
852.973	14484
853.107	14358
853.242	14317
853.376	14199
853.511	14115
853.645	14149
853.78	14229
853.914	14168
854.048	14218
854.183	14176
854.317	14210
854.451	14347
854.585	14142
854.72	14123
854.854	14339
854.988	14096
855.122	14077
855.256	13986
855.39	14043
855.524	14244
855.658	14271
855.792	14187
855.926	14252
856.06	14153
856.194	14256
856.327	14100
856.461	14103
856.595	14073
856.729	14218
856.862	14221
856.996	14229
857.13	14199
857.263	14328
857.397	14336
857.53	14206
857.664	14225
857.797	14271
857.931	14328
858.064	14210
858.197	14370
858.331	14210
858.464	14191
858.597	14012
858.731	14210
858.864	14130
858.997	14199
859.13	14164
859.263	14176
859.396	14259
859.529	14065
859.662	14062
859.795	14103
859.928	14263
860.061	14301
860.194	14313
860.327	14199
860.46	14237
860.592	14233
860.725	14305
860.858	14282
860.99	14218
861.123	14073
861.256	14005
861.388	14210
861.521	14880
861.653	14126
861.786	14039
861.918	14050
862.05	14001
862.183	14225
862.315	14111
862.447	14221
862.58	14142
862.712	14016
862.844	13932
862.976	14065
863.108	13963
863.24	14248
863.372	13947
863.504	13986
863.636	13963
863.768	13967
863.9	13944
864.032	13830
864.164	13944
864.296	13947
864.428	14103
864.559	14103
864.691	14012
864.823	14130
864.954	14020
865.086	13951
865.217	13936
865.349	13826
865.48	13917
865.612	13936
865.743	14149
865.875	13959
866.006	13921
866.137	13913
866.269	13879
866.4	13890
866.531	13925
866.662	13845
866.793	13913
866.924	13959
867.055	13989
867.186	13890
867.317	13791
867.448	13856
867.579	13879
867.71	13887
867.841	13871
867.972	13906
868.103	13959
868.233	13978
868.364	13940
868.495	14027
868.625	14142
868.756	14301
868.886	14062
869.017	14138
869.147	14294
869.278	14263
869.408	14172
869.539	14180
869.669	14305
869.799	14168
869.929	14332
870.06	14286
870.19	14427
870.32	14450
870.45	14602
870.58	14587
870.71	14727
870.84	14682
870.97	14560
871.1	14465
871.23	14659
871.36	14887
871.489	14739
871.619	14727
871.749	14830
871.879	14800
872.008	14842
872.138	14804
872.267	14769
872.397	14727
872.526	14632
872.656	14549
872.785	14682
872.915	14838
873.044	14918
873.173	14872
873.303	14921
873.432	14739
873.561	14925
873.69	14891
873.819	14796
873.948	14963
874.077	14868
874.206	14823
874.335	14838
874.464	14960
874.593	15127
874.722	15230
874.851	15142
874.979	15176
875.108	15283
875.237	15062
875.365	15047
875.494	15028
875.623	15306
875.751	15112
875.88	15150
876.008	15272
876.136	15302
876.265	15610
876.393	15644
876.521	15667
876.65	15648
876.778	15530
876.906	15587
877.034	15511
877.162	15610
877.29	15538
877.418	15526
877.546	15549
877.674	15701
877.802	15610
877.93	15671
878.058	15542
878.185	15431
878.313	15469
878.441	15606
878.568	15405
878.696	15428
878.824	15595
878.951	15660
879.079	15766
879.206	15854
879.333	15755
879.461	15641
879.588	15701
879.715	15797
879.842	15873
879.97	15576
880.097	15481
880.224	15401
880.351	15454
880.478	15408
880.605	15492
880.732	15435
880.859	15701
880.986	15428
881.112	15507
881.239	15363
881.366	15222
881.493	15097
881.619	15123
881.746	15028
881.872	15097
881.999	15104
882.125	15009
882.252	15062
882.378	15085
882.505	15233
882.631	15058
882.757	14819
882.883	14906
883.01	15024
883.136	14883
883.262	14800
883.388	14838
883.514	14895
883.64	15005
883.766	14887
883.892	14705
884.018	14796
884.143	14826
884.269	15020
884.395	14613
884.52	14640
884.646	14579
884.772	14511
884.897	14533
885.023	14629
885.148	14731
885.274	14716
885.399	14731
885.524	14568
885.65	14777
885.775	14530
885.9	14739
886.025	14788
886.15	14610
886.275	14484
886.4	14514
886.525	14575
886.65	14514
886.775	14476
886.9	14724
887.025	14819
887.149	14598
887.274	14454
887.399	14381
887.523	14351
887.648	14290
887.773	14355
887.897	14473
888.021	14434
888.146	14381
888.27	14541
888.395	14579
888.519	14556
888.643	14530
888.767	14530
888.891	14476
889.015	14271
889.139	14286
889.263	14339
889.387	14343
889.511	14503
889.635	14492
889.759	14267
889.883	14305
890.006	14282
890.13	14355
890.254	14233
890.377	14286
890.501	14073
890.624	14043
890.748	14191
890.871	14058
890.995	13940
891.118	13963
891.241	14069
891.364	14016
891.488	14046
891.611	14081
891.734	14001
891.857	14050
891.98	13997
892.103	14123
892.226	14073
892.349	14062
892.471	13951
892.594	14046
892.717	14020
892.839	14054
892.962	13989
893.085	14046
893.207	14058
893.33	13845
893.452	14012
893.575	14027
893.697	13967
893.819	14187
893.941	14149
894.064	14168
894.186	13921
894.308	13913
894.43	14111
894.552	14301
894.674	14199
894.796	14031
894.918	14031
895.04	14039
895.161	14183
895.283	14142
895.405	14103
895.526	14153
895.648	14237
895.769	14210
895.891	14134
896.012	14256
896.134	14176
896.255	14191
896.376	14096
896.498	14210
896.619	14248
896.74	14180
896.861	14244
896.982	14499
897.103	14598
897.224	14484
897.345	14343
897.466	14389
897.587	14480
897.708	14587
897.828	14526
897.949	14480
898.07	14374
898.19	14423
898.311	14594
898.431	14503
898.552	14503
898.672	14598
898.792	14686
898.913	14613
899.033	14598
899.153	14370
899.273	14457
899.393	14362
899.513	14488
899.633	14427
899.753	14446
899.873	14454
899.993	14469
900.113	14427
900.232	14431
900.352	14336
900.472	14286
900.591	14218
900.711	14278
900.83	14237
900.95	14351
901.069	14332
901.189	14214
901.308	13986
901.427	13978
901.546	13963
901.665	14024
901.784	13902
901.904	13811
902.023	13833
902.141	13601
902.26	13582
902.379	13578
902.498	13540
902.617	13434
902.735	13563
902.854	13540
902.973	13392
903.091	13213
903.21	13183
903.328	13232
903.446	13145
903.565	13133
903.683	13141
903.801	12905
903.919	12996
904.038	13141
904.156	12859
904.274	12943
904.392	12821
904.51	12859
904.627	12924
904.745	12878
904.863	12966
904.981	12700
905.098	12631
905.216	12601
905.334	12589
905.451	12582
905.569	12517
905.686	12555
905.803	12612
905.921	12292
906.038	12525
906.155	12433
906.272	12273
906.389	12308
906.506	12159
906.623	12216
906.74	12201
906.857	12034
906.974	12079
907.091	12163
907.208	12277
907.324	12277
907.441	12106
907.557	11889
907.674	11878
907.79	11840
907.907	11897
908.023	11977
908.139	11908
908.256	11790
908.372	11851
908.488	11821
908.604	11718
908.72	11608
908.836	11668
908.952	11638
909.068	11714
909.184	11836
909.3	11623
909.415	11802
909.531	11703
909.647	11482
909.762	11429
909.878	11383
909.993	11551
910.108	11406
910.224	11414
910.339	11520
910.454	11341
910.57	11303
910.685	11235
910.8	11448
910.915	11452
911.03	11322
911.145	11151
911.259	11151
911.374	11216
911.489	11037
911.604	11060
911.718	10927
911.833	10915
911.947	10801
912.062	10710
912.176	10873
912.291	10946
912.405	10972
912.519	11128
912.633	11193
912.748	11052
912.862	10885
912.976	10774
913.09	10668
913.204	10847
913.318	10767
913.431	10866
913.545	10771
913.659	10885
913.772	10793
913.886	10717
914	10634
914.113	10858
914.226	10809
914.34	10725
914.453	10558
914.566	10774
914.68	10618
914.793	10603
914.906	10375
915.019	10341
915.132	10314
915.245	10459
915.358	10436
915.47	10421
915.583	10447
915.696	10478
915.809	10558
915.921	10565
916.034	10386
916.146	10398
916.259	10291
916.371	10538
916.483	10459
916.595	10310
916.708	10287
916.82	10375
916.932	10371
917.044	10257
917.156	10280
917.268	10249
917.38	10257
917.491	10219
917.603	10390
917.715	10322
917.826	10325
917.938	10204
918.049	10185
918.161	10242
918.272	10333
918.384	10432
918.495	10314
918.606	10185
918.717	10101
918.828	10112
918.939	10166
919.05	10082
919.161	10086
919.272	9983
919.383	10010
919.494	10207
919.604	10417
919.715	10131
919.826	10044
919.936	10162
920.047	10249
920.157	10139
920.267	10314
920.378	10188
920.488	10078
920.598	10371
920.708	10569
920.818	10325
920.928	10379
921.038	10569
921.148	10405
921.258	10211
921.368	10112
921.477	10048
921.587	10086
921.697	9831
921.806	10010
921.916	9918
922.025	9705
922.134	9728
922.244	9713
922.353	9816
922.462	9625
922.571	9549
922.68	9367
922.789	9424
922.898	9401
923.007	9420
923.116	9431
923.224	9439
923.333	9378
923.442	9317
923.55	9272
923.659	9359
923.767	9359
923.876	9237
923.984	9454
924.092	9256
924.201	9355
924.309	9268
924.417	9340
924.525	9138
924.633	9203
924.741	10188
924.849	9074
924.956	9169
925.064	9081
925.172	8960
925.279	9009
925.387	9058
925.494	9066
925.602	9173
925.709	9093
925.816	8971
925.924	9047
926.031	9150
926.138	9104
926.245	9146
926.352	8963
926.459	9173
926.566	9214
926.673	9009
926.779	8868
926.886	8967
926.993	8823
927.099	8769
927.206	8727
927.312	8754
927.419	8815
927.525	8777
927.631	8826
927.737	8705
927.843	8636
927.95	8590
928.056	8682
928.162	8640
928.267	8724
928.373	9241
928.479	8792
928.585	8587
928.69	8648
928.796	8678
928.901	8514
929.007	8473
929.112	8594
929.218	8606
929.323	8514
929.428	8465
929.533	8613
929.638	8434
929.743	8560
929.848	8533
929.953	8484
930.058	8431
930.163	8237
930.267	8244
930.372	8446
930.477	8214
930.581	8454
930.685	8351
930.79	8183
930.894	8210
930.998	8183
931.103	8366
931.207	8005
931.311	7997
931.415	7830
931.519	7757
931.623	7696
