Data from test_V78500241_526.txt Node
Date: Fri Mar 25 14:37:22 CST 2022
User: usil
Spectrometer: V785-0024
Trigger mode: 0
Integration Time (sec): 4.000000E-1
Scans to average: 1
Nonlinearity correction enabled: false
Boxcar width: 0
Storing dark spectrum: false
XAxis mode: Wavelengths
Number of Pixels in Spectrum: 1024
>>>>>Begin Spectral Data<<<<<
801.071	27047
801.214	26979
801.356	26724
801.499	26739
801.641	26495
801.783	26492
801.926	26537
802.068	26473
802.211	26328
802.353	26389
802.496	26069
802.638	26237
802.78	26180
802.923	26077
803.065	25883
803.208	25947
803.35	25966
803.492	26240
803.635	26248
803.777	25986
803.919	26180
804.061	26320
804.204	26138
804.346	26191
804.488	25906
804.63	26035
804.773	25982
804.915	26149
805.057	26221
805.199	26058
805.341	26138
805.483	26221
805.626	26366
805.768	26115
805.91	26290
806.052	26320
806.194	26305
806.336	26473
806.478	26282
806.62	26377
806.762	26541
806.904	26724
807.046	27169
807.188	26891
807.33	27169
807.472	27367
807.614	27561
807.756	27644
807.898	27804
808.04	27991
808.182	28596
808.324	29280
808.465	29965
808.607	30707
808.749	31354
808.891	32024
809.033	31986
809.174	31597
809.316	30711
809.458	29889
809.6	29159
809.741	28630
809.883	28101
810.025	28036
810.166	27812
810.308	27496
810.45	27218
810.591	27184
810.733	26971
810.875	26746
811.016	26701
811.158	26701
811.299	26887
811.441	26788
811.582	26796
811.724	26655
811.865	26412
812.007	26530
812.148	26461
812.29	26415
812.431	26522
812.573	26765
812.714	26731
812.855	26998
812.997	27001
813.138	27165
813.279	27074
813.421	26910
813.562	26693
813.703	26750
813.845	26408
813.986	26043
814.127	26069
814.268	25944
814.41	25982
814.551	25734
814.692	25955
814.833	25879
814.974	25727
815.115	25879
815.256	25643
815.397	25693
815.539	25715
815.68	25586
815.821	25540
815.962	25533
816.103	25449
816.244	25331
816.385	25251
816.526	25293
816.666	25137
816.807	24901
816.948	25023
817.089	24992
817.23	25069
817.371	24856
817.512	24905
817.653	24856
817.793	24802
817.934	24992
818.075	24890
818.216	24837
818.356	24844
818.497	24684
818.638	24620
818.778	24692
818.919	24547
819.06	24665
819.2	24764
819.341	24856
819.481	24749
819.622	24973
819.762	25148
819.903	25084
820.043	24973
820.184	24897
820.324	24909
820.465	24943
820.605	24764
820.746	24844
820.886	24563
821.026	24726
821.167	24798
821.307	24909
821.447	24814
821.588	24669
821.728	24456
821.868	24258
822.008	24266
822.149	24174
822.289	24106
822.429	23866
822.569	23805
822.709	23847
822.849	23646
822.99	23680
823.13	23509
823.27	23566
823.41	23216
823.55	23227
823.69	23444
823.83	23402
823.97	23269
824.11	23212
824.25	23151
824.389	23181
824.529	23223
824.669	23090
824.809	23208
824.949	23277
825.089	23086
825.228	23098
825.368	23037
825.508	23014
825.648	22911
825.787	22976
825.927	22980
826.067	22980
826.206	22877
826.346	22946
826.485	23060
826.625	22911
826.765	22995
826.904	22892
827.044	22748
827.183	22679
827.323	22561
827.462	22786
827.601	22626
827.741	22809
827.88	22557
828.02	22512
828.159	22535
828.298	22573
828.437	22672
828.577	22523
828.716	22729
828.855	22493
828.994	22348
829.134	22310
829.273	22276
829.412	22249
829.551	22242
829.69	22318
829.829	22356
829.968	22352
830.107	22261
830.246	22337
830.385	22246
830.524	22185
830.663	22173
830.802	21808
830.941	21846
831.08	21808
831.219	22017
831.357	22067
831.496	22044
831.635	21918
831.774	21842
831.913	21724
832.051	21709
832.19	21682
832.329	21762
832.467	21625
832.606	21576
832.744	21690
832.883	21583
833.022	21576
833.16	21614
833.299	21564
833.437	21622
833.576	21804
833.714	21747
833.852	21759
833.991	21823
834.129	21808
834.267	21850
834.406	21751
834.544	21762
834.682	21842
834.821	21709
834.959	21850
835.097	21660
835.235	21804
835.373	21667
835.511	21553
835.65	21443
835.788	21386
835.926	21389
836.064	21279
836.202	21188
836.34	21351
836.478	21454
836.615	21348
836.753	21374
836.891	21458
837.029	21435
837.167	21397
837.305	21412
837.443	21325
837.58	21279
837.718	21268
837.856	21370
837.993	21313
838.131	21123
838.269	21116
838.406	21104
838.544	21032
838.681	20838
838.819	20796
838.956	20708
839.094	20644
839.231	20773
839.369	20792
839.506	21028
839.643	20823
839.781	20629
839.918	20621
840.055	20663
840.193	20701
840.33	20499
840.467	20602
840.604	20526
840.742	20861
840.879	20385
841.016	20545
841.153	20412
841.29	20811
841.427	20465
841.564	20511
841.701	20545
841.838	20541
841.975	20351
842.112	20480
842.249	20336
842.385	20313
842.522	20598
842.659	20461
842.796	20305
842.933	20240
843.069	20282
843.206	20393
843.343	20438
843.479	20317
843.616	20370
843.752	20263
843.889	20183
844.025	20282
844.162	20142
844.298	20286
844.435	20134
844.571	20199
844.708	20263
844.844	20571
844.98	20552
845.117	20705
845.253	20849
845.389	21192
845.525	22017
845.661	23170
845.798	24631
845.934	25959
846.07	26419
846.206	26164
846.342	25438
846.478	23554
846.614	22147
846.75	21146
846.886	20579
847.022	20237
847.158	19959
847.294	19856
847.429	19803
847.565	19704
847.701	19894
847.837	19415
847.972	19206
848.108	19400
848.244	19434
848.379	19259
848.515	19076
848.65	19160
848.786	19103
848.921	19118
849.057	19263
849.192	19232
849.328	19095
849.463	19122
849.598	19099
849.734	18993
849.869	18981
850.004	18962
850.14	18886
850.275	18875
850.41	18722
850.545	18840
850.68	18791
850.815	18783
850.95	18821
851.085	18962
851.22	18821
851.355	18852
851.49	18741
851.625	18734
851.76	18802
851.895	18821
852.03	18665
852.165	18897
852.299	18722
852.434	18894
852.569	18859
852.703	18779
852.838	18848
852.973	19061
853.107	19042
853.242	18787
853.376	18719
853.511	18513
853.645	18772
853.78	18798
853.914	18791
854.048	18597
854.183	18696
854.317	18787
854.451	18970
854.585	18608
854.72	18734
854.854	18726
854.988	18585
855.122	18700
855.256	18589
855.39	18684
855.524	18654
855.658	18677
855.792	18589
855.926	18650
856.06	18734
856.194	18707
856.327	18570
856.461	18536
856.595	18544
856.729	18513
856.862	18734
856.996	18696
857.13	18635
857.263	18681
857.397	18700
857.53	18574
857.664	18635
857.797	18738
857.931	18726
858.064	18612
858.197	18715
858.331	18467
858.464	18673
858.597	18464
858.731	18506
858.864	18620
858.997	18582
859.13	18593
859.263	18467
859.396	18620
859.529	18589
859.662	18479
859.795	18593
859.928	18585
860.061	18696
860.194	18688
860.327	18502
860.46	18544
860.592	18669
860.725	18776
860.858	18639
860.99	18517
861.123	18506
861.256	18460
861.388	18498
861.521	19213
861.653	18521
861.786	18327
861.918	18418
862.05	18483
862.183	18559
862.315	18570
862.447	18669
862.58	18544
862.712	18209
862.844	18338
862.976	18391
863.108	18315
863.24	18684
863.372	18266
863.504	18300
863.636	18395
863.768	18330
863.9	18292
864.032	18308
864.164	18220
864.296	18262
864.428	18311
864.559	18380
864.691	18346
864.823	18285
864.954	18270
865.086	18243
865.217	18125
865.349	18095
865.48	18136
865.612	18068
865.743	18323
865.875	18289
866.006	18072
866.137	18152
866.269	18232
866.4	18140
866.531	18091
866.662	18140
866.793	18015
866.924	18102
867.055	18186
867.186	18159
867.317	18083
867.448	18087
867.579	18019
867.71	18095
867.841	18178
867.972	18197
868.103	18140
868.233	18266
868.364	18114
868.495	18266
868.625	18403
868.756	18506
868.886	18338
869.017	18330
869.147	18528
869.278	18509
869.408	18361
869.539	18311
869.669	18467
869.799	18414
869.929	18483
870.06	18540
870.19	18589
870.32	18749
870.45	18635
870.58	18867
870.71	18897
870.84	18886
870.97	18772
871.1	18783
871.23	18958
871.36	18958
871.489	18852
871.619	19038
871.749	18958
871.879	19042
872.008	19148
872.138	18958
872.267	19012
872.397	18993
872.526	18829
872.656	18859
872.785	18829
872.915	18947
873.044	19080
873.173	19038
873.303	19175
873.432	19266
873.561	19164
873.69	19076
873.819	19126
873.948	19137
874.077	19194
874.206	19050
874.335	19137
874.464	19213
874.593	19350
874.722	19335
874.851	19411
874.979	19426
875.108	19365
875.237	19350
875.365	19244
875.494	19400
875.623	19620
875.751	19506
875.88	19563
876.008	19559
876.136	19708
876.265	19833
876.393	20107
876.521	20062
876.65	19967
876.778	19997
876.906	19932
877.034	19989
877.162	19936
877.29	19997
877.418	20016
877.546	20054
877.674	20180
877.802	20210
877.93	20073
878.058	20278
878.185	20115
878.313	20237
878.441	20366
878.568	20149
878.696	20328
878.824	20686
878.951	20941
879.079	21374
879.206	22021
879.333	22394
879.461	22809
879.588	23162
879.715	23162
879.842	23033
879.97	22352
880.097	21599
880.224	21336
880.351	21150
880.478	20883
880.605	20697
880.732	20655
880.859	20796
880.986	20575
881.112	20568
881.239	20324
881.366	20210
881.493	20218
881.619	20084
881.746	20134
881.872	20134
881.999	20103
882.125	20100
882.252	20168
882.378	20119
882.505	20309
882.631	20176
882.757	19864
882.883	20096
883.01	19875
883.136	19993
883.262	19757
883.388	19765
883.514	19807
883.64	20054
883.766	19864
883.892	19753
884.018	19712
884.143	19906
884.269	19898
884.395	19666
884.52	19468
884.646	19559
884.772	19556
884.897	19559
885.023	19620
885.148	19746
885.274	19696
885.399	19670
885.524	19441
885.65	19464
885.775	19457
885.9	19468
886.025	19457
886.15	19453
886.275	19285
886.4	19259
886.525	19335
886.65	19278
886.775	19095
886.9	19369
887.025	19407
887.149	19190
887.274	18970
887.399	18837
887.523	18894
887.648	18779
887.773	18700
887.897	18913
888.021	18913
888.146	18802
888.27	18916
888.395	18871
888.519	18863
888.643	18768
888.767	18943
888.891	18658
889.015	18563
889.139	18578
889.263	18559
889.387	18635
889.511	18582
889.635	18620
889.759	18437
889.883	18490
890.006	18563
890.13	18578
890.254	18441
890.377	18433
890.501	18117
890.624	18254
890.748	18292
890.871	18087
890.995	18026
891.118	18102
891.241	18129
891.364	18144
891.488	18091
891.611	18064
891.734	17965
891.857	18068
891.98	17999
892.103	18117
892.226	17893
892.349	17855
892.471	17805
892.594	17863
892.717	18011
892.839	17927
892.962	17950
893.085	18038
893.207	17805
893.33	17817
893.452	17840
893.575	17855
893.697	17863
893.819	17942
893.941	17992
894.064	17939
894.186	17885
894.308	17779
894.43	17958
894.552	17878
894.674	17942
894.796	17733
894.918	17813
895.04	17824
895.161	17961
895.283	17920
895.405	17767
895.526	17821
895.648	17828
895.769	17912
895.891	17961
896.012	17931
896.134	17786
896.255	18022
896.376	17722
896.498	17855
896.619	17958
896.74	17847
896.861	17863
896.982	18281
897.103	18262
897.224	18171
897.345	18034
897.466	18003
897.587	18167
897.708	18174
897.828	18060
897.949	18148
898.07	17836
898.19	18034
898.311	18125
898.431	18125
898.552	18083
898.672	18201
898.792	18201
898.913	18201
899.033	18003
899.153	17885
899.273	17901
899.393	17794
899.513	17817
899.633	17847
899.753	17821
899.873	17920
899.993	17923
900.113	17798
900.232	17931
900.352	17760
900.472	17771
900.591	17646
900.711	17718
900.83	17691
900.95	17707
901.069	17756
901.189	17722
901.308	17402
901.427	17349
901.546	17296
901.665	17307
901.784	17284
901.904	17140
902.023	17128
902.141	16889
902.26	16805
902.379	16904
902.498	16713
902.617	16763
902.735	16854
902.854	16771
902.973	16805
903.091	16504
903.21	16538
903.328	16554
903.446	16386
903.565	16158
903.683	16299
903.801	16246
903.919	16169
904.038	16177
904.156	16105
904.274	16105
904.392	16048
904.51	16135
904.627	16036
904.745	16093
904.863	16032
904.981	15869
905.098	15671
905.216	15698
905.334	15739
905.451	15648
905.569	15671
905.686	15682
905.803	15770
905.921	15580
906.038	15694
906.155	15485
906.272	15310
906.389	15424
906.506	15237
906.623	15241
906.74	15275
906.857	15039
906.974	15252
907.091	15359
907.208	15241
907.324	15287
907.441	15097
907.557	14998
907.674	14994
907.79	14796
907.907	14990
908.023	14914
908.139	14891
908.256	14967
908.372	14868
908.488	14849
908.604	14800
908.72	14640
908.836	14743
908.952	14587
909.068	14636
909.184	14754
909.3	14549
909.415	14697
909.531	14686
909.647	14454
909.762	14351
909.878	14336
909.993	14446
910.108	14317
910.224	14305
910.339	14347
910.454	14294
910.57	14210
910.685	14138
910.8	14412
910.915	14301
911.03	14206
911.145	13963
911.259	13951
911.374	13909
911.489	13959
911.604	13932
911.718	13757
911.833	13719
911.947	13616
912.062	13613
912.176	13757
912.291	13674
912.405	13784
912.519	13864
912.633	13974
912.748	13807
912.862	13769
912.976	13575
913.09	13495
913.204	13563
913.318	13563
913.431	13715
913.545	13601
913.659	13616
913.772	13464
913.886	13464
914	13384
914.113	13449
914.226	13605
914.34	13502
914.453	13282
914.566	13453
914.68	13244
914.793	13244
914.906	13160
915.019	13053
915.132	13103
915.245	13114
915.358	13171
915.47	13133
915.583	13129
915.696	13141
915.809	13152
915.921	13240
916.034	13042
916.146	13091
916.259	13031
916.371	13149
916.483	13065
916.595	12913
916.708	12985
916.82	12985
916.932	12935
917.044	12947
917.156	12913
917.268	12817
917.38	12840
917.491	12798
917.603	12825
917.715	12920
917.826	12882
917.938	12730
918.049	12639
918.161	12787
918.272	12939
918.384	12901
918.495	12703
918.606	12654
918.717	12559
918.828	12620
918.939	12631
919.05	12521
919.161	12559
919.272	12342
919.383	12429
919.494	12604
919.604	12837
919.715	12566
919.826	12426
919.936	12509
920.047	12692
920.157	12566
920.267	12730
920.378	12627
920.488	12631
920.598	12665
920.708	12928
920.818	12707
920.928	12829
921.038	12875
921.148	12753
921.258	12509
921.368	12441
921.477	12319
921.587	12319
921.697	12213
921.806	12407
921.916	12251
922.025	12015
922.134	12057
922.244	11958
922.353	12117
922.462	11870
922.571	11832
922.68	11676
922.789	11688
922.898	11741
923.007	11657
923.116	11676
923.224	11649
923.333	11649
923.442	11474
923.55	11585
923.659	11604
923.767	11570
923.876	11501
923.984	11554
924.092	11383
924.201	11376
924.309	11512
924.417	11452
924.525	11345
924.633	11372
924.741	12163
924.849	11235
924.956	11349
925.064	11181
925.172	11113
925.279	11181
925.387	11189
925.494	11239
925.602	11364
925.709	11258
925.816	11136
925.924	11155
926.031	11197
926.138	11159
926.245	11220
926.352	11033
926.459	11178
926.566	11242
926.673	11098
926.779	10980
926.886	10961
926.993	10908
927.099	10748
927.206	10717
927.312	10790
927.419	10915
927.525	10805
927.631	10866
927.737	10759
927.843	10679
927.95	10584
928.056	10569
928.162	10714
928.267	10698
928.373	11288
928.479	10733
928.585	10592
928.69	10611
928.796	10675
928.901	10531
929.007	10443
929.112	10531
929.218	10535
929.323	10481
929.428	10379
929.533	10508
929.638	10371
929.743	10375
929.848	10413
929.953	10443
930.058	10382
930.163	10181
930.267	10261
930.372	10261
930.477	10105
930.581	10398
930.685	10177
930.79	10105
930.894	10078
930.998	9983
931.103	10246
931.207	9865
931.311	9720
931.415	9656
931.519	9507
931.623	9469
