Data from test_V78500241_1847.txt Node
Date: Fri Mar 25 14:46:34 CST 2022
User: usil
Spectrometer: V785-0024
Trigger mode: 0
Integration Time (sec): 4.000000E-1
Scans to average: 1
Nonlinearity correction enabled: false
Boxcar width: 0
Storing dark spectrum: false
XAxis mode: Wavelengths
Number of Pixels in Spectrum: 1024
>>>>>Begin Spectral Data<<<<<
801.071	22051
801.214	21979
801.356	21865
801.499	21743
801.641	21580
801.783	21447
801.926	21568
802.068	21568
802.211	21332
802.353	21294
802.496	21108
802.638	21047
802.78	21062
802.923	20948
803.065	20765
803.208	20792
803.35	20910
803.492	20880
803.635	21017
803.777	20861
803.919	20845
804.061	21195
804.204	20891
804.346	20864
804.488	20796
804.63	20845
804.773	20701
804.915	20777
805.057	20899
805.199	20758
805.341	20830
805.483	20804
805.626	20887
805.768	20819
805.91	20864
806.052	20834
806.194	20720
806.336	20998
806.478	20796
806.62	20739
806.762	20830
806.904	21074
807.046	21233
807.188	21135
807.33	21043
807.472	21180
807.614	20910
807.756	21013
807.898	20876
808.04	20838
808.182	20735
808.324	20906
808.465	20960
808.607	21043
808.749	21192
808.891	21192
809.033	21329
809.174	21344
809.316	21100
809.458	21047
809.6	21150
809.741	21173
809.883	21287
810.025	21142
810.166	21260
810.308	21173
810.45	21264
810.591	21062
810.733	21039
810.875	20982
811.016	20842
811.158	20792
811.299	20979
811.441	21127
811.582	21005
811.724	20910
811.865	20952
812.007	20853
812.148	20918
812.29	20910
812.431	21093
812.573	21256
812.714	21359
812.855	21313
812.997	21435
813.138	21766
813.279	21557
813.421	21420
813.562	21359
813.703	21207
813.845	21085
813.986	20800
814.127	20564
814.268	20503
814.41	20427
814.551	20530
814.692	20457
814.833	20484
814.974	20412
815.115	20358
815.256	20328
815.397	20377
815.539	20324
815.68	20122
815.821	20081
815.962	20271
816.103	20183
816.244	20172
816.385	19719
816.526	19940
816.666	19833
816.807	19613
816.948	19833
817.089	19639
817.23	19689
817.371	19571
817.512	19651
817.653	19624
817.793	19556
817.934	19483
818.075	19578
818.216	19537
818.356	19594
818.497	19571
818.638	19198
818.778	19179
818.919	19278
819.06	19285
819.2	19377
819.341	19327
819.481	19502
819.622	19609
819.762	19807
819.903	19753
820.043	19651
820.184	19567
820.324	19632
820.465	19666
820.605	19674
820.746	19468
820.886	19373
821.026	19613
821.167	19495
821.307	19582
821.447	19464
821.588	19354
821.728	19327
821.868	19206
822.008	18825
822.149	18897
822.289	18890
822.429	18722
822.569	18642
822.709	18707
822.849	18506
822.99	18483
823.13	18483
823.27	18479
823.41	18311
823.55	18289
823.69	18323
823.83	18243
823.97	18281
824.11	18121
824.25	18041
824.389	18121
824.529	18152
824.669	18072
824.809	18190
824.949	18133
825.089	18155
825.228	18129
825.368	17882
825.508	17939
825.648	17840
825.787	17847
825.927	17916
826.067	17771
826.206	17836
826.346	17847
826.485	17866
826.625	17798
826.765	17870
826.904	17710
827.044	17634
827.183	17520
827.323	17474
827.462	17634
827.601	17585
827.741	17448
827.88	17524
828.02	17497
828.159	17486
828.298	17383
828.437	17646
828.577	17455
828.716	17600
828.855	17334
828.994	17353
829.134	17368
829.273	17353
829.412	17250
829.551	17258
829.69	17258
829.829	17299
829.968	17391
830.107	17360
830.246	17181
830.385	17204
830.524	17200
830.663	17098
830.802	17094
830.941	16934
831.08	16911
831.219	17003
831.357	16965
831.496	17105
831.635	16862
831.774	16858
831.913	16862
832.051	16729
832.19	16873
832.329	16744
832.467	16561
832.606	16542
832.744	16618
832.883	16596
833.022	16508
833.16	16588
833.299	16656
833.437	16664
833.576	16668
833.714	16637
833.852	16618
833.991	16706
834.129	16717
834.267	16805
834.406	16683
834.544	16733
834.682	16717
834.821	16626
834.959	16721
835.097	16630
835.235	16744
835.373	16622
835.511	16554
835.65	16599
835.788	16504
835.926	16519
836.064	16405
836.202	16322
836.34	16577
836.478	16702
836.615	16618
836.753	16618
836.891	16683
837.029	16588
837.167	16535
837.305	16565
837.443	16519
837.58	16462
837.718	16474
837.856	16379
837.993	16405
838.131	16417
838.269	16242
838.406	16344
838.544	16333
838.681	16036
838.819	16082
838.956	15983
839.094	16025
839.231	15975
839.369	16059
839.506	16421
839.643	16120
839.781	16032
839.918	15975
840.055	16055
840.193	15991
840.33	15865
840.467	15964
840.604	15972
840.742	16207
840.879	15812
841.016	15937
841.153	15823
841.29	16173
841.427	16044
841.564	16101
841.701	16097
841.838	15876
841.975	15907
842.112	15865
842.249	15873
842.385	15850
842.522	15907
842.659	15892
842.796	15698
842.933	15960
843.069	15762
843.206	15774
843.343	15728
843.479	15816
843.616	15945
843.752	15553
843.889	15538
844.025	15713
844.162	15507
844.298	15561
844.435	15488
844.571	15458
844.708	15614
844.844	15671
844.98	15705
845.117	15603
845.253	15542
845.389	15447
845.525	15485
845.661	15408
845.798	15287
845.934	15408
846.07	15226
846.206	15458
846.342	15553
846.478	15325
846.614	15112
846.75	14971
846.886	15074
847.022	15150
847.158	15135
847.294	15157
847.429	15089
847.565	15081
847.701	15291
847.837	14948
847.972	14804
848.108	14914
848.244	14929
848.379	14712
848.515	14773
848.65	14724
848.786	14712
848.921	14674
849.057	14807
849.192	14872
849.328	14735
849.463	14746
849.598	14663
849.734	14598
849.869	14587
850.004	14590
850.14	14518
850.275	14514
850.41	14469
850.545	14518
850.68	14393
850.815	14476
850.95	14454
851.085	14705
851.22	14530
851.355	14434
851.49	14446
851.625	14480
851.76	14499
851.895	14484
852.03	14343
852.165	14533
852.299	14587
852.434	14522
852.569	14492
852.703	14488
852.838	14602
852.973	14629
853.107	14583
853.242	14400
853.376	14381
853.511	14252
853.645	14358
853.78	14461
853.914	14259
854.048	14328
854.183	14370
854.317	14336
854.451	14514
854.585	14351
854.72	14221
854.854	14427
854.988	14278
855.122	14423
855.256	14214
855.39	14427
855.524	14381
855.658	14374
855.792	14389
855.926	14431
856.06	14385
856.194	14507
856.327	14320
856.461	14328
856.595	14347
856.729	14374
856.862	14404
856.996	14461
857.13	14465
857.263	14431
857.397	14442
857.53	14358
857.664	14404
857.797	14415
857.931	14469
858.064	14408
858.197	14518
858.331	14404
858.464	14351
858.597	14180
858.731	14358
858.864	14328
858.997	14374
859.13	14431
859.263	14328
859.396	14400
859.529	14309
859.662	14336
859.795	14252
859.928	14412
860.061	14503
860.194	14533
860.327	14396
860.46	14317
860.592	14389
860.725	14480
860.858	14438
860.99	14336
861.123	14233
861.256	14313
861.388	14393
861.521	14986
861.653	14225
861.786	14126
861.918	14286
862.05	14286
862.183	14294
862.315	14252
862.447	14495
862.58	14313
862.712	14084
862.844	14039
862.976	14123
863.108	14187
863.24	14469
863.372	14054
863.504	14157
863.636	14123
863.768	14195
863.9	14187
864.032	14039
864.164	14123
864.296	14214
864.428	14199
864.559	14172
864.691	14206
864.823	14115
864.954	14126
865.086	14180
865.217	14183
865.349	14142
865.48	14024
865.612	14164
865.743	14206
865.875	14142
866.006	14126
866.137	14134
866.269	14130
866.4	14054
866.531	14096
866.662	13970
866.793	13997
866.924	14058
867.055	14142
867.186	14081
867.317	14088
867.448	13936
867.579	14069
867.71	13982
867.841	14012
867.972	14191
868.103	14039
868.233	14183
868.364	14100
868.495	14172
868.625	14294
868.756	14499
868.886	14324
869.017	14396
869.147	14556
869.278	14469
869.408	14362
869.539	14412
869.669	14362
869.799	14377
869.929	14522
870.06	14457
870.19	14705
870.32	14621
870.45	14564
870.58	14758
870.71	14948
870.84	14811
870.97	14724
871.1	14735
871.23	14853
871.36	14902
871.489	14956
871.619	14960
871.749	15070
871.879	14990
872.008	15039
872.138	14971
872.267	15017
872.397	14777
872.526	14796
872.656	14849
872.785	14769
872.915	14941
873.044	15043
873.173	14971
873.303	15036
873.432	14982
873.561	15043
873.69	15085
873.819	14994
873.948	15001
874.077	14952
874.206	15013
874.335	15131
874.464	15138
874.593	15317
874.722	15237
874.851	15397
874.979	15344
875.108	15332
875.237	15214
875.365	15351
875.494	15325
875.623	15420
875.751	15313
875.88	15332
876.008	15545
876.136	15519
876.265	15709
876.393	15861
876.521	15690
876.65	15899
876.778	15869
876.906	15629
877.034	15724
877.162	15701
877.29	15568
877.418	15717
877.546	15732
877.674	15648
877.802	15755
877.93	15751
878.058	15641
878.185	15656
878.313	15671
878.441	15667
878.568	15618
878.696	15701
878.824	15717
878.951	15846
879.079	15968
879.206	16097
879.333	15937
879.461	15857
879.588	15823
879.715	15953
879.842	16006
879.97	15857
880.097	15572
880.224	15576
880.351	15637
880.478	15625
880.605	15679
880.732	15545
880.859	15808
880.986	15564
881.112	15603
881.239	15580
881.366	15321
881.493	15283
881.619	15226
881.746	15302
881.872	15348
881.999	15294
882.125	15123
882.252	15207
882.378	15233
882.505	15424
882.631	15138
882.757	15097
882.883	15051
883.01	15024
883.136	14975
883.262	14880
883.388	14902
883.514	15188
883.64	15169
883.766	15055
883.892	14971
884.018	14971
884.143	15066
884.269	15108
884.395	14899
884.52	14674
884.646	14720
884.772	14796
884.897	14670
885.023	14765
885.148	14845
885.274	14921
885.399	14925
885.524	14743
885.65	14754
885.775	14830
885.9	14769
886.025	14918
886.15	14857
886.275	14758
886.4	14606
886.525	14743
886.65	14663
886.775	14644
886.9	14868
887.025	14952
887.149	14823
887.274	14678
887.399	14579
887.523	14625
887.648	14541
887.773	14446
887.897	14705
888.021	14727
888.146	14606
888.27	14754
888.395	14708
888.519	14602
888.643	14731
888.767	14640
888.891	14617
889.015	14514
889.139	14560
889.263	14343
889.387	14667
889.511	14727
889.635	14564
889.759	14518
889.883	14427
890.006	14469
890.13	14499
890.254	14298
890.377	14400
890.501	14233
890.624	14282
890.748	14343
890.871	14267
890.995	14138
891.118	14096
891.241	14157
891.364	14161
891.488	14290
891.611	14214
891.734	14119
891.857	14149
891.98	14206
892.103	14309
892.226	14214
892.349	14077
892.471	14039
892.594	14100
892.717	14142
892.839	14176
892.962	14161
893.085	14237
893.207	14176
893.33	14058
893.452	14081
893.575	14259
893.697	14103
893.819	14343
893.941	14374
894.064	14324
894.186	14164
894.308	14134
894.43	14271
894.552	14415
894.674	14351
894.796	14103
894.918	14164
895.04	14199
895.161	14347
895.283	14317
895.405	14275
895.526	14278
895.648	14313
895.769	14339
895.891	14377
896.012	14389
896.134	14389
896.255	14381
896.376	14256
896.498	14309
896.619	14465
896.74	14339
896.861	14347
896.982	14571
897.103	14891
897.224	14610
897.345	14583
897.466	14530
897.587	14598
897.708	14724
897.828	14686
897.949	14560
898.07	14495
898.19	14606
898.311	14773
898.431	14575
898.552	14655
898.672	14792
898.792	14682
898.913	14682
899.033	14670
899.153	14507
899.273	14442
899.393	14568
899.513	14507
899.633	14503
899.753	14484
899.873	14419
899.993	14583
900.113	14476
900.232	14587
900.352	14473
900.472	14381
900.591	14351
900.711	14415
900.83	14385
900.95	14488
901.069	14560
901.189	14324
901.308	14100
901.427	14084
901.546	14077
901.665	14054
901.784	14065
901.904	14031
902.023	13807
902.141	13712
902.26	13567
902.379	13761
902.498	13719
902.617	13597
902.735	13772
902.854	13639
902.973	13571
903.091	13297
903.21	13365
903.328	13365
903.446	13213
903.565	13202
903.683	13240
903.801	13152
903.919	13118
904.038	13228
904.156	13027
904.274	13065
904.392	12863
904.51	12993
904.627	13084
904.745	12989
904.863	13084
904.981	12715
905.098	12662
905.216	12760
905.334	12730
905.451	12745
905.569	12764
905.686	12650
905.803	12681
905.921	12479
906.038	12623
906.155	12551
906.272	12418
906.389	12452
906.506	12327
906.623	12292
906.74	12361
906.857	12277
906.974	12209
907.091	12361
907.208	12445
907.324	12441
907.441	12197
907.557	12049
907.674	12003
907.79	12026
907.907	12011
908.023	12019
908.139	11973
908.256	12003
908.372	11992
908.488	11965
908.604	11779
908.72	11798
908.836	11805
908.952	11859
909.068	11790
909.184	11920
909.3	11847
909.415	11866
909.531	11832
909.647	11611
909.762	11665
909.878	11493
909.993	11611
910.108	11551
910.224	11512
910.339	11573
910.454	11505
910.57	11406
910.685	11368
910.8	11665
910.915	11516
911.03	11482
911.145	11299
911.259	11296
911.374	11265
911.489	11143
911.604	11185
911.718	11018
911.833	10995
911.947	10892
912.062	10889
912.176	10942
912.291	11022
912.405	10930
912.519	11193
912.633	11303
912.748	11117
912.862	11086
912.976	10923
913.09	10767
913.204	10889
913.318	10889
913.431	11033
913.545	10995
913.659	11041
913.772	10862
913.886	10847
914	10793
914.113	10953
914.226	10892
914.34	10843
914.453	10664
914.566	10934
914.68	10710
914.793	10660
914.906	10592
915.019	10485
915.132	10428
915.245	10531
915.358	10432
915.47	10558
915.583	10531
915.696	10675
915.809	10649
915.921	10706
916.034	10500
916.146	10432
916.259	10489
916.371	10573
916.483	10535
916.595	10516
916.708	10481
916.82	10478
916.932	10455
917.044	10451
917.156	10428
917.268	10344
917.38	10470
917.491	10329
917.603	10398
917.715	10436
917.826	10443
917.938	10424
918.049	10219
918.161	10394
918.272	10478
918.384	10577
918.495	10394
918.606	10223
918.717	10196
918.828	10223
918.939	10265
919.05	10192
919.161	10268
919.272	10082
919.383	10055
919.494	10287
919.604	10489
919.715	10314
919.826	10188
919.936	10223
920.047	10363
920.157	10310
920.267	10481
920.378	10261
920.488	10234
920.598	10474
920.708	10618
920.818	10432
920.928	10497
921.038	10710
921.148	10588
921.258	10413
921.368	10238
921.477	10227
921.587	10116
921.697	9975
921.806	10105
921.916	9998
922.025	9895
922.134	9740
922.244	9812
922.353	9945
922.462	9698
922.571	9644
922.68	9561
922.789	9466
922.898	9488
923.007	9504
923.116	9591
923.224	9477
923.333	9504
923.442	9367
923.55	9359
923.659	9420
923.767	9504
923.876	9401
923.984	9416
924.092	9279
924.201	9336
924.309	9408
924.417	9412
924.525	9344
924.633	9420
924.741	10268
924.849	9116
924.956	9272
925.064	9146
925.172	9093
925.279	9192
925.387	9192
925.494	9222
925.602	9363
925.709	9203
925.816	9116
925.924	9199
926.031	9176
926.138	9218
926.245	9237
926.352	9089
926.459	9226
926.566	9294
926.673	9055
926.779	9005
926.886	9020
926.993	8891
927.099	8880
927.206	8845
927.312	8826
927.419	8880
927.525	8880
927.631	8914
927.737	8834
927.843	8739
927.95	8606
928.056	8773
928.162	8796
928.267	8921
928.373	9306
928.479	8925
928.585	8697
928.69	8743
928.796	8857
928.901	8689
929.007	8522
929.112	8655
929.218	8640
929.323	8552
929.428	8610
929.533	8655
929.638	8560
929.743	8488
929.848	8636
929.953	8579
930.058	8503
930.163	8374
930.267	8324
930.372	8511
930.477	8252
930.581	8530
930.685	8465
930.79	8275
930.894	8298
930.998	8290
931.103	8457
931.207	8126
931.311	8008
931.415	7928
931.519	7818
931.623	7792
