Data from test_V78500241_338.txt Node
Date: Fri Mar 25 14:36:04 CST 2022
User: usil
Spectrometer: V785-0024
Trigger mode: 0
Integration Time (sec): 4.000000E-1
Scans to average: 1
Nonlinearity correction enabled: false
Boxcar width: 0
Storing dark spectrum: false
XAxis mode: Wavelengths
Number of Pixels in Spectrum: 1024
>>>>>Begin Spectral Data<<<<<
801.071	26994
801.214	26891
801.356	26651
801.499	26629
801.641	26446
801.783	26374
801.926	26377
802.068	26278
802.211	26221
802.353	26202
802.496	25959
802.638	26122
802.78	26153
802.923	25826
803.065	25906
803.208	25757
803.35	25890
803.492	25890
803.635	25993
803.777	25883
803.919	26020
804.061	26214
804.204	25986
804.346	25883
804.488	25879
804.63	25837
804.773	25830
804.915	25803
805.057	26134
805.199	25822
805.341	25951
805.483	25909
805.626	25833
805.768	25864
805.91	26054
806.052	26005
806.194	25883
806.336	26145
806.478	25955
806.62	25940
806.762	25928
806.904	26062
807.046	26415
807.188	26119
807.33	26309
807.472	26351
807.614	26244
807.756	26320
807.898	26046
808.04	25932
808.182	26195
808.324	26149
808.465	26024
808.607	26187
808.749	26377
808.891	26579
809.033	26754
809.174	26480
809.316	26469
809.458	26404
809.6	26533
809.741	26499
809.883	26374
810.025	26621
810.166	26762
810.308	26701
810.45	26686
810.591	26583
810.733	26309
810.875	26442
811.016	26199
811.158	26252
811.299	26298
811.441	26400
811.582	26423
811.724	26244
811.865	26202
812.007	26275
812.148	26103
812.29	26374
812.431	26355
812.573	26530
812.714	26575
812.855	26621
812.997	26629
813.138	26986
813.279	26975
813.421	26758
813.562	26682
813.703	26640
813.845	26503
813.986	26294
814.127	26100
814.268	26050
814.41	25951
814.551	25833
814.692	25883
814.833	25738
814.974	25727
815.115	25769
815.256	25651
815.397	25597
815.539	25830
815.68	25632
815.821	25677
815.962	25525
816.103	25582
816.244	25514
816.385	25251
816.526	25099
816.666	25076
816.807	25042
816.948	25088
817.089	24992
817.23	25012
817.371	24973
817.512	24947
817.653	24897
817.793	24878
817.934	24916
818.075	24958
818.216	24901
818.356	24806
818.497	24707
818.638	24597
818.778	24582
818.919	24631
819.06	24749
819.2	24722
819.341	24787
819.481	24859
819.622	24901
819.762	25171
819.903	25038
820.043	24856
820.184	24981
820.324	24951
820.465	24989
820.605	24958
820.746	24894
820.886	24749
821.026	25015
821.167	24783
821.307	24947
821.447	24730
821.588	24696
821.728	24574
821.868	24437
822.008	24178
822.149	24213
822.289	24292
822.429	24045
822.569	23923
822.709	23764
822.849	23649
822.99	23684
823.13	23817
823.27	23596
823.41	23471
823.55	23436
823.69	23463
823.83	23577
823.97	23486
824.11	23258
824.25	23166
824.389	23212
824.529	23387
824.669	23299
824.809	23261
824.949	23471
825.089	23288
825.228	23242
825.368	23086
825.508	23151
825.648	23003
825.787	23075
825.927	23094
826.067	22987
826.206	23060
826.346	23083
826.485	23048
826.625	23151
826.765	23227
826.904	23044
827.044	22930
827.183	22816
827.323	22721
827.462	22786
827.601	22713
827.741	22736
827.88	22755
828.02	22649
828.159	22748
828.298	22721
828.437	22771
828.577	22634
828.716	22866
828.855	22561
828.994	22375
829.134	22371
829.273	22402
829.412	22413
829.551	22428
829.69	22402
829.829	22409
829.968	22516
830.107	22485
830.246	22386
830.385	22382
830.524	22481
830.663	22188
830.802	22173
830.941	22109
831.08	21907
831.219	22067
831.357	22036
831.496	22150
831.635	21835
831.774	21884
831.913	21861
832.051	21846
832.19	21778
832.329	21793
832.467	21667
832.606	21587
832.744	21568
832.883	21591
833.022	21625
833.16	21656
833.299	21747
833.437	21705
833.576	21694
833.714	21625
833.852	21690
833.991	21690
834.129	21816
834.267	21880
834.406	21686
834.544	21800
834.682	21603
834.821	21652
834.959	21873
835.097	21580
835.235	21698
835.373	21580
835.511	21644
835.65	21542
835.788	21534
835.926	21420
836.064	21329
836.202	21367
836.34	21530
836.478	21663
836.615	21447
836.753	21534
836.891	21477
837.029	21526
837.167	21439
837.305	21500
837.443	21351
837.58	21340
837.718	21359
837.856	21214
837.993	21287
838.131	21348
838.269	21207
838.406	21272
838.544	21233
838.681	21001
838.819	20956
838.956	20796
839.094	20811
839.231	20838
839.369	20967
839.506	21245
839.643	21051
839.781	20830
839.918	20663
840.055	20716
840.193	20735
840.33	20674
840.467	20674
840.604	20712
840.742	20960
840.879	20560
841.016	20667
841.153	20590
841.29	20819
841.427	20720
841.564	20807
841.701	20693
841.838	20625
841.975	20431
842.112	20488
842.249	20469
842.385	20495
842.522	20556
842.659	20446
842.796	20404
842.933	20507
843.069	20393
843.206	20393
843.343	20370
843.479	20400
843.616	20355
843.752	20149
843.889	20278
844.025	20271
844.162	20206
844.298	20286
844.435	20229
844.571	20054
844.708	20290
844.844	20298
844.98	20202
845.117	20218
845.253	20134
845.389	20005
845.525	20065
845.661	20031
845.798	20001
845.934	19970
846.07	20027
846.206	19944
846.342	20153
846.478	19906
846.614	19761
846.75	19639
846.886	19651
847.022	19700
847.158	19624
847.294	19643
847.429	19613
847.565	19643
847.701	19845
847.837	19449
847.972	19331
848.108	19407
848.244	19480
848.379	19198
848.515	19217
848.65	19129
848.786	19141
848.921	19301
849.057	19278
849.192	19198
849.328	19217
849.463	19053
849.598	19107
849.734	19080
849.869	18943
850.004	19004
850.14	18985
850.275	18989
850.41	18996
850.545	18810
850.68	18928
850.815	18920
850.95	18897
851.085	19069
851.22	18947
851.355	18935
851.49	18875
851.625	18814
851.76	18852
851.895	18829
852.03	18726
852.165	18909
852.299	18939
852.434	19000
852.569	19000
852.703	18916
852.838	18897
852.973	19034
853.107	19053
853.242	18909
853.376	18722
853.511	18612
853.645	18760
853.78	18760
853.914	18772
854.048	18730
854.183	18715
854.317	18829
854.451	18890
854.585	18741
854.72	18760
854.854	18817
854.988	18635
855.122	18787
855.256	18582
855.39	18616
855.524	18753
855.658	18760
855.792	18707
855.926	18798
856.06	18738
856.194	18783
856.327	18741
856.461	18661
856.595	18616
856.729	18738
856.862	18875
856.996	18616
857.13	18757
857.263	18852
857.397	18817
857.53	18612
857.664	18749
857.797	18795
857.931	18783
858.064	18700
858.197	18829
858.331	18669
858.464	18585
858.597	18448
858.731	18703
858.864	18650
858.997	18623
859.13	18654
859.263	18604
859.396	18719
859.529	18684
859.662	18639
859.795	18661
859.928	18612
860.061	18837
860.194	18719
860.327	18696
860.46	18578
860.592	18840
860.725	18783
860.858	18734
860.99	18627
861.123	18506
861.256	18578
861.388	18730
861.521	19354
861.653	18540
861.786	18547
861.918	18490
862.05	18559
862.183	18601
862.315	18726
862.447	18738
862.58	18692
862.712	18426
862.844	18498
862.976	18304
863.108	18479
863.24	18791
863.372	18350
863.504	18448
863.636	18437
863.768	18422
863.9	18372
864.032	18220
864.164	18369
864.296	18365
864.428	18448
864.559	18437
864.691	18410
864.823	18460
864.954	18289
865.086	18403
865.217	18384
865.349	18330
865.48	18311
865.612	18365
865.743	18452
865.875	18281
866.006	18311
866.137	18300
866.269	18327
866.4	18323
866.531	18205
866.662	18152
866.793	18243
866.924	18205
867.055	18311
867.186	18262
867.317	18220
867.448	18186
867.579	18258
867.71	18201
867.841	18178
867.972	18266
868.103	18213
868.233	18292
868.364	18224
868.495	18338
868.625	18448
868.756	18547
868.886	18361
869.017	18407
869.147	18627
869.278	18612
869.408	18414
869.539	18604
869.669	18589
869.799	18506
869.929	18555
870.06	18513
870.19	18787
870.32	18768
870.45	18745
870.58	18856
870.71	18962
870.84	18943
870.97	18985
871.1	18814
871.23	19050
871.36	19107
871.489	18890
871.619	19057
871.749	19088
871.879	19012
872.008	19126
872.138	19080
872.267	19050
872.397	18954
872.526	18939
872.656	18882
872.785	18844
872.915	19122
873.044	19225
873.173	19061
873.303	19110
873.432	19129
873.561	19244
873.69	19137
873.819	19110
873.948	19156
874.077	19221
874.206	19042
874.335	19217
874.464	19289
874.593	19324
874.722	19270
874.851	19438
874.979	19392
875.108	19358
875.237	19320
875.365	19266
875.494	19388
875.623	19476
875.751	19365
875.88	19388
876.008	19457
876.136	19727
876.265	19708
876.393	19860
876.521	19807
876.65	19868
876.778	19788
876.906	19681
877.034	19727
877.162	19734
877.29	19639
877.418	19772
877.546	19841
877.674	19841
877.802	19811
877.93	19765
878.058	19704
878.185	19769
878.313	19689
878.441	19731
878.568	19632
878.696	19780
878.824	19811
878.951	20039
879.079	19902
879.206	20012
879.333	19982
879.461	19830
879.588	19852
879.715	19887
879.842	20107
879.97	19932
880.097	19674
880.224	19590
880.351	19632
880.478	19575
880.605	19601
880.732	19567
880.859	19860
880.986	19628
881.112	19696
881.239	19525
881.366	19438
881.493	19285
881.619	19110
881.746	19362
881.872	19263
881.999	19213
882.125	19209
882.252	19331
882.378	19278
882.505	19297
882.631	19217
882.757	18958
882.883	19084
883.01	18973
883.136	18932
883.262	18871
883.388	18859
883.514	19088
883.64	19072
883.766	18966
883.892	18768
884.018	18833
884.143	19027
884.269	19050
884.395	18787
884.52	18578
884.646	18665
884.772	18604
884.897	18426
885.023	18650
885.148	18741
885.274	18833
885.399	18757
885.524	18585
885.65	18745
885.775	18760
885.9	18612
886.025	18719
886.15	18646
886.275	18681
886.4	18452
886.525	18574
886.65	18597
886.775	18528
886.9	18616
887.025	18829
887.149	18604
887.274	18391
887.399	18445
887.523	18437
887.648	18319
887.773	18311
887.897	18532
888.021	18410
888.146	18315
888.27	18570
888.395	18585
888.519	18475
888.643	18414
888.767	18426
888.891	18243
889.015	18216
889.139	18216
889.263	18194
889.387	18395
889.511	18426
889.635	18445
889.759	18186
889.883	18167
890.006	18270
890.13	18296
890.254	18254
890.377	18087
890.501	17923
890.624	17885
890.748	18015
890.871	17847
890.995	17798
891.118	17745
891.241	17790
891.364	17798
891.488	17958
891.611	17771
891.734	17790
891.857	17813
891.98	17771
892.103	17882
892.226	17851
892.349	17889
892.471	17687
892.594	17828
892.717	17767
892.839	17805
892.962	17790
893.085	17889
893.207	17783
893.33	17581
893.452	17638
893.575	17707
893.697	17817
893.819	17916
893.941	17931
894.064	17908
894.186	17665
894.308	17661
894.43	17843
894.552	17908
894.674	17939
894.796	17703
894.918	17855
895.04	17729
895.161	17821
895.283	17752
895.405	17771
895.526	17752
895.648	17779
895.769	17885
895.891	17874
896.012	17999
896.134	17927
896.255	17893
896.376	17775
896.498	17847
896.619	18007
896.74	17973
896.861	17893
896.982	18251
897.103	18372
897.224	18038
897.345	18019
897.466	17984
897.587	18102
897.708	18117
897.828	18117
897.949	18076
898.07	17942
898.19	18053
898.311	18148
898.431	18064
898.552	18079
898.672	18220
898.792	18228
898.913	18087
899.033	17988
899.153	17878
899.273	17779
899.393	17786
899.513	17916
899.633	17897
899.753	17904
899.873	17843
899.993	17802
900.113	17824
900.232	17851
900.352	17840
900.472	17741
900.591	17699
900.711	17661
900.83	17627
900.95	17771
901.069	17764
901.189	17566
901.308	17387
901.427	17269
901.546	17353
901.665	17296
901.784	17353
901.904	17083
902.023	17117
902.141	16919
902.26	16904
902.379	16930
902.498	16854
902.617	16694
902.735	16847
902.854	16858
902.973	16691
903.091	16580
903.21	16508
903.328	16470
903.446	16428
903.565	16333
903.683	16310
903.801	16238
903.919	16379
904.038	16287
904.156	16158
904.274	16128
904.392	16204
904.51	16109
904.627	16257
904.745	16215
904.863	16124
904.981	15876
905.098	15888
905.216	15876
905.334	15808
905.451	15739
905.569	15827
905.686	15880
905.803	15827
905.921	15660
906.038	15671
906.155	15679
906.272	15492
906.389	15408
906.506	15237
906.623	15313
906.74	15264
906.857	15252
906.974	15264
907.091	15405
907.208	15393
907.324	15310
907.441	15252
907.557	15017
907.674	14967
907.79	15001
907.907	15009
908.023	15032
908.139	15024
908.256	14979
908.372	14937
908.488	14982
908.604	14781
908.72	14670
908.836	14716
908.952	14697
909.068	14754
909.184	14785
909.3	14758
909.415	14823
909.531	14678
909.647	14507
909.762	14457
909.878	14313
909.993	14457
910.108	14385
910.224	14442
910.339	14370
910.454	14263
910.57	14214
910.685	14248
910.8	14552
910.915	14484
911.03	14324
911.145	14084
911.259	14016
911.374	14123
911.489	14016
911.604	13909
911.718	13887
911.833	13814
911.947	13685
912.062	13666
912.176	13887
912.291	13799
912.405	13803
912.519	14008
912.633	14016
912.748	13757
912.862	13826
912.976	13666
913.09	13586
913.204	13670
913.318	13605
913.431	13700
913.545	13689
913.659	13715
913.772	13601
913.886	13472
914	13445
914.113	13460
914.226	13609
914.34	13590
914.453	13354
914.566	13502
914.68	13377
914.793	13441
914.906	13206
915.019	13156
915.132	13183
915.245	13171
915.358	13247
915.47	13263
915.583	13122
915.696	13190
915.809	13339
915.921	13225
916.034	13031
916.146	13110
916.259	13023
916.371	13129
916.483	13072
916.595	13027
916.708	13012
916.82	12970
916.932	13046
917.044	13095
917.156	12973
917.268	12848
917.38	12863
917.491	12909
917.603	12886
917.715	12890
917.826	12996
917.938	12840
918.049	12749
918.161	12837
918.272	12928
918.384	12958
918.495	12787
918.606	12684
918.717	12578
918.828	12741
918.939	12787
919.05	12589
919.161	12547
919.272	12429
919.383	12471
919.494	12597
919.604	12779
919.715	12673
919.826	12555
919.936	12616
920.047	12646
920.157	12760
920.267	12817
920.378	12639
920.488	12536
920.598	12817
920.708	12932
920.818	12772
920.928	12749
921.038	12928
921.148	12844
921.258	12601
921.368	12585
921.477	12418
921.587	12334
921.697	12266
921.806	12498
921.916	12209
922.025	12136
922.134	12114
922.244	12026
922.353	12136
922.462	12076
922.571	11866
922.68	11756
922.789	11699
922.898	11786
923.007	11684
923.116	11748
923.224	11748
923.333	11710
923.442	11566
923.55	11486
923.659	11539
923.767	11653
923.876	11551
923.984	11623
924.092	11528
924.201	11570
924.309	11604
924.417	11452
924.525	11448
924.633	11520
924.741	12235
924.849	11235
924.956	11417
925.064	11288
925.172	11170
925.279	11273
925.387	11299
925.494	11307
925.602	11410
925.709	11277
925.816	11242
925.924	11193
926.031	11284
926.138	11250
926.245	11216
926.352	11204
926.459	11299
926.566	11269
926.673	11140
926.779	11041
926.886	10946
926.993	10938
927.099	10873
927.206	10831
927.312	10771
927.419	10976
927.525	10885
927.631	10934
927.737	10771
927.843	10767
927.95	10706
928.056	10656
928.162	10759
928.267	10797
928.373	11292
928.479	10843
928.585	10588
928.69	10710
928.796	10748
928.901	10611
929.007	10447
929.112	10599
929.218	10596
929.323	10542
929.428	10466
929.533	10599
929.638	10455
929.743	10508
929.848	10497
929.953	10451
930.058	10390
930.163	10131
930.267	10204
930.372	10306
930.477	10173
930.581	10443
930.685	10215
930.79	10032
930.894	10078
930.998	10048
931.103	10223
931.207	9861
931.311	9785
931.415	9740
931.519	9610
931.623	9530
