Data from test_V78500241_680.txt Node
Date: Fri Mar 25 14:38:27 CST 2022
User: usil
Spectrometer: V785-0024
Trigger mode: 0
Integration Time (sec): 4.000000E-1
Scans to average: 1
Nonlinearity correction enabled: false
Boxcar width: 0
Storing dark spectrum: false
XAxis mode: Wavelengths
Number of Pixels in Spectrum: 1024
>>>>>Begin Spectral Data<<<<<
801.071	28181
801.214	28017
801.356	27778
801.499	27755
801.641	27637
801.783	27496
801.926	27641
802.068	27485
802.211	27302
802.353	27279
802.496	27039
802.638	26967
802.78	26990
802.923	27062
803.065	26952
803.208	26910
803.35	27074
803.492	27119
803.635	27169
803.777	27096
803.919	27260
804.061	27408
804.204	27230
804.346	27207
804.488	27131
804.63	27218
804.773	27370
804.915	27363
805.057	27648
805.199	27367
805.341	27618
805.483	27641
805.626	27724
805.768	27736
805.91	27972
806.052	28017
806.194	28196
806.336	28577
806.478	28470
806.62	28725
806.762	29018
806.904	29501
807.046	29999
807.188	30277
807.33	30620
807.472	31304
807.614	31750
807.756	32800
807.898	33808
808.04	35585
808.182	37479
808.324	40105
808.465	43148
808.607	46337
808.749	49270
808.891	51249
809.033	51283
809.174	49635
809.316	46881
809.458	43206
809.6	39941
809.741	37046
809.883	34919
810.025	33363
810.166	32263
810.308	31514
810.45	30833
810.591	30273
810.733	29642
810.875	29315
811.016	29056
811.158	28923
811.299	28828
811.441	28653
811.582	28713
811.724	28246
811.865	28131
812.007	28025
812.148	27979
812.29	28112
812.431	27926
812.573	28082
812.714	28112
812.855	28230
812.997	28177
813.138	28401
813.279	28177
813.421	28101
813.562	27972
813.703	27717
813.845	27488
813.986	27241
814.127	27036
814.268	26990
814.41	26929
814.551	26952
814.692	26777
814.833	26644
814.974	26644
815.115	26868
815.256	26389
815.397	26408
815.539	26400
815.68	26313
815.821	26248
815.962	26446
816.103	26256
816.244	26149
816.385	26199
816.526	26020
816.666	25841
816.807	25795
816.948	25639
817.089	25700
817.23	25719
817.371	25628
817.512	25658
817.653	25537
817.793	25616
817.934	25552
818.075	25582
818.216	25487
818.356	25525
818.497	25457
818.638	25206
818.778	25190
818.919	25350
819.06	25190
819.2	25293
819.341	25453
819.481	25487
819.622	25525
819.762	25795
819.903	25696
820.043	25544
820.184	25533
820.324	25403
820.465	25529
820.605	25419
820.746	25285
820.886	25164
821.026	25346
821.167	25365
821.307	25221
821.447	25304
821.588	25183
821.728	24951
821.868	24875
822.008	24665
822.149	24627
822.289	24601
822.429	24315
822.569	24372
822.709	24220
822.849	24041
822.99	24060
823.13	23840
823.27	24053
823.41	23935
823.55	23802
823.69	23939
823.83	23824
823.97	23843
824.11	23764
824.25	23619
824.389	23684
824.529	23752
824.669	23665
824.809	23665
824.949	23608
825.089	23813
825.228	23779
825.368	23478
825.508	23440
825.648	23471
825.787	23395
825.927	23425
826.067	23356
826.206	23376
826.346	23406
826.485	23436
826.625	23303
826.765	23493
826.904	23360
827.044	23292
827.183	23064
827.323	23037
827.462	23124
827.601	23044
827.741	23037
827.88	22965
828.02	22972
828.159	22987
828.298	23075
828.437	23124
828.577	23064
828.716	23113
828.855	22949
828.994	22713
829.134	22805
829.273	22752
829.412	22656
829.551	22588
829.69	22774
829.829	22748
829.968	22740
830.107	22679
830.246	22786
830.385	22637
830.524	22626
830.663	22516
830.802	22531
830.941	22284
831.08	22371
831.219	22314
831.357	22402
831.496	22523
831.635	22508
831.774	22257
831.913	22200
832.051	22074
832.19	22154
832.329	22207
832.467	22181
832.606	22249
832.744	22257
832.883	22276
833.022	22265
833.16	22386
833.299	22436
833.437	22672
833.576	22816
833.714	22938
833.852	23056
833.991	23220
834.129	23235
834.267	23486
834.406	23254
834.544	23220
834.682	23086
834.821	22896
834.959	22984
835.097	22653
835.235	22622
835.373	22344
835.511	22390
835.65	22143
835.788	22166
835.926	21899
836.064	21926
836.202	21781
836.34	21819
836.478	22105
836.615	21892
836.753	22002
836.891	21945
837.029	21972
837.167	21660
837.305	21705
837.443	21682
837.58	21564
837.718	21755
837.856	21629
837.993	21603
838.131	21606
838.269	21408
838.406	21610
838.544	21431
838.681	21397
838.819	21291
838.956	21214
839.094	20971
839.231	21135
839.369	21184
839.506	21492
839.643	21275
839.781	21104
839.918	21070
840.055	21058
840.193	20975
840.33	21020
840.467	21001
840.604	21089
840.742	21272
840.879	20883
841.016	20857
841.153	20914
841.29	21005
841.427	21001
841.564	21077
841.701	21051
841.838	21005
841.975	20861
842.112	20792
842.249	20792
842.385	20785
842.522	21001
842.659	20929
842.796	20925
842.933	20777
843.069	20902
843.206	20933
843.343	20925
843.479	20933
843.616	21051
843.752	20788
843.889	20902
844.025	21009
844.162	20910
844.298	21294
844.435	21249
844.571	21302
844.708	21701
844.844	22207
844.98	22569
845.117	23250
845.253	24224
845.389	26153
845.525	29760
845.661	35710
845.798	42623
845.934	47790
846.07	49514
846.206	48155
846.342	43438
846.478	36262
846.614	30437
846.75	26514
846.886	24277
847.022	23010
847.158	22223
847.294	21500
847.429	21218
847.565	20967
847.701	20990
847.837	20309
847.972	20237
848.108	20347
848.244	20237
848.379	20073
848.515	19909
848.65	19875
848.786	19830
848.921	19913
849.057	19788
849.192	19925
849.328	19864
849.463	19723
849.598	19696
849.734	19590
849.869	19571
850.004	19426
850.14	19487
850.275	19441
850.41	19331
850.545	19388
850.68	19369
850.815	19487
850.95	19362
851.085	19639
851.22	19499
851.355	19358
851.49	19415
851.625	19381
851.76	19339
851.895	19331
852.03	19320
852.165	19460
852.299	19521
852.434	19548
852.569	19525
852.703	19445
852.838	19578
852.973	19704
853.107	19594
853.242	19544
853.376	19419
853.511	19377
853.645	19449
853.78	19639
853.914	19632
854.048	19662
854.183	19590
854.317	19715
854.451	19791
854.585	19613
854.72	19639
854.854	19856
854.988	19495
855.122	19510
855.256	19327
855.39	19438
855.524	19438
855.658	19476
855.792	19343
855.926	19339
856.06	19236
856.194	19373
856.327	19255
856.461	19141
856.595	19225
856.729	19217
856.862	19194
856.996	19263
857.13	19293
857.263	19225
857.397	19244
857.53	19278
857.664	19228
857.797	19190
857.931	19282
858.064	19213
858.197	19266
858.331	18981
858.464	19031
858.597	18954
858.731	19076
858.864	19034
858.997	19137
859.13	19038
859.263	19088
859.396	19118
859.529	18993
859.662	18973
859.795	18958
859.928	19198
860.061	19179
860.194	19213
860.327	19107
860.46	19088
860.592	19091
860.725	19038
860.858	19141
860.99	18962
861.123	18859
861.256	18935
861.388	18924
861.521	19567
861.653	18894
861.786	18821
861.918	18867
862.05	18973
862.183	18928
862.315	19015
862.447	19023
862.58	19015
862.712	18734
862.844	18696
862.976	18894
863.108	18719
863.24	19122
863.372	18506
863.504	18787
863.636	18722
863.768	18738
863.9	18646
864.032	18604
864.164	18578
864.296	18669
864.428	18658
864.559	18696
864.691	18806
864.823	18688
864.954	18604
865.086	18631
865.217	18646
865.349	18467
865.48	18608
865.612	18555
865.743	18673
865.875	18707
866.006	18635
866.137	18658
866.269	18509
866.4	18582
866.531	18585
866.662	18460
866.793	18517
866.924	18608
867.055	18509
867.186	18650
867.317	18532
867.448	18350
867.579	18521
867.71	18486
867.841	18426
867.972	18502
868.103	18494
868.233	18642
868.364	18494
868.495	18669
868.625	18768
868.756	18924
868.886	18810
869.017	18814
869.147	18825
869.278	18856
869.408	18810
869.539	18859
869.669	18943
869.799	18939
869.929	18935
870.06	19012
870.19	19110
870.32	19168
870.45	19187
870.58	19304
870.71	19396
870.84	19403
870.97	19293
871.1	19297
871.23	19339
871.36	19559
871.489	19548
871.619	19529
871.749	19525
871.879	19506
872.008	19666
872.138	19552
872.267	19483
872.397	19529
872.526	19373
872.656	19514
872.785	19453
872.915	19704
873.044	19681
873.173	19818
873.303	19776
873.432	19734
873.561	19845
873.69	19799
873.819	19864
873.948	19959
874.077	19731
874.206	19845
874.335	19963
874.464	20012
874.593	20218
874.722	20180
874.851	20374
874.979	20298
875.108	20305
875.237	20404
875.365	20339
875.494	20537
875.623	20461
875.751	20552
875.88	20575
876.008	20625
876.136	20838
876.265	21112
876.393	21226
876.521	21214
876.65	21207
876.778	21435
876.906	21439
877.034	21325
877.162	21469
877.29	21481
877.418	21637
877.546	21743
877.674	21755
877.802	21960
877.93	22067
878.058	22200
878.185	22485
878.313	22664
878.441	23067
878.568	23315
878.696	24007
878.824	24966
878.951	25913
879.079	27583
879.206	29573
879.333	31601
879.461	33416
879.588	34584
879.715	34516
879.842	33572
879.97	31670
880.097	29642
880.224	27949
880.351	26693
880.478	25875
880.605	25304
880.732	24863
880.859	24722
880.986	24490
881.112	24281
881.239	24186
881.366	24083
881.493	23855
881.619	23832
881.746	23939
881.872	23939
881.999	23927
882.125	24003
882.252	24091
882.378	24072
882.505	24296
882.631	24049
882.757	23988
882.883	23897
883.01	24030
883.136	23897
883.262	23889
883.388	23672
883.514	23942
883.64	23920
883.766	23745
883.892	23668
884.018	23779
884.143	23889
884.269	24026
884.395	23581
884.52	23524
884.646	23691
884.772	23535
884.897	23573
885.023	23703
885.148	23657
885.274	23760
885.399	23592
885.524	23303
885.65	23330
885.775	23250
885.9	23010
886.025	22881
886.15	22877
886.275	22569
886.4	22337
886.525	22306
886.65	22124
886.775	21975
886.9	22021
887.025	22082
887.149	21713
887.274	21450
887.399	21477
887.523	21252
887.648	21157
887.773	21047
887.897	21169
888.021	20921
888.146	20792
888.27	21009
888.395	20921
888.519	20769
888.643	20648
888.767	20735
888.891	20549
889.015	20381
889.139	20389
889.263	20252
889.387	20370
889.511	20530
889.635	20347
889.759	20043
889.883	20027
890.006	20149
890.13	20180
890.254	20008
890.377	19947
890.501	19727
890.624	19712
890.748	19715
890.871	19655
890.995	19483
891.118	19369
891.241	19396
891.364	19362
891.488	19457
891.611	19396
891.734	19346
891.857	19301
891.98	19259
892.103	19358
892.226	19209
892.349	19160
892.471	19031
892.594	19065
892.717	19095
892.839	19069
892.962	18932
893.085	19034
893.207	18954
893.33	18833
893.452	18722
893.575	18875
893.697	18738
893.819	18909
893.941	18966
894.064	18970
894.186	18661
894.308	18589
894.43	18726
894.552	18939
894.674	18749
894.796	18566
894.918	18547
895.04	18563
895.161	18509
895.283	18532
895.405	18437
895.526	18555
895.648	18540
895.769	18528
895.891	18536
896.012	18509
896.134	18608
896.255	18627
896.376	18254
896.498	18460
896.619	18464
896.74	18384
896.861	18547
896.982	18821
897.103	18833
897.224	18711
897.345	18639
897.466	18506
897.587	18677
897.708	18692
897.828	18681
897.949	18631
898.07	18350
898.19	18525
898.311	18544
898.431	18547
898.552	18593
898.672	18700
898.792	18635
898.913	18654
899.033	18559
899.153	18426
899.273	18334
899.393	18270
899.513	18380
899.633	18483
899.753	18407
899.873	18353
899.993	18361
900.113	18353
900.232	18380
900.352	18361
900.472	18057
900.591	18186
900.711	18117
900.83	18007
900.95	18327
901.069	18273
901.189	18041
901.308	17779
901.427	17805
901.546	17707
901.665	17843
901.784	17722
901.904	17524
902.023	17474
902.141	17277
902.26	17155
902.379	17235
902.498	17140
902.617	16968
902.735	17147
902.854	17204
902.973	17113
903.091	16896
903.21	16847
903.328	16824
903.446	16759
903.565	16675
903.683	16588
903.801	16622
903.919	16508
904.038	16519
904.156	16322
904.274	16447
904.392	16341
904.51	16436
904.627	16280
904.745	16390
904.863	16356
904.981	16101
905.098	15987
905.216	16078
905.334	16032
905.451	15964
905.569	15941
905.686	16097
905.803	16002
905.921	15701
906.038	15785
906.155	15709
906.272	15667
906.389	15717
906.506	15473
906.623	15504
906.74	15526
906.857	15325
906.974	15405
907.091	15557
907.208	15576
907.324	15496
907.441	15317
907.557	15237
907.674	15203
907.79	15173
907.907	15169
908.023	15260
908.139	15180
908.256	15154
908.372	15066
908.488	15089
908.604	14956
908.72	14826
908.836	14876
908.952	14830
909.068	14937
909.184	15089
909.3	14948
909.415	14872
909.531	14998
909.647	14590
909.762	14602
909.878	14590
909.993	14667
910.108	14636
910.224	14469
910.339	14659
910.454	14590
910.57	14400
910.685	14381
910.8	14663
910.915	14610
911.03	14396
911.145	14355
911.259	14298
911.374	14278
911.489	14161
911.604	14096
911.718	13978
911.833	13993
911.947	13871
912.062	13864
912.176	14008
912.291	13947
912.405	14050
912.519	14187
912.633	14298
912.748	13997
912.862	13944
912.976	13814
913.09	13693
913.204	13803
913.318	13887
913.431	13955
913.545	13917
913.659	13955
913.772	13799
913.886	13719
914	13712
914.113	13780
914.226	13814
914.34	13784
914.453	13605
914.566	13605
914.68	13636
914.793	13575
914.906	13430
915.019	13346
915.132	13312
915.245	13373
915.358	13407
915.47	13388
915.583	13365
915.696	13457
915.809	13464
915.921	13571
916.034	13377
916.146	13274
916.259	13251
916.371	13320
916.483	13373
916.595	13255
916.708	13228
916.82	13377
916.932	13274
917.044	13312
917.156	13278
917.268	13107
917.38	13156
917.491	13145
917.603	13141
917.715	13160
917.826	13183
917.938	13080
918.049	12966
918.161	12985
918.272	13114
918.384	13164
918.495	12966
918.606	12806
918.717	12783
918.828	12909
918.939	12848
919.05	12795
919.161	12810
919.272	12642
919.383	12726
919.494	12882
919.604	13031
919.715	12856
919.826	12753
919.936	12738
920.047	12844
920.157	12829
920.267	12958
920.378	12894
920.488	12802
920.598	12897
920.708	13122
920.818	12882
920.928	12901
921.038	13187
921.148	13072
921.258	12810
921.368	12707
921.477	12616
921.587	12555
921.697	12483
921.806	12604
921.916	12448
922.025	12266
922.134	12365
922.244	12201
922.353	12239
922.462	12079
922.571	12121
922.68	11821
922.789	11889
922.898	11836
923.007	11927
923.116	12003
923.224	11878
923.333	11870
923.442	11805
923.55	11714
923.659	11748
923.767	11824
923.876	11718
923.984	11828
924.092	11729
924.201	11649
924.309	11775
924.417	11649
924.525	11611
924.633	11657
924.741	12559
924.849	11425
924.956	11638
925.064	11379
925.172	11353
925.279	11368
925.387	11429
925.494	11406
925.602	11577
925.709	11455
925.816	11353
925.924	11322
926.031	11471
926.138	11341
926.245	11417
926.352	11223
926.459	11379
926.566	11520
926.673	11269
926.779	11235
926.886	11231
926.993	11037
927.099	11003
927.206	10961
927.312	10987
927.419	11098
927.525	11006
927.631	10976
927.737	10869
927.843	10927
927.95	10850
928.056	10877
928.162	10862
928.267	10919
928.373	11402
928.479	10972
928.585	10725
928.69	10896
928.796	10847
928.901	10774
929.007	10592
929.112	10809
929.218	10710
929.323	10733
929.428	10664
929.533	10771
929.638	10611
929.743	10649
929.848	10573
929.953	10622
930.058	10497
930.163	10348
930.267	10371
930.372	10459
930.477	10272
930.581	10561
930.685	10497
930.79	10215
930.894	10234
930.998	10253
931.103	10432
931.207	9949
931.311	9926
931.415	9865
931.519	9732
931.623	9698
