Data from test_V78500241_3077.txt Node
Date: Fri Mar 25 14:55:08 CST 2022
User: usil
Spectrometer: V785-0024
Trigger mode: 0
Integration Time (sec): 4.000000E-1
Scans to average: 1
Nonlinearity correction enabled: false
Boxcar width: 0
Storing dark spectrum: false
XAxis mode: Wavelengths
Number of Pixels in Spectrum: 1024
>>>>>Begin Spectral Data<<<<<
801.071	22131
801.214	22006
801.356	21679
801.499	21644
801.641	21431
801.783	21622
801.926	21515
802.068	21363
802.211	21321
802.353	21142
802.496	21024
802.638	20921
802.78	20857
802.923	20853
803.065	20823
803.208	20686
803.35	20849
803.492	20910
803.635	20952
803.777	20785
803.919	20792
804.061	21203
804.204	20861
804.346	20712
804.488	20632
804.63	20838
804.773	20621
804.915	20609
805.057	20743
805.199	20731
805.341	20670
805.483	20804
805.626	20758
805.768	20708
805.91	20727
806.052	20697
806.194	20712
806.336	20724
806.478	20617
806.62	20621
806.762	20716
806.904	20914
807.046	21112
807.188	21024
807.33	21146
807.472	20933
807.614	20864
807.756	21043
807.898	20834
808.04	20781
808.182	20739
808.324	20746
808.465	20933
808.607	20902
808.749	21119
808.891	21020
809.033	21188
809.174	21100
809.316	21157
809.458	20982
809.6	20986
809.741	21077
809.883	21199
810.025	21245
810.166	21184
810.308	21249
810.45	21081
810.591	21081
810.733	20944
810.875	20842
811.016	20792
811.158	20743
811.299	20948
811.441	20918
811.582	20921
811.724	20773
811.865	20697
812.007	20746
812.148	20857
812.29	20838
812.431	21032
812.573	21123
812.714	21195
812.855	21287
812.997	21412
813.138	21606
813.279	21408
813.421	21321
813.562	21306
813.703	21005
813.845	21001
813.986	20743
814.127	20541
814.268	20389
814.41	20434
814.551	20492
814.692	20415
814.833	20434
814.974	20221
815.115	20358
815.256	20240
815.397	20191
815.539	20381
815.68	20088
815.821	20050
815.962	20088
816.103	19963
816.244	19955
816.385	19803
816.526	19811
816.666	19628
816.807	19533
816.948	19613
817.089	19719
817.23	19597
817.371	19521
817.512	19426
817.653	19441
817.793	19343
817.934	19468
818.075	19514
818.216	19575
818.356	19373
818.497	19373
818.638	19160
818.778	19202
818.919	19259
819.06	19232
819.2	19270
819.341	19297
819.481	19384
819.622	19586
819.762	19639
819.903	19666
820.043	19563
820.184	19472
820.324	19403
820.465	19499
820.605	19495
820.746	19384
820.886	19285
821.026	19396
821.167	19483
821.307	19449
821.447	19331
821.588	19358
821.728	19206
821.868	18943
822.008	18875
822.149	18829
822.289	18829
822.429	18639
822.569	18582
822.709	18498
822.849	18414
822.99	18422
823.13	18334
823.27	18239
823.41	18133
823.55	18148
823.69	18163
823.83	18243
823.97	18057
824.11	17931
824.25	17904
824.389	18015
824.529	18079
824.669	17927
824.809	18076
824.949	17980
825.089	17946
825.228	17950
825.368	17714
825.508	17710
825.648	17714
825.787	17790
825.927	17760
826.067	17710
826.206	17699
826.346	17729
826.485	17703
826.625	17672
826.765	17729
826.904	17760
827.044	17436
827.183	17471
827.323	17353
827.462	17364
827.601	17379
827.741	17376
827.88	17299
828.02	17330
828.159	17444
828.298	17307
828.437	17414
828.577	17387
828.716	17497
828.855	17326
828.994	17174
829.134	17197
829.273	17212
829.412	17159
829.551	17064
829.69	17178
829.829	17170
829.968	17250
830.107	17273
830.246	17128
830.385	17056
830.524	17094
830.663	17025
830.802	16919
830.941	16782
831.08	16744
831.219	16866
831.357	16721
831.496	17018
831.635	16725
831.774	16611
831.913	16793
832.051	16382
832.19	16489
832.329	16493
832.467	16421
832.606	16363
832.744	16417
832.883	16447
833.022	16394
833.16	16405
833.299	16455
833.437	16440
833.576	16500
833.714	16493
833.852	16508
833.991	16375
834.129	16630
834.267	16626
834.406	16497
834.544	16584
834.682	16577
834.821	16451
834.959	16687
835.097	16538
835.235	16542
835.373	16485
835.511	16512
835.65	16348
835.788	16432
835.926	16299
836.064	16169
836.202	16139
836.34	16440
836.478	16455
836.615	16443
836.753	16519
836.891	16451
837.029	16424
837.167	16428
837.305	16371
837.443	16306
837.58	16211
837.718	16337
837.856	16272
837.993	16238
838.131	16280
838.269	16074
838.406	16185
838.544	16074
838.681	15979
838.819	15915
838.956	15812
839.094	15842
839.231	15797
839.369	15949
839.506	16226
839.643	16150
839.781	15907
839.918	15724
840.055	15808
840.193	15720
840.33	15785
840.467	15816
840.604	15804
840.742	15937
840.879	15671
841.016	15759
841.153	15709
841.29	15854
841.427	15789
841.564	15918
841.701	15865
841.838	15835
841.975	15728
842.112	15766
842.249	15587
842.385	15564
842.522	15804
842.659	15568
842.796	15641
842.933	15587
843.069	15370
843.206	15500
843.343	15629
843.479	15587
843.616	15663
843.752	15355
843.889	15466
844.025	15496
844.162	15287
844.298	15530
844.435	15401
844.571	15382
844.708	15408
844.844	15572
844.98	15545
845.117	15488
845.253	15199
845.389	15241
845.525	15237
845.661	15272
845.798	15203
845.934	15226
846.07	15142
846.206	15363
846.342	15294
846.478	15081
846.614	15009
846.75	14944
846.886	14982
847.022	15009
847.158	14925
847.294	14948
847.429	15024
847.565	14960
847.701	15233
847.837	14708
847.972	14644
848.108	14697
848.244	14746
848.379	14678
848.515	14526
848.65	14465
848.786	14511
848.921	14530
849.057	14514
849.192	14621
849.328	14545
849.463	14537
849.598	14571
849.734	14484
849.869	14423
850.004	14309
850.14	14434
850.275	14419
850.41	14206
850.545	14206
850.68	14256
850.815	14275
850.95	14267
851.085	14575
851.22	14503
851.355	14278
851.49	14221
851.625	14347
851.76	14290
851.895	14199
852.03	14164
852.165	14309
852.299	14336
852.434	14370
852.569	14347
852.703	14389
852.838	14366
852.973	14377
853.107	14404
853.242	14294
853.376	14206
853.511	14024
853.645	14107
853.78	14244
853.914	14206
854.048	14248
854.183	14138
854.317	14210
854.451	14404
854.585	14153
854.72	14088
854.854	14145
854.988	14164
855.122	14168
855.256	14001
855.39	14237
855.524	14301
855.658	14221
855.792	14286
855.926	14164
856.06	14145
856.194	14256
856.327	14240
856.461	14145
856.595	14115
856.729	14100
856.862	14202
856.996	14286
857.13	14278
857.263	14332
857.397	14305
857.53	14115
857.664	14229
857.797	14168
857.931	14286
858.064	14263
858.197	14275
858.331	14187
858.464	14138
858.597	14024
858.731	14138
858.864	14058
858.997	14195
859.13	14286
859.263	14248
859.396	14248
859.529	14202
859.662	14096
859.795	14126
859.928	14202
860.061	14324
860.194	14389
860.327	14210
860.46	14134
860.592	14221
860.725	14393
860.858	14252
860.99	14138
861.123	14145
861.256	14187
861.388	14202
861.521	14887
861.653	14073
861.786	14005
861.918	14008
862.05	13997
862.183	14126
862.315	14153
862.447	14278
862.58	14138
862.712	13902
862.844	13955
862.976	13959
863.108	14031
863.24	14385
863.372	13852
863.504	13982
863.636	13921
863.768	13970
863.9	13936
864.032	13837
864.164	13940
864.296	13947
864.428	14058
864.559	14100
864.691	14016
864.823	14100
864.954	14024
865.086	13963
865.217	13967
865.349	13947
865.48	14012
865.612	13928
865.743	14005
865.875	14046
866.006	13906
866.137	13932
866.269	14024
866.4	14020
866.531	13909
866.662	13947
866.793	13845
866.924	13986
867.055	13932
867.186	13898
867.317	13978
867.448	13841
867.579	13860
867.71	13822
867.841	13909
867.972	13860
868.103	13898
868.233	13909
868.364	14008
868.495	14100
868.625	14130
868.756	14218
868.886	14107
869.017	14168
869.147	14210
869.278	14263
869.408	14149
869.539	14187
869.669	14256
869.799	14233
869.929	14374
870.06	14252
870.19	14537
870.32	14492
870.45	14484
870.58	14549
870.71	14644
870.84	14651
870.97	14659
871.1	14568
871.23	14800
871.36	14823
871.489	14625
871.619	14659
871.749	14800
871.879	14861
872.008	14891
872.138	14731
872.267	14769
872.397	14792
872.526	14590
872.656	14632
872.785	14670
872.915	14895
873.044	14925
873.173	14811
873.303	14883
873.432	14857
873.561	14929
873.69	14929
873.819	14861
873.948	14826
874.077	14758
874.206	14842
874.335	14921
874.464	14956
874.593	15062
874.722	15077
874.851	15077
874.979	15256
875.108	15165
875.237	15108
875.365	15085
875.494	15146
875.623	15180
875.751	15119
875.88	15199
876.008	15256
876.136	15355
876.265	15610
876.393	15720
876.521	15618
876.65	15637
876.778	15580
876.906	15477
877.034	15523
877.162	15564
877.29	15367
877.418	15580
877.546	15458
877.674	15610
877.802	15443
877.93	15557
878.058	15511
878.185	15454
878.313	15530
878.441	15667
878.568	15393
878.696	15511
878.824	15633
878.951	15610
879.079	15778
879.206	15854
879.333	15736
879.461	15656
879.588	15584
879.715	15823
879.842	15915
879.97	15622
880.097	15477
880.224	15420
880.351	15435
880.478	15466
880.605	15424
880.732	15302
880.859	15667
880.986	15469
881.112	15348
881.239	15310
881.366	15157
881.493	15127
881.619	15024
881.746	15100
881.872	15077
881.999	15047
882.125	14963
882.252	15150
882.378	15036
882.505	15195
882.631	15028
882.757	14963
882.883	14937
883.01	14944
883.136	14902
883.262	14823
883.388	14796
883.514	14872
883.64	14986
883.766	14735
883.892	14807
884.018	14785
884.143	14830
884.269	15093
884.395	14689
884.52	14712
884.646	14644
884.772	14522
884.897	14560
885.023	14552
885.148	14724
885.274	14853
885.399	14720
885.524	14530
885.65	14606
885.775	14670
885.9	14659
886.025	14773
886.15	14686
886.275	14492
886.4	14526
886.525	14533
886.65	14530
886.775	14556
886.9	14689
887.025	14853
887.149	14560
887.274	14488
887.399	14438
887.523	14404
887.648	14419
887.773	14282
887.897	14495
888.021	14503
888.146	14404
888.27	14511
888.395	14552
888.519	14545
888.643	14457
888.767	14484
888.891	14438
889.015	14278
889.139	14298
889.263	14271
889.387	14332
889.511	14507
889.635	14431
889.759	14229
889.883	14309
890.006	14267
890.13	14450
890.254	14221
890.377	14206
890.501	14062
890.624	14035
890.748	14123
890.871	14024
890.995	14031
891.118	13940
891.241	14077
891.364	14035
891.488	14195
891.611	14035
891.734	14035
891.857	14168
891.98	14081
892.103	14142
892.226	14035
892.349	13906
892.471	13917
892.594	14020
892.717	13890
892.839	13947
892.962	14001
893.085	14138
893.207	13970
893.33	13860
893.452	13936
893.575	14016
893.697	13940
893.819	14259
893.941	14214
894.064	14084
894.186	13974
894.308	13932
894.43	14164
894.552	14229
894.674	14119
894.796	13982
894.918	13963
895.04	14065
895.161	14195
895.283	14027
895.405	14027
895.526	14214
895.648	14012
895.769	14111
895.891	14153
896.012	14263
896.134	14290
896.255	14145
896.376	14229
896.498	14119
896.619	14202
896.74	14214
896.861	14339
896.982	14530
897.103	14670
897.224	14446
897.345	14377
897.466	14347
897.587	14362
897.708	14473
897.828	14476
897.949	14355
898.07	14366
898.19	14450
898.311	14545
898.431	14492
898.552	14537
898.672	14610
898.792	14610
898.913	14613
899.033	14503
899.153	14415
899.273	14244
899.393	14385
899.513	14404
899.633	14389
899.753	14320
899.873	14434
899.993	14419
900.113	14389
900.232	14461
900.352	14313
900.472	14313
900.591	14278
900.711	14328
900.83	14191
900.95	14347
901.069	14362
901.189	14157
901.308	14084
901.427	13879
901.546	13928
901.665	14043
901.784	14016
901.904	13856
902.023	13723
902.141	13567
902.26	13563
902.379	13601
902.498	13491
902.617	13506
902.735	13529
902.854	13586
902.973	13362
903.091	13202
903.21	13240
903.328	13232
903.446	13145
903.565	13152
903.683	13072
903.801	13053
903.919	13050
904.038	13069
904.156	12977
904.274	12920
904.392	12859
904.51	12856
904.627	12848
904.745	13019
904.863	12985
904.981	12715
905.098	12631
905.216	12589
905.334	12616
905.451	12639
905.569	12506
905.686	12578
905.803	12559
905.921	12410
906.038	12509
906.155	12494
906.272	12262
906.389	12350
906.506	12201
906.623	12102
906.74	12098
906.857	12072
906.974	12068
907.091	12220
907.208	12285
907.324	12201
907.441	12140
907.557	11912
907.674	11942
907.79	11939
907.907	11866
908.023	11946
908.139	11942
908.256	11847
908.372	11813
908.488	11767
908.604	11691
908.72	11668
908.836	11699
908.952	11627
909.068	11657
909.184	11764
909.3	11668
909.415	11817
909.531	11619
909.647	11455
909.762	11455
909.878	11410
909.993	11429
910.108	11520
910.224	11395
910.339	11360
910.454	11379
910.57	11292
910.685	11181
910.8	11463
910.915	11471
911.03	11296
911.145	11105
911.259	11178
911.374	11143
911.489	11064
911.604	11018
911.718	10949
911.833	10976
911.947	10866
912.062	10725
912.176	10957
912.291	10934
912.405	10881
912.519	11094
912.633	11204
912.748	10987
912.862	10869
912.976	10782
913.09	10668
913.204	10729
913.318	10790
913.431	10896
913.545	10858
913.659	10915
913.772	10744
913.886	10641
914	10634
914.113	10801
914.226	10915
914.34	10748
914.453	10607
914.566	10767
914.68	10573
914.793	10645
914.906	10413
915.019	10382
915.132	10360
915.245	10352
915.358	10413
915.47	10405
915.583	10493
915.696	10417
915.809	10577
915.921	10519
916.034	10382
916.146	10405
916.259	10325
916.371	10409
916.483	10485
916.595	10356
916.708	10348
916.82	10287
916.932	10409
917.044	10261
917.156	10394
917.268	10192
917.38	10227
917.491	10234
917.603	10314
917.715	10360
917.826	10367
917.938	10261
918.049	10135
918.161	10215
918.272	10375
918.384	10360
918.495	10303
918.606	10082
918.717	10021
918.828	10120
918.939	10188
919.05	10074
919.161	10143
919.272	9903
919.383	10013
919.494	10249
919.604	10424
919.715	10181
919.826	10074
919.936	10071
920.047	10227
920.157	10162
920.267	10363
920.378	10207
920.488	10185
920.598	10443
920.708	10455
920.818	10333
920.928	10360
921.038	10516
921.148	10455
921.258	10188
921.368	10131
921.477	10067
921.587	10013
921.697	9880
921.806	10067
921.916	9861
922.025	9778
922.134	9819
922.244	9720
922.353	9797
922.462	9724
922.571	9633
922.68	9454
922.789	9363
922.898	9458
923.007	9363
923.116	9435
923.224	9386
923.333	9530
923.442	9325
923.55	9367
923.659	9382
923.767	9382
923.876	9272
923.984	9454
924.092	9260
924.201	9340
924.309	9249
924.417	9275
924.525	9237
924.633	9291
924.741	10120
924.849	9104
924.956	9291
925.064	9146
925.172	9020
925.279	9074
925.387	9142
925.494	9157
925.602	9260
925.709	9165
925.816	9039
925.924	9127
926.031	9119
926.138	9089
926.245	9176
926.352	9032
926.459	9203
926.566	9161
926.673	9070
926.779	8952
926.886	8971
926.993	8868
927.099	8777
927.206	8887
927.312	8788
927.419	8921
927.525	8815
927.631	8895
927.737	8785
927.843	8735
927.95	8678
928.056	8762
928.162	8743
928.267	8769
928.373	9340
928.479	8826
928.585	8549
928.69	8708
928.796	8731
928.901	8648
929.007	8583
929.112	8606
929.218	8549
929.323	8579
929.428	8549
929.533	8629
929.638	8533
929.743	8537
929.848	8625
929.953	8564
930.058	8476
930.163	8271
930.267	8336
930.372	8431
930.477	8301
930.581	8503
930.685	8355
930.79	8282
930.894	8244
930.998	8199
931.103	8347
931.207	8123
931.311	7978
931.415	7955
931.519	7788
931.623	7795
