Data from test_V78500241_993.txt Node
Date: Fri Mar 25 14:40:37 CST 2022
User: usil
Spectrometer: V785-0024
Trigger mode: 0
Integration Time (sec): 4.000000E-1
Scans to average: 1
Nonlinearity correction enabled: false
Boxcar width: 0
Storing dark spectrum: false
XAxis mode: Wavelengths
Number of Pixels in Spectrum: 1024
>>>>>Begin Spectral Data<<<<<
801.071	23208
801.214	23048
801.356	22892
801.499	22782
801.641	22607
801.783	22466
801.926	22546
802.068	22405
802.211	22352
802.353	22272
802.496	22051
802.638	22002
802.78	21998
802.923	22044
803.065	21911
803.208	21854
803.35	21895
803.492	22021
803.635	22040
803.777	21797
803.919	21964
804.061	22226
804.204	22048
804.346	21778
804.488	21827
804.63	21838
804.773	21732
804.915	21679
805.057	21972
805.199	21759
805.341	21888
805.483	21987
805.626	21846
805.768	21762
805.91	21899
806.052	21895
806.194	21922
806.336	21979
806.478	22006
806.62	21789
806.762	21987
806.904	22116
807.046	22386
807.188	22299
807.33	22238
807.472	22421
807.614	22352
807.756	22489
807.898	22466
808.04	22470
808.182	22481
808.324	22729
808.465	22911
808.607	23162
808.749	23474
808.891	23570
809.033	23737
809.174	23638
809.316	23231
809.458	23121
809.6	22908
809.741	22850
809.883	22641
810.025	22809
810.166	22706
810.308	22641
810.45	22432
810.591	22428
810.733	22382
810.875	22295
811.016	22219
811.158	22147
811.299	22204
811.441	22246
811.582	22188
811.724	22059
811.865	22116
812.007	21953
812.148	22055
812.29	21991
812.431	22253
812.573	22344
812.714	22428
812.855	22508
812.997	22588
813.138	22748
813.279	22653
813.421	22603
813.562	22394
813.703	22253
813.845	22181
813.986	21937
814.127	21652
814.268	21698
814.41	21595
814.551	21564
814.692	21583
814.833	21496
814.974	21526
815.115	21572
815.256	21542
815.397	21477
815.539	21477
815.68	21359
815.821	21370
815.962	21325
816.103	21252
816.244	21116
816.385	21089
816.526	20944
816.666	20895
816.807	20712
816.948	20895
817.089	21001
817.23	20788
817.371	20750
817.512	20644
817.653	20746
817.793	20765
817.934	20720
818.075	20788
818.216	20705
818.356	20640
818.497	20488
818.638	20454
818.778	20408
818.919	20427
819.06	20408
819.2	20404
819.341	20594
819.481	20518
819.622	20552
819.762	20853
819.903	20853
820.043	20758
820.184	20667
820.324	20735
820.465	20826
820.605	20693
820.746	20651
820.886	20415
821.026	20651
821.167	20701
821.307	20686
821.447	20594
821.588	20511
821.728	20347
821.868	20370
822.008	20142
822.149	20046
822.289	20073
822.429	19807
822.569	19799
822.709	19753
822.849	19609
822.99	19575
823.13	19632
823.27	19518
823.41	19304
823.55	19358
823.69	19335
823.83	19392
823.97	19335
824.11	19282
824.25	19168
824.389	19141
824.529	19350
824.669	19198
824.809	19247
824.949	19304
825.089	19251
825.228	19126
825.368	19042
825.508	18951
825.648	18981
825.787	19061
825.927	19015
826.067	18947
826.206	18890
826.346	19065
826.485	19084
826.625	18894
826.765	19050
826.904	18981
827.044	18745
827.183	18665
827.323	18700
827.462	18798
827.601	18700
827.741	18722
827.88	18669
828.02	18585
828.159	18612
828.298	18730
828.437	18692
828.577	18559
828.716	18795
828.855	18506
828.994	18471
829.134	18410
829.273	18422
829.412	18384
829.551	18224
829.69	18380
829.829	18357
829.968	18422
830.107	18490
830.246	18384
830.385	18384
830.524	18319
830.663	18235
830.802	18148
830.941	17946
831.08	18038
831.219	18057
831.357	18003
831.496	18174
831.635	17916
831.774	17904
831.913	17794
832.051	17729
832.19	17840
832.329	17817
832.467	17672
832.606	17672
832.744	17764
832.883	17687
833.022	17703
833.16	17802
833.299	17745
833.437	17745
833.576	17764
833.714	17843
833.852	17802
833.991	17931
834.129	17931
834.267	17916
834.406	17790
834.544	17904
834.682	17908
834.821	17756
834.959	17866
835.097	17767
835.235	17828
835.373	17722
835.511	17726
835.65	17687
835.788	17638
835.926	17433
836.064	17505
836.202	17501
836.34	17642
836.478	17756
836.615	17615
836.753	17745
836.891	17726
837.029	17718
837.167	17642
837.305	17512
837.443	17433
837.58	17410
837.718	17585
837.856	17528
837.993	17360
838.131	17410
838.269	17505
838.406	17398
838.544	17376
838.681	17159
838.819	17200
838.956	17094
839.094	17048
839.231	17143
839.369	17189
839.506	17417
839.643	17193
839.781	17132
839.918	17018
840.055	17045
840.193	16968
840.33	17041
840.467	16953
840.604	17060
840.742	17337
840.879	16835
841.016	16881
841.153	16835
841.29	17140
841.427	16930
841.564	16976
841.701	17045
841.838	16957
841.975	16820
842.112	16862
842.249	16706
842.385	16759
842.522	16927
842.659	16778
842.796	16698
842.933	16801
843.069	16702
843.206	16672
843.343	16896
843.479	16740
843.616	16771
843.752	16596
843.889	16618
844.025	16725
844.162	16535
844.298	16637
844.435	16569
844.571	16569
844.708	16675
844.844	16828
844.98	16729
845.117	16733
845.253	16675
845.389	16721
845.525	16946
845.661	17102
845.798	17585
845.934	17802
846.07	18003
846.206	18015
846.342	17699
846.478	17311
846.614	16782
846.75	16470
846.886	16344
847.022	16379
847.158	16200
847.294	16185
847.429	16135
847.565	16051
847.701	16356
847.837	15911
847.972	15812
848.108	15899
848.244	15934
848.379	15823
848.515	15610
848.65	15713
848.786	15622
848.921	15717
849.057	15857
849.192	15781
849.328	15671
849.463	15682
849.598	15625
849.734	15557
849.869	15488
850.004	15488
850.14	15469
850.275	15526
850.41	15431
850.545	15500
850.68	15515
850.815	15462
850.95	15348
851.085	15633
851.22	15534
851.355	15405
851.49	15374
851.625	15469
851.76	15443
851.895	15268
852.03	15325
852.165	15431
852.299	15447
852.434	15397
852.569	15492
852.703	15462
852.838	15485
852.973	15549
853.107	15584
853.242	15386
853.376	15268
853.511	15211
853.645	15306
853.78	15466
853.914	15249
854.048	15264
854.183	15313
854.317	15355
854.451	15473
854.585	15325
854.72	15298
854.854	15507
854.988	15283
855.122	15370
855.256	15165
855.39	15237
855.524	15287
855.658	15268
855.792	15355
855.926	15260
856.06	15306
856.194	15348
856.327	15344
856.461	15222
856.595	15291
856.729	15279
856.862	15424
856.996	15340
857.13	15382
857.263	15401
857.397	15310
857.53	15340
857.664	15374
857.797	15412
857.931	15405
858.064	15344
858.197	15412
858.331	15329
858.464	15245
858.597	15233
858.731	15268
858.864	15279
858.997	15233
859.13	15317
859.263	15226
859.396	15386
859.529	15214
859.662	15237
859.795	15275
859.928	15283
860.061	15397
860.194	15523
860.327	15321
860.46	15272
860.592	15431
860.725	15496
860.858	15389
860.99	15317
861.123	15218
861.256	15241
861.388	15370
861.521	16013
861.653	15176
861.786	15093
861.918	15127
862.05	15138
862.183	15211
862.315	15241
862.447	15302
862.58	15218
862.712	15108
862.844	15005
862.976	15100
863.108	15119
863.24	15519
863.372	14929
863.504	15135
863.636	15055
863.768	15169
863.9	15039
864.032	14990
864.164	14982
864.296	15074
864.428	15199
864.559	15097
864.691	15135
864.823	15169
864.954	15104
865.086	15081
865.217	14929
865.349	14975
865.48	15108
865.612	14960
865.743	15176
865.875	14948
866.006	14948
866.137	14963
866.269	15074
866.4	15058
866.531	14921
866.662	14963
866.793	14899
866.924	14967
867.055	14967
867.186	14975
867.317	14998
867.448	14861
867.579	14979
867.71	14838
867.841	14887
867.972	14960
868.103	15074
868.233	15047
868.364	15062
868.495	15161
868.625	15173
868.756	15306
868.886	15074
869.017	15252
869.147	15431
869.278	15397
869.408	15313
869.539	15226
869.669	15260
869.799	15233
869.929	15416
870.06	15370
870.19	15610
870.32	15557
870.45	15523
870.58	15641
870.71	15747
870.84	15846
870.97	15610
871.1	15648
871.23	15819
871.36	15838
871.489	15774
871.619	15850
871.749	15812
871.879	15983
872.008	15945
872.138	15998
872.267	15831
872.397	15686
872.526	15709
872.656	15663
872.785	15698
872.915	15922
873.044	15949
873.173	15991
873.303	15983
873.432	15888
873.561	16017
873.69	16006
873.819	15857
873.948	16021
874.077	15987
874.206	15911
874.335	15915
874.464	15994
874.593	16249
874.722	16196
874.851	16173
874.979	16234
875.108	16325
875.237	16204
875.365	16158
875.494	16272
875.623	16405
875.751	16154
875.88	16291
876.008	16352
876.136	16432
876.265	16675
876.393	16828
876.521	16687
876.65	16702
876.778	16641
876.906	16653
877.034	16603
877.162	16569
877.29	16558
877.418	16675
877.546	16622
877.674	16599
877.802	16706
877.93	16698
878.058	16706
878.185	16603
878.313	16626
878.441	16702
878.568	16558
878.696	16721
878.824	16843
878.951	17067
879.079	17140
879.206	17455
879.333	17463
879.461	17337
879.588	17581
879.715	17516
879.842	17608
879.97	17334
880.097	16949
880.224	16923
880.351	16801
880.478	16759
880.605	16710
880.732	16710
880.859	16957
880.986	16733
881.112	16641
881.239	16535
881.366	16478
881.493	16356
881.619	16295
881.746	16306
881.872	16287
881.999	16306
882.125	16409
882.252	16318
882.378	16356
882.505	16447
882.631	16234
882.757	16135
882.883	16192
883.01	16120
883.136	16063
883.262	15991
883.388	16013
883.514	16120
883.64	16200
883.766	16109
883.892	15846
884.018	16010
884.143	16128
884.269	16196
884.395	15895
884.52	15778
884.646	15987
884.772	15759
884.897	15762
885.023	15781
885.148	15968
885.274	16013
885.399	15953
885.524	15972
885.65	15781
885.775	15865
885.9	15884
886.025	15808
886.15	15899
886.275	15625
886.4	15633
886.525	15724
886.65	15739
886.775	15762
886.9	15903
887.025	15975
887.149	15823
887.274	15519
887.399	15515
887.523	15523
887.648	15485
887.773	15496
887.897	15557
888.021	15644
888.146	15523
888.27	15701
888.395	15584
888.519	15530
888.643	15549
888.767	15606
888.891	15515
889.015	15370
889.139	15447
889.263	15268
889.387	15397
889.511	15500
889.635	15492
889.759	15363
889.883	15340
890.006	15321
890.13	15428
890.254	15313
890.377	15283
890.501	15146
890.624	15077
890.748	15173
890.871	15097
890.995	15013
891.118	15047
891.241	15039
891.364	14952
891.488	15180
891.611	14986
891.734	15001
891.857	15173
891.98	14948
892.103	15157
892.226	14952
892.349	14899
892.471	14819
892.594	14979
892.717	15062
892.839	14937
892.962	15017
893.085	15123
893.207	14925
893.33	14887
893.452	14933
893.575	15093
893.697	14944
893.819	15085
893.941	15119
894.064	15066
894.186	14986
894.308	14880
894.43	15127
894.552	15154
894.674	15051
894.796	14929
894.918	14979
895.04	15055
895.161	15146
895.283	14963
895.405	15001
895.526	15051
895.648	15024
895.769	15108
895.891	15043
896.012	15157
896.134	15161
896.255	15230
896.376	15108
896.498	15104
896.619	15230
896.74	15169
896.861	15077
896.982	15454
897.103	15663
897.224	15412
897.345	15340
897.466	15298
897.587	15443
897.708	15542
897.828	15363
897.949	15313
898.07	15294
898.19	15336
898.311	15477
898.431	15370
898.552	15507
898.672	15542
898.792	15519
898.913	15443
899.033	15424
899.153	15302
899.273	15146
899.393	15313
899.513	15386
899.633	15363
899.753	15382
899.873	15370
899.993	15397
900.113	15287
900.232	15344
900.352	15268
900.472	15222
900.591	15161
900.711	15150
900.83	15047
900.95	15302
901.069	15203
901.189	15188
901.308	14868
901.427	14750
901.546	14876
901.665	14876
901.784	14804
901.904	14682
902.023	14655
902.141	14412
902.26	14355
902.379	14488
902.498	14393
902.617	14389
902.735	14434
902.854	14328
902.973	14324
903.091	14035
903.21	14065
903.328	14096
903.446	13986
903.565	13879
903.683	14008
903.801	13811
903.919	13917
904.038	13890
904.156	13727
904.274	13776
904.392	13712
904.51	13700
904.627	13628
904.745	13791
904.863	13693
904.981	13556
905.098	13453
905.216	13468
905.334	13392
905.451	13396
905.569	13373
905.686	13407
905.803	13396
905.921	13308
906.038	13384
906.155	13171
906.272	13118
906.389	13141
906.506	12939
906.623	13034
906.74	13023
906.857	12779
906.974	12867
907.091	13027
907.208	13012
907.324	13015
907.441	12894
907.557	12719
907.674	12738
907.79	12597
907.907	12593
908.023	12741
908.139	12696
908.256	12688
908.372	12578
908.488	12532
908.604	12456
908.72	12391
908.836	12445
908.952	12391
909.068	12437
909.184	12471
909.3	12540
909.415	12555
909.531	12483
909.647	12292
909.762	12232
909.878	12148
909.993	12190
910.108	12144
910.224	12110
910.339	12216
910.454	12072
910.57	12003
910.685	11980
910.8	12235
910.915	12220
911.03	12015
911.145	11912
911.259	11840
911.374	11920
911.489	11889
911.604	11790
911.718	11551
911.833	11585
911.947	11581
912.062	11455
912.176	11589
912.291	11627
912.405	11653
912.519	11821
912.633	11855
912.748	11707
912.862	11680
912.976	11474
913.09	11471
913.204	11425
913.318	11455
913.431	11543
913.545	11558
913.659	11665
913.772	11547
913.886	11414
914	11330
914.113	11459
914.226	11539
914.34	11429
914.453	11326
914.566	11497
914.68	11250
914.793	11315
914.906	11117
915.019	11083
915.132	11083
915.245	11090
915.358	11181
915.47	11174
915.583	11121
915.696	11170
915.809	11307
915.921	11231
916.034	11075
916.146	11033
916.259	10991
916.371	11201
916.483	11124
916.595	10919
916.708	11018
916.82	11155
916.932	10961
917.044	10987
917.156	10987
917.268	10949
917.38	10915
917.491	10911
917.603	10915
917.715	10965
917.826	10972
917.938	10961
918.049	10752
918.161	10839
918.272	11071
918.384	11014
918.495	11003
918.606	10748
918.717	10721
918.828	10809
918.939	10763
919.05	10702
919.161	10771
919.272	10596
919.383	10656
919.494	10858
919.604	11029
919.715	10812
919.826	10774
919.936	10805
920.047	10892
920.157	10828
920.267	10968
920.378	10824
920.488	10797
920.598	10972
920.708	11124
920.818	11010
920.928	11022
921.038	11178
921.148	11174
921.258	10809
921.368	10656
921.477	10679
921.587	10588
921.697	10493
921.806	10607
921.916	10516
922.025	10379
922.134	10333
922.244	10234
922.353	10352
922.462	10188
922.571	10169
922.68	9998
922.789	9991
922.898	10048
923.007	9968
923.116	10067
923.224	10040
923.333	9956
923.442	9869
923.55	9831
923.659	9945
923.767	9956
923.876	9797
923.984	10002
924.092	9759
924.201	9899
924.309	9854
924.417	9831
924.525	9770
924.633	9816
924.741	10752
924.849	9648
924.956	9766
925.064	9591
925.172	9603
925.279	9595
925.387	9625
925.494	9625
925.602	9793
925.709	9751
925.816	9595
925.924	9633
926.031	9728
926.138	9644
926.245	9698
926.352	9587
926.459	9671
926.566	9690
926.673	9549
926.779	9507
926.886	9443
926.993	9268
927.099	9336
927.206	9260
927.312	9310
927.419	9435
927.525	9294
927.631	9370
927.737	9272
927.843	9233
927.95	9058
928.056	9241
928.162	9180
928.267	9226
928.373	9781
928.479	9306
928.585	9001
928.69	9127
928.796	9268
928.901	9097
929.007	8975
929.112	9112
929.218	9154
929.323	9024
929.428	8963
929.533	9100
929.638	8994
929.743	9005
929.848	9081
929.953	9024
930.058	8899
930.163	8811
930.267	8773
930.372	8952
930.477	8804
930.581	9013
930.685	8933
930.79	8659
930.894	8781
930.998	8621
931.103	8815
931.207	8473
931.311	8442
931.415	8408
931.519	8267
931.623	8191
