Data from test_V78500241_2131.txt Node
Date: Fri Mar 25 14:48:33 CST 2022
User: usil
Spectrometer: V785-0024
Trigger mode: 0
Integration Time (sec): 4.000000E-1
Scans to average: 1
Nonlinearity correction enabled: false
Boxcar width: 0
Storing dark spectrum: false
XAxis mode: Wavelengths
Number of Pixels in Spectrum: 1024
>>>>>Begin Spectral Data<<<<<
801.071	22143
801.214	22017
801.356	21781
801.499	21667
801.641	21671
801.783	21500
801.926	21557
802.068	21378
802.211	21363
802.353	21226
802.496	21047
802.638	21119
802.78	20952
802.923	20952
803.065	20716
803.208	20731
803.35	20701
803.492	21001
803.635	21032
803.777	20933
803.919	20834
804.061	21192
804.204	20963
804.346	20815
804.488	20739
804.63	20861
804.773	20689
804.915	20788
805.057	20845
805.199	20716
805.341	20811
805.483	20963
805.626	20857
805.768	20777
805.91	20735
806.052	20792
806.194	20697
806.336	21093
806.478	20788
806.62	20621
806.762	20800
806.904	20914
807.046	21214
807.188	21100
807.33	21051
807.472	20944
807.614	20887
807.756	21055
807.898	20819
808.04	20880
808.182	20693
808.324	20902
808.465	20921
808.607	21051
808.749	21203
808.891	21298
809.033	21306
809.174	21180
809.316	20998
809.458	21192
809.6	21055
809.741	21184
809.883	21272
810.025	21256
810.166	21332
810.308	21275
810.45	21321
810.591	21275
810.733	20994
810.875	20990
811.016	20743
811.158	20864
811.299	20998
811.441	21032
811.582	21028
811.724	20891
811.865	20857
812.007	20826
812.148	20941
812.29	20941
812.431	21058
812.573	21138
812.714	21188
812.855	21412
812.997	21523
813.138	21618
813.279	21431
813.421	21431
813.562	21405
813.703	21077
813.845	21150
813.986	20849
814.127	20621
814.268	20617
814.41	20446
814.551	20480
814.692	20514
814.833	20442
814.974	20423
815.115	20465
815.256	20218
815.397	20298
815.539	20218
815.68	20263
815.821	20191
815.962	20172
816.103	20218
816.244	20046
816.385	19989
816.526	19940
816.666	19708
816.807	19609
816.948	19704
817.089	19791
817.23	19681
817.371	19537
817.512	19601
817.653	19662
817.793	19506
817.934	19563
818.075	19628
818.216	19582
818.356	19632
818.497	19453
818.638	19251
818.778	19263
818.919	19301
819.06	19198
819.2	19411
819.341	19480
819.481	19373
819.622	19635
819.762	19784
819.903	19666
820.043	19616
820.184	19567
820.324	19590
820.465	19613
820.605	19518
820.746	19693
820.886	19480
821.026	19487
821.167	19548
821.307	19628
821.447	19487
821.588	19388
821.728	19301
821.868	19095
822.008	19053
822.149	19065
822.289	18977
822.429	18817
822.569	18722
822.709	18631
822.849	18506
822.99	18437
823.13	18498
823.27	18426
823.41	18361
823.55	18163
823.69	18254
823.83	18247
823.97	18178
824.11	17939
824.25	18041
824.389	18041
824.529	18220
824.669	18019
824.809	18174
824.949	18011
825.089	18148
825.228	18030
825.368	17874
825.508	17722
825.648	17840
825.787	17828
825.927	17752
826.067	17627
826.206	17764
826.346	17920
826.485	17843
826.625	17737
826.765	17958
826.904	17843
827.044	17638
827.183	17581
827.323	17478
827.462	17486
827.601	17554
827.741	17497
827.88	17535
828.02	17330
828.159	17528
828.298	17467
828.437	17619
828.577	17440
828.716	17680
828.855	17452
828.994	17330
829.134	17296
829.273	17216
829.412	17216
829.551	17189
829.69	17208
829.829	17250
829.968	17337
830.107	17239
830.246	17334
830.385	17204
830.524	17223
830.663	17132
830.802	17056
830.941	16862
831.08	16877
831.219	16889
831.357	16980
831.496	17121
831.635	16847
831.774	16729
831.913	16801
832.051	16687
832.19	16675
832.329	16752
832.467	16698
832.606	16546
832.744	16721
832.883	16626
833.022	16542
833.16	16546
833.299	16603
833.437	16645
833.576	16626
833.714	16531
833.852	16691
833.991	16588
834.129	16702
834.267	16656
834.406	16558
834.544	16740
834.682	16645
834.821	16649
834.959	16752
835.097	16538
835.235	16649
835.373	16645
835.511	16679
835.65	16485
835.788	16535
835.926	16462
836.064	16382
836.202	16398
836.34	16527
836.478	16679
836.615	16462
836.753	16497
836.891	16637
837.029	16542
837.167	16508
837.305	16466
837.443	16390
837.58	16497
837.718	16436
837.856	16428
837.993	16424
838.131	16341
838.269	16352
838.406	16318
838.544	16238
838.681	16162
838.819	16093
838.956	15987
839.094	15888
839.231	15991
839.369	16124
839.506	16318
839.643	16166
839.781	16036
839.918	15922
840.055	15983
840.193	15949
840.33	15880
840.467	15918
840.604	15888
840.742	16284
840.879	15823
841.016	15903
841.153	15899
841.29	15956
841.427	15937
841.564	15994
841.701	16006
841.838	15892
841.975	15884
842.112	15895
842.249	15766
842.385	15770
842.522	15941
842.659	15759
842.796	15705
842.933	15675
843.069	15603
843.206	15656
843.343	15774
843.479	15671
843.616	15880
843.752	15488
843.889	15515
844.025	15648
844.162	15557
844.298	15633
844.435	15591
844.571	15469
844.708	15576
844.844	15682
844.98	15679
845.117	15614
845.253	15473
845.389	15355
845.525	15443
845.661	15420
845.798	15222
845.934	15336
846.07	15252
846.206	15374
846.342	15466
846.478	15332
846.614	15089
846.75	15074
846.886	15085
847.022	15131
847.158	15024
847.294	15119
847.429	15085
847.565	15123
847.701	15378
847.837	14811
847.972	14743
848.108	14941
848.244	14910
848.379	14815
848.515	14583
848.65	14640
848.786	14667
848.921	14724
849.057	14769
849.192	14823
849.328	14769
849.463	14720
849.598	14587
849.734	14560
849.869	14530
850.004	14442
850.14	14396
850.275	14476
850.41	14415
850.545	14374
850.68	14427
850.815	14427
850.95	14469
851.085	14640
851.22	14549
851.355	14465
851.49	14381
851.625	14343
851.76	14431
851.895	14355
852.03	14286
852.165	14480
852.299	14389
852.434	14545
852.569	14446
852.703	14419
852.838	14507
852.973	14556
853.107	14514
853.242	14423
853.376	14385
853.511	14183
853.645	14282
853.78	14442
853.914	14309
854.048	14229
854.183	14225
854.317	14294
854.451	14431
854.585	14275
854.72	14271
854.854	14370
854.988	14225
855.122	14332
855.256	14214
855.39	14282
855.524	14412
855.658	14305
855.792	14240
855.926	14389
856.06	14370
856.194	14446
856.327	14286
856.461	14225
856.595	14347
856.729	14229
856.862	14465
856.996	14221
857.13	14446
857.263	14442
857.397	14332
857.53	14298
857.664	14423
857.797	14442
857.931	14438
858.064	14358
858.197	14385
858.331	14237
858.464	14294
858.597	14206
858.731	14240
858.864	14256
858.997	14366
859.13	14351
859.263	14313
859.396	14320
859.529	14343
859.662	14256
859.795	14248
859.928	14347
860.061	14450
860.194	14427
860.327	14328
860.46	14290
860.592	14454
860.725	14385
860.858	14415
860.99	14324
861.123	14229
861.256	14290
861.388	14271
861.521	14941
861.653	14218
861.786	14149
861.918	14199
862.05	14229
862.183	14206
862.315	14282
862.447	14385
862.58	14225
862.712	14046
862.844	14050
862.976	14161
863.108	14176
863.24	14457
863.372	14039
863.504	14119
863.636	14081
863.768	14149
863.9	14153
864.032	14001
864.164	13978
864.296	14130
864.428	14214
864.559	14282
864.691	14100
864.823	14153
864.954	14103
865.086	14145
865.217	14115
865.349	13997
865.48	14134
865.612	14058
865.743	14244
865.875	14081
866.006	14012
866.137	14107
866.269	13963
866.4	14088
866.531	14069
866.662	13997
866.793	14123
866.924	14092
867.055	14123
867.186	14081
867.317	13989
867.448	13883
867.579	14035
867.71	14043
867.841	13997
867.972	14183
868.103	14096
868.233	14107
868.364	14115
868.495	14138
868.625	14336
868.756	14339
868.886	14202
869.017	14339
869.147	14495
869.278	14400
869.408	14362
869.539	14267
869.669	14400
869.799	14396
869.929	14423
870.06	14400
870.19	14594
870.32	14632
870.45	14667
870.58	14762
870.71	14849
870.84	14796
870.97	14678
871.1	14686
871.23	14925
871.36	14891
871.489	14804
871.619	14906
871.749	14773
871.879	14857
872.008	15070
872.138	14956
872.267	14941
872.397	14826
872.526	14724
872.656	14746
872.785	14788
872.915	14918
873.044	15112
873.173	14944
873.303	15005
873.432	15093
873.561	15013
873.69	14975
873.819	14998
873.948	15081
874.077	15005
874.206	14941
874.335	14944
874.464	15100
874.593	15298
874.722	15226
874.851	15268
874.979	15264
875.108	15321
875.237	15233
875.365	15169
875.494	15249
875.623	15336
875.751	15287
875.88	15378
876.008	15481
876.136	15564
876.265	15671
876.393	15816
876.521	15808
876.65	15835
876.778	15709
876.906	15610
877.034	15603
877.162	15667
877.29	15641
877.418	15618
877.546	15648
877.674	15732
877.802	15717
877.93	15618
878.058	15671
878.185	15439
878.313	15633
878.441	15656
878.568	15591
878.696	15526
878.824	15808
878.951	15808
879.079	15884
879.206	15994
879.333	15895
879.461	15865
879.588	15755
879.715	15975
879.842	15934
879.97	15720
880.097	15553
880.224	15515
880.351	15557
880.478	15553
880.605	15458
880.732	15496
880.859	15838
880.986	15504
881.112	15477
881.239	15443
881.366	15317
881.493	15317
881.619	15146
881.746	15233
881.872	15222
881.999	15161
882.125	15142
882.252	15355
882.378	15222
882.505	15336
882.631	15192
882.757	15070
882.883	15112
883.01	15032
883.136	15005
883.262	14872
883.388	14891
883.514	14963
883.64	15097
883.766	14982
883.892	14815
884.018	14967
884.143	15142
884.269	15176
884.395	14807
884.52	14667
884.646	14743
884.772	14617
884.897	14522
885.023	14716
885.148	14861
885.274	14864
885.399	14781
885.524	14705
885.65	14731
885.775	14735
885.9	14796
886.025	14921
886.15	14800
886.275	14735
886.4	14648
886.525	14773
886.65	14648
886.775	14598
886.9	14876
887.025	14948
887.149	14754
887.274	14564
887.399	14488
887.523	14514
887.648	14545
887.773	14480
887.897	14693
888.021	14598
888.146	14457
888.27	14469
888.395	14621
888.519	14632
888.643	14625
888.767	14602
888.891	14518
889.015	14374
889.139	14385
889.263	14404
889.387	14495
889.511	14598
889.635	14594
889.759	14396
889.883	14370
890.006	14484
890.13	14518
890.254	14427
890.377	14328
890.501	14176
890.624	14301
890.748	14252
890.871	14058
890.995	14092
891.118	14020
891.241	14012
891.364	14084
891.488	14229
891.611	14050
891.734	14248
891.857	14206
891.98	14092
892.103	14164
892.226	14210
892.349	14046
892.471	13860
892.594	14164
892.717	14168
892.839	14149
892.962	14157
893.085	14180
893.207	14054
893.33	14020
893.452	13974
893.575	14168
893.697	14180
893.819	14229
893.941	14225
894.064	14309
894.186	14130
894.308	14050
894.43	14263
894.552	14339
894.674	14298
894.796	14149
894.918	14218
895.04	14100
895.161	14290
895.283	14267
895.405	14202
895.526	14145
895.648	14180
895.769	14301
895.891	14339
896.012	14294
896.134	14282
896.255	14309
896.376	14275
896.498	14282
896.619	14370
896.74	14195
896.861	14301
896.982	14610
897.103	14777
897.224	14667
897.345	14560
897.466	14446
897.587	14488
897.708	14792
897.828	14720
897.949	14454
898.07	14541
898.19	14511
898.311	14765
898.431	14552
898.552	14701
898.672	14693
898.792	14739
898.913	14689
899.033	14533
899.153	14480
899.273	14343
899.393	14495
899.513	14488
899.633	14583
899.753	14533
899.873	14484
899.993	14552
900.113	14511
900.232	14450
900.352	14499
900.472	14438
900.591	14381
900.711	14522
900.83	14336
900.95	14431
901.069	14457
901.189	14370
901.308	14229
901.427	14020
901.546	13997
901.665	14062
901.784	14092
901.904	13951
902.023	13913
902.141	13719
902.26	13662
902.379	13761
902.498	13605
902.617	13533
902.735	13582
902.854	13552
902.973	13651
903.091	13297
903.21	13354
903.328	13350
903.446	13266
903.565	13198
903.683	13152
903.801	13133
903.919	13225
904.038	13168
904.156	13046
904.274	13046
904.392	12932
904.51	12894
904.627	13004
904.745	12973
904.863	13046
904.981	12768
905.098	12620
905.216	12544
905.334	12764
905.451	12677
905.569	12654
905.686	12696
905.803	12703
905.921	12525
906.038	12540
906.155	12521
906.272	12422
906.389	12460
906.506	12224
906.623	12254
906.74	12270
906.857	12091
906.974	12117
907.091	12285
907.208	12464
907.324	12308
907.441	12171
907.557	11965
907.674	12041
907.79	11908
907.907	11996
908.023	12064
908.139	12053
908.256	11942
908.372	11984
908.488	11817
908.604	11767
908.72	11836
908.836	11882
908.952	11752
909.068	11878
909.184	11843
909.3	11813
909.415	11847
909.531	11809
909.647	11505
909.762	11627
909.878	11539
909.993	11604
910.108	11516
910.224	11543
910.339	11524
910.454	11463
910.57	11410
910.685	11364
910.8	11589
910.915	11604
911.03	11383
911.145	11280
911.259	11220
911.374	11227
911.489	11204
911.604	11174
911.718	10987
911.833	11014
911.947	10942
912.062	10835
912.176	10980
912.291	11079
912.405	10995
912.519	11220
912.633	11231
912.748	11143
912.862	11041
912.976	10919
913.09	10774
913.204	10881
913.318	10892
913.431	11022
913.545	10835
913.659	11041
913.772	10881
913.886	10774
914	10725
914.113	10816
914.226	10873
914.34	10858
914.453	10748
914.566	10850
914.68	10755
914.793	10790
914.906	10462
915.019	10436
915.132	10379
915.245	10535
915.358	10519
915.47	10493
915.583	10550
915.696	10558
915.809	10691
915.921	10679
916.034	10531
916.146	10459
916.259	10436
916.371	10561
916.483	10622
916.595	10356
916.708	10424
916.82	10428
916.932	10470
917.044	10379
917.156	10386
917.268	10284
917.38	10367
917.491	10291
917.603	10329
917.715	10443
917.826	10428
917.938	10375
918.049	10242
918.161	10356
918.272	10481
918.384	10394
918.495	10333
918.606	10253
918.717	10139
918.828	10261
918.939	10234
919.05	10227
919.161	10257
919.272	10017
919.383	10093
919.494	10246
919.604	10356
919.715	10272
919.826	10059
919.936	10139
920.047	10325
920.157	10268
920.267	10508
920.378	10352
920.488	10211
920.598	10379
920.708	10538
920.818	10386
920.928	10436
921.038	10508
921.148	10588
921.258	10299
921.368	10188
921.477	10120
921.587	10082
921.697	10025
921.806	10067
921.916	9930
922.025	9842
922.134	9747
922.244	9770
922.353	9857
922.462	9743
922.571	9580
922.68	9519
922.789	9443
922.898	9519
923.007	9431
923.116	9576
923.224	9443
923.333	9447
923.442	9428
923.55	9260
923.659	9408
923.767	9439
923.876	9363
923.984	9485
924.092	9249
924.201	9336
924.309	9344
924.417	9340
924.525	9321
924.633	9313
924.741	10253
924.849	9116
924.956	9317
925.064	9135
925.172	9093
925.279	9104
925.387	9218
925.494	9150
925.602	9317
925.709	9268
925.816	9085
925.924	9188
926.031	9218
926.138	9192
926.245	9192
926.352	9066
926.459	9142
926.566	9260
926.673	9047
926.779	9036
926.886	8990
926.993	8811
927.099	8826
927.206	8792
927.312	8857
927.419	8914
927.525	8769
927.631	8986
927.737	8807
927.843	8712
927.95	8636
928.056	8766
928.162	8754
928.267	8807
928.373	9332
928.479	8861
928.585	8613
928.69	8735
928.796	8804
928.901	8651
929.007	8514
929.112	8678
929.218	8731
929.323	8568
929.428	8533
929.533	8720
929.638	8549
929.743	8537
929.848	8636
929.953	8549
930.058	8492
930.163	8336
930.267	8336
930.372	8412
930.477	8267
930.581	8556
930.685	8457
930.79	8252
930.894	8324
930.998	8259
931.103	8473
931.207	8092
931.311	7963
931.415	7993
931.519	7795
931.623	7738
