Data from test_V78500241_3420.txt Node
Date: Fri Mar 25 14:57:31 CST 2022
User: usil
Spectrometer: V785-0024
Trigger mode: 0
Integration Time (sec): 4.000000E-1
Scans to average: 1
Nonlinearity correction enabled: false
Boxcar width: 0
Storing dark spectrum: false
XAxis mode: Wavelengths
Number of Pixels in Spectrum: 1024
>>>>>Begin Spectral Data<<<<<
801.071	21774
801.214	21854
801.356	21557
801.499	21618
801.641	21321
801.783	21275
801.926	21500
802.068	21256
802.211	21298
802.353	21116
802.496	20933
802.638	20899
802.78	20788
802.923	20629
803.065	20613
803.208	20659
803.35	20682
803.492	20758
803.635	20826
803.777	20655
803.919	20617
804.061	21020
804.204	20682
804.346	20609
804.488	20629
804.63	20587
804.773	20568
804.915	20583
805.057	20648
805.199	20476
805.341	20571
805.483	20606
805.626	20507
805.768	20648
805.91	20613
806.052	20545
806.194	20408
806.336	20769
806.478	20476
806.62	20488
806.762	20640
806.904	20697
807.046	20944
807.188	20815
807.33	20857
807.472	20952
807.614	20716
807.756	20758
807.898	20594
808.04	20552
808.182	20644
808.324	20686
808.465	20716
808.607	20754
808.749	20826
808.891	20823
809.033	21161
809.174	21024
809.316	20750
809.458	20785
809.6	20925
809.741	21100
809.883	20910
810.025	21116
810.166	20960
810.308	21077
810.45	20979
810.591	20941
810.733	20739
810.875	20693
811.016	20549
811.158	20636
811.299	20571
811.441	20746
811.582	20762
811.724	20636
811.865	20598
812.007	20575
812.148	20552
812.29	20621
812.431	20849
812.573	21013
812.714	20986
812.855	21077
812.997	21218
813.138	21344
813.279	21268
813.421	21135
813.562	21146
813.703	20868
813.845	20743
813.986	20522
814.127	20408
814.268	20240
814.41	20210
814.551	20157
814.692	20206
814.833	20081
814.974	20244
815.115	20240
815.256	20012
815.397	20103
815.539	20039
815.68	20005
815.821	19814
815.962	20005
816.103	19871
816.244	19765
816.385	19655
816.526	19632
816.666	19518
816.807	19278
816.948	19533
817.089	19407
817.23	19426
817.371	19304
817.512	19206
817.653	19293
817.793	19251
817.934	19304
818.075	19396
818.216	19343
818.356	19285
818.497	19122
818.638	19019
818.778	19023
818.919	19057
819.06	19129
819.2	19141
819.341	19232
819.481	19247
819.622	19324
819.762	19403
819.903	19586
820.043	19316
820.184	19304
820.324	19217
820.465	19400
820.605	19354
820.746	19285
820.886	19183
821.026	19202
821.167	19141
821.307	19335
821.447	19183
821.588	19145
821.728	18985
821.868	18817
822.008	18719
822.149	18677
822.289	18711
822.429	18479
822.569	18346
822.709	18464
822.849	18266
822.99	18220
823.13	18281
823.27	18136
823.41	17958
823.55	17950
823.69	17942
823.83	17969
823.97	17920
824.11	17950
824.25	17775
824.389	17832
824.529	17885
824.669	17767
824.809	17859
824.949	17908
825.089	17851
825.228	17707
825.368	17619
825.508	17532
825.648	17558
825.787	17634
825.927	17596
826.067	17512
826.206	17623
826.346	17547
826.485	17501
826.625	17581
826.765	17672
826.904	17608
827.044	17231
827.183	17254
827.323	17155
827.462	17265
827.601	17284
827.741	17181
827.88	17311
828.02	17189
828.159	17254
828.298	17280
828.437	17353
828.577	17200
828.716	17391
828.855	17204
828.994	17006
829.134	17060
829.273	17098
829.412	17014
829.551	16892
829.69	17018
829.829	17117
829.968	16984
830.107	17140
830.246	16987
830.385	17037
830.524	17006
830.663	16896
830.802	16687
830.941	16599
831.08	16660
831.219	16660
831.357	16812
831.496	16786
831.635	16679
831.774	16611
831.913	16519
832.051	16371
832.19	16356
832.329	16421
832.467	16360
832.606	16280
832.744	16363
832.883	16428
833.022	16291
833.16	16295
833.299	16329
833.437	16421
833.576	16375
833.714	16329
833.852	16390
833.991	16516
834.129	16550
834.267	16371
834.406	16405
834.544	16466
834.682	16493
834.821	16318
834.959	16512
835.097	16421
835.235	16451
835.373	16390
835.511	16371
835.65	16268
835.788	16303
835.926	16204
836.064	16135
836.202	16105
836.34	16295
836.478	16360
836.615	16276
836.753	16253
836.891	16337
837.029	16356
837.167	16211
837.305	16265
837.443	16257
837.58	16093
837.718	16249
837.856	16200
837.993	16166
838.131	16200
838.269	16086
838.406	16150
838.544	16048
838.681	15949
838.819	15880
838.956	15755
839.094	15682
839.231	15816
839.369	15922
839.506	16158
839.643	16067
839.781	15774
839.918	15564
840.055	15842
840.193	15713
840.33	15739
840.467	15793
840.604	15762
840.742	16017
840.879	15599
841.016	15675
841.153	15675
841.29	15846
841.427	15819
841.564	15759
841.701	15804
841.838	15819
841.975	15705
842.112	15701
842.249	15656
842.385	15477
842.522	15701
842.659	15580
842.796	15397
842.933	15568
843.069	15553
843.206	15515
843.343	15549
843.479	15587
843.616	15492
843.752	15340
843.889	15329
844.025	15553
844.162	15294
844.298	15401
844.435	15329
844.571	15306
844.708	15332
844.844	15561
844.98	15587
845.117	15431
845.253	15249
845.389	15252
845.525	15222
845.661	15218
845.798	15165
845.934	15226
846.07	15104
846.206	15176
846.342	15359
846.478	15074
846.614	14952
846.75	14853
846.886	14929
847.022	14990
847.158	14952
847.294	14963
847.429	14944
847.565	14891
847.701	15127
847.837	14552
847.972	14621
848.108	14765
848.244	14765
848.379	14507
848.515	14381
848.65	14465
848.786	14488
848.921	14484
849.057	14598
849.192	14598
849.328	14575
849.463	14682
849.598	14450
849.734	14438
849.869	14431
850.004	14339
850.14	14377
850.275	14252
850.41	14115
850.545	14149
850.68	14347
850.815	14298
850.95	14244
851.085	14465
851.22	14434
851.355	14267
851.49	14191
851.625	14187
851.76	14259
851.895	14123
852.03	14142
852.165	14214
852.299	14347
852.434	14404
852.569	14275
852.703	14225
852.838	14339
852.973	14358
853.107	14317
853.242	14218
853.376	14103
853.511	14073
853.645	14081
853.78	14176
853.914	14149
854.048	14016
854.183	14077
854.317	14187
854.451	14301
854.585	14115
854.72	14084
854.854	14229
854.988	14096
855.122	14100
855.256	14039
855.39	14123
855.524	14294
855.658	14161
855.792	14130
855.926	14202
856.06	14183
856.194	14324
856.327	14153
856.461	14100
856.595	14008
856.729	14153
856.862	14256
856.996	14126
857.13	14183
857.263	14233
857.397	14248
857.53	14062
857.664	14248
857.797	14164
857.931	14195
858.064	14275
858.197	14210
858.331	14092
858.464	14103
858.597	14035
858.731	14088
858.864	14069
858.997	14168
859.13	14153
859.263	14077
859.396	14199
859.529	14119
859.662	14119
859.795	14065
859.928	14183
860.061	14339
860.194	14259
860.327	14164
860.46	14134
860.592	14256
860.725	14275
860.858	14221
860.99	14096
861.123	14012
861.256	14134
861.388	14202
861.521	14883
861.653	13997
861.786	13993
861.918	14054
862.05	14081
862.183	14100
862.315	14130
862.447	14240
862.58	14008
862.712	13997
862.844	13913
862.976	13986
863.108	13951
863.24	14275
863.372	13852
863.504	13883
863.636	13856
863.768	13955
863.9	13997
864.032	13856
864.164	13913
864.296	13913
864.428	14035
864.559	13894
864.691	13978
864.823	13909
864.954	13940
865.086	13890
865.217	13856
865.349	13818
865.48	13917
865.612	13837
865.743	13989
865.875	13902
866.006	13852
866.137	13909
866.269	13902
866.4	13944
866.531	13807
866.662	13738
866.793	13807
866.924	13879
867.055	13875
867.186	13906
867.317	13811
867.448	13788
867.579	13947
867.71	13849
867.841	13845
867.972	13913
868.103	13883
868.233	13776
868.364	13849
868.495	13982
868.625	14161
868.756	14210
868.886	14100
869.017	14126
869.147	14244
869.278	14290
869.408	14176
869.539	14199
869.669	14218
869.799	14221
869.929	14259
870.06	14210
870.19	14454
870.32	14423
870.45	14552
870.58	14495
870.71	14602
870.84	14625
870.97	14530
871.1	14590
871.23	14701
871.36	14720
871.489	14651
871.619	14727
871.749	14750
871.879	14842
872.008	14849
872.138	14697
872.267	14754
872.397	14701
872.526	14552
872.656	14533
872.785	14564
872.915	14861
873.044	14804
873.173	14754
873.303	14872
873.432	14830
873.561	14842
873.69	14815
873.819	14773
873.948	14857
874.077	14758
874.206	14796
874.335	14830
874.464	14933
874.593	14990
874.722	15058
874.851	15150
874.979	15066
875.108	15135
875.237	15135
875.365	14998
875.494	15138
875.623	15195
875.751	14982
875.88	15226
876.008	15408
876.136	15317
876.265	15488
876.393	15739
876.521	15641
876.65	15610
876.778	15557
876.906	15481
877.034	15580
877.162	15447
877.29	15488
877.418	15431
877.546	15549
877.674	15507
877.802	15591
877.93	15572
878.058	15542
878.185	15412
878.313	15500
878.441	15526
878.568	15416
878.696	15435
878.824	15698
878.951	15572
879.079	15671
879.206	15846
879.333	15800
879.461	15564
879.588	15747
879.715	15663
879.842	15831
879.97	15591
880.097	15428
880.224	15256
880.351	15397
880.478	15447
880.605	15382
880.732	15386
880.859	15652
880.986	15424
881.112	15363
881.239	15325
881.366	15176
881.493	15066
881.619	14986
881.746	15138
881.872	15077
881.999	15055
882.125	15055
882.252	15104
882.378	15184
882.505	15100
882.631	14963
882.757	14781
882.883	14979
883.01	14826
883.136	14785
883.262	14678
883.388	14693
883.514	14883
883.64	14994
883.766	14785
883.892	14705
884.018	14750
884.143	14845
884.269	14914
884.395	14678
884.52	14545
884.646	14575
884.772	14511
884.897	14370
885.023	14533
885.148	14651
885.274	14731
885.399	14606
885.524	14560
885.65	14511
885.775	14617
885.9	14564
886.025	14701
886.15	14697
886.275	14522
886.4	14552
886.525	14514
886.65	14450
886.775	14454
886.9	14663
887.025	14830
887.149	14560
887.274	14438
887.399	14404
887.523	14362
887.648	14347
887.773	14282
887.897	14442
888.021	14560
888.146	14385
888.27	14442
888.395	14556
888.519	14526
888.643	14480
888.767	14442
888.891	14343
889.015	14263
889.139	14309
889.263	14248
889.387	14389
889.511	14514
889.635	14305
889.759	14187
889.883	14317
890.006	14301
890.13	14358
890.254	14134
890.377	14275
890.501	13974
890.624	14008
890.748	14050
890.871	14005
890.995	13909
891.118	13879
891.241	14008
891.364	13932
891.488	14115
891.611	13913
891.734	13944
891.857	14081
891.98	14039
892.103	14043
892.226	14035
892.349	13951
892.471	13811
892.594	13978
892.717	14035
892.839	14008
892.962	13974
893.085	14069
893.207	13989
893.33	13795
893.452	13875
893.575	14039
893.697	13978
893.819	14142
893.941	14191
894.064	14145
894.186	13944
894.308	13909
894.43	14096
894.552	14172
894.674	14092
894.796	14020
894.918	13989
895.04	14043
895.161	14107
895.283	14103
895.405	13936
895.526	14077
895.648	14001
895.769	14240
895.891	14221
896.012	14187
896.134	14168
896.255	14256
896.376	14050
896.498	14134
896.619	14225
896.74	14046
896.861	14229
896.982	14473
897.103	14701
897.224	14465
897.345	14495
897.466	14324
897.587	14434
897.708	14625
897.828	14495
897.949	14358
898.07	14248
898.19	14415
898.311	14537
898.431	14492
898.552	14465
898.672	14549
898.792	14727
898.913	14530
899.033	14461
899.153	14271
899.273	14309
899.393	14351
899.513	14511
899.633	14294
899.753	14313
899.873	14328
899.993	14370
900.113	14320
900.232	14381
900.352	14400
900.472	14218
900.591	14187
900.711	14191
900.83	14111
900.95	14332
901.069	14328
901.189	14123
901.308	14008
901.427	13833
901.546	13917
901.665	13944
901.784	13932
901.904	13769
902.023	13624
902.141	13491
902.26	13460
902.379	13506
902.498	13460
902.617	13419
902.735	13578
902.854	13460
902.973	13343
903.091	13160
903.21	13091
903.328	13175
903.446	13095
903.565	13038
903.683	13057
903.801	12894
903.919	12985
904.038	13000
904.156	12779
904.274	12947
904.392	12894
904.51	12867
904.627	12894
904.745	13004
904.863	12951
904.981	12623
905.098	12589
905.216	12582
905.334	12547
905.451	12589
905.569	12555
905.686	12608
905.803	12506
905.921	12433
906.038	12445
906.155	12391
906.272	12292
906.389	12357
906.506	12148
906.623	12251
906.74	12083
906.857	12022
906.974	12117
907.091	12159
907.208	12311
907.324	12205
907.441	12095
907.557	11935
907.674	11912
907.79	11790
907.907	11878
908.023	11897
908.139	11923
908.256	11840
908.372	11824
908.488	11779
908.604	11638
908.72	11627
908.836	11741
908.952	11585
909.068	11676
909.184	11767
909.3	11703
909.415	11714
909.531	11596
909.647	11436
909.762	11433
909.878	11360
909.993	11429
910.108	11414
910.224	11429
910.339	11341
910.454	11288
910.57	11349
910.685	11204
910.8	11471
910.915	11474
911.03	11277
911.145	11151
911.259	11064
911.374	11181
911.489	11083
911.604	10976
911.718	10942
911.833	10927
911.947	10812
912.062	10717
912.176	10896
912.291	10843
912.405	10881
912.519	11060
912.633	11033
912.748	10965
912.862	10896
912.976	10702
913.09	10740
913.204	10710
913.318	10679
913.431	10923
913.545	10824
913.659	10900
913.772	10759
913.886	10687
914	10611
914.113	10755
914.226	10858
914.34	10782
914.453	10603
914.566	10778
914.68	10634
914.793	10645
914.906	10413
915.019	10360
915.132	10306
915.245	10375
915.358	10409
915.47	10451
915.583	10390
915.696	10413
915.809	10561
915.921	10550
916.034	10440
916.146	10363
916.259	10333
916.371	10402
916.483	10390
916.595	10322
916.708	10386
916.82	10375
916.932	10363
917.044	10287
917.156	10329
917.268	10207
917.38	10227
917.491	10272
917.603	10227
917.715	10367
917.826	10367
917.938	10242
918.049	10097
918.161	10181
918.272	10360
918.384	10382
918.495	10291
918.606	10131
918.717	10082
918.828	10131
918.939	10154
919.05	10093
919.161	10124
919.272	9941
919.383	9949
919.494	10162
919.604	10310
919.715	10162
919.826	10090
919.936	10051
920.047	10188
920.157	10249
920.267	10337
920.378	10204
920.488	10185
920.598	10379
920.708	10417
920.818	10367
920.928	10356
921.038	10500
921.148	10417
921.258	10219
921.368	10040
921.477	10032
921.587	10021
921.697	9865
921.806	10055
921.916	9892
922.025	9781
922.134	9770
922.244	9580
922.353	9724
922.462	9591
922.571	9545
922.68	9355
922.789	9340
922.898	9408
923.007	9359
923.116	9469
923.224	9348
923.333	9382
923.442	9256
923.55	9287
923.659	9317
923.767	9321
923.876	9173
923.984	9268
924.092	9195
924.201	9302
924.309	9306
924.417	9237
924.525	9138
924.633	9233
924.741	10139
924.849	9005
924.956	9138
925.064	9028
925.172	8975
925.279	9036
925.387	8998
925.494	8986
925.602	9180
925.709	9119
925.816	8975
925.924	9051
926.031	9180
926.138	8990
926.245	9089
926.352	8990
926.459	9150
926.566	9157
926.673	9055
926.779	8914
926.886	8891
926.993	8739
927.099	8731
927.206	8750
927.312	8689
927.419	8845
927.525	8746
927.631	8769
927.737	8705
927.843	8693
927.95	8518
928.056	8621
928.162	8712
928.267	8807
928.373	9340
928.479	8792
928.585	8526
928.69	8640
928.796	8731
928.901	8541
929.007	8492
929.112	8564
929.218	8571
929.323	8514
929.428	8476
929.533	8636
929.638	8476
929.743	8476
929.848	8526
929.953	8495
930.058	8396
930.163	8290
930.267	8275
930.372	8389
930.477	8240
930.581	8556
930.685	8358
930.79	8176
930.894	8218
930.998	8191
931.103	8317
931.207	8069
931.311	7936
931.415	7932
931.519	7712
931.623	7734
