Data from test_V78500241_964.txt Node
Date: Fri Mar 25 14:40:25 CST 2022
User: usil
Spectrometer: V785-0024
Trigger mode: 0
Integration Time (sec): 4.000000E-1
Scans to average: 1
Nonlinearity correction enabled: false
Boxcar width: 0
Storing dark spectrum: false
XAxis mode: Wavelengths
Number of Pixels in Spectrum: 1024
>>>>>Begin Spectral Data<<<<<
801.071	23455
801.214	23379
801.356	23113
801.499	23041
801.641	22946
801.783	22938
801.926	22816
802.068	22691
802.211	22694
802.353	22618
802.496	22428
802.638	22424
802.78	22246
802.923	22284
803.065	22116
803.208	22090
803.35	22150
803.492	22223
803.635	22352
803.777	22158
803.919	22253
804.061	22542
804.204	22337
804.346	22192
804.488	22067
804.63	22116
804.773	22059
804.915	22093
805.057	22272
805.199	22101
805.341	22238
805.483	22215
805.626	22226
805.768	22093
805.91	22200
806.052	22207
806.194	22112
806.336	22504
806.478	22230
806.62	22128
806.762	22291
806.904	22527
807.046	22645
807.188	22691
807.33	22691
807.472	22767
807.614	22744
807.756	22881
807.898	22942
808.04	22961
808.182	23083
808.324	23288
808.465	23657
808.607	24110
808.749	24433
808.891	24616
809.033	24646
809.174	24433
809.316	23954
809.458	23813
809.6	23577
809.741	23360
809.883	23136
810.025	23174
810.166	23197
810.308	22999
810.45	22942
810.591	22862
810.733	22687
810.875	22577
811.016	22375
811.158	22489
811.299	22637
811.441	22561
811.582	22489
811.724	22447
811.865	22424
812.007	22398
812.148	22466
812.29	22516
812.431	22508
812.573	22679
812.714	22713
812.855	22885
812.997	23018
813.138	22961
813.279	22923
813.421	22946
813.562	22816
813.703	22622
813.845	22557
813.986	22238
814.127	21983
814.268	21998
814.41	22002
814.551	21857
814.692	22059
814.833	21747
814.974	21762
815.115	21880
815.256	21682
815.397	21686
815.539	21705
815.68	21660
815.821	21504
815.962	21717
816.103	21641
816.244	21492
816.385	21279
816.526	21317
816.666	21096
816.807	20986
816.948	21100
817.089	21211
817.23	21058
817.371	21127
817.512	21017
817.653	21017
817.793	20933
817.934	20929
818.075	21005
818.216	21020
818.356	20899
818.497	20929
818.638	20644
818.778	20788
818.919	20773
819.06	20735
819.2	20864
819.341	20868
819.481	20906
819.622	20952
819.762	21199
819.903	21157
820.043	21138
820.184	20944
820.324	20944
820.465	21024
820.605	21009
820.746	20929
820.886	20773
821.026	21047
821.167	20982
821.307	21062
821.447	20826
821.588	20792
821.728	20590
821.868	20511
822.008	20389
822.149	20370
822.289	20381
822.429	20119
822.569	20008
822.709	20024
822.849	19776
822.99	19822
823.13	19738
823.27	19700
823.41	19616
823.55	19613
823.69	19662
823.83	19628
823.97	19605
824.11	19411
824.25	19354
824.389	19373
824.529	19468
824.669	19453
824.809	19529
824.949	19457
825.089	19499
825.228	19358
825.368	19179
825.508	19278
825.648	19232
825.787	19274
825.927	19156
826.067	19160
826.206	19168
826.346	19236
826.485	19179
826.625	19152
826.765	19285
826.904	19244
827.044	18954
827.183	18947
827.323	18829
827.462	18905
827.601	18779
827.741	18810
827.88	18989
828.02	18745
828.159	18871
828.298	18916
828.437	18916
828.577	18829
828.716	18939
828.855	18688
828.994	18593
829.134	18509
829.273	18544
829.412	18570
829.551	18623
829.69	18521
829.829	18563
829.968	18582
830.107	18692
830.246	18513
830.385	18639
830.524	18486
830.663	18486
830.802	18437
830.941	18266
831.08	18289
831.219	18289
831.357	18205
831.496	18334
831.635	18224
831.774	18140
831.913	18228
832.051	17988
832.19	18053
832.329	18057
832.467	17904
832.606	17958
832.744	17813
832.883	17965
833.022	17843
833.16	17999
833.299	18007
833.437	17935
833.576	17999
833.714	17996
833.852	18072
833.991	17954
834.129	18079
834.267	18041
834.406	18053
834.544	18022
834.682	17992
834.821	17965
834.959	18087
835.097	18019
835.235	18121
835.373	17977
835.511	18121
835.65	17882
835.788	17798
835.926	17714
836.064	17585
836.202	17665
836.34	17939
836.478	17889
836.615	17775
836.753	17882
836.891	17813
837.029	17912
837.167	17729
837.305	17809
837.443	17745
837.58	17676
837.718	17703
837.856	17722
837.993	17638
838.131	17577
838.269	17615
838.406	17596
838.544	17547
838.681	17356
838.819	17299
838.956	17235
839.094	17296
839.231	17216
839.369	17478
839.506	17581
839.643	17429
839.781	17269
839.918	17143
840.055	17124
840.193	17124
840.33	17166
840.467	17170
840.604	17166
840.742	17356
840.879	17033
841.016	17098
841.153	17105
841.29	17364
841.427	17181
841.564	17136
841.701	17094
841.838	17056
841.975	17010
842.112	17170
842.249	17006
842.385	16987
842.522	17174
842.659	17003
842.796	16885
842.933	16984
843.069	16976
843.206	16889
843.343	16968
843.479	16938
843.616	16995
843.752	16755
843.889	16759
844.025	16949
844.162	16748
844.298	16896
844.435	16774
844.571	16759
844.708	16850
844.844	16980
844.98	17052
845.117	16896
845.253	16892
845.389	16938
845.525	17360
845.661	17767
845.798	18167
845.934	18791
846.07	18829
846.206	18875
846.342	18673
846.478	17969
846.614	17311
846.75	16748
846.886	16626
847.022	16622
847.158	16470
847.294	16375
847.429	16261
847.565	16299
847.701	16470
847.837	16078
847.972	15987
848.108	16147
848.244	16109
848.379	15907
848.515	15804
848.65	15797
848.786	15880
848.921	15823
849.057	16010
849.192	15994
849.328	15934
849.463	15899
849.598	15838
849.734	15816
849.869	15732
850.004	15641
850.14	15759
850.275	15523
850.41	15530
850.545	15553
850.68	15584
850.815	15595
850.95	15572
851.085	15682
851.22	15614
851.355	15591
851.49	15519
851.625	15557
851.76	15485
851.895	15492
852.03	15450
852.165	15595
852.299	15610
852.434	15743
852.569	15618
852.703	15663
852.838	15774
852.973	15781
853.107	15762
853.242	15644
853.376	15469
853.511	15355
853.645	15412
853.78	15701
853.914	15576
854.048	15576
854.183	15458
854.317	15473
854.451	15641
854.585	15428
854.72	15416
854.854	15549
854.988	15321
855.122	15431
855.256	15363
855.39	15466
855.524	15530
855.658	15485
855.792	15515
855.926	15488
856.06	15561
856.194	15580
856.327	15450
856.461	15466
856.595	15416
856.729	15492
856.862	15526
856.996	15580
857.13	15618
857.263	15542
857.397	15572
857.53	15412
857.664	15458
857.797	15545
857.931	15614
858.064	15496
858.197	15526
858.331	15416
858.464	15367
858.597	15340
858.731	15511
858.864	15447
858.997	15397
859.13	15526
859.263	15481
859.396	15477
859.529	15462
859.662	15405
859.795	15382
859.928	15473
860.061	15663
860.194	15595
860.327	15344
860.46	15454
860.592	15496
860.725	15534
860.858	15523
860.99	15405
861.123	15382
861.256	15317
861.388	15466
861.521	16059
861.653	15348
861.786	15241
861.918	15291
862.05	15374
862.183	15443
862.315	15408
862.447	15447
862.58	15260
862.712	15268
862.844	15222
862.976	15340
863.108	15317
863.24	15663
863.372	15142
863.504	15211
863.636	15154
863.768	15249
863.9	15230
864.032	15005
864.164	15283
864.296	15241
864.428	15355
864.559	15264
864.691	15237
864.823	15291
864.954	15249
865.086	15127
865.217	15150
865.349	15100
865.48	15207
865.612	15085
865.743	15287
865.875	15150
866.006	15146
866.137	15176
866.269	15184
866.4	15142
866.531	15142
866.662	15135
866.793	15195
866.924	15081
867.055	15184
867.186	15127
867.317	15070
867.448	15077
867.579	15108
867.71	14963
867.841	15051
867.972	15272
868.103	15188
868.233	15135
868.364	15131
868.495	15287
868.625	15431
868.756	15538
868.886	15420
869.017	15313
869.147	15564
869.278	15542
869.408	15412
869.539	15393
869.669	15500
869.799	15530
869.929	15610
870.06	15530
870.19	15705
870.32	15724
870.45	15835
870.58	15755
870.71	15915
870.84	15922
870.97	15793
871.1	15770
871.23	15953
871.36	15922
871.489	15930
871.619	15930
871.749	16021
871.879	16044
872.008	16101
872.138	15926
872.267	15998
872.397	15861
872.526	15812
872.656	15930
872.785	15876
872.915	15983
873.044	16044
873.173	16029
873.303	15972
873.432	16044
873.561	16185
873.69	16025
873.819	16120
873.948	16181
874.077	16124
874.206	15994
874.335	16040
874.464	16185
874.593	16226
874.722	16265
874.851	16474
874.979	16379
875.108	16382
875.237	16276
875.365	16291
875.494	16424
875.623	16466
875.751	16436
875.88	16367
876.008	16565
876.136	16599
876.265	16812
876.393	16908
876.521	16976
876.65	16850
876.778	16839
876.906	16820
877.034	16786
877.162	16835
877.29	16774
877.418	16877
877.546	16953
877.674	16889
877.802	16927
877.93	16965
878.058	16892
878.185	16790
878.313	16949
878.441	16965
878.568	16938
878.696	16915
878.824	17086
878.951	17292
879.079	17566
879.206	17687
879.333	17893
879.461	17950
879.588	18038
879.715	18159
879.842	18140
879.97	17775
880.097	17455
880.224	17052
880.351	17181
880.478	17113
880.605	16976
880.732	17029
880.859	17151
880.986	16987
881.112	16957
881.239	16797
881.366	16698
881.493	16607
881.619	16592
881.746	16656
881.872	16622
881.999	16588
882.125	16527
882.252	16653
882.378	16592
882.505	16653
882.631	16580
882.757	16455
882.883	16382
883.01	16447
883.136	16421
883.262	16322
883.388	16246
883.514	16462
883.64	16481
883.766	16341
883.892	16162
884.018	16173
884.143	16474
884.269	16470
884.395	16162
884.52	16078
884.646	16063
884.772	16055
884.897	16040
885.023	16124
885.148	16147
885.274	16261
885.399	16207
885.524	16116
885.65	16013
885.775	16143
885.9	16124
886.025	16173
886.15	16143
886.275	16006
886.4	15983
886.525	15918
886.65	15953
886.775	15846
886.9	16078
887.025	16219
887.149	15930
887.274	15774
887.399	15762
887.523	15747
887.648	15660
887.773	15751
887.897	15778
888.021	15793
888.146	15656
888.27	15823
888.395	15899
888.519	15838
888.643	15816
888.767	15709
888.891	15747
889.015	15595
889.139	15526
889.263	15580
889.387	15728
889.511	15785
889.635	15629
889.759	15542
889.883	15454
890.006	15648
890.13	15610
890.254	15515
890.377	15408
890.501	15382
890.624	15298
890.748	15466
890.871	15283
890.995	15135
891.118	15188
891.241	15192
891.364	15252
891.488	15397
891.611	15237
891.734	15169
891.857	15207
891.98	15203
892.103	15241
892.226	15211
892.349	15154
892.471	15066
892.594	15077
892.717	15218
892.839	15173
892.962	15100
893.085	15195
893.207	15237
893.33	15104
893.452	15043
893.575	15161
893.697	15173
893.819	15424
893.941	15420
894.064	15256
894.186	15131
894.308	15093
894.43	15100
894.552	15249
894.674	15294
894.796	15028
894.918	15097
895.04	15173
895.161	15218
895.283	15272
895.405	15119
895.526	15127
895.648	15252
895.769	15272
895.891	15260
896.012	15351
896.134	15245
896.255	15302
896.376	15199
896.498	15165
896.619	15393
896.74	15306
896.861	15294
896.982	15625
897.103	15759
897.224	15633
897.345	15553
897.466	15447
897.587	15401
897.708	15641
897.828	15606
897.949	15557
898.07	15420
898.19	15534
898.311	15671
898.431	15587
898.552	15564
898.672	15633
898.792	15694
898.913	15675
899.033	15572
899.153	15481
899.273	15389
899.393	15370
899.513	15492
899.633	15408
899.753	15454
899.873	15466
899.993	15500
900.113	15435
900.232	15538
900.352	15393
900.472	15329
900.591	15317
900.711	15340
900.83	15260
900.95	15477
901.069	15367
901.189	15260
901.308	14967
901.427	14937
901.546	15005
901.665	14975
901.784	14960
901.904	14838
902.023	14826
902.141	14579
902.26	14469
902.379	14632
902.498	14492
902.617	14461
902.735	14476
902.854	14514
902.973	14571
903.091	14332
903.21	14206
903.328	14290
903.446	14115
903.565	14123
903.683	14191
903.801	13932
903.919	14088
904.038	13970
904.156	13879
904.274	13906
904.392	13849
904.51	13734
904.627	13826
904.745	13909
904.863	13917
904.981	13712
905.098	13495
905.216	13480
905.334	13575
905.451	13571
905.569	13559
905.686	13567
905.803	13571
905.921	13441
906.038	13403
906.155	13343
906.272	13168
906.389	13316
906.506	13110
906.623	13110
906.74	13126
906.857	13004
906.974	12996
907.091	13171
907.208	13152
907.324	13141
907.441	12958
907.557	12935
907.674	12764
907.79	12749
907.907	12764
908.023	12844
908.139	12787
908.256	12791
908.372	12753
908.488	12795
908.604	12597
908.72	12597
908.836	12570
908.952	12498
909.068	12513
909.184	12631
909.3	12559
909.415	12544
909.531	12566
909.647	12380
909.762	12342
909.878	12323
909.993	12361
910.108	12365
910.224	12213
910.339	12311
910.454	12239
910.57	12098
910.685	12083
910.8	12327
910.915	12365
911.03	12277
911.145	11942
911.259	11942
911.374	11946
911.489	11961
911.604	11969
911.718	11824
911.833	11703
911.947	11680
912.062	11600
912.176	11775
912.291	11805
912.405	11752
912.519	11908
912.633	12019
912.748	11786
912.862	11737
912.976	11623
913.09	11459
913.204	11520
913.318	11577
913.431	11649
913.545	11695
913.659	11623
913.772	11509
913.886	11455
914	11482
914.113	11570
914.226	11653
914.34	11482
914.453	11356
914.566	11558
914.68	11436
914.793	11436
914.906	11189
915.019	11124
915.132	11143
915.245	11155
915.358	11223
915.47	11185
915.583	11223
915.696	11288
915.809	11395
915.921	11364
916.034	11162
916.146	11132
916.259	11159
916.371	11277
916.483	11258
916.595	11045
916.708	11147
916.82	11067
916.932	11121
917.044	11113
917.156	11124
917.268	10987
917.38	11056
917.491	10923
917.603	11079
917.715	11174
917.826	11136
917.938	11045
918.049	10778
918.161	10987
918.272	11151
918.384	11147
918.495	11003
918.606	10961
918.717	10801
918.828	10900
918.939	10938
919.05	10763
919.161	10911
919.272	10596
919.383	10752
919.494	10930
919.604	11075
919.715	10904
919.826	10805
919.936	10812
920.047	10957
920.157	10923
920.267	11098
920.378	10923
920.488	10889
920.598	11185
920.708	11170
920.818	11064
920.928	11029
921.038	11155
921.148	11231
921.258	10892
921.368	10778
921.477	10793
921.587	10683
921.697	10626
921.806	10672
921.916	10592
922.025	10466
922.134	10436
922.244	10363
922.353	10386
922.462	10303
922.571	10272
922.68	10105
922.789	10048
922.898	10090
923.007	9994
923.116	10078
923.224	10090
923.333	10143
923.442	9964
923.55	9945
923.659	10032
923.767	10051
923.876	9930
923.984	10040
924.092	9953
924.201	9960
924.309	10006
924.417	9941
924.525	9823
924.633	9831
924.741	10611
924.849	9717
924.956	9835
925.064	9709
925.172	9679
925.279	9667
925.387	9717
925.494	9800
925.602	9827
925.709	9846
925.816	9629
925.924	9747
926.031	9812
926.138	9762
926.245	9728
926.352	9599
926.459	9743
926.566	9785
926.673	9652
926.779	9595
926.886	9572
926.993	9412
927.099	9458
927.206	9355
927.312	9264
927.419	9477
927.525	9488
927.631	9386
927.737	9275
927.843	9336
927.95	9241
928.056	9310
928.162	9264
928.267	9370
928.373	9793
928.479	9412
928.585	9195
928.69	9298
928.796	9329
928.901	9230
929.007	9116
929.112	9195
929.218	9173
929.323	9058
929.428	9131
929.533	9222
929.638	9039
929.743	9020
929.848	9093
929.953	9097
930.058	8956
930.163	8842
930.267	8864
930.372	9017
930.477	8815
930.581	9047
930.685	8921
930.79	8781
930.894	8804
930.998	8754
931.103	8895
931.207	8594
931.311	8537
931.415	8427
931.519	8275
931.623	8244
