Data from test_V78500241_3647.txt Node
Date: Fri Mar 25 14:59:06 CST 2022
User: usil
Spectrometer: V785-0024
Trigger mode: 0
Integration Time (sec): 4.000000E-1
Scans to average: 1
Nonlinearity correction enabled: false
Boxcar width: 0
Storing dark spectrum: false
XAxis mode: Wavelengths
Number of Pixels in Spectrum: 1024
>>>>>Begin Spectral Data<<<<<
801.071	21930
801.214	21987
801.356	21557
801.499	21599
801.641	21351
801.783	21340
801.926	21222
802.068	21272
802.211	21214
802.353	21142
802.496	20933
802.638	20864
802.78	20777
802.923	20564
803.065	20545
803.208	20522
803.35	20568
803.492	20705
803.635	20648
803.777	20598
803.919	20571
804.061	20872
804.204	20621
804.346	20541
804.488	20530
804.63	20503
804.773	20480
804.915	20545
805.057	20678
805.199	20499
805.341	20625
805.483	20526
805.626	20587
805.768	20438
805.91	20549
806.052	20552
806.194	20362
806.336	20667
806.478	20450
806.62	20499
806.762	20594
806.904	20686
807.046	20864
807.188	20800
807.33	20895
807.472	20876
807.614	20712
807.756	20712
807.898	20590
808.04	20495
808.182	20507
808.324	20499
808.465	20663
808.607	20807
808.749	20842
808.891	20956
809.033	21119
809.174	20956
809.316	20864
809.458	20807
809.6	20708
809.741	20986
809.883	20982
810.025	21039
810.166	21039
810.308	20994
810.45	20800
810.591	20830
810.733	20667
810.875	20686
811.016	20526
811.158	20549
811.299	20727
811.441	20689
811.582	20811
811.724	20533
811.865	20609
812.007	20655
812.148	20613
812.29	20651
812.431	20724
812.573	20925
812.714	20918
812.855	21173
812.997	21199
813.138	21420
813.279	21256
813.421	21131
813.562	21009
813.703	20788
813.845	20739
813.986	20461
814.127	20275
814.268	20183
814.41	20183
814.551	20275
814.692	20240
814.833	20164
814.974	20138
815.115	20134
815.256	20005
815.397	19917
815.539	19951
815.68	19978
815.821	19826
815.962	19989
816.103	19814
816.244	19685
816.385	19658
816.526	19738
816.666	19373
816.807	19259
816.948	19274
817.089	19320
817.23	19247
817.371	19350
817.512	19335
817.653	19183
817.793	19274
817.934	19282
818.075	19297
818.216	19266
818.356	19301
818.497	19206
818.638	18890
818.778	19019
818.919	18928
819.06	18981
819.2	19042
819.341	19206
819.481	19221
819.622	19335
819.762	19548
819.903	19362
820.043	19316
820.184	19236
820.324	19259
820.465	19369
820.605	19225
820.746	19221
820.886	19069
821.026	19194
821.167	19255
821.307	19217
821.447	19122
821.588	19038
821.728	18939
821.868	18779
822.008	18757
822.149	18738
822.289	18658
822.429	18403
822.569	18376
822.709	18464
822.849	18129
822.99	18178
823.13	18319
823.27	18098
823.41	18003
823.55	17950
823.69	18026
823.83	18049
823.97	17984
824.11	17786
824.25	17802
824.389	17859
824.529	17824
824.669	17828
824.809	17847
824.949	17813
825.089	17767
825.228	17809
825.368	17627
825.508	17577
825.648	17630
825.787	17505
825.927	17604
826.067	17547
826.206	17657
826.346	17539
826.485	17592
826.625	17505
826.765	17592
826.904	17699
827.044	17284
827.183	17337
827.323	17223
827.462	17250
827.601	17193
827.741	17166
827.88	17318
828.02	17143
828.159	17223
828.298	17311
828.437	17280
828.577	17200
828.716	17353
828.855	17216
828.994	17067
829.134	17014
829.273	16980
829.412	16953
829.551	16957
829.69	16938
829.829	17029
829.968	17124
830.107	17056
830.246	17003
830.385	16927
830.524	16854
830.663	16900
830.802	16713
830.941	16622
831.08	16596
831.219	16675
831.357	16645
831.496	16778
831.635	16630
831.774	16523
831.913	16500
832.051	16306
832.19	16443
832.329	16443
832.467	16333
832.606	16303
832.744	16295
832.883	16333
833.022	16303
833.16	16253
833.299	16265
833.437	16295
833.576	16455
833.714	16379
833.852	16462
833.991	16413
834.129	16470
834.267	16386
834.406	16344
834.544	16455
834.682	16398
834.821	16344
834.959	16451
835.097	16459
835.235	16554
835.373	16447
835.511	16436
835.65	16284
835.788	16303
835.926	16169
836.064	16173
836.202	16131
836.34	16268
836.478	16348
836.615	16325
836.753	16219
836.891	16352
837.029	16238
837.167	16207
837.305	16257
837.443	16181
837.58	16082
837.718	16200
837.856	16242
837.993	16150
838.131	16154
838.269	16112
838.406	16086
838.544	16029
838.681	15819
838.819	15937
838.956	15759
839.094	15732
839.231	15816
839.369	15850
839.506	16055
839.643	15926
839.781	15755
839.918	15633
840.055	15686
840.193	15705
840.33	15663
840.467	15728
840.604	15736
840.742	15987
840.879	15568
841.016	15660
841.153	15603
841.29	15838
841.427	15713
841.564	15728
841.701	15739
841.838	15663
841.975	15667
842.112	15656
842.249	15435
842.385	15344
842.522	15747
842.659	15572
842.796	15439
842.933	15488
843.069	15542
843.206	15485
843.343	15660
843.479	15553
843.616	15488
843.752	15397
843.889	15355
844.025	15439
844.162	15344
844.298	15435
844.435	15351
844.571	15275
844.708	15363
844.844	15500
844.98	15370
845.117	15466
845.253	15268
845.389	15161
845.525	15233
845.661	15218
845.798	15062
845.934	15173
846.07	15093
846.206	15222
846.342	15146
846.478	15077
846.614	14914
846.75	14864
846.886	14868
847.022	14975
847.158	14971
847.294	14971
847.429	14963
847.565	14800
847.701	15032
847.837	14651
847.972	14613
848.108	14686
848.244	14697
848.379	14522
848.515	14450
848.65	14385
848.786	14492
848.921	14503
849.057	14492
849.192	14503
849.328	14590
849.463	14514
849.598	14484
849.734	14461
849.869	14301
850.004	14210
850.14	14362
850.275	14259
850.41	14084
850.545	14225
850.68	14309
850.815	14202
850.95	14176
851.085	14381
851.22	14377
851.355	14229
851.49	14237
851.625	14103
851.76	14187
851.895	14176
852.03	14062
852.165	14237
852.299	14225
852.434	14320
852.569	14290
852.703	14301
852.838	14347
852.973	14332
853.107	14362
853.242	14176
853.376	14172
853.511	13986
853.645	14103
853.78	14183
853.914	14115
854.048	14092
854.183	14092
854.317	14142
854.451	14366
854.585	14145
854.72	14065
854.854	14161
854.988	14016
855.122	14126
855.256	13970
855.39	14088
855.524	14172
855.658	14126
855.792	14221
855.926	14046
856.06	14119
856.194	14252
856.327	14138
856.461	14039
856.595	13989
856.729	14103
856.862	14164
856.996	14103
857.13	14172
857.263	14202
857.397	14267
857.53	14043
857.664	14157
857.797	14172
857.931	14161
858.064	14107
858.197	14187
858.331	14111
858.464	14035
858.597	14024
858.731	14043
858.864	14016
858.997	14103
859.13	14176
859.263	14176
859.396	14210
859.529	14024
859.662	14058
859.795	14157
859.928	14039
860.061	14275
860.194	14206
860.327	14058
860.46	14130
860.592	14149
860.725	14199
860.858	14271
860.99	14134
861.123	14065
861.256	13982
861.388	14054
861.521	14906
861.653	14016
861.786	13898
861.918	13883
862.05	14012
862.183	14027
862.315	14107
862.447	14096
862.58	14088
862.712	13932
862.844	13833
862.976	13970
863.108	13887
863.24	14248
863.372	13822
863.504	13837
863.636	13890
863.768	13921
863.9	13894
864.032	13883
864.164	13898
864.296	13902
864.428	14020
864.559	13993
864.691	13974
864.823	14001
864.954	13932
865.086	13906
865.217	13875
865.349	13860
865.48	13830
865.612	13906
865.743	14043
865.875	13917
866.006	13936
866.137	13883
866.269	13845
866.4	13917
866.531	13833
866.662	13708
866.793	13856
866.924	13875
867.055	13830
867.186	13811
867.317	13830
867.448	13818
867.579	13830
867.71	13803
867.841	13803
867.972	13871
868.103	13875
868.233	13883
868.364	13894
868.495	13989
868.625	14050
868.756	14263
868.886	14073
869.017	14153
869.147	14339
869.278	14237
869.408	14157
869.539	14107
869.669	14202
869.799	14202
869.929	14237
870.06	14267
870.19	14320
870.32	14389
870.45	14469
870.58	14499
870.71	14674
870.84	14659
870.97	14503
871.1	14518
871.23	14773
871.36	14686
871.489	14583
871.619	14746
871.749	14750
871.879	14651
872.008	14754
872.138	14667
872.267	14705
872.397	14640
872.526	14640
872.656	14663
872.785	14689
872.915	14762
873.044	14815
873.173	14842
873.303	14819
873.432	14792
873.561	14906
873.69	14834
873.819	14781
873.948	14853
874.077	14826
874.206	14720
874.335	14804
874.464	14925
874.593	15112
874.722	15142
874.851	15051
874.979	15119
875.108	15085
875.237	15077
875.365	15093
875.494	15104
875.623	15104
875.751	15119
875.88	15097
876.008	15256
876.136	15275
876.265	15523
876.393	15656
876.521	15584
876.65	15629
876.778	15523
876.906	15408
877.034	15466
877.162	15466
877.29	15408
877.418	15538
877.546	15519
877.674	15614
877.802	15545
877.93	15553
878.058	15462
878.185	15439
878.313	15473
878.441	15477
878.568	15454
878.696	15389
878.824	15561
878.951	15515
879.079	15694
879.206	15835
879.333	15625
879.461	15439
879.588	15682
879.715	15751
879.842	15823
879.97	15591
880.097	15329
880.224	15355
880.351	15393
880.478	15363
880.605	15401
880.732	15359
880.859	15633
880.986	15481
881.112	15378
881.239	15279
881.366	15154
881.493	15077
881.619	14998
881.746	15005
881.872	14994
881.999	15055
882.125	15001
882.252	15074
882.378	15051
882.505	15188
882.631	14910
882.757	14826
882.883	14872
883.01	14918
883.136	14781
883.262	14769
883.388	14689
883.514	14918
883.64	14933
883.766	14792
883.892	14708
884.018	14686
884.143	14815
884.269	14960
884.395	14602
884.52	14571
884.646	14610
884.772	14476
884.897	14427
885.023	14545
885.148	14708
885.274	14720
885.399	14670
885.524	14514
885.65	14469
885.775	14541
885.9	14526
886.025	14682
886.15	14541
886.275	14571
886.4	14419
886.525	14465
886.65	14419
886.775	14476
886.9	14674
887.025	14781
887.149	14507
887.274	14313
887.399	14313
887.523	14298
887.648	14233
887.773	14256
887.897	14423
888.021	14461
888.146	14396
888.27	14469
888.395	14499
888.519	14377
888.643	14442
888.767	14518
888.891	14229
889.015	14218
889.139	14282
889.263	14267
889.387	14301
889.511	14419
889.635	14393
889.759	14240
889.883	14180
890.006	14214
890.13	14278
890.254	14244
890.377	14221
890.501	14043
890.624	14024
890.748	14092
890.871	13974
890.995	13849
891.118	13902
891.241	13982
891.364	13947
891.488	14050
891.611	13860
891.734	13967
891.857	13913
891.98	13898
892.103	14016
892.226	13997
892.349	14012
892.471	13822
892.594	13944
892.717	13997
892.839	13879
892.962	13959
893.085	14016
893.207	13978
893.33	13788
893.452	13849
893.575	14035
893.697	13993
893.819	14142
893.941	14183
894.064	14046
894.186	13894
894.308	13921
894.43	14103
894.552	14145
894.674	14062
894.796	13989
894.918	14001
895.04	14008
895.161	14073
895.283	14119
895.405	13982
895.526	14050
895.648	14111
895.769	14050
895.891	14126
896.012	14199
896.134	14077
896.255	14092
896.376	14081
896.498	14111
896.619	14100
896.74	14096
896.861	14225
896.982	14381
897.103	14735
897.224	14355
897.345	14362
897.466	14252
897.587	14431
897.708	14465
897.828	14370
897.949	14336
898.07	14301
898.19	14393
898.311	14568
898.431	14434
898.552	14404
898.672	14579
898.792	14625
898.913	14495
899.033	14404
899.153	14286
899.273	14259
899.393	14351
899.513	14339
899.633	14336
899.753	14362
899.873	14317
899.993	14389
900.113	14351
900.232	14366
900.352	14313
900.472	14294
900.591	14210
900.711	14176
900.83	14073
900.95	14267
901.069	14301
901.189	14149
901.308	13974
901.427	13928
901.546	13849
901.665	13906
901.784	13909
901.904	13833
902.023	13708
902.141	13476
902.26	13438
902.379	13575
902.498	13460
902.617	13434
902.735	13529
902.854	13438
902.973	13354
903.091	13164
903.21	13152
903.328	13175
903.446	13171
903.565	12947
903.683	13038
903.801	12981
903.919	12989
904.038	13034
904.156	12787
904.274	12821
904.392	12806
904.51	12829
904.627	12856
904.745	12825
904.863	12954
904.981	12601
905.098	12483
905.216	12544
905.334	12582
905.451	12513
905.569	12578
905.686	12544
905.803	12639
905.921	12330
906.038	12513
906.155	12422
906.272	12232
906.389	12262
906.506	12155
906.623	12117
906.74	12121
906.857	12011
906.974	12030
907.091	12216
907.208	12254
907.324	12106
907.441	12057
907.557	11874
907.674	11821
907.79	11794
907.907	11813
908.023	11912
908.139	11882
908.256	11882
908.372	11824
908.488	11756
908.604	11592
908.72	11589
908.836	11642
908.952	11676
909.068	11623
909.184	11813
909.3	11604
909.415	11608
909.531	11688
909.647	11444
909.762	11414
909.878	11444
909.993	11395
910.108	11280
910.224	11356
910.339	11448
910.454	11284
910.57	11311
910.685	11220
910.8	11433
910.915	11505
911.03	11315
911.145	11090
911.259	11136
911.374	11113
911.489	11056
911.604	10968
911.718	10839
911.833	10869
911.947	10694
912.062	10687
912.176	10786
912.291	10850
912.405	10824
912.519	11022
912.633	11113
912.748	10984
912.862	10911
912.976	10801
913.09	10675
913.204	10774
913.318	10801
913.431	10889
913.545	10843
913.659	10858
913.772	10733
913.886	10664
914	10615
914.113	10679
914.226	10767
914.34	10679
914.453	10519
914.566	10767
914.68	10611
914.793	10599
914.906	10363
915.019	10341
915.132	10352
915.245	10348
915.358	10363
915.47	10402
915.583	10413
915.696	10451
915.809	10592
915.921	10535
916.034	10341
916.146	10306
916.259	10356
916.371	10474
916.483	10341
916.595	10337
916.708	10265
916.82	10265
916.932	10329
917.044	10246
917.156	10295
917.268	10169
917.38	10246
917.491	10162
917.603	10242
917.715	10318
917.826	10306
917.938	10223
918.049	10166
918.161	10135
918.272	10348
918.384	10451
918.495	10238
918.606	10162
918.717	10078
918.828	10093
918.939	10135
919.05	10032
919.161	10036
919.272	9827
919.383	9953
919.494	10154
919.604	10348
919.715	10143
919.826	10048
919.936	10040
920.047	10246
920.157	10162
920.267	10375
920.378	10154
920.488	10032
920.598	10272
920.708	10421
920.818	10272
920.928	10310
921.038	10462
921.148	10394
921.258	10162
921.368	10044
921.477	9949
921.587	9865
921.697	9842
921.806	9972
921.916	9797
922.025	9690
922.134	9701
922.244	9679
922.353	9736
922.462	9572
922.571	9466
922.68	9416
922.789	9428
922.898	9416
923.007	9317
923.116	9378
923.224	9386
923.333	9272
923.442	9253
923.55	9310
923.659	9230
923.767	9287
923.876	9230
923.984	9249
924.092	9306
924.201	9230
924.309	9233
924.417	9279
924.525	9157
924.633	9173
924.741	9941
924.849	9017
924.956	9173
925.064	9017
925.172	8929
925.279	8963
925.387	9028
925.494	9066
925.602	9169
925.709	9161
925.816	9036
925.924	9039
926.031	9123
926.138	9150
926.245	9013
926.352	8948
926.459	9161
926.566	9131
926.673	8921
926.779	8960
926.886	8861
926.993	8819
927.099	8739
927.206	8693
927.312	8746
927.419	8792
927.525	8735
927.631	8727
927.737	8670
927.843	8613
927.95	8579
928.056	8640
928.162	8602
928.267	8708
928.373	9211
928.479	8708
928.585	8511
928.69	8651
928.796	8674
928.901	8549
929.007	8393
929.112	8568
929.218	8541
929.323	8473
929.428	8465
929.533	8575
929.638	8492
929.743	8454
929.848	8522
929.953	8507
930.058	8362
930.163	8229
930.267	8267
930.372	8389
930.477	8290
930.581	8454
930.685	8336
930.79	8172
930.894	8199
930.998	8157
931.103	8309
931.207	7997
931.311	7925
931.415	7822
931.519	7693
931.623	7681
