Data from test_V78500241_2424.txt Node
Date: Fri Mar 25 14:50:35 CST 2022
User: usil
Spectrometer: V785-0024
Trigger mode: 0
Integration Time (sec): 4.000000E-1
Scans to average: 1
Nonlinearity correction enabled: false
Boxcar width: 0
Storing dark spectrum: false
XAxis mode: Wavelengths
Number of Pixels in Spectrum: 1024
>>>>>Begin Spectral Data<<<<<
801.071	22124
801.214	22017
801.356	21698
801.499	21618
801.641	21538
801.783	21405
801.926	21526
802.068	21408
802.211	21298
802.353	21272
802.496	21051
802.638	20918
802.78	20823
802.923	20868
803.065	20670
803.208	20693
803.35	20872
803.492	20864
803.635	20910
803.777	20781
803.919	20895
804.061	21104
804.204	20823
804.346	20792
804.488	20697
804.63	20906
804.773	20727
804.915	20689
805.057	20762
805.199	20682
805.341	20815
805.483	20864
805.626	20792
805.768	20731
805.91	20807
806.052	20777
806.194	20674
806.336	20967
806.478	20667
806.62	20754
806.762	20705
806.904	20857
807.046	21112
807.188	21058
807.33	21055
807.472	21039
807.614	21074
807.756	20994
807.898	20754
808.04	20689
808.182	20678
808.324	20765
808.465	20743
808.607	21036
808.749	21001
808.891	21264
809.033	21184
809.174	21195
809.316	21085
809.458	21096
809.6	20979
809.741	21104
809.883	21096
810.025	21340
810.166	21264
810.308	21268
810.45	21195
810.591	21146
810.733	20979
810.875	20956
811.016	20804
811.158	20773
811.299	20963
811.441	20941
811.582	21074
811.724	20887
811.865	20861
812.007	20861
812.148	20883
812.29	20960
812.431	21036
812.573	21207
812.714	21374
812.855	21428
812.997	21462
813.138	21568
813.279	21473
813.421	21370
813.562	21310
813.703	21119
813.845	20967
813.986	20659
814.127	20533
814.268	20606
814.41	20511
814.551	20499
814.692	20434
814.833	20404
814.974	20415
815.115	20480
815.256	20248
815.397	20248
815.539	20385
815.68	20229
815.821	20195
815.962	20142
816.103	20142
816.244	19997
816.385	19864
816.526	19875
816.666	19734
816.807	19578
816.948	19704
817.089	19708
817.23	19601
817.371	19624
817.512	19563
817.653	19586
817.793	19419
817.934	19575
818.075	19601
818.216	19529
818.356	19491
818.497	19362
818.638	19194
818.778	19232
818.919	19339
819.06	19278
819.2	19354
819.341	19487
819.481	19460
819.622	19571
819.762	19731
819.903	19586
820.043	19590
820.184	19575
820.324	19548
820.465	19601
820.605	19445
820.746	19518
820.886	19335
821.026	19544
821.167	19582
821.307	19533
821.447	19495
821.588	19289
821.728	19282
821.868	19118
822.008	18924
822.149	18837
822.289	18916
822.429	18745
822.569	18563
822.709	18719
822.849	18410
822.99	18388
823.13	18479
823.27	18448
823.41	18182
823.55	18289
823.69	18239
823.83	18277
823.97	18133
824.11	18041
824.25	17859
824.389	17984
824.529	18102
824.669	18011
824.809	18159
824.949	17923
825.089	18011
825.228	17897
825.368	17878
825.508	17790
825.648	17764
825.787	17882
825.927	17866
826.067	17668
826.206	17684
826.346	17847
826.485	17794
826.625	17649
826.765	17870
826.904	17718
827.044	17501
827.183	17596
827.323	17421
827.462	17573
827.601	17535
827.741	17501
827.88	17592
828.02	17341
828.159	17330
828.298	17505
828.437	17611
828.577	17402
828.716	17577
828.855	17334
828.994	17227
829.134	17239
829.273	17193
829.412	17178
829.551	17170
829.69	17147
829.829	17280
829.968	17181
830.107	17258
830.246	17269
830.385	17151
830.524	17045
830.663	17018
830.802	16949
830.941	16965
831.08	16919
831.219	16831
831.357	16854
831.496	17056
831.635	16885
831.774	16869
831.913	16687
832.051	16634
832.19	16694
832.329	16675
832.467	16497
832.606	16516
832.744	16485
832.883	16428
833.022	16500
833.16	16455
833.299	16607
833.437	16596
833.576	16535
833.714	16622
833.852	16622
833.991	16630
834.129	16664
834.267	16641
834.406	16565
834.544	16615
834.682	16558
834.821	16516
834.959	16733
835.097	16527
835.235	16710
835.373	16634
835.511	16588
835.65	16504
835.788	16535
835.926	16322
836.064	16242
836.202	16284
836.34	16436
836.478	16459
836.615	16470
836.753	16504
836.891	16466
837.029	16519
837.167	16379
837.305	16402
837.443	16402
837.58	16333
837.718	16459
837.856	16447
837.993	16268
838.131	16451
838.269	16173
838.406	16268
838.544	16230
838.681	16105
838.819	16078
838.956	15937
839.094	15846
839.231	15907
839.369	15964
839.506	16299
839.643	16143
839.781	15918
839.918	15838
840.055	15892
840.193	15857
840.33	15876
840.467	15880
840.604	15781
840.742	16139
840.879	15739
841.016	15736
841.153	15850
841.29	15964
841.427	15873
841.564	15892
841.701	15930
841.838	15854
841.975	15884
842.112	15739
842.249	15679
842.385	15614
842.522	15911
842.659	15709
842.796	15591
842.933	15610
843.069	15538
843.206	15572
843.343	15679
843.479	15720
843.616	15667
843.752	15454
843.889	15473
844.025	15572
844.162	15386
844.298	15599
844.435	15424
844.571	15408
844.708	15412
844.844	15584
844.98	15603
845.117	15580
845.253	15504
845.389	15317
845.525	15332
845.661	15218
845.798	15272
845.934	15279
846.07	15161
846.206	15351
846.342	15408
846.478	15283
846.614	15116
846.75	15013
846.886	14960
847.022	15119
847.158	15013
847.294	15043
847.429	14967
847.565	15058
847.701	15298
847.837	14807
847.972	14670
848.108	14823
848.244	14739
848.379	14629
848.515	14636
848.65	14613
848.786	14693
848.921	14636
849.057	14785
849.192	14644
849.328	14594
849.463	14674
849.598	14606
849.734	14492
849.869	14469
850.004	14374
850.14	14461
850.275	14408
850.41	14351
850.545	14370
850.68	14324
850.815	14412
850.95	14503
851.085	14560
851.22	14495
851.355	14396
851.49	14298
851.625	14393
851.76	14324
851.895	14313
852.03	14290
852.165	14355
852.299	14385
852.434	14412
852.569	14457
852.703	14431
852.838	14400
852.973	14598
853.107	14549
853.242	14442
853.376	14278
853.511	14168
853.645	14202
853.78	14282
853.914	14202
854.048	14210
854.183	14176
854.317	14191
854.451	14427
854.585	14210
854.72	14263
854.854	14328
854.988	14126
855.122	14218
855.256	14164
855.39	14206
855.524	14358
855.658	14317
855.792	14339
855.926	14233
856.06	14267
856.194	14377
856.327	14153
856.461	14199
856.595	14237
856.729	14233
856.862	14324
856.996	14294
857.13	14317
857.263	14343
857.397	14351
857.53	14271
857.664	14328
857.797	14328
857.931	14400
858.064	14290
858.197	14385
858.331	14199
858.464	14328
858.597	14187
858.731	14168
858.864	14191
858.997	14298
859.13	14176
859.263	14275
859.396	14377
859.529	14221
859.662	14157
859.795	14191
859.928	14237
860.061	14396
860.194	14427
860.327	14267
860.46	14286
860.592	14389
860.725	14385
860.858	14332
860.99	14256
861.123	14164
861.256	14161
861.388	14271
861.521	14956
861.653	14142
861.786	14084
861.918	14115
862.05	14134
862.183	14214
862.315	14278
862.447	14278
862.58	14176
862.712	14058
862.844	13967
862.976	14111
863.108	14210
863.24	14423
863.372	13974
863.504	14039
863.636	14031
863.768	14081
863.9	14081
864.032	13932
864.164	14088
864.296	14084
864.428	14199
864.559	14199
864.691	14168
864.823	14100
864.954	14073
865.086	14050
865.217	14073
865.349	14031
865.48	14050
865.612	14084
865.743	14199
865.875	14035
866.006	14058
866.137	14008
866.269	14016
866.4	14020
866.531	14020
866.662	14046
866.793	14054
866.924	14065
867.055	14081
867.186	14069
867.317	14001
867.448	13978
867.579	13955
867.71	13913
867.841	14054
867.972	14050
868.103	14073
868.233	14043
868.364	14020
868.495	14130
868.625	14164
868.756	14412
868.886	14259
869.017	14275
869.147	14469
869.278	14484
869.408	14351
869.539	14294
869.669	14400
869.799	14358
869.929	14427
870.06	14431
870.19	14583
870.32	14689
870.45	14705
870.58	14674
870.71	14800
870.84	14765
870.97	14765
871.1	14659
871.23	14906
871.36	14830
871.489	14861
871.619	14910
871.749	14986
871.879	14960
872.008	15020
872.138	14956
872.267	14880
872.397	14804
872.526	14651
872.656	14712
872.785	14838
872.915	14975
873.044	15036
873.173	15036
873.303	14971
873.432	14982
873.561	15013
873.69	14952
873.819	14975
873.948	15100
874.077	14944
874.206	14994
874.335	14944
874.464	15119
874.593	15272
874.722	15233
874.851	15329
874.979	15272
875.108	15310
875.237	15077
875.365	15272
875.494	15222
875.623	15317
875.751	15256
875.88	15264
876.008	15416
876.136	15507
876.265	15690
876.393	15903
876.521	15747
876.65	15732
876.778	15732
876.906	15610
877.034	15679
877.162	15618
877.29	15584
877.418	15656
877.546	15675
877.674	15667
877.802	15667
877.93	15698
878.058	15633
878.185	15542
878.313	15572
878.441	15709
878.568	15561
878.696	15637
878.824	15728
878.951	15766
879.079	15903
879.206	15998
879.333	15854
879.461	15789
879.588	15831
879.715	15918
879.842	15930
879.97	15762
880.097	15641
880.224	15526
880.351	15545
880.478	15534
880.605	15500
880.732	15519
880.859	15804
880.986	15519
881.112	15622
881.239	15397
881.366	15287
881.493	15241
881.619	15165
881.746	15252
881.872	15142
881.999	15169
882.125	15127
882.252	15264
882.378	15131
882.505	15275
882.631	15218
882.757	14986
882.883	15093
883.01	14944
883.136	14979
883.262	14906
883.388	14830
883.514	15028
883.64	15077
883.766	14967
883.892	14849
884.018	14792
884.143	14887
884.269	15077
884.395	14781
884.52	14663
884.646	14735
884.772	14659
884.897	14503
885.023	14701
885.148	14815
885.274	14941
885.399	14815
885.524	14655
885.65	14720
885.775	14667
885.9	14716
886.025	14785
886.15	14746
886.275	14640
886.4	14598
886.525	14686
886.65	14552
886.775	14670
886.9	14762
887.025	14899
887.149	14754
887.274	14552
887.399	14476
887.523	14530
887.648	14499
887.773	14396
887.897	14594
888.021	14598
888.146	14434
888.27	14575
888.395	14674
888.519	14526
888.643	14533
888.767	14583
888.891	14415
889.015	14358
889.139	14431
889.263	14332
889.387	14522
889.511	14579
889.635	14419
889.759	14446
889.883	14351
890.006	14438
890.13	14476
890.254	14309
890.377	14415
890.501	14164
890.624	14187
890.748	14309
890.871	14187
890.995	14100
891.118	13944
891.241	14016
891.364	14123
891.488	14286
891.611	14149
891.734	14180
891.857	14164
891.98	14157
892.103	14221
892.226	14149
892.349	14069
892.471	13879
892.594	14020
892.717	14123
892.839	14157
892.962	14142
893.085	14218
893.207	14157
893.33	14031
893.452	14062
893.575	14176
893.697	14092
893.819	14275
893.941	14377
894.064	14252
894.186	14062
894.308	14065
894.43	14229
894.552	14324
894.674	14267
894.796	13993
894.918	14142
895.04	14263
895.161	14240
895.283	14267
895.405	14069
895.526	14191
895.648	14282
895.769	14210
895.891	14275
896.012	14240
896.134	14355
896.255	14202
896.376	14168
896.498	14256
896.619	14339
896.74	14252
896.861	14355
896.982	14579
897.103	14746
897.224	14636
897.345	14522
897.466	14503
897.587	14560
897.708	14606
897.828	14583
897.949	14514
898.07	14385
898.19	14526
898.311	14625
898.431	14610
898.552	14731
898.672	14769
898.792	14735
898.913	14667
899.033	14552
899.153	14476
899.273	14377
899.393	14541
899.513	14549
899.633	14503
899.753	14568
899.873	14503
899.993	14465
900.113	14438
900.232	14454
900.352	14377
900.472	14434
900.591	14267
900.711	14404
900.83	14305
900.95	14351
901.069	14530
901.189	14244
901.308	14164
901.427	14024
901.546	14069
901.665	13925
901.784	14077
901.904	13986
902.023	13818
902.141	13639
902.26	13643
902.379	13681
902.498	13556
902.617	13586
902.735	13681
902.854	13613
902.973	13518
903.091	13278
903.21	13354
903.328	13403
903.446	13289
903.565	13228
903.683	13206
903.801	13004
903.919	13213
904.038	13240
904.156	13027
904.274	13110
904.392	13012
904.51	13008
904.627	12932
904.745	12958
904.863	12996
904.981	12829
905.098	12646
905.216	12662
905.334	12681
905.451	12650
905.569	12650
905.686	12681
905.803	12608
905.921	12528
906.038	12707
906.155	12525
906.272	12369
906.389	12426
906.506	12304
906.623	12289
906.74	12224
906.857	12095
906.974	12228
907.091	12334
907.208	12467
907.324	12338
907.441	12194
907.557	12083
907.674	11980
907.79	11935
907.907	12026
908.023	11992
908.139	12068
908.256	11977
908.372	12003
908.488	11920
908.604	11798
908.72	11741
908.836	11722
908.952	11688
909.068	11752
909.184	11859
909.3	11767
909.415	11802
909.531	11752
909.647	11547
909.762	11532
909.878	11490
909.993	11528
910.108	11433
910.224	11535
910.339	11535
910.454	11402
910.57	11379
910.685	11349
910.8	11627
910.915	11535
911.03	11387
911.145	11372
911.259	11242
911.374	11227
911.489	11170
911.604	11086
911.718	10972
911.833	10946
911.947	10904
912.062	10828
912.176	10999
912.291	11037
912.405	10980
912.519	11159
912.633	11250
912.748	11117
912.862	11033
912.976	10961
913.09	10717
913.204	10801
913.318	10896
913.431	10968
913.545	10877
913.659	11010
913.772	10835
913.886	10767
914	10740
914.113	10854
914.226	10835
914.34	10824
914.453	10637
914.566	10820
914.68	10748
914.793	10672
914.906	10474
915.019	10546
915.132	10352
915.245	10512
915.358	10527
915.47	10497
915.583	10519
915.696	10558
915.809	10645
915.921	10641
916.034	10497
916.146	10451
916.259	10409
916.371	10459
916.483	10500
916.595	10447
916.708	10428
916.82	10527
916.932	10409
917.044	10470
917.156	10333
917.268	10303
917.38	10306
917.491	10268
917.603	10337
917.715	10424
917.826	10436
917.938	10314
918.049	10166
918.161	10287
918.272	10390
918.384	10485
918.495	10265
918.606	10204
918.717	10120
918.828	10196
918.939	10280
919.05	10116
919.161	10192
919.272	9949
919.383	9998
919.494	10192
919.604	10409
919.715	10181
919.826	10128
919.936	10200
920.047	10299
920.157	10196
920.267	10474
920.378	10265
920.488	10257
920.598	10432
920.708	10611
920.818	10402
920.928	10402
921.038	10588
921.148	10596
921.258	10246
921.368	10192
921.477	10097
921.587	10032
921.697	9895
921.806	10120
921.916	10017
922.025	9797
922.134	9812
922.244	9728
922.353	9869
922.462	9682
922.571	9591
922.68	9507
922.789	9405
922.898	9374
923.007	9450
923.116	9523
923.224	9511
923.333	9462
923.442	9348
923.55	9386
923.659	9340
923.767	9428
923.876	9340
923.984	9344
924.092	9317
924.201	9317
924.309	9386
924.417	9363
924.525	9283
924.633	9279
924.741	10013
924.849	9100
924.956	9214
925.064	9119
925.172	9058
925.279	9104
925.387	9157
925.494	9173
925.602	9283
925.709	9173
925.816	9070
925.924	9112
926.031	9256
926.138	9100
926.245	9154
926.352	9070
926.459	9245
926.566	9188
926.673	9074
926.779	9062
926.886	8902
926.993	8921
927.099	8864
927.206	8746
927.312	8750
927.419	8902
927.525	8876
927.631	8937
927.737	8746
927.843	8697
927.95	8640
928.056	8689
928.162	8705
928.267	8792
928.373	9420
928.479	8861
928.585	8590
928.69	8705
928.796	8743
928.901	8663
929.007	8476
929.112	8720
929.218	8655
929.323	8518
929.428	8575
929.533	8739
929.638	8473
929.743	8571
929.848	8503
929.953	8568
930.058	8438
930.163	8320
930.267	8328
930.372	8530
930.477	8385
930.581	8552
930.685	8362
930.79	8244
930.894	8263
930.998	8172
931.103	8457
931.207	8096
931.311	8005
931.415	7890
931.519	7750
931.623	7792
