Data from test_V78500241_3653.txt Node
Date: Fri Mar 25 14:59:09 CST 2022
User: usil
Spectrometer: V785-0024
Trigger mode: 0
Integration Time (sec): 4.000000E-1
Scans to average: 1
Nonlinearity correction enabled: false
Boxcar width: 0
Storing dark spectrum: false
XAxis mode: Wavelengths
Number of Pixels in Spectrum: 1024
>>>>>Begin Spectral Data<<<<<
801.071	21895
801.214	21835
801.356	21625
801.499	21450
801.641	21249
801.783	21378
801.926	21298
802.068	21165
802.211	21123
802.353	21005
802.496	20929
802.638	20758
802.78	20701
802.923	20670
803.065	20552
803.208	20522
803.35	20686
803.492	20765
803.635	20739
803.777	20613
803.919	20659
804.061	20990
804.204	20667
804.346	20560
804.488	20423
804.63	20454
804.773	20419
804.915	20385
805.057	20552
805.199	20450
805.341	20526
805.483	20514
805.626	20556
805.768	20446
805.91	20594
806.052	20537
806.194	20427
806.336	20579
806.478	20431
806.62	20446
806.762	20651
806.904	20537
807.046	20819
807.188	20727
807.33	20727
807.472	20986
807.614	20758
807.756	20693
807.898	20571
808.04	20560
808.182	20541
808.324	20590
808.465	20727
808.607	20891
808.749	20750
808.891	20982
809.033	20925
809.174	20872
809.316	20788
809.458	20826
809.6	20769
809.741	20834
809.883	20925
810.025	20902
810.166	21039
810.308	21036
810.45	20956
810.591	20743
810.733	20781
810.875	20636
811.016	20606
811.158	20442
811.299	20606
811.441	20701
811.582	20682
811.724	20606
811.865	20465
812.007	20514
812.148	20636
812.29	20609
812.431	20773
812.573	20861
812.714	20990
812.855	21058
812.997	21195
813.138	21161
813.279	21260
813.421	21020
813.562	20990
813.703	20762
813.845	20815
813.986	20583
814.127	20419
814.268	20183
814.41	20301
814.551	20100
814.692	20005
814.833	20138
814.974	20142
815.115	20096
815.256	19974
815.397	19967
815.539	20119
815.68	19879
815.821	19681
815.962	19917
816.103	19791
816.244	19704
816.385	19666
816.526	19700
816.666	19438
816.807	19308
816.948	19396
817.089	19327
817.23	19308
817.371	19198
817.512	19259
817.653	19270
817.793	19282
817.934	19187
818.075	19263
818.216	19232
818.356	19126
818.497	19057
818.638	19000
818.778	18962
818.919	19008
819.06	18920
819.2	19084
819.341	19259
819.481	19053
819.622	19221
819.762	19491
819.903	19381
820.043	19396
820.184	19263
820.324	19278
820.465	19381
820.605	19213
820.746	19198
820.886	19034
821.026	19244
821.167	19141
821.307	19206
821.447	19293
821.588	19107
821.728	18958
821.868	18814
822.008	18738
822.149	18665
822.289	18700
822.429	18483
822.569	18391
822.709	18380
822.849	18232
822.99	18102
823.13	18087
823.27	18045
823.41	17984
823.55	17870
823.69	17954
823.83	17965
823.97	17882
824.11	17745
824.25	17661
824.389	17680
824.529	17855
824.669	17745
824.809	17840
824.949	17779
825.089	17745
825.228	17695
825.368	17478
825.508	17520
825.648	17604
825.787	17623
825.927	17684
826.067	17490
826.206	17455
826.346	17524
826.485	17562
826.625	17471
826.765	17668
826.904	17596
827.044	17364
827.183	17307
827.323	17189
827.462	17296
827.601	17208
827.741	17170
827.88	17231
828.02	17109
828.159	17242
828.298	17181
828.437	17261
828.577	17128
828.716	17307
828.855	17094
828.994	16968
829.134	16961
829.273	16968
829.412	16976
829.551	16908
829.69	16942
829.829	16980
829.968	17109
830.107	17022
830.246	16961
830.385	16847
830.524	16900
830.663	16839
830.802	16717
830.941	16611
831.08	16683
831.219	16615
831.357	16615
831.496	16835
831.635	16588
831.774	16554
831.913	16485
832.051	16280
832.19	16363
832.329	16489
832.467	16318
832.606	16200
832.744	16295
832.883	16310
833.022	16234
833.16	16242
833.299	16363
833.437	16314
833.576	16322
833.714	16280
833.852	16455
833.991	16413
834.129	16337
834.267	16421
834.406	16280
834.544	16382
834.682	16421
834.821	16386
834.959	16489
835.097	16295
835.235	16417
835.373	16451
835.511	16352
835.65	16299
835.788	16223
835.926	16109
836.064	16044
836.202	16112
836.34	16367
836.478	16348
836.615	16169
836.753	16230
836.891	16386
837.029	16280
837.167	16169
837.305	16105
837.443	16120
837.58	16101
837.718	16261
837.856	16158
837.993	16063
838.131	16204
838.269	16074
838.406	16109
838.544	15949
838.681	15876
838.819	15766
838.956	15671
839.094	15667
839.231	15762
839.369	15720
839.506	16181
839.643	15994
839.781	15728
839.918	15747
840.055	15778
840.193	15739
840.33	15705
840.467	15633
840.604	15739
840.742	15922
840.879	15553
841.016	15652
841.153	15671
841.29	15838
841.427	15709
841.564	15720
841.701	15743
841.838	15686
841.975	15679
842.112	15614
842.249	15526
842.385	15538
842.522	15633
842.659	15534
842.796	15500
842.933	15549
843.069	15431
843.206	15458
843.343	15580
843.479	15500
843.616	15454
843.752	15283
843.889	15325
844.025	15401
844.162	15287
844.298	15431
844.435	15260
844.571	15188
844.708	15363
844.844	15397
844.98	15363
845.117	15405
845.253	15127
845.389	15222
845.525	15195
845.661	15154
845.798	15154
845.934	15123
846.07	15039
846.206	15176
846.342	15169
846.478	15051
846.614	14929
846.75	14807
846.886	14750
847.022	14960
847.158	14864
847.294	15028
847.429	14864
847.565	14796
847.701	15039
847.837	14617
847.972	14590
848.108	14716
848.244	14689
848.379	14454
848.515	14431
848.65	14408
848.786	14484
848.921	14492
849.057	14507
849.192	14579
849.328	14457
849.463	14480
849.598	14404
849.734	14434
849.869	14290
850.004	14233
850.14	14282
850.275	14301
850.41	14161
850.545	14275
850.68	14202
850.815	14202
850.95	14286
851.085	14442
851.22	14309
851.355	14214
851.49	14168
851.625	14240
851.76	14233
851.895	14081
852.03	14081
852.165	14130
852.299	14210
852.434	14282
852.569	14183
852.703	14343
852.838	14355
852.973	14393
853.107	14389
853.242	14195
853.376	14107
853.511	13986
853.645	14062
853.78	14145
853.914	14073
854.048	14107
854.183	14084
854.317	14134
854.451	14237
854.585	14088
854.72	14031
854.854	14267
854.988	14081
855.122	14119
855.256	13925
855.39	14081
855.524	14218
855.658	14126
855.792	14069
855.926	14065
856.06	14103
856.194	14248
856.327	14081
856.461	14161
856.595	14069
856.729	13982
856.862	14172
856.996	14062
857.13	14157
857.263	14164
857.397	14191
857.53	14050
857.664	14054
857.797	14290
857.931	14244
858.064	14119
858.197	14088
858.331	14092
858.464	14027
858.597	14088
858.731	14149
858.864	14065
858.997	14069
859.13	14046
859.263	14008
859.396	14145
859.529	14050
859.662	13989
859.795	14058
859.928	14168
860.061	14195
860.194	14244
860.327	14092
860.46	14046
860.592	14176
860.725	14180
860.858	14225
860.99	14054
861.123	13993
861.256	14073
861.388	14031
861.521	14823
861.653	13879
861.786	13887
861.918	13906
862.05	14043
862.183	14115
862.315	14084
862.447	14138
862.58	14077
862.712	13868
862.844	13826
862.976	13967
863.108	13967
863.24	14168
863.372	13868
863.504	13883
863.636	13879
863.768	14008
863.9	13917
864.032	13780
864.164	13856
864.296	13833
864.428	14005
864.559	13967
864.691	13947
864.823	13898
864.954	13955
865.086	13887
865.217	13845
865.349	13822
865.48	13879
865.612	13856
865.743	14001
865.875	13967
866.006	13864
866.137	13925
866.269	13883
866.4	13837
866.531	13830
866.662	13795
866.793	13830
866.924	13799
867.055	13917
867.186	13833
867.317	13871
867.448	13746
867.579	13822
867.71	13769
867.841	13765
867.972	13833
868.103	13826
868.233	13799
868.364	13902
868.495	13936
868.625	14088
868.756	14256
868.886	14062
869.017	14111
869.147	14206
869.278	14225
869.408	14123
869.539	14168
869.669	14221
869.799	14157
869.929	14153
870.06	14301
870.19	14507
870.32	14438
870.45	14400
870.58	14617
870.71	14598
870.84	14590
870.97	14518
871.1	14469
871.23	14708
871.36	14670
871.489	14625
871.619	14651
871.749	14693
871.879	14743
872.008	14861
872.138	14727
872.267	14716
872.397	14579
872.526	14480
872.656	14507
872.785	14495
872.915	14746
873.044	14876
873.173	14796
873.303	14769
873.432	14834
873.561	14853
873.69	14693
873.819	14796
873.948	14910
874.077	14788
874.206	14682
874.335	14830
874.464	14899
874.593	15043
874.722	15001
874.851	15161
874.979	15024
875.108	15233
875.237	15055
875.365	15058
875.494	14994
875.623	15237
875.751	15058
875.88	15085
876.008	15313
876.136	15306
876.265	15481
876.393	15701
876.521	15701
876.65	15519
876.778	15549
876.906	15492
877.034	15511
877.162	15488
877.29	15405
877.418	15492
877.546	15534
877.674	15572
877.802	15466
877.93	15606
878.058	15447
878.185	15374
878.313	15519
878.441	15439
878.568	15435
878.696	15481
878.824	15507
878.951	15595
879.079	15568
879.206	15766
879.333	15656
879.461	15591
879.588	15568
879.715	15679
879.842	15694
879.97	15515
880.097	15351
880.224	15325
880.351	15397
880.478	15401
880.605	15386
880.732	15298
880.859	15504
880.986	15408
881.112	15374
881.239	15294
881.366	15138
881.493	15081
881.619	15077
881.746	15070
881.872	14956
881.999	15032
882.125	14891
882.252	15013
882.378	15066
882.505	15173
882.631	14990
882.757	14785
882.883	14853
883.01	14796
883.136	14750
883.262	14689
883.388	14648
883.514	14914
883.64	14876
883.766	14838
883.892	14670
884.018	14678
884.143	14720
884.269	14891
884.395	14651
884.52	14514
884.646	14560
884.772	14442
884.897	14556
885.023	14587
885.148	14602
885.274	14682
885.399	14655
885.524	14526
885.65	14594
885.775	14514
885.9	14514
886.025	14693
886.15	14651
886.275	14598
886.4	14434
886.525	14476
886.65	14465
886.775	14446
886.9	14621
887.025	14708
887.149	14556
887.274	14313
887.399	14381
887.523	14305
887.648	14301
887.773	14282
887.897	14423
888.021	14408
888.146	14328
888.27	14461
888.395	14438
888.519	14366
888.643	14404
888.767	14412
888.891	14218
889.015	14343
889.139	14240
889.263	14172
889.387	14332
889.511	14446
889.635	14381
889.759	14180
889.883	14259
890.006	14275
890.13	14427
890.254	14172
890.377	14123
890.501	14043
890.624	14065
890.748	14172
890.871	14027
890.995	13955
891.118	13906
891.241	13928
891.364	13917
891.488	13986
891.611	13871
891.734	13947
891.857	14039
891.98	14008
892.103	14054
892.226	13982
892.349	13860
892.471	13856
892.594	13921
892.717	13986
892.839	13936
892.962	13883
893.085	13997
893.207	13936
893.33	13871
893.452	13959
893.575	14096
893.697	13932
893.819	14130
893.941	14168
894.064	14149
894.186	13875
894.308	14005
894.43	14065
894.552	14195
894.674	14111
894.796	13947
894.918	14039
895.04	13967
895.161	14157
895.283	14115
895.405	14035
895.526	14065
895.648	14062
895.769	14107
895.891	14195
896.012	14191
896.134	14221
896.255	14111
896.376	14058
896.498	14027
896.619	14199
896.74	14119
896.861	14214
896.982	14507
897.103	14663
897.224	14404
897.345	14423
897.466	14336
897.587	14404
897.708	14541
897.828	14537
897.949	14434
898.07	14267
898.19	14412
898.311	14480
898.431	14450
898.552	14549
898.672	14640
898.792	14678
898.913	14465
899.033	14526
899.153	14336
899.273	14221
899.393	14309
899.513	14393
899.633	14282
899.753	14400
899.873	14358
899.993	14442
900.113	14370
900.232	14358
900.352	14309
900.472	14317
900.591	14164
900.711	14237
900.83	14206
900.95	14320
901.069	14385
901.189	14123
901.308	13883
901.427	13925
901.546	13925
901.665	13940
901.784	13944
901.904	13757
902.023	13750
902.141	13483
902.26	13472
902.379	13594
902.498	13403
902.617	13468
902.735	13506
902.854	13426
902.973	13396
903.091	13137
903.21	13168
903.328	13240
903.446	13122
903.565	13061
903.683	13069
903.801	12901
903.919	12909
904.038	13000
904.156	12825
904.274	12954
904.392	12817
904.51	12806
904.627	12897
904.745	12966
904.863	12920
904.981	12665
905.098	12483
905.216	12601
905.334	12532
905.451	12555
905.569	12517
905.686	12585
905.803	12555
905.921	12388
906.038	12475
906.155	12395
906.272	12296
906.389	12281
906.506	12060
906.623	12114
906.74	12182
906.857	12053
906.974	12030
907.091	12148
907.208	12357
907.324	12159
907.441	12057
907.557	11977
907.674	11859
907.79	11828
907.907	11840
908.023	11897
908.139	11980
908.256	11859
908.372	11855
908.488	11786
908.604	11627
908.72	11642
908.836	11570
908.952	11642
909.068	11710
909.184	11737
909.3	11619
909.415	11691
909.531	11653
909.647	11429
909.762	11387
909.878	11455
909.993	11444
910.108	11391
910.224	11360
910.339	11452
910.454	11376
910.57	11246
910.685	11223
910.8	11608
910.915	11463
911.03	11250
911.145	11185
911.259	11143
911.374	11140
911.489	10995
911.604	11083
911.718	10866
911.833	10927
911.947	10835
912.062	10706
912.176	10843
912.291	10934
912.405	10889
912.519	11128
912.633	11102
912.748	10961
912.862	10965
912.976	10858
913.09	10618
913.204	10748
913.318	10717
913.431	10892
913.545	10797
913.659	10889
913.772	10828
913.886	10679
914	10702
914.113	10672
914.226	10824
914.34	10778
914.453	10569
914.566	10763
914.68	10580
914.793	10603
914.906	10375
915.019	10386
915.132	10337
915.245	10375
915.358	10443
915.47	10390
915.583	10382
915.696	10424
915.809	10531
915.921	10603
916.034	10314
916.146	10253
916.259	10322
916.371	10443
916.483	10474
916.595	10322
916.708	10352
916.82	10341
916.932	10310
917.044	10367
917.156	10303
917.268	10204
917.38	10257
917.491	10219
917.603	10291
917.715	10284
917.826	10333
917.938	10169
918.049	10131
918.161	10238
918.272	10402
918.384	10318
918.495	10261
918.606	10154
918.717	10013
918.828	10162
918.939	10181
919.05	10044
919.161	10158
919.272	9884
919.383	10025
919.494	10188
919.604	10375
919.715	10181
919.826	10010
919.936	10071
920.047	10215
920.157	10150
920.267	10299
920.378	10154
920.488	10135
920.598	10291
920.708	10504
920.818	10344
920.928	10337
921.038	10428
921.148	10466
921.258	10131
921.368	10139
921.477	10040
921.587	9918
921.697	9937
921.806	10055
921.916	9907
922.025	9800
922.134	9682
922.244	9720
922.353	9766
922.462	9572
922.571	9534
922.68	9416
922.789	9397
922.898	9397
923.007	9310
923.116	9431
923.224	9393
923.333	9416
923.442	9287
923.55	9249
923.659	9302
923.767	9329
923.876	9233
923.984	9260
924.092	9264
924.201	9294
924.309	9207
924.417	9302
924.525	9176
924.633	9253
924.741	9953
924.849	9104
924.956	9268
925.064	9070
925.172	8952
925.279	9036
925.387	9108
925.494	9077
925.602	9184
925.709	9119
925.816	9043
925.924	9043
926.031	9150
926.138	9077
926.245	9119
926.352	8929
926.459	9142
926.566	9154
926.673	8929
926.779	8925
926.886	8929
926.993	8788
927.099	8750
927.206	8648
927.312	8670
927.419	8815
927.525	8758
927.631	8849
927.737	8693
927.843	8678
927.95	8552
928.056	8705
928.162	8632
928.267	8724
928.373	9222
928.479	8777
928.585	8469
928.69	8644
928.796	8701
928.901	8545
929.007	8473
929.112	8583
929.218	8541
929.323	8484
929.428	8492
929.533	8701
929.638	8454
929.743	8438
929.848	8457
929.953	8469
930.058	8431
930.163	8252
930.267	8267
930.372	8434
930.477	8161
930.581	8415
930.685	8377
930.79	8187
930.894	8256
930.998	8161
931.103	8358
931.207	8005
931.311	7963
931.415	7879
931.519	7746
931.623	7765
