Data from test_V78500241_1476.txt Node
Date: Fri Mar 25 14:43:59 CST 2022
User: usil
Spectrometer: V785-0024
Trigger mode: 0
Integration Time (sec): 4.000000E-1
Scans to average: 1
Nonlinearity correction enabled: false
Boxcar width: 0
Storing dark spectrum: false
XAxis mode: Wavelengths
Number of Pixels in Spectrum: 1024
>>>>>Begin Spectral Data<<<<<
801.071	22561
801.214	22257
801.356	22219
801.499	21975
801.641	21759
801.783	21876
801.926	21785
802.068	21797
802.211	21705
802.353	21667
802.496	21252
802.638	21351
802.78	21279
802.923	21184
803.065	21116
803.208	21093
803.35	21154
803.492	21203
803.635	21313
803.777	21119
803.919	21332
804.061	21492
804.204	21203
804.346	21051
804.488	21001
804.63	21024
804.773	20933
804.915	21157
805.057	21123
805.199	21013
805.341	21070
805.483	21146
805.626	21199
805.768	20948
805.91	21081
806.052	21001
806.194	21017
806.336	21241
806.478	20994
806.62	21017
806.762	21138
806.904	21313
807.046	21504
807.188	21450
807.33	21329
807.472	21515
807.614	21344
807.756	21370
807.898	21332
808.04	21184
808.182	21344
808.324	21359
808.465	21393
808.607	21618
808.749	21785
808.891	21739
809.033	21861
809.174	21694
809.316	21526
809.458	21606
809.6	21466
809.741	21492
809.883	21713
810.025	21690
810.166	21831
810.308	21618
810.45	21583
810.591	21469
810.733	21367
810.875	21275
811.016	21176
811.158	21176
811.299	21180
811.441	21435
811.582	21359
811.724	21256
811.865	21207
812.007	21298
812.148	21245
812.29	21272
812.431	21405
812.573	21682
812.714	21591
812.855	21622
812.997	21800
813.138	21975
813.279	21789
813.421	21835
813.562	21717
813.703	21542
813.845	21405
813.986	21180
814.127	20952
814.268	20746
814.41	20842
814.551	20823
814.692	20891
814.833	20708
814.974	20743
815.115	20632
815.256	20549
815.397	20632
815.539	20499
815.68	20461
815.821	20469
815.962	20549
816.103	20461
816.244	20301
816.385	20275
816.526	20370
816.666	20081
816.807	19845
816.948	20001
817.089	20031
817.23	19974
817.371	19894
817.512	19978
817.653	19868
817.793	19826
817.934	19856
818.075	19883
818.216	19967
818.356	19944
818.497	19772
818.638	19655
818.778	19700
818.919	19594
819.06	19662
819.2	19776
819.341	19681
819.481	19849
819.622	19849
819.762	20202
819.903	20084
820.043	20054
820.184	19997
820.324	19951
820.465	20008
820.605	19913
820.746	19936
820.886	19734
821.026	19814
821.167	19788
821.307	19997
821.447	19852
821.588	19696
821.728	19544
821.868	19468
822.008	19369
822.149	19225
822.289	19228
822.429	19019
822.569	19000
822.709	18996
822.849	18810
822.99	18825
823.13	18795
823.27	18749
823.41	18665
823.55	18612
823.69	18582
823.83	18540
823.97	18635
824.11	18441
824.25	18281
824.389	18281
824.529	18338
824.669	18384
824.809	18460
824.949	18494
825.089	18437
825.228	18357
825.368	18235
825.508	18136
825.648	18102
825.787	18213
825.927	18178
826.067	18159
826.206	18144
826.346	18106
826.485	18140
826.625	18133
826.765	18258
826.904	18110
827.044	17878
827.183	17840
827.323	17870
827.462	17882
827.601	17813
827.741	17767
827.88	17870
828.02	17817
828.159	17855
828.298	17840
828.437	17889
828.577	17741
828.716	17863
828.855	17790
828.994	17638
829.134	17577
829.273	17726
829.412	17619
829.551	17581
829.69	17463
829.829	17592
829.968	17710
830.107	17638
830.246	17581
830.385	17459
830.524	17478
830.663	17421
830.802	17242
830.941	17178
831.08	17212
831.219	17197
831.357	17189
831.496	17421
831.635	17242
831.774	17147
831.913	17067
832.051	17029
832.19	17010
832.329	17075
832.467	16976
832.606	16835
832.744	16892
832.883	16740
833.022	16828
833.16	16866
833.299	16972
833.437	16786
833.576	16919
833.714	16999
833.852	16923
833.991	16908
834.129	17060
834.267	16972
834.406	16885
834.544	16991
834.682	16835
834.821	16915
834.959	17113
835.097	16892
835.235	16957
835.373	16908
835.511	17025
835.65	16904
835.788	16835
835.926	16618
836.064	16569
836.202	16607
836.34	16885
836.478	16930
836.615	16873
836.753	16881
836.891	16911
837.029	16889
837.167	16828
837.305	16820
837.443	16706
837.58	16618
837.718	16702
837.856	16755
837.993	16656
838.131	16679
838.269	16634
838.406	16713
838.544	16504
838.681	16402
838.819	16390
838.956	16276
839.094	16207
839.231	16333
839.369	16504
839.506	16588
839.643	16546
839.781	16257
839.918	16169
840.055	16215
840.193	16215
840.33	16097
840.467	16192
840.604	16295
840.742	16523
840.879	16071
841.016	16181
841.153	16109
841.29	16348
841.427	16348
841.564	16356
841.701	16287
841.838	16173
841.975	16059
842.112	16120
842.249	15994
842.385	16051
842.522	16162
842.659	16071
842.796	15960
842.933	15907
843.069	15930
843.206	15953
843.343	16135
843.479	16059
843.616	16029
843.752	15728
843.889	15846
844.025	16013
844.162	15720
844.298	15941
844.435	15907
844.571	15751
844.708	15903
844.844	16074
844.98	15960
845.117	15918
845.253	15732
845.389	15694
845.525	15717
845.661	15671
845.798	15759
845.934	15865
846.07	15823
846.206	16013
846.342	15956
846.478	15770
846.614	15389
846.75	15428
846.886	15336
847.022	15428
847.158	15378
847.294	15473
847.429	15393
847.565	15408
847.701	15568
847.837	15154
847.972	15070
848.108	15199
848.244	15138
848.379	14952
848.515	14910
848.65	14765
848.786	14944
848.921	15085
849.057	15089
849.192	15116
849.328	15028
849.463	15017
849.598	14861
849.734	14887
849.869	14785
850.004	14648
850.14	14754
850.275	14712
850.41	14659
850.545	14708
850.68	14708
850.815	14735
850.95	14781
851.085	14807
851.22	14796
851.355	14689
851.49	14720
851.625	14610
851.76	14670
851.895	14530
852.03	14640
852.165	14632
852.299	14659
852.434	14716
852.569	14754
852.703	14724
852.838	14845
852.973	14842
853.107	14773
853.242	14629
853.376	14644
853.511	14598
853.645	14514
853.78	14735
853.914	14636
854.048	14495
854.183	14617
854.317	14640
854.451	14636
854.585	14636
854.72	14613
854.854	14731
854.988	14587
855.122	14598
855.256	14389
855.39	14625
855.524	14697
855.658	14651
855.792	14701
855.926	14602
856.06	14697
856.194	14727
856.327	14602
856.461	14556
856.595	14621
856.729	14648
856.862	14697
856.996	14663
857.13	14735
857.263	14606
857.397	14735
857.53	14587
857.664	14686
857.797	14720
857.931	14735
858.064	14716
858.197	14735
858.331	14606
858.464	14552
858.597	14545
858.731	14621
858.864	14667
858.997	14537
859.13	14590
859.263	14697
859.396	14686
859.529	14636
859.662	14590
859.795	14571
859.928	14629
860.061	14754
860.194	14853
860.327	14594
860.46	14533
860.592	14697
860.725	14773
860.858	14792
860.99	14636
861.123	14564
861.256	14564
861.388	14621
861.521	15321
861.653	14575
861.786	14522
861.918	14476
862.05	14533
862.183	14613
862.315	14625
862.447	14674
862.58	14583
862.712	14415
862.844	14317
862.976	14408
863.108	14530
863.24	14830
863.372	14317
863.504	14374
863.636	14408
863.768	14434
863.9	14343
864.032	14332
864.164	14377
864.296	14400
864.428	14514
864.559	14442
864.691	14446
864.823	14499
864.954	14434
865.086	14358
865.217	14431
865.349	14324
865.48	14343
865.612	14415
865.743	14610
865.875	14343
866.006	14286
866.137	14454
866.269	14374
866.4	14415
866.531	14320
866.662	14244
866.793	14244
866.924	14385
867.055	14450
867.186	14362
867.317	14442
867.448	14210
867.579	14298
867.71	14309
867.841	14313
867.972	14377
868.103	14305
868.233	14377
868.364	14423
868.495	14469
868.625	14568
868.756	14788
868.886	14465
869.017	14613
869.147	14716
869.278	14735
869.408	14613
869.539	14533
869.669	14739
869.799	14632
869.929	14773
870.06	14781
870.19	14956
870.32	14887
870.45	15009
870.58	14967
870.71	15097
870.84	15039
870.97	14937
871.1	14929
871.23	15214
871.36	15218
871.489	15093
871.619	15161
871.749	15249
871.879	15211
872.008	15313
872.138	15249
872.267	15241
872.397	15051
872.526	14967
872.656	14963
872.785	14994
872.915	15226
873.044	15279
873.173	15214
873.303	15298
873.432	15283
873.561	15226
873.69	15340
873.819	15348
873.948	15412
874.077	15249
874.206	15214
874.335	15294
874.464	15363
874.593	15606
874.722	15424
874.851	15587
874.979	15545
875.108	15587
875.237	15595
875.365	15439
875.494	15641
875.623	15652
875.751	15450
875.88	15618
876.008	15781
876.136	15899
876.265	15994
876.393	16135
876.521	16063
876.65	16093
876.778	15991
876.906	15903
877.034	15949
877.162	15945
877.29	15892
877.418	16025
877.546	15945
877.674	15987
877.802	15960
877.93	15975
878.058	15979
878.185	15884
878.313	15926
878.441	16002
878.568	15842
878.696	15987
878.824	16036
878.951	16177
879.079	16234
879.206	16424
879.333	16230
879.461	16177
879.588	16204
879.715	16215
879.842	16325
879.97	16242
880.097	15846
880.224	15983
880.351	16002
880.478	15987
880.605	15915
880.732	15926
880.859	16135
880.986	15911
881.112	15895
881.239	15895
881.366	15641
881.493	15610
881.619	15542
881.746	15553
881.872	15530
881.999	15485
882.125	15473
882.252	15557
882.378	15534
882.505	15591
882.631	15412
882.757	15291
882.883	15382
883.01	15359
883.136	15291
883.262	15237
883.388	15108
883.514	15367
883.64	15408
883.766	15272
883.892	15169
884.018	15188
884.143	15294
884.269	15450
884.395	15093
884.52	14994
884.646	14914
884.772	14906
884.897	14990
885.023	15055
885.148	15074
885.274	15165
885.399	15203
885.524	15081
885.65	15043
885.775	15051
885.9	15013
886.025	15146
886.15	15142
886.275	14887
886.4	14849
886.525	14921
886.65	14982
886.775	14899
886.9	15233
887.025	15169
887.149	14921
887.274	14876
887.399	14811
887.523	14899
887.648	14758
887.773	14670
887.897	14998
888.021	14963
888.146	14842
888.27	14960
888.395	14971
888.519	14967
888.643	14842
888.767	14891
888.891	14670
889.015	14746
889.139	14743
889.263	14765
889.387	14857
889.511	14944
889.635	14842
889.759	14746
889.883	14773
890.006	14754
890.13	14811
890.254	14689
890.377	14629
890.501	14560
890.624	14545
890.748	14530
890.871	14415
890.995	14317
891.118	14381
891.241	14434
891.364	14362
891.488	14511
891.611	14374
891.734	14324
891.857	14495
891.98	14438
892.103	14450
892.226	14427
892.349	14358
892.471	14229
892.594	14374
892.717	14408
892.839	14404
892.962	14374
893.085	14389
893.207	14423
893.33	14309
893.452	14263
893.575	14434
893.697	14351
893.819	14492
893.941	14530
894.064	14545
894.186	14362
894.308	14282
894.43	14469
894.552	14560
894.674	14461
894.796	14431
894.918	14355
895.04	14434
895.161	14495
895.283	14522
895.405	14377
895.526	14473
895.648	14450
895.769	14495
895.891	14598
896.012	14579
896.134	14594
896.255	14469
896.376	14526
896.498	14655
896.619	14560
896.74	14613
896.861	14625
896.982	14849
897.103	15077
897.224	14891
897.345	14765
897.466	14648
897.587	14750
897.708	14914
897.828	14952
897.949	14765
898.07	14777
898.19	14750
898.311	14921
898.431	14807
898.552	14914
898.672	14967
898.792	14994
898.913	14861
899.033	14887
899.153	14625
899.273	14648
899.393	14682
899.513	14819
899.633	14830
899.753	14693
899.873	14689
899.993	14792
900.113	14739
900.232	14754
900.352	14788
900.472	14602
900.591	14522
900.711	14678
900.83	14560
900.95	14689
901.069	14716
901.189	14499
901.308	14336
901.427	14294
901.546	14332
901.665	14347
901.784	14259
901.904	14164
902.023	14119
902.141	13883
902.26	13936
902.379	13951
902.498	13856
902.617	13776
902.735	13871
902.854	13890
902.973	13795
903.091	13597
903.21	13636
903.328	13552
903.446	13403
903.565	13400
903.683	13468
903.801	13339
903.919	13369
904.038	13441
904.156	13240
904.274	13278
904.392	13270
904.51	13255
904.627	13285
904.745	13244
904.863	13225
904.981	13012
905.098	12939
905.216	12947
905.334	12909
905.451	12935
905.569	12916
905.686	12966
905.803	12932
905.921	12753
906.038	12825
906.155	12703
906.272	12631
906.389	12753
906.506	12498
906.623	12506
906.74	12490
906.857	12353
906.974	12456
907.091	12494
907.208	12776
907.324	12441
907.441	12399
907.557	12281
907.674	12266
907.79	12106
907.907	12182
908.023	12182
908.139	12251
908.256	12167
908.372	12114
908.488	12136
908.604	11992
908.72	11901
908.836	11988
908.952	11916
909.068	11939
909.184	12155
909.3	12038
909.415	12030
909.531	12003
909.647	11676
909.762	11748
909.878	11764
909.993	11802
910.108	11680
910.224	11695
910.339	11794
910.454	11699
910.57	11592
910.685	11528
910.8	11817
910.915	11703
911.03	11592
911.145	11532
911.259	11440
911.374	11398
911.489	11429
911.604	11337
911.718	11269
911.833	11269
911.947	11067
912.062	11098
912.176	11197
912.291	11189
912.405	11174
912.519	11372
912.633	11410
912.748	11265
912.862	11208
912.976	11014
913.09	11018
913.204	11048
913.318	11041
913.431	11147
913.545	11212
913.659	11227
913.772	11064
913.886	11006
914	10987
914.113	11041
914.226	11052
914.34	11056
914.453	10911
914.566	11136
914.68	10949
914.793	10850
914.906	10774
915.019	10626
915.132	10523
915.245	10660
915.358	10721
915.47	10691
915.583	10702
915.696	10752
915.809	10774
915.921	10831
916.034	10683
916.146	10626
916.259	10649
916.371	10744
916.483	10668
916.595	10603
916.708	10664
916.82	10653
916.932	10588
917.044	10630
917.156	10615
917.268	10512
917.38	10500
917.491	10451
917.603	10561
917.715	10508
917.826	10641
917.938	10542
918.049	10421
918.161	10538
918.272	10641
918.384	10592
918.495	10588
918.606	10466
918.717	10261
918.828	10447
918.939	10474
919.05	10348
919.161	10360
919.272	10154
919.383	10166
919.494	10428
919.604	10622
919.715	10398
919.826	10363
919.936	10375
920.047	10432
920.157	10409
920.267	10630
920.378	10405
920.488	10390
920.598	10592
920.708	10755
920.818	10603
920.928	10580
921.038	10717
921.148	10706
921.258	10519
921.368	10356
921.477	10238
921.587	10322
921.697	10143
921.806	10291
921.916	10128
922.025	10032
922.134	10013
922.244	9907
922.353	10067
922.462	9892
922.571	9842
922.68	9713
922.789	9633
922.898	9667
923.007	9576
923.116	9713
923.224	9660
923.333	9637
923.442	9606
923.55	9557
923.659	9542
923.767	9614
923.876	9481
923.984	9629
924.092	9545
924.201	9641
924.309	9523
924.417	9545
924.525	9447
924.633	9462
924.741	10413
924.849	9294
924.956	9412
925.064	9306
925.172	9256
925.279	9256
925.387	9302
925.494	9344
925.602	9481
925.709	9466
925.816	9211
925.924	9279
926.031	9382
926.138	9340
926.245	9348
926.352	9211
926.459	9439
926.566	9424
926.673	9348
926.779	9233
926.886	9135
926.993	9089
927.099	9020
927.206	9001
927.312	8960
927.419	9104
927.525	9062
927.631	9100
927.737	8937
927.843	8868
927.95	8815
928.056	8921
928.162	8952
928.267	9097
928.373	9580
928.479	9077
928.585	8762
928.69	8929
928.796	8876
928.901	8868
929.007	8743
929.112	8861
929.218	8807
929.323	8796
929.428	8712
929.533	8857
929.638	8629
929.743	8712
929.848	8804
929.953	8720
930.058	8640
930.163	8465
930.267	8571
930.372	8583
930.477	8469
930.581	8724
930.685	8568
930.79	8434
930.894	8488
930.998	8465
931.103	8545
931.207	8282
931.311	8157
931.415	8180
931.519	7982
931.623	7947
