Data from test_V78500241_424.txt Node
Date: Fri Mar 25 14:36:40 CST 2022
User: usil
Spectrometer: V785-0024
Trigger mode: 0
Integration Time (sec): 4.000000E-1
Scans to average: 1
Nonlinearity correction enabled: false
Boxcar width: 0
Storing dark spectrum: false
XAxis mode: Wavelengths
Number of Pixels in Spectrum: 1024
>>>>>Begin Spectral Data<<<<<
801.071	26514
801.214	26549
801.356	26214
801.499	26248
801.641	26134
801.783	25940
801.926	25959
802.068	26084
802.211	25833
802.353	25875
802.496	25594
802.638	25750
802.78	25666
802.923	25662
803.065	25403
803.208	25514
803.35	25487
803.492	25738
803.635	25700
803.777	25521
803.919	25567
804.061	25917
804.204	25628
804.346	25696
804.488	25578
804.63	25491
804.773	25464
804.915	25594
805.057	25750
805.199	25559
805.341	25525
805.483	25639
805.626	25525
805.768	25510
805.91	25559
806.052	25533
806.194	25460
806.336	25765
806.478	25537
806.62	25506
806.762	25655
806.904	25852
807.046	26073
807.188	25974
807.33	25925
807.472	25993
807.614	25776
807.756	25791
807.898	25799
808.04	25795
808.182	25765
808.324	25719
808.465	25738
808.607	25841
808.749	26069
808.891	26069
809.033	26271
809.174	26130
809.316	26145
809.458	26024
809.6	25928
809.741	26195
809.883	26259
810.025	26343
810.166	26286
810.308	26191
810.45	26301
810.591	26100
810.733	26012
810.875	25921
811.016	25807
811.158	25852
811.299	25944
811.441	26107
811.582	26176
811.724	25951
811.865	25833
812.007	25845
812.148	25947
812.29	25959
812.431	26020
812.573	26225
812.714	26214
812.855	26320
812.997	26560
813.138	26651
813.279	26495
813.421	26332
813.562	26415
813.703	26195
813.845	25966
813.986	25662
814.127	25674
814.268	25582
814.41	25613
814.551	25525
814.692	25525
814.833	25434
814.974	25434
815.115	25373
815.256	25213
815.397	25270
815.539	25320
815.68	25183
815.821	25122
815.962	25259
816.103	25236
816.244	25095
816.385	24916
816.526	24996
816.666	24844
816.807	24593
816.948	24669
817.089	24753
817.23	24616
817.371	24642
817.512	24483
817.653	24616
817.793	24620
817.934	24574
818.075	24700
818.216	24700
818.356	24414
818.497	24521
818.638	24304
818.778	24361
818.919	24308
819.06	24235
819.2	24327
819.341	24342
819.481	24452
819.622	24505
819.762	24821
819.903	24745
820.043	24608
820.184	24509
820.324	24669
820.465	24764
820.605	24642
820.746	24665
820.886	24509
821.026	24525
821.167	24623
821.307	24574
821.447	24494
821.588	24266
821.728	24289
821.868	24018
822.008	23958
822.149	23859
822.289	23802
822.429	23752
822.569	23505
822.709	23573
822.849	23505
822.99	23277
823.13	23349
823.27	23318
823.41	23288
823.55	23185
823.69	23220
823.83	23124
823.97	23094
824.11	22999
824.25	22824
824.389	22873
824.529	23018
824.669	22873
824.809	23006
824.949	22991
825.089	22987
825.228	22911
825.368	22721
825.508	22763
825.648	22748
825.787	22782
825.927	22812
826.067	22687
826.206	22710
826.346	22927
826.485	22847
826.625	22744
826.765	22805
826.904	22828
827.044	22508
827.183	22626
827.323	22409
827.462	22440
827.601	22356
827.741	22409
827.88	22417
828.02	22318
828.159	22303
828.298	22337
828.437	22504
828.577	22280
828.716	22516
828.855	22379
828.994	22070
829.134	22017
829.273	22265
829.412	22078
829.551	21934
829.69	22135
829.829	22150
829.968	22059
830.107	22154
830.246	22029
830.385	21983
830.524	21884
830.663	21717
830.802	21800
830.941	21618
831.08	21637
831.219	21751
831.357	21709
831.496	22021
831.635	21701
831.774	21561
831.913	21595
832.051	21530
832.19	21359
832.329	21332
832.467	21355
832.606	21233
832.744	21382
832.883	21344
833.022	21283
833.16	21348
833.299	21370
833.437	21317
833.576	21340
833.714	21256
833.852	21405
833.991	21310
834.129	21363
834.267	21458
834.406	21370
834.544	21321
834.682	21336
834.821	21287
834.959	21538
835.097	21302
835.235	21348
835.373	21291
835.511	21272
835.65	21127
835.788	21066
835.926	21146
836.064	20941
836.202	20914
836.34	21081
836.478	21138
836.615	21157
836.753	21089
836.891	21195
837.029	21089
837.167	21157
837.305	21173
837.443	20994
837.58	21017
837.718	21062
837.856	21112
837.993	21043
838.131	21036
838.269	20807
838.406	20941
838.544	20883
838.681	20792
838.819	20640
838.956	20415
839.094	20454
839.231	20492
839.369	20663
839.506	20857
839.643	20708
839.781	20492
839.918	20408
840.055	20560
840.193	20408
840.33	20351
840.467	20355
840.604	20381
840.742	20632
840.879	20343
841.016	20244
841.153	20259
841.29	20450
841.427	20396
841.564	20317
841.701	20385
841.838	20301
841.975	20244
842.112	20294
842.249	20153
842.385	20244
842.522	20282
842.659	20157
842.796	20122
842.933	20024
843.069	20058
843.206	19982
843.343	20126
843.479	20206
843.616	20058
843.752	19833
843.889	19947
844.025	20088
844.162	19864
844.298	19894
844.435	19993
844.571	19723
844.708	19925
844.844	20145
844.98	19928
845.117	19925
845.253	19772
845.389	19761
845.525	19807
845.661	19780
845.798	19613
845.934	19616
846.07	19601
846.206	19674
846.342	19826
846.478	19753
846.614	19487
846.75	19266
846.886	19369
847.022	19430
847.158	19377
847.294	19304
847.429	19396
847.565	19396
847.701	19556
847.837	19072
847.972	19019
848.108	19187
848.244	19122
848.379	18890
848.515	18837
848.65	18859
848.786	18863
848.921	18783
849.057	18951
849.192	18966
849.328	18916
849.463	18981
849.598	18867
849.734	18700
849.869	18844
850.004	18715
850.14	18665
850.275	18711
850.41	18513
850.545	18578
850.68	18460
850.815	18665
850.95	18749
851.085	18776
851.22	18692
851.355	18585
851.49	18593
851.625	18521
851.76	18620
851.895	18532
852.03	18452
852.165	18559
852.299	18650
852.434	18623
852.569	18715
852.703	18608
852.838	18646
852.973	18753
853.107	18741
853.242	18593
853.376	18532
853.511	18304
853.645	18395
853.78	18532
853.914	18563
854.048	18464
854.183	18441
854.317	18441
854.451	18601
854.585	18391
854.72	18429
854.854	18620
854.988	18414
855.122	18445
855.256	18285
855.39	18410
855.524	18578
855.658	18456
855.792	18536
855.926	18509
856.06	18429
856.194	18627
856.327	18467
856.461	18395
856.595	18350
856.729	18502
856.862	18513
856.996	18544
857.13	18597
857.263	18559
857.397	18650
857.53	18433
857.664	18570
857.797	18563
857.931	18616
858.064	18555
858.197	18536
858.331	18460
858.464	18456
858.597	18422
858.731	18418
858.864	18357
858.997	18486
859.13	18467
859.263	18414
859.396	18536
859.529	18452
859.662	18372
859.795	18361
859.928	18460
860.061	18585
860.194	18646
860.327	18490
860.46	18414
860.592	18456
860.725	18410
860.858	18513
860.99	18445
861.123	18319
861.256	18369
861.388	18441
861.521	19198
861.653	18201
861.786	18285
861.918	18232
862.05	18334
862.183	18456
862.315	18494
862.447	18471
862.58	18380
862.712	18159
862.844	18209
862.976	18270
863.108	18308
863.24	18547
863.372	18102
863.504	18197
863.636	18216
863.768	18209
863.9	18095
864.032	18110
864.164	18102
864.296	18125
864.428	18201
864.559	18163
864.691	18209
864.823	18053
864.954	18136
865.086	18057
865.217	18003
865.349	17969
865.48	18091
865.612	18057
865.743	18076
865.875	18117
866.006	17973
866.137	18041
866.269	18053
866.4	18076
866.531	18019
866.662	18003
866.793	18026
866.924	18011
867.055	17988
867.186	17988
867.317	17885
867.448	17999
867.579	17885
867.71	17939
867.841	18038
867.972	18026
868.103	18022
868.233	17969
868.364	18034
868.495	18155
868.625	18289
868.756	18407
868.886	18121
869.017	18334
869.147	18384
869.278	18311
869.408	18361
869.539	18213
869.669	18357
869.799	18327
869.929	18372
870.06	18380
870.19	18540
870.32	18559
870.45	18547
870.58	18661
870.71	18646
870.84	18681
870.97	18528
871.1	18669
871.23	18677
871.36	18829
871.489	18692
871.619	18837
871.749	18806
871.879	18901
872.008	18996
872.138	18700
872.267	18897
872.397	18749
872.526	18627
872.656	18715
872.785	18631
872.915	18768
873.044	18878
873.173	18970
873.303	18886
873.432	18859
873.561	18996
873.69	18932
873.819	18970
873.948	19076
874.077	18856
874.206	19034
874.335	18776
874.464	19072
874.593	19114
874.722	19080
874.851	19072
874.979	19209
875.108	19259
875.237	19129
875.365	19000
875.494	19145
875.623	19221
875.751	19148
875.88	19145
876.008	19339
876.136	19289
876.265	19559
876.393	19727
876.521	19586
876.65	19624
876.778	19514
876.906	19548
877.034	19620
877.162	19556
877.29	19449
877.418	19533
877.546	19449
877.674	19529
877.802	19559
877.93	19434
878.058	19506
878.185	19400
878.313	19529
878.441	19525
878.568	19392
878.696	19468
878.824	19506
878.951	19582
879.079	19780
879.206	19826
879.333	19712
879.461	19655
879.588	19662
879.715	19814
879.842	19822
879.97	19704
880.097	19453
880.224	19396
880.351	19468
880.478	19468
880.605	19301
880.732	19476
880.859	19670
880.986	19392
881.112	19369
881.239	19225
881.366	19179
881.493	19031
881.619	18970
881.746	19137
881.872	19019
881.999	18875
882.125	18859
882.252	19141
882.378	19061
882.505	19156
882.631	18890
882.757	18852
882.883	18821
883.01	18722
883.136	18681
883.262	18639
883.388	18528
883.514	18768
883.64	18837
883.766	18779
883.892	18559
884.018	18639
884.143	18802
884.269	18894
884.395	18464
884.52	18441
884.646	18498
884.772	18292
884.897	18296
885.023	18429
885.148	18506
885.274	18570
885.399	18563
885.524	18365
885.65	18399
885.775	18445
885.9	18467
886.025	18582
886.15	18498
886.275	18376
886.4	18205
886.525	18334
886.65	18315
886.775	18391
886.9	18532
887.025	18494
887.149	18380
887.274	18224
887.399	18247
887.523	18285
887.648	18098
887.773	18057
887.897	18292
888.021	18136
888.146	18182
888.27	18235
888.395	18224
888.519	18292
888.643	18205
888.767	18201
888.891	18091
889.015	17992
889.139	17988
889.263	17961
889.387	18083
889.511	18049
889.635	18178
889.759	18045
889.883	18003
890.006	18019
890.13	18049
890.254	17840
890.377	17916
890.501	17710
890.624	17756
890.748	17855
890.871	17573
890.995	17604
891.118	17627
891.241	17581
891.364	17623
891.488	17786
891.611	17558
891.734	17604
891.857	17676
891.98	17638
892.103	17676
892.226	17684
892.349	17592
892.471	17440
892.594	17562
892.717	17562
892.839	17471
892.962	17535
893.085	17756
893.207	17524
893.33	17448
893.452	17425
893.575	17619
893.697	17482
893.819	17695
893.941	17760
894.064	17691
894.186	17554
894.308	17501
894.43	17687
894.552	17687
894.674	17646
894.796	17463
894.918	17433
895.04	17471
895.161	17623
895.283	17684
895.405	17566
895.526	17585
895.648	17562
895.769	17653
895.891	17512
896.012	17619
896.134	17722
896.255	17687
896.376	17623
896.498	17611
896.619	17718
896.74	17741
896.861	17726
896.982	18026
897.103	18197
897.224	17935
897.345	17904
897.466	17840
897.587	17760
897.708	17965
897.828	17908
897.949	17752
898.07	17672
898.19	17859
898.311	17969
898.431	17828
898.552	17897
898.672	17988
898.792	17897
898.913	17851
899.033	17783
899.153	17627
899.273	17539
899.393	17665
899.513	17623
899.633	17566
899.753	17653
899.873	17554
899.993	17627
900.113	17581
900.232	17649
900.352	17691
900.472	17516
900.591	17395
900.711	17539
900.83	17474
900.95	17528
901.069	17532
901.189	17402
901.308	17208
901.427	17147
901.546	17140
901.665	17170
901.784	17181
901.904	16965
902.023	16908
902.141	16748
902.26	16592
902.379	16767
902.498	16649
902.617	16550
902.735	16744
902.854	16584
902.973	16630
903.091	16375
903.21	16337
903.328	16375
903.446	16325
903.565	16154
903.683	16207
903.801	16040
903.919	16147
904.038	16013
904.156	15934
904.274	16002
904.392	15949
904.51	15983
904.627	15983
904.745	15934
904.863	16044
904.981	15675
905.098	15492
905.216	15530
905.334	15629
905.451	15606
905.569	15603
905.686	15637
905.803	15663
905.921	15382
906.038	15477
906.155	15367
906.272	15291
906.389	15405
906.506	15093
906.623	15188
906.74	15233
906.857	15009
906.974	15043
907.091	15233
907.208	15241
907.324	15214
907.441	15066
907.557	14864
907.674	14815
907.79	14781
907.907	14834
908.023	14868
908.139	14769
908.256	14765
908.372	14678
908.488	14678
908.604	14518
908.72	14560
908.836	14632
908.952	14602
909.068	14560
909.184	14636
909.3	14545
909.415	14632
909.531	14492
909.647	14366
909.762	14267
909.878	14229
909.993	14370
910.108	14286
910.224	14229
910.339	14256
910.454	14229
910.57	14073
910.685	14062
910.8	14358
910.915	14206
911.03	14145
911.145	13936
911.259	13955
911.374	14008
911.489	13868
911.604	13795
911.718	13712
911.833	13636
911.947	13544
912.062	13460
912.176	13620
912.291	13704
912.405	13578
912.519	13791
912.633	13947
912.748	13632
912.862	13632
912.976	13476
913.09	13426
913.204	13419
913.318	13487
913.431	13575
913.545	13556
913.659	13571
913.772	13441
913.886	13407
914	13278
914.113	13426
914.226	13468
914.34	13491
914.453	13236
914.566	13381
914.68	13194
914.793	13244
914.906	13027
915.019	12985
915.132	12958
915.245	13004
915.358	12993
915.47	13050
915.583	12954
915.696	13118
915.809	13190
915.921	13129
916.034	12989
916.146	12890
916.259	12894
916.371	12973
916.483	12989
916.595	12947
916.708	12863
916.82	12859
916.932	12886
917.044	12867
917.156	12806
917.268	12692
917.38	12772
917.491	12677
917.603	12783
917.715	12863
917.826	12871
917.938	12635
918.049	12536
918.161	12768
918.272	12844
918.384	12806
918.495	12627
918.606	12589
918.717	12547
918.828	12616
918.939	12475
919.05	12418
919.161	12494
919.272	12315
919.383	12334
919.494	12506
919.604	12726
919.715	12551
919.826	12380
919.936	12494
920.047	12540
920.157	12426
920.267	12646
920.378	12395
920.488	12353
920.598	12585
920.708	12684
920.818	12646
920.928	12532
921.038	12753
921.148	12821
921.258	12483
921.368	12315
921.477	12300
921.587	12243
921.697	12106
921.806	12330
921.916	12220
922.025	11927
922.134	12041
922.244	11870
922.353	11969
922.462	11775
922.571	11741
922.68	11688
922.789	11592
922.898	11703
923.007	11509
923.116	11672
923.224	11551
923.333	11634
923.442	11429
923.55	11455
923.659	11471
923.767	11532
923.876	11535
923.984	11573
924.092	11372
924.201	11398
924.309	11383
924.417	11433
924.525	11402
924.633	11311
924.741	12315
924.849	11178
924.956	11288
925.064	11136
925.172	11132
925.279	11109
925.387	11204
925.494	11166
925.602	11296
925.709	11227
925.816	11109
925.924	11147
926.031	11311
926.138	11162
926.245	11185
926.352	11033
926.459	11189
926.566	11185
926.673	11143
926.779	10999
926.886	10915
926.993	10759
927.099	10911
927.206	10736
927.312	10744
927.419	10767
927.525	10786
927.631	10790
927.737	10645
927.843	10584
927.95	10489
928.056	10675
928.162	10615
928.267	10622
928.373	11299
928.479	10706
928.585	10474
928.69	10588
928.796	10634
928.901	10577
929.007	10390
929.112	10569
929.218	10512
929.323	10417
929.428	10371
929.533	10516
929.638	10382
929.743	10382
929.848	10500
929.953	10443
930.058	10246
930.163	10116
930.267	10139
930.372	10325
930.477	10010
930.581	10379
930.685	10147
930.79	10074
930.894	9987
930.998	9983
931.103	10101
931.207	9812
931.311	9667
931.415	9614
931.519	9462
931.623	9424
