Data from test_V78500241_1137.txt Node
Date: Fri Mar 25 14:41:38 CST 2022
User: usil
Spectrometer: V785-0024
Trigger mode: 0
Integration Time (sec): 4.000000E-1
Scans to average: 1
Nonlinearity correction enabled: false
Boxcar width: 0
Storing dark spectrum: false
XAxis mode: Wavelengths
Number of Pixels in Spectrum: 1024
>>>>>Begin Spectral Data<<<<<
801.071	22603
801.214	22470
801.356	22128
801.499	22135
801.641	21915
801.783	21907
801.926	21941
802.068	21838
802.211	21854
802.353	21705
802.496	21488
802.638	21420
802.78	21386
802.923	21359
803.065	21165
803.208	21260
803.35	21332
803.492	21329
803.635	21393
803.777	21264
803.919	21336
804.061	21698
804.204	21302
804.346	21317
804.488	21104
804.63	21100
804.773	21119
804.915	21310
805.057	21332
805.199	21116
805.341	21275
805.483	21340
805.626	21355
805.768	21233
805.91	21207
806.052	21230
806.194	21116
806.336	21279
806.478	21116
806.62	21184
806.762	21291
806.904	21397
807.046	21720
807.188	21538
807.33	21515
807.472	21618
807.614	21397
807.756	21568
807.898	21355
808.04	21428
808.182	21515
808.324	21447
808.465	21572
808.607	21660
808.749	21831
808.891	21880
809.033	22082
809.174	21903
809.316	21751
809.458	21850
809.6	21724
809.741	21873
809.883	21690
810.025	21854
810.166	21781
810.308	21789
810.45	21793
810.591	21713
810.733	21561
810.875	21378
811.016	21355
811.158	21332
811.299	21504
811.441	21534
811.582	21523
811.724	21275
811.865	21443
812.007	21370
812.148	21359
812.29	21488
812.431	21599
812.573	21667
812.714	21755
812.855	21854
812.997	21960
813.138	22097
813.279	22040
813.421	21873
813.562	21816
813.703	21686
813.845	21435
813.986	21279
814.127	21146
814.268	21154
814.41	21005
814.551	20971
814.692	21032
814.833	20872
814.974	20864
815.115	20899
815.256	20769
815.397	20743
815.539	20777
815.68	20762
815.821	20667
815.962	20590
816.103	20552
816.244	20499
816.385	20298
816.526	20408
816.666	20248
816.807	20046
816.948	20092
817.089	20309
817.23	20221
817.371	20111
817.512	20100
817.653	20031
817.793	20122
817.934	20020
818.075	20065
818.216	20142
818.356	20024
818.497	19894
818.638	19666
818.778	19822
818.919	19814
819.06	19731
819.2	19879
819.341	19932
819.481	19917
819.622	20214
819.762	20218
819.903	20172
820.043	20100
820.184	20153
820.324	20050
820.465	20142
820.605	20100
820.746	20214
820.886	19860
821.026	20058
821.167	20092
821.307	20016
821.447	20039
821.588	19860
821.728	19689
821.868	19689
822.008	19514
822.149	19388
822.289	19415
822.429	19270
822.569	19301
822.709	19160
822.849	19008
822.99	18882
823.13	19004
823.27	18954
823.41	18825
823.55	18700
823.69	18810
823.83	18719
823.97	18776
824.11	18555
824.25	18513
824.389	18578
824.529	18692
824.669	18620
824.809	18738
824.949	18707
825.089	18696
825.228	18597
825.368	18414
825.508	18410
825.648	18380
825.787	18494
825.927	18494
826.067	18388
826.206	18388
826.346	18418
826.485	18388
826.625	18376
826.765	18544
826.904	18456
827.044	18224
827.183	18133
827.323	18079
827.462	18140
827.601	17977
827.741	18106
827.88	18019
828.02	17878
828.159	18034
828.298	18125
828.437	18167
828.577	17923
828.716	18091
828.855	17950
828.994	17927
829.134	17798
829.273	17885
829.412	17775
829.551	17760
829.69	17828
829.829	17798
829.968	17836
830.107	17882
830.246	17786
830.385	17748
830.524	17691
830.663	17729
830.802	17573
830.941	17501
831.08	17471
831.219	17516
831.357	17577
831.496	17676
831.635	17398
831.774	17455
831.913	17307
832.051	17227
832.19	17212
832.329	17296
832.467	17140
832.606	17102
832.744	17140
832.883	17094
833.022	17064
833.16	17189
833.299	17136
833.437	17185
833.576	17189
833.714	17155
833.852	17113
833.991	17071
834.129	17254
834.267	17220
834.406	17162
834.544	17189
834.682	17197
834.821	17235
834.959	17383
835.097	17121
835.235	17231
835.373	17227
835.511	17147
835.65	17048
835.788	17060
835.926	16984
836.064	16873
836.202	16896
836.34	16995
836.478	17109
836.615	17098
836.753	17109
836.891	17067
837.029	17128
837.167	17022
837.305	17094
837.443	17041
837.58	16995
837.718	17003
837.856	17056
837.993	16889
838.131	16904
838.269	16885
838.406	16850
838.544	16790
838.681	16577
838.819	16611
838.956	16417
839.094	16535
839.231	16565
839.369	16687
839.506	16816
839.643	16771
839.781	16577
839.918	16440
840.055	16519
840.193	16599
840.33	16462
840.467	16462
840.604	16500
840.742	16812
840.879	16382
841.016	16394
841.153	16424
841.29	16637
841.427	16554
841.564	16584
841.701	16489
841.838	16363
841.975	16329
842.112	16402
842.249	16310
842.385	16173
842.522	16470
842.659	16299
842.796	16333
842.933	16200
843.069	16314
843.206	16223
843.343	16268
843.479	16314
843.616	16291
843.752	15975
843.889	16006
844.025	16200
844.162	16078
844.298	16143
844.435	16150
844.571	16090
844.708	16097
844.844	16382
844.98	16196
845.117	16207
845.253	16093
845.389	15960
845.525	16093
845.661	16131
845.798	16029
845.934	16154
846.07	16162
846.206	16124
846.342	16207
846.478	16017
846.614	15842
846.75	15663
846.886	15526
847.022	15724
847.158	15701
847.294	15614
847.429	15644
847.565	15557
847.701	15785
847.837	15393
847.972	15332
848.108	15428
848.244	15420
848.379	15336
848.515	15222
848.65	15195
848.786	15237
848.921	15241
849.057	15340
849.192	15355
849.328	15199
849.463	15230
849.598	15245
849.734	15070
849.869	15081
850.004	14963
850.14	15028
850.275	15005
850.41	14967
850.545	14921
850.68	15005
850.815	14994
850.95	15001
851.085	15218
851.22	15062
851.355	15024
851.49	14994
851.625	15005
851.76	14921
851.895	14857
852.03	14891
852.165	14963
852.299	15013
852.434	15116
852.569	14921
852.703	14967
852.838	15028
852.973	15024
853.107	15070
853.242	15020
853.376	14823
853.511	14739
853.645	14800
853.78	14895
853.914	14853
854.048	14868
854.183	14853
854.317	14910
854.451	15077
854.585	14823
854.72	14826
854.854	14800
854.988	14777
855.122	14823
855.256	14804
855.39	14720
855.524	14929
855.658	14929
855.792	14868
855.926	14868
856.06	14762
856.194	14902
856.327	14804
856.461	14796
856.595	14621
856.729	14765
856.862	14994
856.996	14910
857.13	14933
857.263	14975
857.397	15001
857.53	14845
857.664	14811
857.797	14914
857.931	14967
858.064	14804
858.197	14937
858.331	14876
858.464	14811
858.597	14617
858.731	14785
858.864	14819
858.997	14697
859.13	14830
859.263	14853
859.396	15020
859.529	14769
859.662	14853
859.795	14849
859.928	14967
860.061	15001
860.194	14971
860.327	14944
860.46	14800
860.592	14918
860.725	15070
860.858	15058
860.99	14826
861.123	14762
861.256	14708
861.388	14815
861.521	15603
861.653	14708
861.786	14621
861.918	14663
862.05	14762
862.183	14765
862.315	14861
862.447	14883
862.58	14823
862.712	14655
862.844	14583
862.976	14712
863.108	14556
863.24	15005
863.372	14560
863.504	14545
863.636	14667
863.768	14667
863.9	14632
864.032	14480
864.164	14598
864.296	14617
864.428	14746
864.559	14705
864.691	14648
864.823	14712
864.954	14610
865.086	14674
865.217	14640
865.349	14526
865.48	14632
865.612	14560
865.743	14750
865.875	14587
866.006	14541
866.137	14522
866.269	14579
866.4	14602
866.531	14594
866.662	14465
866.793	14522
866.924	14648
867.055	14495
867.186	14632
867.317	14526
867.448	14454
867.579	14545
867.71	14438
867.841	14492
867.972	14568
868.103	14602
868.233	14613
868.364	14674
868.495	14743
868.625	14830
868.756	14800
868.886	14697
869.017	14918
869.147	14956
869.278	14982
869.408	14960
869.539	14864
869.669	14975
869.799	14902
869.929	14933
870.06	14963
870.19	15093
870.32	15100
870.45	15199
870.58	15245
870.71	15249
870.84	15252
870.97	15245
871.1	15157
871.23	15439
871.36	15389
871.489	15329
871.619	15348
871.749	15408
871.879	15416
872.008	15507
872.138	15393
872.267	15466
872.397	15237
872.526	15256
872.656	15233
872.785	15283
872.915	15469
873.044	15401
873.173	15443
873.303	15530
873.432	15496
873.561	15603
873.69	15428
873.819	15454
873.948	15568
874.077	15481
874.206	15496
874.335	15511
874.464	15637
874.593	15751
874.722	15759
874.851	15838
874.979	15785
875.108	15812
875.237	15778
875.365	15629
875.494	15778
875.623	15819
875.751	15774
875.88	15899
876.008	15850
876.136	16040
876.265	16139
876.393	16287
876.521	16173
876.65	16280
876.778	16147
876.906	16166
877.034	16116
877.162	16147
877.29	16143
877.418	16185
877.546	16234
877.674	16143
877.802	16200
877.93	16188
878.058	16147
878.185	16063
878.313	16143
878.441	16253
878.568	16048
878.696	16063
878.824	16238
878.951	16280
879.079	16451
879.206	16573
879.333	16588
879.461	16459
879.588	16462
879.715	16569
879.842	16615
879.97	16280
880.097	16150
880.224	16078
880.351	16036
880.478	16177
880.605	16029
880.732	16040
880.859	16207
880.986	16166
881.112	16074
881.239	15991
881.366	15865
881.493	15785
881.619	15648
881.746	15785
881.872	15709
881.999	15732
882.125	15686
882.252	15892
882.378	15694
882.505	15876
882.631	15701
882.757	15603
882.883	15606
883.01	15564
883.136	15412
883.262	15431
883.388	15416
883.514	15591
883.64	15652
883.766	15534
883.892	15370
884.018	15435
884.143	15473
884.269	15576
884.395	15275
884.52	15268
884.646	15416
884.772	15211
884.897	15173
885.023	15348
885.148	15313
885.274	15329
885.399	15408
885.524	15252
885.65	15260
885.775	15275
885.9	15298
886.025	15351
886.15	15378
886.275	15241
886.4	15043
886.525	15108
886.65	15176
886.775	15127
886.9	15386
887.025	15424
887.149	15169
887.274	15154
887.399	15020
887.523	15020
887.648	14967
887.773	14975
887.897	15081
888.021	15154
888.146	14998
888.27	15211
888.395	15207
888.519	15097
888.643	15047
888.767	15104
888.891	15055
889.015	14918
889.139	14948
889.263	14868
889.387	15108
889.511	15127
889.635	14986
889.759	14861
889.883	14876
890.006	14895
890.13	14990
890.254	14864
890.377	14807
890.501	14678
890.624	14720
890.748	14724
890.871	14640
890.995	14533
891.118	14549
891.241	14629
891.364	14560
891.488	14708
891.611	14590
891.734	14564
891.857	14686
891.98	14560
892.103	14640
892.226	14568
892.349	14511
892.471	14442
892.594	14476
892.717	14499
892.839	14438
892.962	14511
893.085	14533
893.207	14541
893.33	14461
893.452	14484
893.575	14648
893.697	14549
893.819	14663
893.941	14781
894.064	14678
894.186	14461
894.308	14526
894.43	14617
894.552	14712
894.674	14670
894.796	14629
894.918	14564
895.04	14594
895.161	14708
895.283	14689
895.405	14632
895.526	14564
895.648	14716
895.769	14739
895.891	14754
896.012	14857
896.134	14735
896.255	14735
896.376	14705
896.498	14788
896.619	14720
896.74	14785
896.861	14826
896.982	15093
897.103	15024
897.224	15055
897.345	14834
897.466	14944
897.587	14971
897.708	15085
897.828	15039
897.949	14933
898.07	14910
898.19	14918
898.311	15108
898.431	15005
898.552	15055
898.672	15192
898.792	15211
898.913	15081
899.033	14956
899.153	14899
899.273	14800
899.393	14880
899.513	14933
899.633	14921
899.753	14990
899.873	14902
899.993	14880
900.113	14861
900.232	14861
900.352	14906
900.472	14804
900.591	14876
900.711	14849
900.83	14697
900.95	14823
901.069	14876
901.189	14712
901.308	14511
901.427	14404
901.546	14404
901.665	14533
901.784	14465
901.904	14400
902.023	14199
902.141	14024
902.26	14081
902.379	14046
902.498	14012
902.617	13974
902.735	13959
902.854	13993
902.973	13921
903.091	13757
903.21	13662
903.328	13708
903.446	13620
903.565	13521
903.683	13502
903.801	13388
903.919	13514
904.038	13548
904.156	13373
904.274	13491
904.392	13244
904.51	13320
904.627	13430
904.745	13449
904.863	13510
904.981	13209
905.098	13069
905.216	13019
905.334	12989
905.451	13126
905.569	13023
905.686	13107
905.803	13080
905.921	12848
906.038	12920
906.155	12863
906.272	12719
906.389	12753
906.506	12700
906.623	12646
906.74	12703
906.857	12525
906.974	12555
907.091	12696
907.208	12852
907.324	12719
907.441	12551
907.557	12395
907.674	12464
907.79	12365
907.907	12308
908.023	12407
908.139	12365
908.256	12296
908.372	12254
908.488	12235
908.604	12079
908.72	12140
908.836	12125
908.952	12209
909.068	12163
909.184	12266
909.3	12129
909.415	12201
909.531	12095
909.647	11923
909.762	11958
909.878	11874
909.993	11950
910.108	11855
910.224	11901
910.339	11973
910.454	11874
910.57	11726
910.685	11676
910.8	11988
910.915	11889
911.03	11786
911.145	11619
911.259	11596
911.374	11661
911.489	11611
911.604	11512
911.718	11307
911.833	11303
911.947	11311
912.062	11261
912.176	11326
912.291	11364
912.405	11368
912.519	11577
912.633	11505
912.748	11425
912.862	11250
912.976	11277
913.09	11128
913.204	11166
913.318	11178
913.431	11356
913.545	11250
913.659	11292
913.772	11204
913.886	11098
914	11018
914.113	11181
914.226	11223
914.34	11128
914.453	10957
914.566	11193
914.68	11006
914.793	11094
914.906	10892
915.019	10774
915.132	10755
915.245	10881
915.358	10835
915.47	10866
915.583	10869
915.696	10892
915.809	10953
915.921	11052
916.034	10835
916.146	10782
916.259	10752
916.371	10877
916.483	10885
916.595	10725
916.708	10744
916.82	10694
916.932	10706
917.044	10752
917.156	10767
917.268	10675
917.38	10656
917.491	10615
917.603	10710
917.715	10733
917.826	10755
917.938	10630
918.049	10531
918.161	10683
918.272	10828
918.384	10805
918.495	10645
918.606	10508
918.717	10462
918.828	10561
918.939	10561
919.05	10451
919.161	10474
919.272	10314
919.383	10341
919.494	10447
919.604	10744
919.715	10580
919.826	10447
919.936	10558
920.047	10618
920.157	10523
920.267	10748
920.378	10546
920.488	10569
920.598	10729
920.708	10820
920.818	10683
920.928	10790
921.038	10873
921.148	10877
921.258	10493
921.368	10466
921.477	10432
921.587	10363
921.697	10246
921.806	10424
921.916	10265
922.025	10067
922.134	10166
922.244	10006
922.353	10067
922.462	9975
922.571	9949
922.68	9751
922.789	9793
922.898	9873
923.007	9667
923.116	9850
923.224	9819
923.333	9690
923.442	9701
923.55	9603
923.659	9648
923.767	9713
923.876	9663
923.984	9713
924.092	9481
924.201	9618
924.309	9625
924.417	9641
924.525	9561
924.633	9587
924.741	10348
924.849	9370
924.956	9530
925.064	9462
925.172	9310
925.279	9359
925.387	9378
925.494	9435
925.602	9580
925.709	9492
925.816	9294
925.924	9359
926.031	9485
926.138	9462
926.245	9481
926.352	9321
926.459	9477
926.566	9549
926.673	9466
926.779	9348
926.886	9291
926.993	9131
927.099	9135
927.206	9089
927.312	9100
927.419	9218
927.525	9150
927.631	9123
927.737	8998
927.843	9032
927.95	8868
928.056	8960
928.162	8986
928.267	9062
928.373	9690
928.479	9070
928.585	8861
928.69	9032
928.796	9001
928.901	8834
929.007	8781
929.112	8937
929.218	8883
929.323	8906
929.428	8773
929.533	8952
929.638	8724
929.743	8758
929.848	8853
929.953	8807
930.058	8739
930.163	8579
930.267	8659
930.372	8689
930.477	8579
930.581	8777
930.685	8735
930.79	8450
930.894	8488
930.998	8533
931.103	8663
931.207	8298
931.311	8267
931.415	8225
931.519	8012
931.623	8092
