Data from test_V78500241_2991.txt Node
Date: Fri Mar 25 14:54:32 CST 2022
User: usil
Spectrometer: V785-0024
Trigger mode: 0
Integration Time (sec): 4.000000E-1
Scans to average: 1
Nonlinearity correction enabled: false
Boxcar width: 0
Storing dark spectrum: false
XAxis mode: Wavelengths
Number of Pixels in Spectrum: 1024
>>>>>Begin Spectral Data<<<<<
801.071	22147
801.214	21930
801.356	21812
801.499	21576
801.641	21447
801.783	21443
801.926	21500
802.068	21397
802.211	21264
802.353	21340
802.496	21074
802.638	20960
802.78	20883
802.923	20914
803.065	20686
803.208	20788
803.35	20914
803.492	20792
803.635	20956
803.777	20815
803.919	20861
804.061	21032
804.204	20868
804.346	20708
804.488	20701
804.63	20712
804.773	20765
804.915	20819
805.057	20891
805.199	20552
805.341	20716
805.483	20781
805.626	20819
805.768	20693
805.91	20754
806.052	20678
806.194	20724
806.336	20842
806.478	20602
806.62	20724
806.762	20750
806.904	20815
807.046	21077
807.188	21032
807.33	21001
807.472	21043
807.614	20979
807.756	21024
807.898	20861
808.04	20743
808.182	20830
808.324	20724
808.465	20845
808.607	21066
808.749	21108
808.891	21096
809.033	21317
809.174	21138
809.316	21017
809.458	21009
809.6	21070
809.741	21070
809.883	21085
810.025	21199
810.166	21241
810.308	21173
810.45	21272
810.591	21142
810.733	20941
810.875	20914
811.016	20731
811.158	20792
811.299	20960
811.441	21089
811.582	20914
811.724	20998
811.865	20746
812.007	20823
812.148	20796
812.29	20914
812.431	21051
812.573	21131
812.714	21291
812.855	21310
812.997	21447
813.138	21614
813.279	21530
813.421	21298
813.562	21336
813.703	21104
813.845	20933
813.986	20754
814.127	20667
814.268	20457
814.41	20476
814.551	20294
814.692	20393
814.833	20355
814.974	20347
815.115	20415
815.256	20374
815.397	20172
815.539	20218
815.68	20191
815.821	20115
815.962	20195
816.103	20130
816.244	19989
816.385	19963
816.526	19814
816.666	19719
816.807	19670
816.948	19674
817.089	19628
817.23	19594
817.371	19597
817.512	19556
817.653	19525
817.793	19441
817.934	19521
818.075	19476
818.216	19635
818.356	19422
818.497	19339
818.638	19209
818.778	19251
818.919	19270
819.06	19293
819.2	19304
819.341	19377
819.481	19324
819.622	19639
819.762	19681
819.903	19658
820.043	19476
820.184	19502
820.324	19483
820.465	19533
820.605	19563
820.746	19438
820.886	19373
821.026	19609
821.167	19476
821.307	19559
821.447	19537
821.588	19365
821.728	19198
821.868	19023
822.008	18909
822.149	18814
822.289	18829
822.429	18730
822.569	18551
822.709	18646
822.849	18319
822.99	18376
823.13	18376
823.27	18334
823.41	18300
823.55	18148
823.69	18330
823.83	18159
823.97	18121
824.11	17935
824.25	17946
824.389	17977
824.529	18022
824.669	17961
824.809	18140
824.949	18155
825.089	18129
825.228	17885
825.368	17649
825.508	17684
825.648	17733
825.787	17893
825.927	17676
826.067	17745
826.206	17691
826.346	17805
826.485	17786
826.625	17623
826.765	17836
826.904	17817
827.044	17608
827.183	17395
827.323	17391
827.462	17440
827.601	17398
827.741	17387
827.88	17497
828.02	17284
828.159	17345
828.298	17345
828.437	17433
828.577	17383
828.716	17501
828.855	17417
828.994	17258
829.134	17147
829.273	17280
829.412	17166
829.551	17117
829.69	17166
829.829	17208
829.968	17250
830.107	17250
830.246	17242
830.385	17086
830.524	17029
830.663	16976
830.802	16976
830.941	16793
831.08	16816
831.219	16866
831.357	16877
831.496	17018
831.635	16786
831.774	16687
831.913	16668
832.051	16550
832.19	16580
832.329	16542
832.467	16546
832.606	16481
832.744	16447
832.883	16424
833.022	16428
833.16	16504
833.299	16398
833.437	16462
833.576	16466
833.714	16470
833.852	16531
833.991	16554
834.129	16634
834.267	16641
834.406	16550
834.544	16679
834.682	16459
834.821	16428
834.959	16653
835.097	16489
835.235	16527
835.373	16565
835.511	16497
835.65	16462
835.788	16371
835.926	16303
836.064	16276
836.202	16257
836.34	16462
836.478	16561
836.615	16367
836.753	16405
836.891	16535
837.029	16447
837.167	16371
837.305	16299
837.443	16299
837.58	16230
837.718	16356
837.856	16299
837.993	16188
838.131	16348
838.269	16230
838.406	16287
838.544	16169
838.681	16051
838.819	16017
838.956	15892
839.094	15751
839.231	15827
839.369	15987
839.506	16219
839.643	16032
839.781	15854
839.918	15842
840.055	15835
840.193	15831
840.33	15835
840.467	15720
840.604	15842
840.742	16093
840.879	15667
841.016	15785
841.153	15778
841.29	15922
841.427	15884
841.564	15827
841.701	15842
841.838	15804
841.975	15713
842.112	15720
842.249	15606
842.385	15587
842.522	15736
842.659	15633
842.796	15500
842.933	15606
843.069	15614
843.206	15622
843.343	15686
843.479	15618
843.616	15610
843.752	15359
843.889	15401
844.025	15526
844.162	15355
844.298	15504
844.435	15405
844.571	15386
844.708	15500
844.844	15595
844.98	15534
845.117	15450
845.253	15321
845.389	15329
845.525	15245
845.661	15245
845.798	15184
845.934	15230
846.07	15260
846.206	15184
846.342	15211
846.478	15218
846.614	14994
846.75	14941
846.886	14960
847.022	15077
847.158	14918
847.294	14880
847.429	14956
847.565	14982
847.701	15184
847.837	14682
847.972	14693
848.108	14762
848.244	14815
848.379	14571
848.515	14579
848.65	14503
848.786	14514
848.921	14579
849.057	14613
849.192	14606
849.328	14526
849.463	14522
849.598	14571
849.734	14438
849.869	14480
850.004	14317
850.14	14374
850.275	14427
850.41	14267
850.545	14294
850.68	14339
850.815	14366
850.95	14301
851.085	14537
851.22	14434
851.355	14385
851.49	14396
851.625	14172
851.76	14225
851.895	14210
852.03	14218
852.165	14339
852.299	14351
852.434	14488
852.569	14374
852.703	14374
852.838	14305
852.973	14442
853.107	14480
853.242	14305
853.376	14176
853.511	14031
853.645	14210
853.78	14282
853.914	14206
854.048	14172
854.183	14237
854.317	14183
854.451	14423
854.585	14225
854.72	14107
854.854	14271
854.988	14168
855.122	14161
855.256	14039
855.39	14298
855.524	14313
855.658	14225
855.792	14126
855.926	14210
856.06	14259
856.194	14187
856.327	14218
856.461	14062
856.595	14168
856.729	14202
856.862	14244
856.996	14263
857.13	14324
857.263	14263
857.397	14377
857.53	14176
857.664	14271
857.797	14256
857.931	14298
858.064	14191
858.197	14206
858.331	14229
858.464	14123
858.597	14081
858.731	14225
858.864	14153
858.997	14126
859.13	14214
859.263	14267
859.396	14290
859.529	14134
859.662	14142
859.795	14107
859.928	14233
860.061	14336
860.194	14355
860.327	14259
860.46	14229
860.592	14313
860.725	14298
860.858	14374
860.99	14103
861.123	14092
861.256	14142
861.388	14183
861.521	14937
861.653	14065
861.786	14001
861.918	13959
862.05	14077
862.183	14103
862.315	14180
862.447	14259
862.58	14145
862.712	13963
862.844	13940
862.976	13955
863.108	13989
863.24	14507
863.372	13890
863.504	13986
863.636	13997
863.768	14012
863.9	13986
864.032	13887
864.164	13841
864.296	13947
864.428	14107
864.559	14115
864.691	14062
864.823	13993
864.954	14027
865.086	14016
865.217	14073
865.349	13944
865.48	13928
865.612	13890
865.743	14058
865.875	14065
866.006	13883
866.137	13913
866.269	13940
866.4	13978
866.531	13898
866.662	13894
866.793	13917
866.924	13887
867.055	13978
867.186	13959
867.317	13860
867.448	13742
867.579	13864
867.71	13898
867.841	13849
867.972	13898
868.103	13963
868.233	13944
868.364	13963
868.495	14039
868.625	14142
868.756	14267
868.886	14088
869.017	14161
869.147	14267
869.278	14332
869.408	14149
869.539	14149
869.669	14256
869.799	14347
869.929	14259
870.06	14389
870.19	14469
870.32	14488
870.45	14541
870.58	14587
870.71	14670
870.84	14621
870.97	14579
871.1	14552
871.23	14746
871.36	14758
871.489	14659
871.619	14697
871.749	14800
871.879	14823
872.008	14971
872.138	14777
872.267	14807
872.397	14606
872.526	14560
872.656	14655
872.785	14686
872.915	14807
873.044	14944
873.173	14773
873.303	14948
873.432	14853
873.561	14883
873.69	14880
873.819	14868
873.948	15070
874.077	14845
874.206	14823
874.335	14861
874.464	14982
874.593	15100
874.722	15058
874.851	15142
874.979	15058
875.108	15214
875.237	15051
875.365	15032
875.494	15116
875.623	15325
875.751	15104
875.88	15157
876.008	15294
876.136	15401
876.265	15507
876.393	15762
876.521	15663
876.65	15614
876.778	15641
876.906	15496
877.034	15458
877.162	15637
877.29	15511
877.418	15603
877.546	15629
877.674	15690
877.802	15603
877.93	15591
878.058	15553
878.185	15450
878.313	15530
878.441	15606
878.568	15351
878.696	15477
878.824	15587
878.951	15572
879.079	15774
879.206	16021
879.333	15766
879.461	15599
879.588	15694
879.715	15728
879.842	15865
879.97	15614
880.097	15443
880.224	15481
880.351	15515
880.478	15401
880.605	15317
880.732	15469
880.859	15690
880.986	15424
881.112	15504
881.239	15359
881.366	15260
881.493	15070
881.619	15081
881.746	15188
881.872	15226
881.999	15123
882.125	15085
882.252	15207
882.378	15085
882.505	15275
882.631	15097
882.757	14921
882.883	15020
883.01	15032
883.136	14853
883.262	14754
883.388	14724
883.514	14845
883.64	14933
883.766	14842
883.892	14686
884.018	14773
884.143	14834
884.269	14960
884.395	14674
884.52	14568
884.646	14613
884.772	14499
884.897	14552
885.023	14556
885.148	14689
885.274	14800
885.399	14693
885.524	14636
885.65	14579
885.775	14659
885.9	14625
886.025	14769
886.15	14686
886.275	14526
886.4	14552
886.525	14533
886.65	14571
886.775	14556
886.9	14769
887.025	14823
887.149	14617
887.274	14454
887.399	14412
887.523	14484
887.648	14290
887.773	14457
887.897	14446
888.021	14457
888.146	14362
888.27	14564
888.395	14552
888.519	14503
888.643	14518
888.767	14610
888.891	14446
889.015	14267
889.139	14275
889.263	14221
889.387	14328
889.511	14434
889.635	14396
889.759	14259
889.883	14271
890.006	14324
890.13	14309
890.254	14195
890.377	14126
890.501	14081
890.624	14081
890.748	14195
890.871	14043
890.995	13978
891.118	13955
891.241	14103
891.364	13963
891.488	14100
891.611	13989
891.734	14100
891.857	14027
891.98	14065
892.103	14103
892.226	14046
892.349	13906
892.471	13833
892.594	13940
892.717	14027
892.839	13970
892.962	13989
893.085	14126
893.207	14046
893.33	13871
893.452	13940
893.575	14024
893.697	13967
893.819	14221
893.941	14195
894.064	14237
894.186	14005
894.308	14001
894.43	14145
894.552	14278
894.674	14138
894.796	13978
894.918	14054
895.04	14050
895.161	14142
895.283	14145
895.405	14084
895.526	14084
895.648	14054
895.769	14218
895.891	14176
896.012	14290
896.134	14248
896.255	14161
896.376	14183
896.498	14210
896.619	14218
896.74	14218
896.861	14259
896.982	14583
897.103	14682
897.224	14408
897.345	14457
897.466	14465
897.587	14507
897.708	14629
897.828	14480
897.949	14427
898.07	14309
898.19	14427
898.311	14701
898.431	14514
898.552	14518
898.672	14583
898.792	14568
898.913	14560
899.033	14423
899.153	14415
899.273	14233
899.393	14385
899.513	14450
899.633	14389
899.753	14400
899.873	14450
899.993	14511
900.113	14358
900.232	14488
900.352	14476
900.472	14336
900.591	14275
900.711	14218
900.83	14210
900.95	14461
901.069	14305
901.189	14149
901.308	14035
901.427	13993
901.546	13974
901.665	13997
901.784	13951
901.904	13944
902.023	13746
902.141	13590
902.26	13575
902.379	13636
902.498	13559
902.617	13422
902.735	13441
902.854	13468
902.973	13472
903.091	13324
903.21	13259
903.328	13194
903.446	13171
903.565	13072
903.683	13183
903.801	12973
903.919	13053
904.038	13004
904.156	12844
904.274	12989
904.392	12817
904.51	12852
904.627	12894
904.745	13004
904.863	12977
904.981	12730
905.098	12589
905.216	12566
905.334	12654
905.451	12578
905.569	12555
905.686	12616
905.803	12585
905.921	12391
906.038	12506
906.155	12464
906.272	12315
906.389	12346
906.506	12216
906.623	12216
906.74	12133
906.857	12026
906.974	12152
907.091	12224
907.208	12319
907.324	12201
907.441	12216
907.557	11980
907.674	11908
907.79	11870
907.907	11878
908.023	11996
908.139	12049
908.256	11786
908.372	11866
908.488	11984
908.604	11680
908.72	11608
908.836	11672
908.952	11642
909.068	11733
909.184	11920
909.3	11756
909.415	11688
909.531	11714
909.647	11524
909.762	11433
909.878	11376
909.993	11490
910.108	11471
910.224	11444
910.339	11493
910.454	11364
910.57	11277
910.685	11242
910.8	11512
910.915	11478
911.03	11345
911.145	11117
911.259	11143
911.374	11022
911.489	11086
911.604	11033
911.718	10900
911.833	10911
911.947	10805
912.062	10725
912.176	10881
912.291	10858
912.405	10885
912.519	11162
912.633	11109
912.748	10991
912.862	10987
912.976	10862
913.09	10683
913.204	10702
913.318	10786
913.431	10900
913.545	10839
913.659	10923
913.772	10824
913.886	10656
914	10706
914.113	10744
914.226	10839
914.34	10752
914.453	10577
914.566	10793
914.68	10656
914.793	10641
914.906	10443
915.019	10424
915.132	10363
915.245	10356
915.358	10379
915.47	10523
915.583	10497
915.696	10462
915.809	10554
915.921	10519
916.034	10455
916.146	10405
916.259	10363
916.371	10447
916.483	10436
916.595	10344
916.708	10459
916.82	10363
916.932	10295
917.044	10318
917.156	10421
917.268	10242
917.38	10246
917.491	10291
917.603	10227
917.715	10314
917.826	10409
917.938	10253
918.049	10181
918.161	10310
918.272	10424
918.384	10382
918.495	10219
918.606	10173
918.717	10120
918.828	10196
918.939	10105
919.05	10055
919.161	10150
919.272	9972
919.383	10017
919.494	10272
919.604	10303
919.715	10215
919.826	10101
919.936	10120
920.047	10177
920.157	10139
920.267	10382
920.378	10211
920.488	10188
920.598	10386
920.708	10451
920.818	10375
920.928	10303
921.038	10497
921.148	10546
921.258	10223
921.368	10124
921.477	9937
921.587	10006
921.697	9930
921.806	10109
921.916	9964
922.025	9682
922.134	9690
922.244	9740
922.353	9751
922.462	9599
922.571	9557
922.68	9431
922.789	9363
922.898	9447
923.007	9291
923.116	9431
923.224	9447
923.333	9355
923.442	9310
923.55	9291
923.659	9367
923.767	9351
923.876	9268
923.984	9329
924.092	9233
924.201	9340
924.309	9317
924.417	9348
924.525	9249
924.633	9283
924.741	10227
924.849	9055
924.956	9218
925.064	9062
925.172	9005
925.279	8998
925.387	9108
925.494	9058
925.602	9283
925.709	9119
925.816	9097
925.924	9047
926.031	9104
926.138	9062
926.245	9093
926.352	8941
926.459	9058
926.566	9192
926.673	9047
926.779	8956
926.886	8979
926.993	8708
927.099	8785
927.206	8758
927.312	8750
927.419	8830
927.525	8815
927.631	8849
927.737	8727
927.843	8655
927.95	8495
928.056	8682
928.162	8705
928.267	8708
928.373	9237
928.479	8804
928.585	8556
928.69	8724
928.796	8670
928.901	8541
929.007	8514
929.112	8617
929.218	8610
929.323	8579
929.428	8511
929.533	8590
929.638	8446
929.743	8473
929.848	8480
929.953	8533
930.058	8412
930.163	8282
930.267	8271
930.372	8450
930.477	8195
930.581	8461
930.685	8381
930.79	8252
930.894	8237
930.998	8149
931.103	8336
931.207	7963
931.311	7947
931.415	7906
931.519	7753
931.623	7685
