Data from test_V78500241_2684.txt Node
Date: Fri Mar 25 14:52:24 CST 2022
User: usil
Spectrometer: V785-0024
Trigger mode: 0
Integration Time (sec): 4.000000E-1
Scans to average: 1
Nonlinearity correction enabled: false
Boxcar width: 0
Storing dark spectrum: false
XAxis mode: Wavelengths
Number of Pixels in Spectrum: 1024
>>>>>Begin Spectral Data<<<<<
801.071	22070
801.214	21926
801.356	21660
801.499	21648
801.641	21500
801.783	21405
801.926	21386
802.068	21283
802.211	21268
802.353	21146
802.496	20971
802.638	20925
802.78	20788
802.923	20823
803.065	20648
803.208	20648
803.35	20735
803.492	20861
803.635	20891
803.777	20773
803.919	20746
804.061	21058
804.204	20769
804.346	20697
804.488	20621
804.63	20674
804.773	20575
804.915	20625
805.057	20655
805.199	20636
805.341	20781
805.483	20724
805.626	20724
805.768	20575
805.91	20625
806.052	20617
806.194	20556
806.336	20731
806.478	20674
806.62	20446
806.762	20693
806.904	20880
807.046	21047
807.188	20960
807.33	20842
807.472	20982
807.614	20826
807.756	20823
807.898	20705
808.04	20533
808.182	20697
808.324	20609
808.465	20655
808.607	20910
808.749	21036
808.891	21116
809.033	21154
809.174	21108
809.316	20918
809.458	20948
809.6	20944
809.741	21135
809.883	21055
810.025	21131
810.166	21146
810.308	21070
810.45	21051
810.591	20921
810.733	20872
810.875	20796
811.016	20682
811.158	20629
811.299	20777
811.441	20883
811.582	20819
811.724	20712
811.865	20613
812.007	20693
812.148	20762
812.29	20788
812.431	20792
812.573	20971
812.714	21207
812.855	21332
812.997	21306
813.138	21439
813.279	21317
813.421	21329
813.562	21313
813.703	21039
813.845	20849
813.986	20587
814.127	20427
814.268	20271
814.41	20370
814.551	20199
814.692	20259
814.833	20210
814.974	20142
815.115	20263
815.256	20111
815.397	20035
815.539	20145
815.68	19963
815.821	20062
815.962	20065
816.103	20081
816.244	19826
816.385	19818
816.526	19677
816.666	19499
816.807	19445
816.948	19521
817.089	19472
817.23	19457
817.371	19400
817.512	19346
817.653	19460
817.793	19388
817.934	19449
818.075	19502
818.216	19438
818.356	19434
818.497	19282
818.638	19183
818.778	19053
818.919	19050
819.06	19118
819.2	19190
819.341	19278
819.481	19438
819.622	19426
819.762	19613
819.903	19575
820.043	19453
820.184	19449
820.324	19285
820.465	19426
820.605	19346
820.746	19430
820.886	19316
821.026	19415
821.167	19217
821.307	19362
821.447	19388
821.588	19179
821.728	19027
821.868	18890
822.008	18901
822.149	18760
822.289	18848
822.429	18540
822.569	18475
822.709	18494
822.849	18372
822.99	18254
823.13	18270
823.27	18228
823.41	18060
823.55	17984
823.69	18110
823.83	18133
823.97	18053
824.11	17950
824.25	17836
824.389	17935
824.529	17931
824.669	17851
824.809	17923
824.949	17999
825.089	17878
825.228	17954
825.368	17737
825.508	17684
825.648	17642
825.787	17729
825.927	17710
826.067	17615
826.206	17684
826.346	17649
826.485	17642
826.625	17653
826.765	17794
826.904	17627
827.044	17421
827.183	17296
827.323	17356
827.462	17429
827.601	17345
827.741	17322
827.88	17360
828.02	17292
828.159	17303
828.298	17391
828.437	17425
828.577	17315
828.716	17467
828.855	17406
828.994	17170
829.134	17102
829.273	17117
829.412	17124
829.551	17147
829.69	17086
829.829	17121
829.968	17242
830.107	17117
830.246	17185
830.385	17060
830.524	16995
830.663	16877
830.802	16930
830.941	16668
831.08	16733
831.219	16938
831.357	16805
831.496	16927
831.635	16733
831.774	16668
831.913	16584
832.051	16413
832.19	16500
832.329	16527
832.467	16508
832.606	16474
832.744	16428
832.883	16413
833.022	16405
833.16	16432
833.299	16466
833.437	16466
833.576	16538
833.714	16481
833.852	16440
833.991	16485
834.129	16561
834.267	16641
834.406	16379
834.544	16561
834.682	16565
834.821	16466
834.959	16599
835.097	16386
835.235	16508
835.373	16466
835.511	16512
835.65	16474
835.788	16402
835.926	16306
836.064	16139
836.202	16200
836.34	16421
836.478	16443
836.615	16405
836.753	16413
836.891	16474
837.029	16493
837.167	16424
837.305	16318
837.443	16223
837.58	16265
837.718	16382
837.856	16352
837.993	16303
838.131	16299
838.269	16196
838.406	16322
838.544	16211
838.681	16059
838.819	16040
838.956	15854
839.094	15770
839.231	15956
839.369	15972
839.506	16268
839.643	16120
839.781	15861
839.918	15854
840.055	15808
840.193	15675
840.33	15789
840.467	15831
840.604	15930
840.742	15994
840.879	15812
841.016	15618
841.153	15804
841.29	15998
841.427	15785
841.564	15800
841.701	15869
841.838	15736
841.975	15709
842.112	15842
842.249	15682
842.385	15610
842.522	15846
842.659	15720
842.796	15614
842.933	15599
843.069	15542
843.206	15584
843.343	15633
843.479	15717
843.616	15652
843.752	15428
843.889	15469
844.025	15599
844.162	15370
844.298	15542
844.435	15367
844.571	15435
844.708	15466
844.844	15660
844.98	15492
845.117	15584
845.253	15420
845.389	15230
845.525	15363
845.661	15317
845.798	15173
845.934	15252
846.07	15222
846.206	15252
846.342	15443
846.478	15207
846.614	15051
846.75	14979
846.886	14925
847.022	15085
847.158	14975
847.294	15036
847.429	14979
847.565	14834
847.701	15184
847.837	14712
847.972	14598
848.108	14861
848.244	14693
848.379	14640
848.515	14617
848.65	14530
848.786	14594
848.921	14579
849.057	14613
849.192	14739
849.328	14621
849.463	14682
849.598	14568
849.734	14446
849.869	14374
850.004	14404
850.14	14423
850.275	14347
850.41	14294
850.545	14282
850.68	14298
850.815	14396
850.95	14313
851.085	14495
851.22	14377
851.355	14362
851.49	14317
851.625	14339
851.76	14286
851.895	14145
852.03	14187
852.165	14317
852.299	14488
852.434	14438
852.569	14328
852.703	14351
852.838	14533
852.973	14484
853.107	14564
853.242	14366
853.376	14206
853.511	14062
853.645	14221
853.78	14252
853.914	14267
854.048	14206
854.183	14229
854.317	14256
854.451	14358
854.585	14199
854.72	14199
854.854	14233
854.988	14172
855.122	14259
855.256	14054
855.39	14218
855.524	14225
855.658	14278
855.792	14187
855.926	14138
856.06	14263
856.194	14374
856.327	14195
856.461	14195
856.595	14199
856.729	14161
856.862	14351
856.996	14237
857.13	14210
857.263	14225
857.397	14362
857.53	14237
857.664	14290
857.797	14256
857.931	14370
858.064	14244
858.197	14244
858.331	14324
858.464	14210
858.597	14206
858.731	14294
858.864	14153
858.997	14183
859.13	14282
859.263	14252
859.396	14286
859.529	14233
859.662	14214
859.795	14252
859.928	14199
860.061	14317
860.194	14461
860.327	14229
860.46	14084
860.592	14343
860.725	14355
860.858	14336
860.99	14206
861.123	14187
861.256	14115
861.388	14107
861.521	14842
861.653	14096
861.786	14031
861.918	14100
862.05	14039
862.183	14267
862.315	14210
862.447	14237
862.58	14130
862.712	13989
862.844	13955
862.976	14062
863.108	14119
863.24	14320
863.372	13917
863.504	14134
863.636	13967
863.768	14005
863.9	14012
864.032	13947
864.164	13970
864.296	14046
864.428	14069
864.559	14111
864.691	14065
864.823	14069
864.954	14001
865.086	14065
865.217	13963
865.349	13936
865.48	14050
865.612	14020
865.743	14069
865.875	13993
866.006	14024
866.137	14046
866.269	13875
866.4	13955
866.531	13993
866.662	13906
866.793	13871
866.924	13917
867.055	13947
867.186	13906
867.317	13906
867.448	13864
867.579	13917
867.71	13955
867.841	13974
867.972	13902
868.103	14115
868.233	13982
868.364	14020
868.495	14043
868.625	14176
868.756	14404
868.886	14164
869.017	14229
869.147	14294
869.278	14377
869.408	14324
869.539	14256
869.669	14267
869.799	14138
869.929	14332
870.06	14351
870.19	14590
870.32	14621
870.45	14617
870.58	14667
870.71	14785
870.84	14785
870.97	14678
871.1	14560
871.23	14811
871.36	14830
871.489	14701
871.619	14743
871.749	14838
871.879	14807
872.008	14979
872.138	14925
872.267	14845
872.397	14708
872.526	14682
872.656	14651
872.785	14613
872.915	14826
873.044	14971
873.173	14921
873.303	14967
873.432	14842
873.561	14933
873.69	14891
873.819	14880
873.948	14914
874.077	14967
874.206	14910
874.335	14906
874.464	15116
874.593	15077
874.722	15089
874.851	15249
874.979	15241
875.108	15222
875.237	15233
875.365	15097
875.494	15161
875.623	15268
875.751	15116
875.88	15169
876.008	15378
876.136	15439
876.265	15629
876.393	15770
876.521	15751
876.65	15709
876.778	15747
876.906	15686
877.034	15591
877.162	15671
877.29	15580
877.418	15549
877.546	15633
877.674	15644
877.802	15534
877.93	15564
878.058	15576
878.185	15473
878.313	15507
878.441	15686
878.568	15572
878.696	15557
878.824	15648
878.951	15739
879.079	15838
879.206	15888
879.333	15781
879.461	15679
879.588	15644
879.715	15842
879.842	15899
879.97	15705
880.097	15439
880.224	15568
880.351	15561
880.478	15477
880.605	15519
880.732	15382
880.859	15701
880.986	15496
881.112	15458
881.239	15443
881.366	15291
881.493	15222
881.619	15131
881.746	15351
881.872	15256
881.999	15135
882.125	15032
882.252	15218
882.378	15192
882.505	15313
882.631	15123
882.757	14906
882.883	15047
883.01	14906
883.136	14823
883.262	14910
883.388	14819
883.514	14963
883.64	15024
883.766	14960
883.892	14735
884.018	14746
884.143	14937
884.269	14918
884.395	14788
884.52	14636
884.646	14640
884.772	14629
884.897	14602
885.023	14640
885.148	14720
885.274	14758
885.399	14686
885.524	14720
885.65	14705
885.775	14655
885.9	14640
886.025	14853
886.15	14655
886.275	14716
886.4	14659
886.525	14610
886.65	14556
886.775	14514
886.9	14777
887.025	14864
887.149	14621
887.274	14533
887.399	14454
887.523	14446
887.648	14415
887.773	14423
887.897	14476
888.021	14476
888.146	14514
888.27	14636
888.395	14568
888.519	14564
888.643	14499
888.767	14564
888.891	14400
889.015	14355
889.139	14336
889.263	14320
889.387	14427
889.511	14594
889.635	14480
889.759	14317
889.883	14355
890.006	14396
890.13	14495
890.254	14195
890.377	14237
890.501	14149
890.624	14225
890.748	14263
890.871	14123
890.995	13993
891.118	14005
891.241	14096
891.364	14100
891.488	14202
891.611	14058
891.734	14073
891.857	14134
891.98	13986
892.103	14115
892.226	14168
892.349	14043
892.471	13917
892.594	13970
892.717	14054
892.839	14043
892.962	14035
893.085	14180
893.207	14088
893.33	13955
893.452	13982
893.575	14035
893.697	13921
893.819	14157
893.941	14237
894.064	14267
894.186	14016
894.308	14081
894.43	14088
894.552	14332
894.674	14195
894.796	13989
894.918	14058
895.04	13989
895.161	14172
895.283	14233
895.405	14054
895.526	14134
895.648	14168
895.769	14256
895.891	14256
896.012	14286
896.134	14324
896.255	14221
896.376	14157
896.498	14164
896.619	14320
896.74	14259
896.861	14278
896.982	14583
897.103	14697
897.224	14514
897.345	14495
897.466	14408
897.587	14454
897.708	14629
897.828	14579
897.949	14438
898.07	14332
898.19	14484
898.311	14556
898.431	14564
898.552	14610
898.672	14625
898.792	14617
898.913	14579
899.033	14473
899.153	14358
899.273	14366
899.393	14389
899.513	14526
899.633	14552
899.753	14469
899.873	14358
899.993	14495
900.113	14339
900.232	14385
900.352	14415
900.472	14336
900.591	14275
900.711	14298
900.83	14355
900.95	14339
901.069	14492
901.189	14225
901.308	14012
901.427	13974
901.546	13974
901.665	13997
901.784	14005
901.904	13761
902.023	13685
902.141	13578
902.26	13499
902.379	13548
902.498	13662
902.617	13460
902.735	13559
902.854	13468
902.973	13571
903.091	13346
903.21	13217
903.328	13274
903.446	13110
903.565	12996
903.683	13080
903.801	13046
903.919	13194
904.038	13023
904.156	12905
904.274	12943
904.392	12905
904.51	12905
904.627	12886
904.745	12958
904.863	12973
904.981	12734
905.098	12566
905.216	12654
905.334	12703
905.451	12722
905.569	12623
905.686	12688
905.803	12597
905.921	12342
906.038	12563
906.155	12422
906.272	12315
906.389	12304
906.506	12254
906.623	12209
906.74	12201
906.857	12098
906.974	12049
907.091	12251
907.208	12327
907.324	12285
907.441	12072
907.557	12011
907.674	11920
907.79	11927
907.907	11965
908.023	12022
908.139	11965
908.256	11965
908.372	11874
908.488	11863
908.604	11798
908.72	11665
908.836	11752
908.952	11741
909.068	11707
909.184	11828
909.3	11661
909.415	11691
909.531	11798
909.647	11436
909.762	11417
909.878	11379
909.993	11516
910.108	11482
910.224	11414
910.339	11532
910.454	11372
910.57	11326
910.685	11269
910.8	11562
910.915	11493
911.03	11372
911.145	11235
911.259	11136
911.374	11162
911.489	11105
911.604	11048
911.718	10965
911.833	10961
911.947	10835
912.062	10771
912.176	10915
912.291	10934
912.405	10892
912.519	11109
912.633	11105
912.748	10984
912.862	10949
912.976	10839
913.09	10687
913.204	10847
913.318	10847
913.431	10854
913.545	10862
913.659	11010
913.772	10946
913.886	10725
914	10736
914.113	10801
914.226	10908
914.34	10797
914.453	10630
914.566	10774
914.68	10675
914.793	10702
914.906	10485
915.019	10421
915.132	10440
915.245	10500
915.358	10409
915.47	10493
915.583	10497
915.696	10523
915.809	10668
915.921	10561
916.034	10398
916.146	10428
916.259	10318
916.371	10459
916.483	10516
916.595	10341
916.708	10421
916.82	10382
916.932	10440
917.044	10382
917.156	10405
917.268	10287
917.38	10276
917.491	10230
917.603	10276
917.715	10367
917.826	10318
917.938	10284
918.049	10166
918.161	10314
918.272	10394
918.384	10440
918.495	10356
918.606	10116
918.717	10116
918.828	10287
918.939	10207
919.05	10135
919.161	10101
919.272	10029
919.383	10059
919.494	10280
919.604	10363
919.715	10150
919.826	10101
919.936	10124
920.047	10196
920.157	10204
920.267	10363
920.378	10223
920.488	10166
920.598	10394
920.708	10565
920.818	10379
920.928	10394
921.038	10554
921.148	10455
921.258	10287
921.368	10166
921.477	10051
921.587	9987
921.697	9979
921.806	10071
921.916	10006
922.025	9846
922.134	9728
922.244	9713
922.353	9690
922.462	9694
922.571	9538
922.68	9450
922.789	9424
922.898	9447
923.007	9488
923.116	9462
923.224	9447
923.333	9462
923.442	9291
923.55	9340
923.659	9332
923.767	9389
923.876	9245
923.984	9306
924.092	9253
924.201	9298
924.309	9336
924.417	9291
924.525	9195
924.633	9344
924.741	10029
924.849	9066
924.956	9256
925.064	9123
925.172	9020
925.279	9062
925.387	9142
925.494	9085
925.602	9214
925.709	9199
925.816	9085
925.924	9051
926.031	9207
926.138	9135
926.245	9093
926.352	8975
926.459	9154
926.566	9207
926.673	9058
926.779	9009
926.886	8887
926.993	8853
927.099	8796
927.206	8750
927.312	8731
927.419	8857
927.525	8857
927.631	8895
927.737	8670
927.843	8697
927.95	8606
928.056	8644
928.162	8674
928.267	8746
928.373	9351
928.479	8804
928.585	8556
928.69	8667
928.796	8651
928.901	8670
929.007	8522
929.112	8629
929.218	8530
929.323	8514
929.428	8522
929.533	8667
929.638	8499
929.743	8522
929.848	8541
929.953	8514
930.058	8366
930.163	8244
930.267	8374
930.372	8389
930.477	8336
930.581	8503
930.685	8370
930.79	8240
930.894	8332
930.998	8271
931.103	8355
931.207	7986
931.311	7955
931.415	7959
931.519	7761
931.623	7734
