Data from test_V78500241_1603.txt Node
Date: Fri Mar 25 14:44:52 CST 2022
User: usil
Spectrometer: V785-0024
Trigger mode: 0
Integration Time (sec): 4.000000E-1
Scans to average: 1
Nonlinearity correction enabled: false
Boxcar width: 0
Storing dark spectrum: false
XAxis mode: Wavelengths
Number of Pixels in Spectrum: 1024
>>>>>Begin Spectral Data<<<<<
801.071	22405
801.214	22211
801.356	21903
801.499	21922
801.641	21751
801.783	21637
801.926	21701
802.068	21587
802.211	21530
802.353	21481
802.496	21298
802.638	21241
802.78	21142
802.923	21127
803.065	21074
803.208	21009
803.35	20998
803.492	21135
803.635	21275
803.777	21074
803.919	21119
804.061	21397
804.204	21135
804.346	21009
804.488	20834
804.63	20952
804.773	20823
804.915	21039
805.057	21085
805.199	20998
805.341	20994
805.483	21165
805.626	21081
805.768	20944
805.91	21116
806.052	21058
806.194	20883
806.336	21131
806.478	21009
806.62	20956
806.762	20941
806.904	21180
807.046	21393
807.188	21313
807.33	21450
807.472	21389
807.614	21351
807.756	21214
807.898	21275
808.04	21100
808.182	21226
808.324	21192
808.465	21180
808.607	21306
808.749	21370
808.891	21603
809.033	21701
809.174	21557
809.316	21431
809.458	21424
809.6	21370
809.741	21431
809.883	21538
810.025	21549
810.166	21564
810.308	21549
810.45	21561
810.591	21401
810.733	21325
810.875	21275
811.016	21188
811.158	21104
811.299	21355
811.441	21310
811.582	21252
811.724	21275
811.865	21154
812.007	21150
812.148	21222
812.29	21199
812.431	21431
812.573	21507
812.714	21603
812.855	21618
812.997	21800
813.138	21930
813.279	21743
813.421	21583
813.562	21583
813.703	21424
813.845	21310
813.986	21077
814.127	20880
814.268	20769
814.41	20781
814.551	20727
814.692	20811
814.833	20640
814.974	20571
815.115	20788
815.256	20609
815.397	20609
815.539	20590
815.68	20541
815.821	20461
815.962	20473
816.103	20457
816.244	20377
816.385	20267
816.526	20286
816.666	20073
816.807	19982
816.948	19978
817.089	20043
817.23	19784
817.371	19795
817.512	19909
817.653	19894
817.793	19769
817.934	19883
818.075	19791
818.216	19993
818.356	19864
818.497	19746
818.638	19578
818.778	19651
818.919	19601
819.06	19639
819.2	19693
819.341	19734
819.481	19712
819.622	19830
819.762	20043
819.903	20005
820.043	19928
820.184	19799
820.324	19852
820.465	19906
820.605	19925
820.746	19883
820.886	19814
821.026	19906
821.167	19791
821.307	19818
821.447	19852
821.588	19666
821.728	19616
821.868	19445
822.008	19358
822.149	19316
822.289	19168
822.429	19019
822.569	18935
822.709	18973
822.849	18741
822.99	18772
823.13	18810
823.27	18616
823.41	18525
823.55	18452
823.69	18623
823.83	18681
823.97	18536
824.11	18338
824.25	18258
824.389	18414
824.529	18334
824.669	18266
824.809	18395
824.949	18395
825.089	18433
825.228	18388
825.368	18125
825.508	18053
825.648	18144
825.787	18087
825.927	18148
826.067	17942
826.206	18129
826.346	18026
826.485	18186
826.625	18041
826.765	18041
826.904	18117
827.044	18026
827.183	17813
827.323	17726
827.462	17745
827.601	17821
827.741	17710
827.88	17874
828.02	17634
828.159	17779
828.298	17748
828.437	17817
828.577	17741
828.716	17927
828.855	17790
828.994	17528
829.134	17638
829.273	17543
829.412	17543
829.551	17414
829.69	17505
829.829	17615
829.968	17649
830.107	17665
830.246	17566
830.385	17486
830.524	17376
830.663	17356
830.802	17212
830.941	17037
831.08	17083
831.219	17258
831.357	17117
831.496	17379
831.635	17075
831.774	17109
831.913	17003
832.051	16965
832.19	16942
832.329	16877
832.467	16862
832.606	16752
832.744	16881
832.883	16809
833.022	16797
833.16	16881
833.299	16847
833.437	16839
833.576	16995
833.714	16790
833.852	16831
833.991	16911
834.129	16965
834.267	17029
834.406	16915
834.544	16911
834.682	16934
834.821	16835
834.959	16980
835.097	16755
835.235	16972
835.373	16885
835.511	16904
835.65	16839
835.788	16752
835.926	16710
836.064	16584
836.202	16664
836.34	16755
836.478	16877
836.615	16717
836.753	16790
836.891	16923
837.029	16835
837.167	16740
837.305	16835
837.443	16622
837.58	16630
837.718	16717
837.856	16691
837.993	16596
838.131	16721
838.269	16504
838.406	16641
838.544	16428
838.681	16466
838.819	16276
838.956	16207
839.094	16139
839.231	16215
839.369	16421
839.506	16596
839.643	16386
839.781	16299
839.918	16166
840.055	16280
840.193	16204
840.33	16185
840.467	16257
840.604	16177
840.742	16421
840.879	16166
841.016	16120
841.153	16128
841.29	16333
841.427	16169
841.564	16101
841.701	16154
841.838	16067
841.975	16048
842.112	16109
842.249	16071
842.385	16002
842.522	16120
842.659	15972
842.796	15941
842.933	16029
843.069	15892
843.206	15903
843.343	15975
843.479	15804
843.616	15998
843.752	15785
843.889	15739
844.025	15846
844.162	15633
844.298	15778
844.435	15717
844.571	15682
844.708	15724
844.844	15857
844.98	15895
845.117	15838
845.253	15705
845.389	15637
845.525	15743
845.661	15694
845.798	15610
845.934	15629
846.07	15568
846.206	15584
846.342	15884
846.478	15637
846.614	15435
846.75	15329
846.886	15351
847.022	15416
847.158	15336
847.294	15302
847.429	15386
847.565	15306
847.701	15466
847.837	15100
847.972	15070
848.108	15055
848.244	15154
848.379	14891
848.515	14910
848.65	14861
848.786	14929
848.921	14941
849.057	14994
849.192	14925
849.328	14948
849.463	14868
849.598	14785
849.734	14872
849.869	14750
850.004	14750
850.14	14792
850.275	14716
850.41	14579
850.545	14606
850.68	14629
850.815	14651
850.95	14625
851.085	14819
851.22	14739
851.355	14693
851.49	14636
851.625	14503
851.76	14583
851.895	14587
852.03	14457
852.165	14590
852.299	14705
852.434	14788
852.569	14651
852.703	14648
852.838	14743
852.973	14883
853.107	14796
853.242	14617
853.376	14621
853.511	14454
853.645	14450
853.78	14693
853.914	14507
854.048	14507
854.183	14484
854.317	14522
854.451	14632
854.585	14495
854.72	14469
854.854	14533
854.988	14511
855.122	14473
855.256	14358
855.39	14484
855.524	14644
855.658	14587
855.792	14579
855.926	14560
856.06	14579
856.194	14632
856.327	14560
856.461	14545
856.595	14473
856.729	14476
856.862	14583
856.996	14587
857.13	14659
857.263	14629
857.397	14689
857.53	14492
857.664	14434
857.797	14579
857.931	14689
858.064	14564
858.197	14648
858.331	14492
858.464	14552
858.597	14465
858.731	14419
858.864	14499
858.997	14412
859.13	14499
859.263	14511
859.396	14571
859.529	14473
859.662	14469
859.795	14438
859.928	14427
860.061	14792
860.194	14731
860.327	14465
860.46	14549
860.592	14583
860.725	14655
860.858	14579
860.99	14488
861.123	14427
861.256	14358
861.388	14549
861.521	15291
861.653	14473
861.786	14278
861.918	14396
862.05	14381
862.183	14427
862.315	14492
862.447	14503
862.58	14404
862.712	14286
862.844	14290
862.976	14317
863.108	14328
863.24	14663
863.372	14282
863.504	14305
863.636	14225
863.768	14343
863.9	14286
864.032	14313
864.164	14240
864.296	14385
864.428	14370
864.559	14370
864.691	14408
864.823	14374
864.954	14237
865.086	14290
865.217	14271
865.349	14256
865.48	14233
865.612	14309
865.743	14457
865.875	14221
866.006	14256
866.137	14256
866.269	14221
866.4	14294
866.531	14233
866.662	14153
866.793	14267
866.924	14153
867.055	14221
867.186	14298
867.317	14263
867.448	14130
867.579	14164
867.71	14126
867.841	14195
867.972	14290
868.103	14244
868.233	14248
868.364	14343
868.495	14320
868.625	14465
868.756	14606
868.886	14396
869.017	14541
869.147	14629
869.278	14651
869.408	14590
869.539	14602
869.669	14579
869.799	14587
869.929	14648
870.06	14625
870.19	14823
870.32	14773
870.45	14804
870.58	14849
870.71	14941
870.84	15047
870.97	14952
871.1	14849
871.23	15097
871.36	15150
871.489	15009
871.619	15089
871.749	15032
871.879	15154
872.008	15157
872.138	15169
872.267	15070
872.397	14937
872.526	14899
872.656	14990
872.785	14952
872.915	15218
873.044	15310
873.173	15032
873.303	15207
873.432	15157
873.561	15272
873.69	15165
873.819	15252
873.948	15283
874.077	15180
874.206	15230
874.335	15157
874.464	15310
874.593	15473
874.722	15416
874.851	15564
874.979	15584
875.108	15488
875.237	15359
875.365	15435
875.494	15420
875.623	15580
875.751	15507
875.88	15420
876.008	15599
876.136	15774
876.265	15838
876.393	16078
876.521	15941
876.65	15991
876.778	15876
876.906	15865
877.034	15895
877.162	15831
877.29	15808
877.418	15899
877.546	15934
877.674	15937
877.802	15873
877.93	15941
878.058	15968
878.185	15808
878.313	15873
878.441	15816
878.568	15808
878.696	15998
878.824	15892
878.951	16006
879.079	16124
879.206	16280
879.333	16006
879.461	15911
879.588	15987
879.715	16131
879.842	16139
879.97	16032
880.097	15774
880.224	15846
880.351	15854
880.478	15827
880.605	15743
880.732	15759
880.859	15979
880.986	15762
881.112	15823
881.239	15717
881.366	15564
881.493	15458
881.619	15401
881.746	15523
881.872	15439
881.999	15515
882.125	15389
882.252	15481
882.378	15420
882.505	15614
882.631	15351
882.757	15169
882.883	15386
883.01	15214
883.136	15211
883.262	15142
883.388	15116
883.514	15310
883.64	15241
883.766	15211
883.892	15036
884.018	15097
884.143	15154
884.269	15272
884.395	14956
884.52	14963
884.646	14971
884.772	14788
884.897	14819
885.023	14994
885.148	15032
885.274	15165
885.399	15043
885.524	14914
885.65	14990
885.775	15009
885.9	14921
886.025	15074
886.15	15001
886.275	14823
886.4	14864
886.525	14880
886.65	14800
886.775	14788
886.9	15081
887.025	15119
887.149	14933
887.274	14849
887.399	14625
887.523	14743
887.648	14712
887.773	14697
887.897	14937
888.021	14788
888.146	14769
888.27	14807
888.395	15020
888.519	14762
888.643	14853
888.767	14773
888.891	14705
889.015	14629
889.139	14682
889.263	14560
889.387	14727
889.511	14804
889.635	14792
889.759	14610
889.883	14648
890.006	14693
890.13	14697
890.254	14552
890.377	14507
890.501	14427
890.624	14434
890.748	14545
890.871	14408
890.995	14271
891.118	14092
891.241	14343
891.364	14328
891.488	14389
891.611	14301
891.734	14366
891.857	14336
891.98	14355
892.103	14370
892.226	14298
892.349	14282
892.471	14142
892.594	14377
892.717	14336
892.839	14263
892.962	14248
893.085	14343
893.207	14290
893.33	14294
893.452	14259
893.575	14381
893.697	14324
893.819	14423
893.941	14518
894.064	14431
894.186	14248
894.308	14328
894.43	14457
894.552	14568
894.674	14473
894.796	14355
894.918	14282
895.04	14339
895.161	14446
895.283	14488
895.405	14408
895.526	14434
895.648	14507
895.769	14465
895.891	14530
896.012	14568
896.134	14537
896.255	14450
896.376	14495
896.498	14446
896.619	14568
896.74	14480
896.861	14560
896.982	14807
897.103	14944
897.224	14826
897.345	14712
897.466	14682
897.587	14689
897.708	14830
897.828	14788
897.949	14765
898.07	14708
898.19	14716
898.311	14849
898.431	14765
898.552	14880
898.672	14849
898.792	14891
898.913	14830
899.033	14815
899.153	14667
899.273	14587
899.393	14667
899.513	14739
899.633	14697
899.753	14754
899.873	14617
899.993	14769
900.113	14663
900.232	14648
900.352	14670
900.472	14674
900.591	14495
900.711	14575
900.83	14408
900.95	14686
901.069	14659
901.189	14457
901.308	14214
901.427	14237
901.546	14191
901.665	14313
901.784	14229
901.904	14176
902.023	14054
902.141	13757
902.26	13788
902.379	13925
902.498	13887
902.617	13681
902.735	13814
902.854	13708
902.973	13708
903.091	13491
903.21	13548
903.328	13586
903.446	13438
903.565	13381
903.683	13384
903.801	13304
903.919	13407
904.038	13297
904.156	13225
904.274	13236
904.392	13110
904.51	13187
904.627	13187
904.745	13217
904.863	13312
904.981	12989
905.098	12764
905.216	12833
905.334	12848
905.451	12890
905.569	12738
905.686	12825
905.803	12924
905.921	12677
906.038	12783
906.155	12677
906.272	12578
906.389	12616
906.506	12536
906.623	12429
906.74	12498
906.857	12361
906.974	12327
907.091	12528
907.208	12608
907.324	12506
907.441	12426
907.557	12194
907.674	12216
907.79	12117
907.907	12197
908.023	12201
908.139	12182
908.256	12125
908.372	12060
908.488	12019
908.604	12003
908.72	11866
908.836	11984
908.952	11912
909.068	11912
909.184	12038
909.3	11916
909.415	11988
909.531	11923
909.647	11699
909.762	11699
909.878	11672
909.993	11707
910.108	11680
910.224	11608
910.339	11707
910.454	11596
910.57	11638
910.685	11505
910.8	11794
910.915	11684
911.03	11528
911.145	11505
911.259	11387
911.374	11474
911.489	11318
911.604	11246
911.718	11166
911.833	11159
911.947	11041
912.062	11029
912.176	11185
912.291	11109
912.405	11117
912.519	11318
912.633	11379
912.748	11296
912.862	11121
912.976	11006
913.09	10919
913.204	11075
913.318	11022
913.431	11162
913.545	11166
913.659	11166
913.772	11029
913.886	10919
914	10980
914.113	11022
914.226	11056
914.34	11014
914.453	10733
914.566	10995
914.68	10778
914.793	10873
914.906	10694
915.019	10569
915.132	10573
915.245	10683
915.358	10679
915.47	10687
915.583	10714
915.696	10736
915.809	10809
915.921	10767
916.034	10618
916.146	10588
916.259	10554
916.371	10759
916.483	10672
916.595	10535
916.708	10603
916.82	10584
916.932	10542
917.044	10546
917.156	10542
917.268	10459
917.38	10500
917.491	10508
917.603	10508
917.715	10542
917.826	10561
917.938	10535
918.049	10447
918.161	10451
918.272	10592
918.384	10615
918.495	10512
918.606	10363
918.717	10306
918.828	10344
918.939	10424
919.05	10261
919.161	10291
919.272	10135
919.383	10166
919.494	10382
919.604	10500
919.715	10455
919.826	10280
919.936	10261
920.047	10455
920.157	10375
920.267	10618
920.378	10447
920.488	10352
920.598	10527
920.708	10694
920.818	10550
920.928	10504
921.038	10694
921.148	10725
921.258	10402
921.368	10284
921.477	10215
921.587	10268
921.697	10196
921.806	10253
921.916	10097
922.025	9915
922.134	9937
922.244	9827
922.353	9876
922.462	9831
922.571	9663
922.68	9572
922.789	9667
922.898	9648
923.007	9595
923.116	9656
923.224	9679
923.333	9599
923.442	9504
923.55	9530
923.659	9538
923.767	9572
923.876	9443
923.984	9584
924.092	9393
924.201	9488
924.309	9492
924.417	9530
924.525	9439
924.633	9454
924.741	10154
924.849	9199
924.956	9386
925.064	9157
925.172	9180
925.279	9317
925.387	9313
925.494	9253
925.602	9355
925.709	9367
925.816	9249
925.924	9291
926.031	9332
926.138	9283
926.245	9313
926.352	9161
926.459	9329
926.566	9351
926.673	9275
926.779	9047
926.886	9108
926.993	9005
927.099	8982
927.206	8918
927.312	8914
927.419	9032
927.525	8952
927.631	9013
927.737	8971
927.843	8883
927.95	8712
928.056	8804
928.162	8842
928.267	8933
928.373	9462
928.479	8994
928.585	8682
928.69	8952
928.796	8842
928.901	8800
929.007	8606
929.112	8731
929.218	8777
929.323	8621
929.428	8674
929.533	8735
929.638	8659
929.743	8682
929.848	8708
929.953	8655
930.058	8606
930.163	8415
930.267	8503
930.372	8575
930.477	8423
930.581	8659
930.685	8545
930.79	8343
930.894	8408
930.998	8412
931.103	8590
931.207	8233
931.311	8084
931.415	8027
931.519	7898
931.623	7833
