Data from test_V78500241_3416.txt Node
Date: Fri Mar 25 14:57:30 CST 2022
User: usil
Spectrometer: V785-0024
Trigger mode: 0
Integration Time (sec): 4.000000E-1
Scans to average: 1
Nonlinearity correction enabled: false
Boxcar width: 0
Storing dark spectrum: false
XAxis mode: Wavelengths
Number of Pixels in Spectrum: 1024
>>>>>Begin Spectral Data<<<<<
801.071	21953
801.214	21884
801.356	21690
801.499	21561
801.641	21355
801.783	21249
801.926	21386
802.068	21321
802.211	21211
802.353	21096
802.496	20918
802.638	20792
802.78	20727
802.923	20579
803.065	20560
803.208	20697
803.35	20724
803.492	20765
803.635	20762
803.777	20587
803.919	20716
804.061	20960
804.204	20708
804.346	20564
804.488	20511
804.63	20773
804.773	20476
804.915	20655
805.057	20579
805.199	20442
805.341	20701
805.483	20560
805.626	20575
805.768	20526
805.91	20640
806.052	20655
806.194	20560
806.336	20587
806.478	20446
806.62	20442
806.762	20735
806.904	20655
807.046	21047
807.188	20864
807.33	20872
807.472	20952
807.614	20754
807.756	20861
807.898	20609
808.04	20556
808.182	20629
808.324	20629
808.465	20769
808.607	20785
808.749	20864
808.891	20986
809.033	21096
809.174	20948
809.316	20800
809.458	20853
809.6	20864
809.741	20941
809.883	20933
810.025	21017
810.166	21108
810.308	21135
810.45	21024
810.591	20792
810.733	20792
810.875	20796
811.016	20511
811.158	20537
811.299	20682
811.441	20861
811.582	20712
811.724	20682
811.865	20621
812.007	20670
812.148	20651
812.29	20743
812.431	20868
812.573	21024
812.714	21081
812.855	21161
812.997	21203
813.138	21397
813.279	21302
813.421	21203
813.562	21104
813.703	20979
813.845	20823
813.986	20438
814.127	20415
814.268	20275
814.41	20221
814.551	20149
814.692	20244
814.833	20157
814.974	20161
815.115	20252
815.256	20084
815.397	20153
815.539	20100
815.68	19963
815.821	19959
815.962	19944
816.103	19890
816.244	19780
816.385	19666
816.526	19674
816.666	19441
816.807	19400
816.948	19430
817.089	19445
817.23	19449
817.371	19407
817.512	19407
817.653	19392
817.793	19297
817.934	19419
818.075	19358
818.216	19339
818.356	19263
818.497	19145
818.638	19042
818.778	19034
818.919	19015
819.06	19099
819.2	19107
819.341	19126
819.481	19156
819.622	19266
819.762	19502
819.903	19514
820.043	19339
820.184	19312
820.324	19278
820.465	19320
820.605	19274
820.746	19266
820.886	19187
821.026	19209
821.167	19187
821.307	19339
821.447	19225
821.588	19213
821.728	19042
821.868	18863
822.008	18650
822.149	18798
822.289	18726
822.429	18589
822.569	18414
822.709	18422
822.849	18311
822.99	18254
823.13	18308
823.27	18281
823.41	17939
823.55	17961
823.69	18003
823.83	18117
823.97	17946
824.11	17783
824.25	17790
824.389	17783
824.529	17954
824.669	17821
824.809	17889
824.949	17980
825.089	17813
825.228	17805
825.368	17615
825.508	17608
825.648	17600
825.787	17657
825.927	17623
826.067	17505
826.206	17516
826.346	17551
826.485	17657
826.625	17577
826.765	17718
826.904	17714
827.044	17402
827.183	17345
827.323	17124
827.462	17292
827.601	17303
827.741	17128
827.88	17303
828.02	17117
828.159	17155
828.298	17356
828.437	17345
828.577	17242
828.716	17322
828.855	17220
828.994	17151
829.134	16991
829.273	16991
829.412	17025
829.551	16999
829.69	16972
829.829	17037
829.968	17193
830.107	17056
830.246	17060
830.385	16919
830.524	16972
830.663	16820
830.802	16713
830.941	16637
831.08	16660
831.219	16702
831.357	16698
831.496	16881
831.635	16592
831.774	16615
831.913	16546
832.051	16481
832.19	16363
832.329	16417
832.467	16337
832.606	16341
832.744	16390
832.883	16284
833.022	16272
833.16	16363
833.299	16443
833.437	16424
833.576	16466
833.714	16421
833.852	16500
833.991	16478
834.129	16481
834.267	16432
834.406	16390
834.544	16405
834.682	16363
834.821	16386
834.959	16592
835.097	16348
835.235	16523
835.373	16478
835.511	16447
835.65	16341
835.788	16230
835.926	16173
836.064	16242
836.202	16139
836.34	16402
836.478	16314
836.615	16291
836.753	16341
836.891	16470
837.029	16344
837.167	16295
837.305	16314
837.443	16154
837.58	16090
837.718	16234
837.856	16124
837.993	16177
838.131	16158
838.269	16147
838.406	16177
838.544	16090
838.681	15880
838.819	15895
838.956	15671
839.094	15720
839.231	15793
839.369	15797
839.506	16112
839.643	16078
839.781	15797
839.918	15625
840.055	15770
840.193	15762
840.33	15652
840.467	15793
840.604	15819
840.742	15991
840.879	15576
841.016	15572
841.153	15701
841.29	15926
841.427	15778
841.564	15812
841.701	15819
841.838	15785
841.975	15641
842.112	15644
842.249	15614
842.385	15500
842.522	15724
842.659	15515
842.796	15507
842.933	15545
843.069	15477
843.206	15526
843.343	15701
843.479	15561
843.616	15519
843.752	15275
843.889	15272
844.025	15500
844.162	15214
844.298	15420
844.435	15294
844.571	15298
844.708	15359
844.844	15458
844.98	15507
845.117	15348
845.253	15351
845.389	15233
845.525	15169
845.661	15275
845.798	15131
845.934	15123
846.07	15161
846.206	15199
846.342	15199
846.478	15154
846.614	15005
846.75	14929
846.886	14838
847.022	14975
847.158	14971
847.294	14971
847.429	14929
847.565	14906
847.701	15146
847.837	14781
847.972	14568
848.108	14663
848.244	14644
848.379	14514
848.515	14476
848.65	14427
848.786	14454
848.921	14522
849.057	14674
849.192	14629
849.328	14560
849.463	14442
849.598	14427
849.734	14484
849.869	14396
850.004	14301
850.14	14332
850.275	14267
850.41	14229
850.545	14210
850.68	14317
850.815	14301
850.95	14244
851.085	14465
851.22	14423
851.355	14309
851.49	14214
851.625	14195
851.76	14290
851.895	14081
852.03	14172
852.165	14172
852.299	14271
852.434	14343
852.569	14256
852.703	14244
852.838	14351
852.973	14320
853.107	14301
853.242	14229
853.376	14142
853.511	13978
853.645	14134
853.78	14313
853.914	14195
854.048	14183
854.183	14126
854.317	14172
854.451	14351
854.585	14107
854.72	14142
854.854	14237
854.988	14008
855.122	14153
855.256	13940
855.39	14088
855.524	14187
855.658	14225
855.792	14172
855.926	14138
856.06	14324
856.194	14240
856.327	14100
856.461	13978
856.595	14012
856.729	14031
856.862	14256
856.996	14168
857.13	14195
857.263	14199
857.397	14199
857.53	14138
857.664	14149
857.797	14206
857.931	14225
858.064	14210
858.197	14278
858.331	14065
858.464	14126
858.597	14103
858.731	14062
858.864	14142
858.997	14172
859.13	14054
859.263	14180
859.396	14278
859.529	14096
859.662	14092
859.795	14096
859.928	14161
860.061	14294
860.194	14221
860.327	14107
860.46	14130
860.592	14240
860.725	14347
860.858	14229
860.99	14191
861.123	14005
861.256	14062
861.388	14214
861.521	14853
861.653	14050
861.786	13993
861.918	14012
862.05	14020
862.183	14046
862.315	14126
862.447	14119
862.58	14065
862.712	13887
862.844	13841
862.976	13993
863.108	14001
863.24	14396
863.372	13780
863.504	13860
863.636	13902
863.768	14005
863.9	13940
864.032	13845
864.164	13902
864.296	13997
864.428	14035
864.559	13997
864.691	13986
864.823	13917
864.954	13963
865.086	14012
865.217	13951
865.349	13837
865.48	13879
865.612	13932
865.743	14016
865.875	13917
866.006	13898
866.137	13879
866.269	13868
866.4	13928
866.531	13830
866.662	13780
866.793	13906
866.924	13852
867.055	13890
867.186	13875
867.317	13818
867.448	13814
867.579	13837
867.71	13970
867.841	13830
867.972	13894
868.103	13967
868.233	13928
868.364	13967
868.495	14001
868.625	14221
868.756	14138
868.886	14130
869.017	14142
869.147	14240
869.278	14286
869.408	14187
869.539	14142
869.669	14199
869.799	14168
869.929	14412
870.06	14286
870.19	14476
870.32	14442
870.45	14560
870.58	14499
870.71	14693
870.84	14667
870.97	14617
871.1	14526
871.23	14743
871.36	14781
871.489	14632
871.619	14701
871.749	14720
871.879	14815
872.008	14811
872.138	14842
872.267	14724
872.397	14678
872.526	14610
872.656	14598
872.785	14667
872.915	14823
873.044	14830
873.173	14800
873.303	14861
873.432	14861
873.561	14823
873.69	14811
873.819	14838
873.948	14868
874.077	14697
874.206	14788
874.335	14762
874.464	15020
874.593	15135
874.722	15074
874.851	15154
874.979	15203
875.108	15237
875.237	15135
875.365	14998
875.494	15085
875.623	15169
875.751	15165
875.88	15093
876.008	15291
876.136	15336
876.265	15614
876.393	15641
876.521	15663
876.65	15663
876.778	15477
876.906	15507
877.034	15481
877.162	15542
877.29	15511
877.418	15477
877.546	15542
877.674	15511
877.802	15595
877.93	15515
878.058	15405
878.185	15450
878.313	15542
878.441	15496
878.568	15397
878.696	15530
878.824	15545
878.951	15599
879.079	15728
879.206	15861
879.333	15679
879.461	15507
879.588	15660
879.715	15698
879.842	15762
879.97	15568
880.097	15329
880.224	15351
880.351	15454
880.478	15454
880.605	15302
880.732	15355
880.859	15622
880.986	15477
881.112	15458
881.239	15313
881.366	15214
881.493	15119
881.619	15066
881.746	15070
881.872	14944
881.999	15020
882.125	15081
882.252	15112
882.378	15077
882.505	15192
882.631	15093
882.757	14811
882.883	14952
883.01	14895
883.136	14807
883.262	14670
883.388	14708
883.514	14914
883.64	14880
883.766	14788
883.892	14663
884.018	14819
884.143	14925
884.269	15001
884.395	14621
884.52	14507
884.646	14575
884.772	14412
884.897	14514
885.023	14552
885.148	14655
885.274	14819
885.399	14716
885.524	14594
885.65	14537
885.775	14575
885.9	14522
886.025	14693
886.15	14708
886.275	14499
886.4	14480
886.525	14495
886.65	14465
886.775	14480
886.9	14796
887.025	14739
887.149	14552
887.274	14442
887.399	14393
887.523	14358
887.648	14438
887.773	14347
887.897	14473
888.021	14514
888.146	14457
888.27	14518
888.395	14632
888.519	14473
888.643	14556
888.767	14526
888.891	14374
889.015	14157
889.139	14305
889.263	14267
889.387	14389
889.511	14495
889.635	14336
889.759	14328
889.883	14336
890.006	14286
890.13	14488
890.254	14176
890.377	14290
890.501	14081
890.624	14073
890.748	14221
890.871	13993
890.995	13963
891.118	13982
891.241	14012
891.364	14043
891.488	14081
891.611	13947
891.734	13978
891.857	14027
891.98	14039
892.103	14149
892.226	13997
892.349	13947
892.471	13909
892.594	13894
892.717	13898
892.839	14008
892.962	14050
893.085	14001
893.207	13982
893.33	13963
893.452	13852
893.575	14035
893.697	13974
893.819	14180
893.941	14130
894.064	14081
894.186	13932
894.308	13852
894.43	14153
894.552	14191
894.674	14096
894.796	14065
894.918	14058
895.04	14035
895.161	14168
895.283	14050
895.405	13989
895.526	14176
895.648	14123
895.769	14142
895.891	14138
896.012	14233
896.134	14187
896.255	14096
896.376	14115
896.498	14111
896.619	14229
896.74	14092
896.861	14336
896.982	14434
897.103	14594
897.224	14503
897.345	14427
897.466	14415
897.587	14351
897.708	14575
897.828	14450
897.949	14450
898.07	14244
898.19	14476
898.311	14537
898.431	14370
898.552	14480
898.672	14659
898.792	14617
898.913	14556
899.033	14541
899.153	14374
899.273	14286
899.393	14267
899.513	14393
899.633	14385
899.753	14446
899.873	14355
899.993	14412
900.113	14256
900.232	14275
900.352	14370
900.472	14294
900.591	14138
900.711	14286
900.83	14096
900.95	14275
901.069	14248
901.189	14164
901.308	14001
901.427	13807
901.546	13845
901.665	13925
901.784	13906
901.904	13769
902.023	13548
902.141	13491
902.26	13464
902.379	13445
902.498	13453
902.617	13422
902.735	13510
902.854	13396
902.973	13369
903.091	13187
903.21	13122
903.328	13175
903.446	13065
903.565	13076
903.683	12947
903.801	13034
903.919	12985
904.038	12981
904.156	12783
904.274	12901
904.392	12848
904.51	12840
904.627	12886
904.745	12932
904.863	12901
904.981	12707
905.098	12589
905.216	12506
905.334	12601
905.451	12528
905.569	12532
905.686	12642
905.803	12528
905.921	12357
906.038	12414
906.155	12460
906.272	12304
906.389	12350
906.506	12045
906.623	12079
906.74	12125
906.857	11935
906.974	12087
907.091	12190
907.208	12235
907.324	12194
907.441	12102
907.557	11931
907.674	11889
907.79	11828
907.907	11885
908.023	11843
908.139	11817
908.256	11840
908.372	11821
908.488	11779
908.604	11646
908.72	11653
908.836	11551
908.952	11627
909.068	11741
909.184	11828
909.3	11695
909.415	11665
909.531	11707
909.647	11452
909.762	11398
909.878	11372
909.993	11444
910.108	11341
910.224	11433
910.339	11387
910.454	11364
910.57	11250
910.685	11166
910.8	11478
910.915	11509
911.03	11303
911.145	11083
911.259	11121
911.374	11094
911.489	11075
911.604	11064
911.718	10885
911.833	10904
911.947	10736
912.062	10763
912.176	10850
912.291	10927
912.405	10953
912.519	11083
912.633	11185
912.748	10957
912.862	10885
912.976	10759
913.09	10626
913.204	10729
913.318	10774
913.431	10881
913.545	10866
913.659	10850
913.772	10812
913.886	10634
914	10714
914.113	10744
914.226	10797
914.34	10683
914.453	10508
914.566	10782
914.68	10592
914.793	10489
914.906	10402
915.019	10356
915.132	10310
915.245	10356
915.358	10386
915.47	10432
915.583	10417
915.696	10413
915.809	10573
915.921	10558
916.034	10337
916.146	10341
916.259	10333
916.371	10413
916.483	10379
916.595	10352
916.708	10428
916.82	10394
916.932	10341
917.044	10333
917.156	10310
917.268	10276
917.38	10242
917.491	10192
917.603	10230
917.715	10379
917.826	10428
917.938	10211
918.049	10105
918.161	10280
918.272	10360
918.384	10363
918.495	10272
918.606	10101
918.717	10025
918.828	10097
918.939	10196
919.05	9979
919.161	10143
919.272	9873
919.383	10021
919.494	10124
919.604	10325
919.715	10139
919.826	10067
919.936	10150
920.047	10204
920.157	10131
920.267	10318
920.378	10242
920.488	10101
920.598	10348
920.708	10459
920.818	10337
920.928	10322
921.038	10497
921.148	10375
921.258	10166
921.368	10063
921.477	10017
921.587	9998
921.697	9880
921.806	9968
921.916	9930
922.025	9701
922.134	9667
922.244	9667
922.353	9770
922.462	9633
922.571	9568
922.68	9424
922.789	9378
922.898	9420
923.007	9268
923.116	9443
923.224	9389
923.333	9317
923.442	9321
923.55	9253
923.659	9291
923.767	9348
923.876	9245
923.984	9408
924.092	9203
924.201	9321
924.309	9306
924.417	9275
924.525	9218
924.633	9226
924.741	10211
924.849	8948
924.956	9214
925.064	9043
925.172	9066
925.279	8979
925.387	9058
925.494	9051
925.602	9199
925.709	9116
925.816	8998
925.924	9005
926.031	9169
926.138	8990
926.245	9077
926.352	8998
926.459	9195
926.566	9142
926.673	8998
926.779	8918
926.886	8944
926.993	8804
927.099	8834
927.206	8758
927.312	8792
927.419	8769
927.525	8796
927.631	8750
927.737	8686
927.843	8716
927.95	8518
928.056	8682
928.162	8682
928.267	8689
928.373	9405
928.479	8743
928.585	8556
928.69	8701
928.796	8686
928.901	8594
929.007	8484
929.112	8651
929.218	8541
929.323	8492
929.428	8461
929.533	8583
929.638	8488
929.743	8473
929.848	8507
929.953	8476
930.058	8381
930.163	8237
930.267	8229
930.372	8381
930.477	8210
930.581	8438
930.685	8313
930.79	8180
930.894	8221
930.998	8145
931.103	8347
931.207	8054
931.311	7970
931.415	7921
931.519	7639
931.623	7704
