Data from test_V78500241_3288.txt Node
Date: Fri Mar 25 14:56:36 CST 2022
User: usil
Spectrometer: V785-0024
Trigger mode: 0
Integration Time (sec): 4.000000E-1
Scans to average: 1
Nonlinearity correction enabled: false
Boxcar width: 0
Storing dark spectrum: false
XAxis mode: Wavelengths
Number of Pixels in Spectrum: 1024
>>>>>Begin Spectral Data<<<<<
801.071	22036
801.214	21895
801.356	21698
801.499	21542
801.641	21450
801.783	21393
801.926	21367
802.068	21279
802.211	21256
802.353	21077
802.496	20849
802.638	20887
802.78	20834
802.923	20842
803.065	20549
803.208	20579
803.35	20686
803.492	20815
803.635	20708
803.777	20762
803.919	20804
804.061	21043
804.204	20758
804.346	20632
804.488	20526
804.63	20583
804.773	20625
804.915	20686
805.057	20735
805.199	20488
805.341	20621
805.483	20659
805.626	20571
805.768	20606
805.91	20545
806.052	20621
806.194	20564
806.336	20655
806.478	20598
806.62	20495
806.762	20640
806.904	20781
807.046	20994
807.188	20891
807.33	20902
807.472	20937
807.614	20781
807.756	20815
807.898	20613
808.04	20640
808.182	20552
808.324	20705
808.465	20651
808.607	20895
808.749	20986
808.891	21039
809.033	21131
809.174	20880
809.316	20883
809.458	20910
809.6	20929
809.741	20979
809.883	20967
810.025	21222
810.166	21039
810.308	21055
810.45	20986
810.591	20864
810.733	20941
810.875	20716
811.016	20625
811.158	20575
811.299	20746
811.441	20811
811.582	20925
811.724	20670
811.865	20617
812.007	20724
812.148	20667
812.29	20746
812.431	20811
812.573	20925
812.714	21089
812.855	21165
812.997	21176
813.138	21462
813.279	21291
813.421	21195
813.562	21146
813.703	20986
813.845	20781
813.986	20473
814.127	20507
814.268	20126
814.41	20237
814.551	20202
814.692	20248
814.833	20286
814.974	20153
815.115	20180
815.256	19997
815.397	20016
815.539	20046
815.68	19940
815.821	19860
815.962	19871
816.103	19856
816.244	19780
816.385	19693
816.526	19719
816.666	19601
816.807	19362
816.948	19464
817.089	19438
817.23	19453
817.371	19327
817.512	19365
817.653	19301
817.793	19221
817.934	19335
818.075	19327
818.216	19343
818.356	19225
818.497	19171
818.638	19015
818.778	19057
818.919	19012
819.06	19076
819.2	19198
819.341	19301
819.481	19301
819.622	19331
819.762	19495
819.903	19441
820.043	19362
820.184	19346
820.324	19228
820.465	19415
820.605	19247
820.746	19308
820.886	19198
821.026	19331
821.167	19206
821.307	19403
821.447	19236
821.588	19152
821.728	18935
821.868	18901
822.008	18757
822.149	18711
822.289	18692
822.429	18528
822.569	18456
822.709	18486
822.849	18292
822.99	18266
823.13	18270
823.27	18292
823.41	18133
823.55	17958
823.69	18007
823.83	18038
823.97	18007
824.11	17885
824.25	17767
824.389	17874
824.529	17882
824.669	17832
824.809	17893
824.949	17843
825.089	17805
825.228	17790
825.368	17604
825.508	17668
825.648	17623
825.787	17703
825.927	17551
826.067	17520
826.206	17566
826.346	17661
826.485	17592
826.625	17573
826.765	17707
826.904	17680
827.044	17349
827.183	17303
827.323	17170
827.462	17296
827.601	17258
827.741	17410
827.88	17261
828.02	17094
828.159	17288
828.298	17296
828.437	17353
828.577	17227
828.716	17478
828.855	17223
828.994	17060
829.134	17220
829.273	17025
829.412	17060
829.551	17010
829.69	17128
829.829	17067
829.968	17094
830.107	17033
830.246	17102
830.385	17029
830.524	16976
830.663	16877
830.802	16717
830.941	16649
831.08	16607
831.219	16713
831.357	16778
831.496	16869
831.635	16744
831.774	16618
831.913	16679
832.051	16386
832.19	16542
832.329	16481
832.467	16455
832.606	16375
832.744	16402
832.883	16432
833.022	16299
833.16	16367
833.299	16394
833.437	16417
833.576	16462
833.714	16481
833.852	16356
833.991	16523
834.129	16489
834.267	16402
834.406	16432
834.544	16535
834.682	16447
834.821	16508
834.959	16584
835.097	16363
835.235	16504
835.373	16527
835.511	16554
835.65	16432
835.788	16398
835.926	16211
836.064	16166
836.202	16185
836.34	16287
836.478	16390
836.615	16223
836.753	16367
836.891	16443
837.029	16405
837.167	16356
837.305	16253
837.443	16352
837.58	16303
837.718	16356
837.856	16234
837.993	16185
838.131	16226
838.269	16234
838.406	16086
838.544	16082
838.681	15941
838.819	15854
838.956	15789
839.094	15732
839.231	15903
839.369	15915
839.506	16185
839.643	16109
839.781	15831
839.918	15846
840.055	15865
840.193	15736
840.33	15793
840.467	15827
840.604	15812
840.742	16071
840.879	15648
841.016	15675
841.153	15686
841.29	15842
841.427	15793
841.564	15819
841.701	15812
841.838	15774
841.975	15709
842.112	15770
842.249	15591
842.385	15603
842.522	15694
842.659	15713
842.796	15507
842.933	15549
843.069	15580
843.206	15587
843.343	15603
843.479	15671
843.616	15553
843.752	15321
843.889	15298
844.025	15412
844.162	15367
844.298	15477
844.435	15321
844.571	15294
844.708	15424
844.844	15542
844.98	15553
845.117	15507
845.253	15279
845.389	15252
845.525	15249
845.661	15321
845.798	15062
845.934	15268
846.07	15165
846.206	15176
846.342	15329
846.478	15116
846.614	15001
846.75	14864
846.886	14929
847.022	14979
847.158	14895
847.294	14952
847.429	14982
847.565	14982
847.701	15161
847.837	14682
847.972	14663
848.108	14815
848.244	14838
848.379	14571
848.515	14541
848.65	14575
848.786	14473
848.921	14648
849.057	14667
849.192	14594
849.328	14511
849.463	14552
849.598	14602
849.734	14480
849.869	14419
850.004	14408
850.14	14347
850.275	14298
850.41	14214
850.545	14263
850.68	14225
850.815	14294
850.95	14202
851.085	14480
851.22	14366
851.355	14244
851.49	14248
851.625	14278
851.76	14313
851.895	14263
852.03	14259
852.165	14240
852.299	14358
852.434	14362
852.569	14366
852.703	14237
852.838	14396
852.973	14518
853.107	14389
853.242	14282
853.376	14218
853.511	13993
853.645	14134
853.78	14240
853.914	14142
854.048	14142
854.183	14183
854.317	14077
854.451	14355
854.585	14240
854.72	14119
854.854	14225
854.988	14016
855.122	14180
855.256	14005
855.39	14119
855.524	14191
855.658	14168
855.792	14183
855.926	14164
856.06	14252
856.194	14355
856.327	14237
856.461	14145
856.595	14115
856.729	14111
856.862	14332
856.996	14176
857.13	14324
857.263	14282
857.397	14282
857.53	14199
857.664	14195
857.797	14252
857.931	14320
858.064	14221
858.197	14271
858.331	14081
858.464	14187
858.597	13970
858.731	14050
858.864	14168
858.997	14157
859.13	14210
859.263	14282
859.396	14282
859.529	14115
859.662	14107
859.795	14180
859.928	14180
860.061	14336
860.194	14336
860.327	14256
860.46	14084
860.592	14214
860.725	14309
860.858	14328
860.99	14214
861.123	14134
861.256	14138
861.388	14149
861.521	14979
861.653	14058
861.786	14020
861.918	14001
862.05	14191
862.183	14149
862.315	14168
862.447	14229
862.58	14153
862.712	13967
862.844	13951
862.976	14043
863.108	14031
863.24	14343
863.372	13955
863.504	13906
863.636	13928
863.768	13967
863.9	13947
864.032	13837
864.164	14005
864.296	13997
864.428	14054
864.559	14001
864.691	14062
864.823	13982
864.954	13921
865.086	13951
865.217	13967
865.349	13822
865.48	13955
865.612	13974
865.743	14035
865.875	13959
866.006	13928
866.137	13921
866.269	13902
866.4	14027
866.531	13803
866.662	13833
866.793	14005
866.924	13932
867.055	14008
867.186	13909
867.317	13864
867.448	13913
867.579	13875
867.71	13856
867.841	13830
867.972	13944
868.103	13940
868.233	14005
868.364	13868
868.495	14005
868.625	14149
868.756	14275
868.886	14134
869.017	14111
869.147	14396
869.278	14317
869.408	14206
869.539	14195
869.669	14202
869.799	14210
869.929	14256
870.06	14263
870.19	14431
870.32	14511
870.45	14480
870.58	14579
870.71	14754
870.84	14545
870.97	14670
871.1	14568
871.23	14807
871.36	14838
871.489	14674
871.619	14785
871.749	14785
871.879	14853
872.008	14902
872.138	14773
872.267	14708
872.397	14583
872.526	14651
872.656	14575
872.785	14564
872.915	14876
873.044	14971
873.173	14838
873.303	14834
873.432	14891
873.561	14960
873.69	14849
873.819	14815
873.948	15028
874.077	14838
874.206	14712
874.335	14746
874.464	15074
874.593	15146
874.722	15066
874.851	15127
874.979	15207
875.108	15222
875.237	15058
875.365	15062
875.494	15077
875.623	15272
875.751	15097
875.88	15249
876.008	15329
876.136	15363
876.265	15595
876.393	15747
876.521	15584
876.65	15724
876.778	15523
876.906	15629
877.034	15450
877.162	15515
877.29	15469
877.418	15557
877.546	15610
877.674	15485
877.802	15580
877.93	15641
878.058	15568
878.185	15466
878.313	15580
878.441	15557
878.568	15458
878.696	15488
878.824	15667
878.951	15584
879.079	15800
879.206	15857
879.333	15701
879.461	15629
879.588	15698
879.715	15736
879.842	15785
879.97	15637
880.097	15420
880.224	15416
880.351	15408
880.478	15405
880.605	15412
880.732	15443
880.859	15610
880.986	15378
881.112	15595
881.239	15397
881.366	15218
881.493	15180
881.619	15024
881.746	14982
881.872	15097
881.999	14986
882.125	14960
882.252	15180
882.378	15100
882.505	15233
882.631	14990
882.757	14868
882.883	15013
883.01	14918
883.136	14785
883.262	14739
883.388	14842
883.514	14925
883.64	14925
883.766	14864
883.892	14621
884.018	14667
884.143	14811
884.269	14925
884.395	14606
884.52	14625
884.646	14640
884.772	14556
884.897	14473
885.023	14617
885.148	14739
885.274	14785
885.399	14708
885.524	14621
885.65	14564
885.775	14636
885.9	14571
886.025	14674
886.15	14651
886.275	14625
886.4	14499
886.525	14629
886.65	14533
886.775	14594
886.9	14644
887.025	14815
887.149	14625
887.274	14488
887.399	14339
887.523	14320
887.648	14313
887.773	14343
887.897	14499
888.021	14545
888.146	14396
888.27	14480
888.395	14552
888.519	14370
888.643	14556
888.767	14594
888.891	14374
889.015	14221
889.139	14351
889.263	14328
889.387	14480
889.511	14526
889.635	14393
889.759	14324
889.883	14328
890.006	14476
890.13	14423
890.254	14259
890.377	14294
890.501	14126
890.624	14084
890.748	14134
890.871	14096
890.995	13902
891.118	13967
891.241	14027
891.364	13967
891.488	14084
891.611	14115
891.734	13955
891.857	14001
891.98	14065
892.103	14020
892.226	14005
892.349	14005
892.471	13852
892.594	14024
892.717	14073
892.839	14005
892.962	13989
893.085	14065
893.207	13947
893.33	13826
893.452	13967
893.575	14043
893.697	13944
893.819	14100
893.941	14183
894.064	14183
894.186	14027
894.308	13982
894.43	14115
894.552	14145
894.674	14164
894.796	13982
894.918	14008
895.04	14081
895.161	14100
895.283	14202
895.405	14065
895.526	14073
895.648	14050
895.769	14161
895.891	14058
896.012	14202
896.134	14294
896.255	14153
896.376	14050
896.498	14202
896.619	14206
896.74	14221
896.861	14233
896.982	14404
897.103	14655
897.224	14476
897.345	14469
897.466	14396
897.587	14358
897.708	14583
897.828	14514
897.949	14419
898.07	14343
898.19	14434
898.311	14590
898.431	14488
898.552	14575
898.672	14632
898.792	14640
898.913	14663
899.033	14594
899.153	14461
899.273	14271
899.393	14355
899.513	14301
899.633	14374
899.753	14404
899.873	14347
899.993	14385
900.113	14298
900.232	14385
900.352	14294
900.472	14248
900.591	14081
900.711	14244
900.83	14256
900.95	14301
901.069	14366
901.189	14202
901.308	13986
901.427	13811
901.546	13925
901.665	13955
901.784	13894
901.904	13731
902.023	13742
902.141	13552
902.26	13453
902.379	13575
902.498	13537
902.617	13537
902.735	13453
902.854	13411
902.973	13403
903.091	13228
903.21	13164
903.328	13225
903.446	13091
903.565	12981
903.683	13107
903.801	12973
903.919	13008
904.038	13008
904.156	12966
904.274	12947
904.392	12837
904.51	12840
904.627	12745
904.745	12867
904.863	12844
904.981	12681
905.098	12654
905.216	12525
905.334	12627
905.451	12601
905.569	12506
905.686	12559
905.803	12654
905.921	12418
906.038	12448
906.155	12429
906.272	12304
906.389	12315
906.506	12175
906.623	12102
906.74	12155
906.857	11969
906.974	12144
907.091	12209
907.208	12319
907.324	12209
907.441	12129
907.557	11828
907.674	11889
907.79	11927
907.907	11821
908.023	11984
908.139	11958
908.256	11916
908.372	11878
908.488	11771
908.604	11775
908.72	11668
908.836	11722
908.952	11630
909.068	11737
909.184	11672
909.3	11615
909.415	11718
909.531	11745
909.647	11493
909.762	11501
909.878	11471
909.993	11566
910.108	11524
910.224	11337
910.339	11509
910.454	11429
910.57	11337
910.685	11269
910.8	11493
910.915	11463
911.03	11299
911.145	11181
911.259	11166
911.374	11216
911.489	11124
911.604	11052
911.718	10873
911.833	10934
911.947	10828
912.062	10748
912.176	10896
912.291	10869
912.405	10911
912.519	11185
912.633	11140
912.748	10991
912.862	10957
912.976	10889
913.09	10706
913.204	10801
913.318	10809
913.431	10896
913.545	10858
913.659	11022
913.772	10786
913.886	10721
914	10664
914.113	10759
914.226	10729
914.34	10774
914.453	10596
914.566	10858
914.68	10569
914.793	10641
914.906	10474
915.019	10379
915.132	10447
915.245	10405
915.358	10500
915.47	10462
915.583	10531
915.696	10493
915.809	10622
915.921	10561
916.034	10436
916.146	10462
916.259	10318
916.371	10493
916.483	10398
916.595	10356
916.708	10386
916.82	10322
916.932	10382
917.044	10360
917.156	10405
917.268	10257
917.38	10284
917.491	10253
917.603	10253
917.715	10409
917.826	10261
917.938	10287
918.049	10188
918.161	10261
918.272	10398
918.384	10367
918.495	10268
918.606	10135
918.717	10135
918.828	10139
918.939	10223
919.05	10055
919.161	10154
919.272	9960
919.383	10036
919.494	10223
919.604	10287
919.715	10192
919.826	10154
919.936	10169
920.047	10238
920.157	10116
920.267	10409
920.378	10185
920.488	10169
920.598	10394
920.708	10504
920.818	10363
920.928	10394
921.038	10489
921.148	10485
921.258	10200
921.368	10154
921.477	10139
921.587	9998
921.697	9953
921.806	9937
921.916	9941
922.025	9785
922.134	9778
922.244	9705
922.353	9831
922.462	9660
922.571	9591
922.68	9481
922.789	9435
922.898	9408
923.007	9435
923.116	9523
923.224	9378
923.333	9401
923.442	9401
923.55	9283
923.659	9268
923.767	9378
923.876	9351
923.984	9359
924.092	9150
924.201	9332
924.309	9275
924.417	9211
924.525	9207
924.633	9359
924.741	10112
924.849	9077
924.956	9192
925.064	9032
925.172	8998
925.279	9055
925.387	9116
925.494	9157
925.602	9245
925.709	9135
925.816	8948
925.924	9074
926.031	9218
926.138	9055
926.245	9173
926.352	8963
926.459	9180
926.566	9112
926.673	9024
926.779	8967
926.886	8899
926.993	8914
927.099	8804
927.206	8777
927.312	8727
927.419	8804
927.525	8815
927.631	8868
927.737	8762
927.843	8659
927.95	8575
928.056	8659
928.162	8766
928.267	8708
928.373	9230
928.479	8834
928.585	8594
928.69	8708
928.796	8621
928.901	8625
929.007	8499
929.112	8667
929.218	8594
929.323	8495
929.428	8488
929.533	8640
929.638	8499
929.743	8450
929.848	8556
929.953	8476
930.058	8469
930.163	8248
930.267	8339
930.372	8377
930.477	8259
930.581	8545
930.685	8393
930.79	8305
930.894	8210
930.998	8214
931.103	8374
931.207	8065
931.311	8016
931.415	7917
931.519	7723
931.623	7670
