Data from test_V78500241_916.txt Node
Date: Fri Mar 25 14:40:05 CST 2022
User: usil
Spectrometer: V785-0024
Trigger mode: 0
Integration Time (sec): 4.000000E-1
Scans to average: 1
Nonlinearity correction enabled: false
Boxcar width: 0
Storing dark spectrum: false
XAxis mode: Wavelengths
Number of Pixels in Spectrum: 1024
>>>>>Begin Spectral Data<<<<<
801.071	24711
801.214	24722
801.356	24559
801.499	24372
801.641	24285
801.783	24243
801.926	24220
802.068	24125
802.211	24045
802.353	23980
802.496	23733
802.638	23627
802.78	23516
802.923	23615
803.065	23547
803.208	23493
803.35	23459
803.492	23566
803.635	23676
803.777	23551
803.919	23547
804.061	23897
804.204	23570
804.346	23444
804.488	23387
804.63	23474
804.773	23410
804.915	23512
805.057	23619
805.199	23482
805.341	23634
805.483	23539
805.626	23646
805.768	23467
805.91	23627
806.052	23699
806.194	23528
806.336	23855
806.478	23840
806.62	23752
806.762	23783
806.904	23927
807.046	24388
807.188	24304
807.33	24403
807.472	24448
807.614	24441
807.756	24692
807.898	24833
808.04	25008
808.182	25160
808.324	25807
808.465	26328
808.607	26921
808.749	27416
808.891	27842
809.033	27873
809.174	27389
809.316	26929
809.458	26530
809.6	25860
809.741	25552
809.883	25198
810.025	25046
810.166	24871
810.308	24700
810.45	24513
810.591	24471
810.733	24213
810.875	24072
811.016	23973
811.158	23961
811.299	23996
811.441	24087
811.582	24026
811.724	23756
811.865	23790
812.007	23726
812.148	23741
812.29	23904
812.431	24018
812.573	24155
812.714	24262
812.855	24315
812.997	24346
813.138	24490
813.279	24334
813.421	24159
813.562	24102
813.703	23977
813.845	23817
813.986	23718
814.127	23528
814.268	23337
814.41	23311
814.551	23258
814.692	23387
814.833	23200
814.974	23178
815.115	23284
815.256	23083
815.397	23094
815.539	23128
815.68	23048
815.821	22820
815.962	22927
816.103	22938
816.244	22828
816.385	22721
816.526	22797
816.666	22470
816.807	22367
816.948	22405
817.089	22428
817.23	22337
817.371	22341
817.512	22413
817.653	22310
817.793	22386
817.934	22329
818.075	22424
818.216	22299
818.356	22306
818.497	22013
818.638	21930
818.778	21941
818.919	21960
819.06	22105
819.2	22207
819.341	22207
819.481	22287
819.622	22287
819.762	22489
819.903	22451
820.043	22352
820.184	22128
820.324	22276
820.465	22367
820.605	22234
820.746	22310
820.886	22177
821.026	22215
821.167	22196
821.307	22322
821.447	22177
821.588	22013
821.728	21892
821.868	21717
822.008	21618
822.149	21614
822.289	21587
822.429	21230
822.569	21119
822.709	21294
822.849	21161
822.99	21138
823.13	21085
823.27	21051
823.41	20921
823.55	20762
823.69	20864
823.83	20906
823.97	20929
824.11	20743
824.25	20667
824.389	20674
824.529	20765
824.669	20533
824.809	20796
824.949	20712
825.089	20781
825.228	20731
825.368	20518
825.508	20457
825.648	20343
825.787	20484
825.927	20541
826.067	20286
826.206	20370
826.346	20450
826.485	20465
826.625	20343
826.765	20568
826.904	20374
827.044	20233
827.183	20229
827.323	20088
827.462	20142
827.601	20062
827.741	20035
827.88	20294
828.02	19944
828.159	20050
828.298	20062
828.437	20214
828.577	19989
828.716	20180
828.855	20130
828.994	19791
829.134	19791
829.273	19906
829.412	19788
829.551	19757
829.69	19811
829.829	19822
829.968	19925
830.107	19997
830.246	19871
830.385	19700
830.524	19689
830.663	19521
830.802	19411
830.941	19327
831.08	19441
831.219	19411
831.357	19499
831.496	19575
831.635	19365
831.774	19251
831.913	19266
832.051	19274
832.19	19137
832.329	19232
832.467	19168
832.606	19015
832.744	19129
832.883	19141
833.022	19129
833.16	19110
833.299	19339
833.437	19198
833.576	19171
833.714	19232
833.852	19339
833.991	19301
834.129	19499
834.267	19403
834.406	19278
834.544	19209
834.682	19187
834.821	19198
834.959	19384
835.097	19088
835.235	19114
835.373	19251
835.511	19141
835.65	19057
835.788	19088
835.926	18943
836.064	18894
836.202	18684
836.34	19004
836.478	19069
836.615	18867
836.753	18989
836.891	19000
837.029	18909
837.167	18958
837.305	18840
837.443	18833
837.58	18840
837.718	18932
837.856	18825
837.993	18749
838.131	18768
838.269	18528
838.406	18719
838.544	18589
838.681	18414
838.819	18330
838.956	18098
839.094	18266
839.231	18338
839.369	18365
839.506	18620
839.643	18528
839.781	18235
839.918	18266
840.055	18258
840.193	18209
840.33	18266
840.467	18315
840.604	18114
840.742	18528
840.879	18072
841.016	18129
841.153	18102
841.29	18334
841.427	18167
841.564	18213
841.701	18258
841.838	18178
841.975	18045
842.112	18076
842.249	18034
842.385	17954
842.522	18064
842.659	18019
842.796	17920
842.933	18095
843.069	17920
843.206	17965
843.343	18030
843.479	17988
843.616	17965
843.752	17901
843.889	17729
844.025	17889
844.162	17775
844.298	18079
844.435	17802
844.571	17836
844.708	17942
844.844	18232
844.98	18159
845.117	18258
845.253	18270
845.389	18506
845.525	18878
845.661	19883
845.798	20769
845.934	21884
846.07	22147
846.206	22086
846.342	21420
846.478	20320
846.614	19107
846.75	18403
846.886	18098
847.022	17893
847.158	17611
847.294	17440
847.429	17551
847.565	17345
847.701	17589
847.837	17174
847.972	17022
848.108	17132
848.244	17124
848.379	17003
848.515	16923
848.65	16866
848.786	16900
848.921	16866
849.057	17029
849.192	16957
849.328	16843
849.463	16790
849.598	16908
849.734	16725
849.869	16702
850.004	16603
850.14	16573
850.275	16637
850.41	16546
850.545	16584
850.68	16626
850.815	16634
850.95	16596
851.085	16740
851.22	16641
851.355	16653
851.49	16558
851.625	16565
851.76	16508
851.895	16432
852.03	16436
852.165	16611
852.299	16668
852.434	16755
852.569	16577
852.703	16596
852.838	16596
852.973	16672
853.107	16683
853.242	16481
853.376	16569
853.511	16421
853.645	16466
853.78	16630
853.914	16500
854.048	16493
854.183	16382
854.317	16493
854.451	16675
854.585	16413
854.72	16565
854.854	16558
854.988	16375
855.122	16512
855.256	16295
855.39	16451
855.524	16459
855.658	16504
855.792	16398
855.926	16474
856.06	16386
856.194	16618
856.327	16470
856.461	16352
856.595	16447
856.729	16363
856.862	16504
856.996	16478
857.13	16497
857.263	16466
857.397	16504
857.53	16405
857.664	16516
857.797	16470
857.931	16546
858.064	16424
858.197	16462
858.331	16413
858.464	16322
858.597	16310
858.731	16325
858.864	16310
858.997	16341
859.13	16398
859.263	16432
859.396	16527
859.529	16303
859.662	16443
859.795	16329
859.928	16303
860.061	16512
860.194	16596
860.327	16352
860.46	16360
860.592	16455
860.725	16516
860.858	16516
860.99	16367
861.123	16299
861.256	16402
861.388	16367
861.521	16949
861.653	16287
861.786	16192
861.918	16257
862.05	16318
862.183	16234
862.315	16360
862.447	16341
862.58	16310
862.712	16150
862.844	16128
862.976	16234
863.108	16196
863.24	16679
863.372	16116
863.504	16055
863.636	16078
863.768	16223
863.9	16093
864.032	16082
864.164	16109
864.296	16162
864.428	16154
864.559	16219
864.691	16139
864.823	16196
864.954	16135
865.086	16124
865.217	16044
865.349	16006
865.48	16082
865.612	16128
865.743	16185
865.875	15953
866.006	16032
866.137	16116
866.269	16112
866.4	16044
866.531	16086
866.662	16036
866.793	16036
866.924	16101
867.055	16090
867.186	16124
867.317	16017
867.448	15983
867.579	16032
867.71	16032
867.841	16017
867.972	16036
868.103	16112
868.233	15949
868.364	16139
868.495	16093
868.625	16257
868.756	16405
868.886	16284
869.017	16230
869.147	16394
869.278	16333
869.408	16371
869.539	16394
869.669	16382
869.799	16402
869.929	16394
870.06	16398
870.19	16675
870.32	16550
870.45	16622
870.58	16771
870.71	16744
870.84	16752
870.97	16668
871.1	16675
871.23	16885
871.36	16953
871.489	16809
871.619	16812
871.749	16816
871.879	16934
872.008	17109
872.138	16850
872.267	16946
872.397	16744
872.526	16774
872.656	16664
872.785	16790
872.915	17003
873.044	17067
873.173	16919
873.303	17037
873.432	17132
873.561	17193
873.69	16965
873.819	16999
873.948	17098
874.077	17045
874.206	16991
874.335	16972
874.464	17189
874.593	17250
874.722	17200
874.851	17280
874.979	17353
875.108	17311
875.237	17178
875.365	17159
875.494	17337
875.623	17376
875.751	17436
875.88	17448
876.008	17570
876.136	17577
876.265	17714
876.393	17939
876.521	17882
876.65	17874
876.778	17813
876.906	17817
877.034	17714
877.162	17779
877.29	17794
877.418	17870
877.546	17821
877.674	17821
877.802	17958
877.93	17889
878.058	17748
878.185	17931
878.313	17939
878.441	18045
878.568	18076
878.696	18190
878.824	18342
878.951	18582
879.079	18890
879.206	19324
879.333	19537
879.461	19921
879.588	20119
879.715	20237
879.842	20058
879.97	19521
880.097	18977
880.224	18650
880.351	18601
880.478	18365
880.605	18289
880.732	18133
880.859	18410
880.986	18155
881.112	18266
881.239	18053
881.366	17992
881.493	17722
881.619	17855
881.746	17695
881.872	17798
881.999	17703
882.125	17805
882.252	17802
882.378	17832
882.505	17939
882.631	17729
882.757	17547
882.883	17836
883.01	17623
883.136	17528
883.262	17364
883.388	17444
883.514	17543
883.64	17581
883.766	17676
883.892	17395
884.018	17440
884.143	17532
884.269	17642
884.395	17341
884.52	17269
884.646	17296
884.772	17162
884.897	17143
885.023	17368
885.148	17391
885.274	17303
885.399	17345
885.524	17269
885.65	17216
885.775	17261
885.9	17216
886.025	17242
886.15	17204
886.275	17105
886.4	17086
886.525	16968
886.65	17010
886.775	16972
886.9	17102
887.025	17162
887.149	16987
887.274	16835
887.399	16664
887.523	16793
887.648	16706
887.773	16752
887.897	16778
888.021	16763
888.146	16630
888.27	16801
888.395	16835
888.519	16774
888.643	16694
888.767	16672
888.891	16611
889.015	16550
889.139	16645
889.263	16542
889.387	16607
889.511	16698
889.635	16584
889.759	16497
889.883	16497
890.006	16481
890.13	16577
890.254	16371
890.377	16352
890.501	16139
890.624	16211
890.748	16329
890.871	16196
890.995	16051
891.118	15968
891.241	16071
891.364	16112
891.488	16150
891.611	16086
891.734	16124
891.857	16143
891.98	16090
892.103	16268
892.226	16139
892.349	16078
892.471	15865
892.594	16006
892.717	16002
892.839	15994
892.962	15945
893.085	16215
893.207	16029
893.33	15793
893.452	15937
893.575	16112
893.697	15835
893.819	16116
893.941	16154
894.064	16120
894.186	16021
894.308	15934
894.43	15975
894.552	16181
894.674	16010
894.796	15835
894.918	15960
895.04	15991
895.161	16010
895.283	16211
895.405	15983
895.526	16010
895.648	16025
895.769	16067
895.891	15987
896.012	16112
896.134	16109
896.255	16036
896.376	16017
896.498	16112
896.619	16036
896.74	16105
896.861	16090
896.982	16375
897.103	16558
897.224	16360
897.345	16341
897.466	16261
897.587	16329
897.708	16535
897.828	16356
897.949	16204
898.07	16082
898.19	16268
898.311	16417
898.431	16424
898.552	16421
898.672	16440
898.792	16386
898.913	16356
899.033	16337
899.153	16272
899.273	16215
899.393	16257
899.513	16325
899.633	16265
899.753	16204
899.873	16196
899.993	16299
900.113	16101
900.232	16284
900.352	16124
900.472	16135
900.591	16059
900.711	16135
900.83	15991
900.95	16131
901.069	16192
901.189	15960
901.308	15804
901.427	15614
901.546	15857
901.665	15701
901.784	15785
901.904	15580
902.023	15519
902.141	15363
902.26	15256
902.379	15359
902.498	15249
902.617	15142
902.735	15302
902.854	15233
902.973	15195
903.091	14849
903.21	14849
903.328	14933
903.446	14918
903.565	14781
903.683	14739
903.801	14629
903.919	14682
904.038	14682
904.156	14552
904.274	14648
904.392	14518
904.51	14583
904.627	14507
904.745	14564
904.863	14530
904.981	14286
905.098	14229
905.216	14309
905.334	14195
905.451	14149
905.569	14107
905.686	14271
905.803	14149
905.921	14084
906.038	14054
906.155	14024
906.272	13944
906.389	13936
906.506	13750
906.623	13814
906.74	13609
906.857	13715
906.974	13590
907.091	13765
907.208	13852
907.324	13830
907.441	13628
907.557	13441
907.674	13483
907.79	13403
907.907	13457
908.023	13480
908.139	13445
908.256	13438
908.372	13441
908.488	13327
908.604	13240
908.72	13164
908.836	13263
908.952	13141
909.068	13217
909.184	13289
909.3	13164
909.415	13206
909.531	13164
909.647	12973
909.762	12920
909.878	12913
909.993	13057
910.108	12901
910.224	12852
910.339	12962
910.454	12844
910.57	12700
910.685	12791
910.8	12928
910.915	12817
911.03	12696
911.145	12654
911.259	12498
911.374	12525
911.489	12528
911.604	12486
911.718	12418
911.833	12350
911.947	12277
912.062	12201
912.176	12338
912.291	12327
912.405	12330
912.519	12528
912.633	12559
912.748	12433
912.862	12258
912.976	12201
913.09	12053
913.204	12114
913.318	12289
913.431	12266
913.545	12266
913.659	12266
913.772	12190
913.886	12034
914	12057
914.113	12140
914.226	12163
914.34	12034
914.453	11973
914.566	12064
914.68	12095
914.793	12015
914.906	11745
915.019	11790
915.132	11726
915.245	11783
915.358	11843
915.47	11771
915.583	11855
915.696	11840
915.809	11992
915.921	11920
916.034	11638
916.146	11710
916.259	11699
916.371	11783
916.483	11767
916.595	11718
916.708	11710
916.82	11615
916.932	11627
917.044	11642
917.156	11581
917.268	11554
917.38	11570
917.491	11573
917.603	11554
917.715	11577
917.826	11619
917.938	11436
918.049	11459
918.161	11493
918.272	11710
918.384	11657
918.495	11589
918.606	11471
918.717	11349
918.828	11425
918.939	11433
919.05	11258
919.161	11353
919.272	11132
919.383	11269
919.494	11410
919.604	11691
919.715	11337
919.826	11239
919.936	11330
920.047	11452
920.157	11364
920.267	11661
920.378	11421
920.488	11395
920.598	11486
920.708	11722
920.818	11524
920.928	11554
921.038	11756
921.148	11649
921.258	11425
921.368	11258
921.477	11132
921.587	11064
921.697	11060
921.806	11105
921.916	11083
922.025	10927
922.134	10892
922.244	10831
922.353	10934
922.462	10793
922.571	10717
922.68	10550
922.789	10577
922.898	10478
923.007	10481
923.116	10497
923.224	10478
923.333	10519
923.442	10405
923.55	10348
923.659	10462
923.767	10485
923.876	10375
923.984	10440
924.092	10291
924.201	10504
924.309	10447
924.417	10417
924.525	10280
924.633	10325
924.741	11086
924.849	10147
924.956	10310
925.064	10116
925.172	10169
925.279	10074
925.387	10200
925.494	10158
925.602	10253
925.709	10200
925.816	10029
925.924	10169
926.031	10242
926.138	10105
926.245	10139
926.352	10074
926.459	10185
926.566	10227
926.673	10082
926.779	9930
926.886	10048
926.993	9838
927.099	9804
927.206	9838
927.312	9762
927.419	9842
927.525	9789
927.631	9865
927.737	9732
927.843	9682
927.95	9637
928.056	9667
928.162	9705
928.267	9747
928.373	10371
928.479	9766
928.585	9561
928.69	9682
928.796	9694
928.901	9519
929.007	9462
929.112	9675
929.218	9584
929.323	9557
929.428	9538
929.533	9648
929.638	9416
929.743	9443
929.848	9591
929.953	9477
930.058	9389
930.163	9268
930.267	9294
930.372	9408
930.477	9184
930.581	9481
930.685	9359
930.79	9169
930.894	9173
930.998	9161
931.103	9272
931.207	8944
931.311	8910
931.415	8830
931.519	8651
931.623	8651
