Data from test_V78500241_1895.txt Node
Date: Fri Mar 25 14:46:54 CST 2022
User: usil
Spectrometer: V785-0024
Trigger mode: 0
Integration Time (sec): 4.000000E-1
Scans to average: 1
Nonlinearity correction enabled: false
Boxcar width: 0
Storing dark spectrum: false
XAxis mode: Wavelengths
Number of Pixels in Spectrum: 1024
>>>>>Begin Spectral Data<<<<<
801.071	22090
801.214	22010
801.356	21728
801.499	21667
801.641	21447
801.783	21466
801.926	21435
802.068	21435
802.211	21298
802.353	21199
802.496	21123
802.638	21039
802.78	20925
802.923	20788
803.065	20746
803.208	20750
803.35	20872
803.492	20887
803.635	20918
803.777	20708
803.919	20838
804.061	21138
804.204	20872
804.346	20727
804.488	20697
804.63	20754
804.773	20590
804.915	20682
805.057	20670
805.199	20826
805.341	20765
805.483	20853
805.626	20864
805.768	20739
805.91	20807
806.052	20670
806.194	20708
806.336	20921
806.478	20823
806.62	20689
806.762	20834
806.904	21055
807.046	21146
807.188	20967
807.33	20986
807.472	20986
807.614	20967
807.756	20918
807.898	20918
808.04	20781
808.182	20716
808.324	20918
808.465	20823
808.607	20849
808.749	21013
808.891	21154
809.033	21272
809.174	21207
809.316	21032
809.458	21077
809.6	21074
809.741	21150
809.883	21176
810.025	21340
810.166	21264
810.308	21157
810.45	21310
810.591	20952
810.733	20952
810.875	20899
811.016	20674
811.158	20792
811.299	20830
811.441	20906
811.582	20864
811.724	20937
811.865	20762
812.007	20853
812.148	20864
812.29	20910
812.431	21001
812.573	21131
812.714	21233
812.855	21287
812.997	21367
813.138	21587
813.279	21477
813.421	21329
813.562	21310
813.703	21157
813.845	20979
813.986	20804
814.127	20579
814.268	20522
814.41	20480
814.551	20362
814.692	20511
814.833	20385
814.974	20366
815.115	20427
815.256	20225
815.397	20305
815.539	20370
815.68	20149
815.821	20092
815.962	20210
816.103	20206
816.244	19902
816.385	19947
816.526	19811
816.666	19734
816.807	19491
816.948	19586
817.089	19651
817.23	19578
817.371	19544
817.512	19628
817.653	19514
817.793	19430
817.934	19472
818.075	19483
818.216	19521
818.356	19415
818.497	19304
818.638	19221
818.778	19206
818.919	19198
819.06	19202
819.2	19445
819.341	19362
819.481	19411
819.622	19506
819.762	19791
819.903	19575
820.043	19567
820.184	19514
820.324	19487
820.465	19537
820.605	19556
820.746	19548
820.886	19350
821.026	19502
821.167	19578
821.307	19556
821.447	19388
821.588	19388
821.728	19240
821.868	19122
822.008	19114
822.149	18993
822.289	18932
822.429	18726
822.569	18593
822.709	18578
822.849	18414
822.99	18384
823.13	18464
823.27	18471
823.41	18251
823.55	18171
823.69	18365
823.83	18232
823.97	18117
824.11	18186
824.25	17942
824.389	18022
824.529	18015
824.669	17965
824.809	18155
824.949	18072
825.089	17961
825.228	18019
825.368	17809
825.508	17813
825.648	17847
825.787	17889
825.927	17790
826.067	17760
826.206	17760
826.346	17790
826.485	17726
826.625	17646
826.765	17954
826.904	17878
827.044	17619
827.183	17532
827.323	17436
827.462	17554
827.601	17436
827.741	17497
827.88	17444
828.02	17315
828.159	17452
828.298	17474
828.437	17505
828.577	17425
828.716	17512
828.855	17448
828.994	17208
829.134	17345
829.273	17273
829.412	17140
829.551	17231
829.69	17261
829.829	17223
829.968	17242
830.107	17311
830.246	17299
830.385	17151
830.524	17258
830.663	17094
830.802	16919
830.941	16957
831.08	16854
831.219	16847
831.357	16911
831.496	17098
831.635	16862
831.774	16752
831.913	16740
832.051	16603
832.19	16668
832.329	16835
832.467	16573
832.606	16535
832.744	16630
832.883	16474
833.022	16489
833.16	16512
833.299	16637
833.437	16580
833.576	16565
833.714	16607
833.852	16592
833.991	16702
834.129	16713
834.267	16790
834.406	16622
834.544	16588
834.682	16656
834.821	16706
834.959	16797
835.097	16622
835.235	16607
835.373	16626
835.511	16664
835.65	16550
835.788	16565
835.926	16325
836.064	16379
836.202	16265
836.34	16558
836.478	16573
836.615	16474
836.753	16599
836.891	16702
837.029	16489
837.167	16512
837.305	16493
837.443	16409
837.58	16386
837.718	16440
837.856	16379
837.993	16405
838.131	16451
838.269	16333
838.406	16333
838.544	16303
838.681	16082
838.819	16226
838.956	15994
839.094	16010
839.231	15979
839.369	16109
839.506	16314
839.643	16162
839.781	15975
839.918	15937
840.055	15964
840.193	16055
840.33	15934
840.467	16002
840.604	16036
840.742	16181
840.879	15842
841.016	15934
841.153	15873
841.29	15968
841.427	15926
841.564	15960
841.701	15960
841.838	15998
841.975	15884
842.112	15819
842.249	15789
842.385	15736
842.522	15934
842.659	15724
842.796	15663
842.933	15762
843.069	15766
843.206	15739
843.343	15800
843.479	15751
843.616	15732
843.752	15553
843.889	15561
844.025	15568
844.162	15564
844.298	15648
844.435	15614
844.571	15507
844.708	15553
844.844	15717
844.98	15618
845.117	15622
845.253	15595
845.389	15462
845.525	15420
845.661	15378
845.798	15386
845.934	15313
846.07	15294
846.206	15275
846.342	15496
846.478	15348
846.614	15127
846.75	14998
846.886	15020
847.022	15249
847.158	15081
847.294	15131
847.429	15199
847.565	15055
847.701	15317
847.837	14845
847.972	14902
848.108	14979
848.244	14994
848.379	14754
848.515	14731
848.65	14670
848.786	14568
848.921	14727
849.057	14823
849.192	14807
849.328	14792
849.463	14629
849.598	14670
849.734	14617
849.869	14571
850.004	14507
850.14	14549
850.275	14530
850.41	14370
850.545	14374
850.68	14343
850.815	14457
850.95	14492
851.085	14621
851.22	14571
851.355	14598
851.49	14343
851.625	14434
851.76	14419
851.895	14309
852.03	14355
852.165	14488
852.299	14427
852.434	14568
852.569	14492
852.703	14473
852.838	14564
852.973	14617
853.107	14606
853.242	14404
853.376	14347
853.511	14180
853.645	14252
853.78	14434
853.914	14362
854.048	14263
854.183	14183
854.317	14381
854.451	14537
854.585	14313
854.72	14271
854.854	14377
854.988	14278
855.122	14267
855.256	14195
855.39	14370
855.524	14408
855.658	14389
855.792	14298
855.926	14434
856.06	14423
856.194	14476
856.327	14343
856.461	14195
856.595	14336
856.729	14317
856.862	14461
856.996	14454
857.13	14450
857.263	14419
857.397	14503
857.53	14396
857.664	14355
857.797	14404
857.931	14484
858.064	14290
858.197	14366
858.331	14389
858.464	14298
858.597	14149
858.731	14362
858.864	14381
858.997	14332
859.13	14343
859.263	14377
859.396	14522
859.529	14332
859.662	14240
859.795	14263
859.928	14339
860.061	14556
860.194	14465
860.327	14336
860.46	14355
860.592	14469
860.725	14530
860.858	14461
860.99	14343
861.123	14244
861.256	14187
861.388	14423
861.521	14963
861.653	14172
861.786	14237
861.918	14229
862.05	14259
862.183	14263
862.315	14298
862.447	14396
862.58	14324
862.712	13993
862.844	14096
862.976	14267
863.108	14195
863.24	14434
863.372	14111
863.504	14115
863.636	13974
863.768	14176
863.9	14073
864.032	14043
864.164	14081
864.296	14176
864.428	14267
864.559	14233
864.691	14256
864.823	14180
864.954	14168
865.086	14130
865.217	14191
865.349	14024
865.48	14046
865.612	14111
865.743	14278
865.875	14100
866.006	14069
866.137	14123
866.269	14187
866.4	14157
866.531	14012
866.662	13955
866.793	13928
866.924	14043
867.055	14130
867.186	14069
867.317	14096
867.448	13986
867.579	14100
867.71	14024
867.841	14161
867.972	14157
868.103	14107
868.233	14058
868.364	14092
868.495	14195
868.625	14339
868.756	14465
868.886	14275
869.017	14419
869.147	14377
869.278	14514
869.408	14355
869.539	14290
869.669	14450
869.799	14492
869.929	14499
870.06	14537
870.19	14594
870.32	14636
870.45	14720
870.58	14792
870.71	14895
870.84	14838
870.97	14743
871.1	14720
871.23	14971
871.36	14929
871.489	14853
871.619	14941
871.749	14979
871.879	15005
872.008	15062
872.138	14929
872.267	14876
872.397	14815
872.526	14830
872.656	14769
872.785	14807
872.915	14971
873.044	15020
873.173	14967
873.303	15100
873.432	15039
873.561	15081
873.69	15047
873.819	15024
873.948	15024
874.077	15047
874.206	14967
874.335	15154
874.464	15203
874.593	15249
874.722	15241
874.851	15355
874.979	15367
875.108	15329
875.237	15325
875.365	15260
875.494	15298
875.623	15435
875.751	15275
875.88	15408
876.008	15496
876.136	15473
876.265	15778
876.393	15850
876.521	15797
876.65	15793
876.778	15690
876.906	15625
877.034	15663
877.162	15690
877.29	15694
877.418	15724
877.546	15770
877.674	15667
877.802	15724
877.93	15808
878.058	15686
878.185	15701
878.313	15728
878.441	15724
878.568	15492
878.696	15625
878.824	15789
878.951	15838
879.079	15835
879.206	16029
879.333	15975
879.461	15743
879.588	15876
879.715	15873
879.842	16154
879.97	15717
880.097	15606
880.224	15466
880.351	15564
880.478	15713
880.605	15625
880.732	15595
880.859	15888
880.986	15526
881.112	15667
881.239	15507
881.366	15336
881.493	15302
881.619	15279
881.746	15264
881.872	15157
881.999	15249
882.125	15127
882.252	15169
882.378	15291
882.505	15469
882.631	15150
882.757	15028
882.883	15020
883.01	14990
883.136	15062
883.262	14941
883.388	14921
883.514	15058
883.64	15173
883.766	15020
883.892	14944
884.018	14952
884.143	15070
884.269	15131
884.395	14826
884.52	14796
884.646	14857
884.772	14712
884.897	14689
885.023	14739
885.148	14933
885.274	14826
885.399	14807
885.524	14735
885.65	14781
885.775	14807
885.9	14762
886.025	14902
886.15	14781
886.275	14678
886.4	14598
886.525	14667
886.65	14720
886.775	14686
886.9	14910
887.025	14948
887.149	14727
887.274	14621
887.399	14598
887.523	14663
887.648	14598
887.773	14602
887.897	14606
888.021	14629
888.146	14545
888.27	14651
888.395	14678
888.519	14659
888.643	14575
888.767	14549
888.891	14522
889.015	14434
889.139	14393
889.263	14545
889.387	14522
889.511	14678
889.635	14663
889.759	14423
889.883	14408
890.006	14575
890.13	14667
890.254	14408
890.377	14423
890.501	14339
890.624	14221
890.748	14355
890.871	14248
890.995	14008
891.118	14027
891.241	14210
891.364	14119
891.488	14301
891.611	14153
891.734	14142
891.857	14161
891.98	14202
892.103	14195
892.226	14130
892.349	14153
892.471	13997
892.594	14024
892.717	14271
892.839	14164
892.962	14191
893.085	14172
893.207	14092
893.33	14043
893.452	14077
893.575	14263
893.697	14221
893.819	14294
893.941	14271
894.064	14298
894.186	14149
894.308	14100
894.43	14252
894.552	14317
894.674	14252
894.796	14035
894.918	14195
895.04	14240
895.161	14309
895.283	14263
895.405	14134
895.526	14206
895.648	14248
895.769	14389
895.891	14389
896.012	14385
896.134	14275
896.255	14366
896.376	14275
896.498	14358
896.619	14305
896.74	14328
896.861	14408
896.982	14705
897.103	14750
897.224	14579
897.345	14499
897.466	14476
897.587	14537
897.708	14697
897.828	14629
897.949	14552
898.07	14541
898.19	14564
898.311	14754
898.431	14575
898.552	14632
898.672	14758
898.792	14697
898.913	14720
899.033	14556
899.153	14511
899.273	14370
899.393	14602
899.513	14560
899.633	14484
899.753	14545
899.873	14503
899.993	14549
900.113	14571
900.232	14564
900.352	14469
900.472	14393
900.591	14393
900.711	14385
900.83	14309
900.95	14389
901.069	14522
901.189	14343
901.308	14126
901.427	14050
901.546	14100
901.665	14058
901.784	14115
901.904	13947
902.023	13795
902.141	13674
902.26	13651
902.379	13567
902.498	13563
902.617	13529
902.735	13719
902.854	13613
902.973	13552
903.091	13327
903.21	13343
903.328	13324
903.446	13346
903.565	13149
903.683	13198
903.801	13072
903.919	13213
904.038	13034
904.156	12947
904.274	13190
904.392	13031
904.51	12966
904.627	12951
904.745	13118
904.863	13023
904.981	12806
905.098	12738
905.216	12730
905.334	12715
905.451	12749
905.569	12669
905.686	12719
905.803	12757
905.921	12426
906.038	12627
906.155	12559
906.272	12391
906.389	12506
906.506	12315
906.623	12350
906.74	12220
906.857	12220
906.974	12171
907.091	12384
907.208	12464
907.324	12369
907.441	12273
907.557	12106
907.674	11999
907.79	11980
907.907	11923
908.023	12087
908.139	12049
908.256	11984
908.372	11954
908.488	11901
908.604	11843
908.72	11733
908.836	11866
908.952	11741
909.068	11821
909.184	11923
909.3	11794
909.415	11805
909.531	11878
909.647	11558
909.762	11535
909.878	11554
909.993	11543
910.108	11573
910.224	11608
910.339	11543
910.454	11455
910.57	11368
910.685	11429
910.8	11581
910.915	11581
911.03	11440
911.145	11254
911.259	11174
911.374	11239
911.489	11155
911.604	11155
911.718	11006
911.833	11025
911.947	10980
912.062	10816
912.176	11064
912.291	11090
912.405	11041
912.519	11201
912.633	11284
912.748	11136
912.862	11041
912.976	10930
913.09	10767
913.204	10850
913.318	10896
913.431	10961
913.545	11037
913.659	10965
913.772	10889
913.886	10767
914	10736
914.113	10987
914.226	10839
914.34	10896
914.453	10759
914.566	10854
914.68	10748
914.793	10694
914.906	10542
915.019	10519
915.132	10440
915.245	10527
915.358	10538
915.47	10615
915.583	10599
915.696	10622
915.809	10694
915.921	10755
916.034	10504
916.146	10459
916.259	10561
916.371	10565
916.483	10519
916.595	10531
916.708	10497
916.82	10474
916.932	10386
917.044	10462
917.156	10455
917.268	10390
917.38	10356
917.491	10386
917.603	10386
917.715	10535
917.826	10443
917.938	10291
918.049	10257
918.161	10352
918.272	10500
918.384	10474
918.495	10382
918.606	10230
918.717	10219
918.828	10249
918.939	10276
919.05	10173
919.161	10299
919.272	10063
919.383	10116
919.494	10318
919.604	10390
919.715	10200
919.826	10173
919.936	10276
920.047	10348
920.157	10322
920.267	10447
920.378	10329
920.488	10253
920.598	10497
920.708	10637
920.818	10459
920.928	10432
921.038	10634
921.148	10523
921.258	10246
921.368	10223
921.477	10101
921.587	10086
921.697	9975
921.806	10215
921.916	10025
922.025	9907
922.134	9865
922.244	9804
922.353	9835
922.462	9701
922.571	9660
922.68	9458
922.789	9462
922.898	9507
923.007	9477
923.116	9553
923.224	9542
923.333	9454
923.442	9332
923.55	9355
923.659	9485
923.767	9416
923.876	9397
923.984	9393
924.092	9321
924.201	9363
924.309	9351
924.417	9321
924.525	9302
924.633	9340
924.741	10230
924.849	9180
924.956	9359
925.064	9112
925.172	9070
925.279	9062
925.387	9154
925.494	9123
925.602	9260
925.709	9253
925.816	9150
925.924	9150
926.031	9268
926.138	9150
926.245	9199
926.352	9066
926.459	9230
926.566	9233
926.673	9116
926.779	8967
926.886	8902
926.993	8944
927.099	8883
927.206	8845
927.312	8830
927.419	8849
927.525	8918
927.631	8906
927.737	8754
927.843	8766
927.95	8617
928.056	8735
928.162	8788
928.267	8838
928.373	9298
928.479	8853
928.585	8655
928.69	8743
928.796	8819
928.901	8693
929.007	8590
929.112	8667
929.218	8602
929.323	8606
929.428	8568
929.533	8735
929.638	8526
929.743	8579
929.848	8575
929.953	8549
930.058	8499
930.163	8347
930.267	8427
930.372	8537
930.477	8370
930.581	8575
930.685	8457
930.79	8229
930.894	8370
930.998	8294
931.103	8438
931.207	8107
931.311	8069
931.415	7974
931.519	7788
931.623	7769
