Data from test_V78500241_1975.txt Node
Date: Fri Mar 25 14:47:27 CST 2022
User: usil
Spectrometer: V785-0024
Trigger mode: 0
Integration Time (sec): 4.000000E-1
Scans to average: 1
Nonlinearity correction enabled: false
Boxcar width: 0
Storing dark spectrum: false
XAxis mode: Wavelengths
Number of Pixels in Spectrum: 1024
>>>>>Begin Spectral Data<<<<<
801.071	22055
801.214	21949
801.356	21766
801.499	21587
801.641	21580
801.783	21439
801.926	21492
802.068	21397
802.211	21310
802.353	21310
802.496	21081
802.638	20979
802.78	20864
802.923	20963
803.065	20750
803.208	20864
803.35	20735
803.492	20895
803.635	20891
803.777	20769
803.919	20864
804.061	21112
804.204	20864
804.346	20686
804.488	20678
804.63	20731
804.773	20644
804.915	20697
805.057	20678
805.199	20830
805.341	20663
805.483	20872
805.626	20811
805.768	20568
805.91	20773
806.052	20731
806.194	20697
806.336	20804
806.478	20587
806.62	20659
806.762	20689
806.904	20838
807.046	21074
807.188	21096
807.33	21058
807.472	21089
807.614	20925
807.756	20838
807.898	20804
808.04	20842
808.182	20724
808.324	20716
808.465	20880
808.607	20948
808.749	21123
808.891	20998
809.033	21275
809.174	21119
809.316	21058
809.458	21116
809.6	21127
809.741	21100
809.883	21066
810.025	21275
810.166	21249
810.308	21272
810.45	21173
810.591	21127
810.733	20941
810.875	20743
811.016	20895
811.158	20682
811.299	20906
811.441	21043
811.582	20952
811.724	20899
811.865	20838
812.007	20777
812.148	20800
812.29	20914
812.431	21081
812.573	21142
812.714	21165
812.855	21340
812.997	21416
813.138	21469
813.279	21431
813.421	21275
813.562	21226
813.703	21176
813.845	21081
813.986	20807
814.127	20556
814.268	20393
814.41	20400
814.551	20389
814.692	20393
814.833	20328
814.974	20290
815.115	20358
815.256	20256
815.397	20252
815.539	20237
815.68	20096
815.821	20210
815.962	20142
816.103	20145
816.244	19898
816.385	20054
816.526	19765
816.666	19700
816.807	19613
816.948	19609
817.089	19597
817.23	19613
817.371	19502
817.512	19666
817.653	19571
817.793	19514
817.934	19518
818.075	19510
818.216	19559
818.356	19472
818.497	19297
818.638	19152
818.778	19217
818.919	19202
819.06	19293
819.2	19373
819.341	19358
819.481	19464
819.622	19624
819.762	19837
819.903	19708
820.043	19670
820.184	19594
820.324	19559
820.465	19601
820.605	19533
820.746	19510
820.886	19381
821.026	19438
821.167	19449
821.307	19712
821.447	19449
821.588	19331
821.728	19255
821.868	19145
822.008	18958
822.149	18954
822.289	18981
822.429	18722
822.569	18738
822.709	18711
822.849	18506
822.99	18601
823.13	18471
823.27	18388
823.41	18292
823.55	18232
823.69	18327
823.83	18224
823.97	18197
824.11	18057
824.25	18049
824.389	18041
824.529	18114
824.669	18076
824.809	18129
824.949	18064
825.089	18144
825.228	17999
825.368	17889
825.508	17885
825.648	17901
825.787	17908
825.927	17878
826.067	17733
826.206	17813
826.346	17863
826.485	17965
826.625	17707
826.765	17927
826.904	17794
827.044	17566
827.183	17589
827.323	17402
827.462	17600
827.601	17558
827.741	17524
827.88	17554
828.02	17334
828.159	17440
828.298	17604
828.437	17668
828.577	17585
828.716	17600
828.855	17433
828.994	17402
829.134	17284
829.273	17299
829.412	17208
829.551	17265
829.69	17265
829.829	17143
829.968	17345
830.107	17341
830.246	17288
830.385	17166
830.524	17181
830.663	17136
830.802	17006
830.941	16869
831.08	16889
831.219	17037
831.357	16957
831.496	17197
831.635	16873
831.774	16790
831.913	16839
832.051	16767
832.19	16664
832.329	16584
832.467	16702
832.606	16584
832.744	16523
832.883	16683
833.022	16683
833.16	16615
833.299	16767
833.437	16656
833.576	16588
833.714	16706
833.852	16626
833.991	16740
834.129	16713
834.267	16592
834.406	16622
834.544	16702
834.682	16569
834.821	16660
834.959	16885
835.097	16611
835.235	16691
835.373	16675
835.511	16740
835.65	16538
835.788	16516
835.926	16390
836.064	16287
836.202	16462
836.34	16462
836.478	16592
836.615	16558
836.753	16546
836.891	16691
837.029	16599
837.167	16531
837.305	16519
837.443	16637
837.58	16367
837.718	16474
837.856	16379
837.993	16303
838.131	16508
838.269	16352
838.406	16360
838.544	16348
838.681	16158
838.819	16139
838.956	15998
839.094	16002
839.231	15975
839.369	16078
839.506	16386
839.643	16185
839.781	16002
839.918	16029
840.055	15975
840.193	15903
840.33	15930
840.467	15953
840.604	15956
840.742	16291
840.879	15827
841.016	15899
841.153	15755
841.29	16105
841.427	15960
841.564	16029
841.701	16154
841.838	15975
841.975	15861
842.112	15888
842.249	15789
842.385	15698
842.522	15884
842.659	15804
842.796	15736
842.933	15694
843.069	15724
843.206	15690
843.343	15793
843.479	15709
843.616	15827
843.752	15469
843.889	15584
844.025	15732
844.162	15549
844.298	15591
844.435	15511
844.571	15420
844.708	15755
844.844	15682
844.98	15675
845.117	15728
845.253	15401
845.389	15538
845.525	15393
845.661	15504
845.798	15317
845.934	15416
846.07	15310
846.206	15378
846.342	15405
846.478	15412
846.614	15150
846.75	15169
846.886	15127
847.022	15154
847.158	15108
847.294	15074
847.429	15097
847.565	15176
847.701	15298
847.837	14925
847.972	14842
848.108	14914
848.244	14853
848.379	14644
848.515	14716
848.65	14705
848.786	14800
848.921	14651
849.057	14864
849.192	14743
849.328	14739
849.463	14689
849.598	14670
849.734	14663
849.869	14579
850.004	14492
850.14	14503
850.275	14511
850.41	14438
850.545	14434
850.68	14457
850.815	14465
850.95	14511
851.085	14712
851.22	14598
851.355	14442
851.49	14503
851.625	14457
851.76	14415
851.895	14408
852.03	14309
852.165	14518
852.299	14613
852.434	14594
852.569	14552
852.703	14499
852.838	14610
852.973	14499
853.107	14640
853.242	14465
853.376	14374
853.511	14229
853.645	14358
853.78	14503
853.914	14301
854.048	14374
854.183	14332
854.317	14431
854.451	14488
854.585	14351
854.72	14320
854.854	14476
854.988	14271
855.122	14358
855.256	14142
855.39	14328
855.524	14332
855.658	14419
855.792	14355
855.926	14305
856.06	14362
856.194	14396
856.327	14282
856.461	14176
856.595	14324
856.729	14244
856.862	14393
856.996	14408
857.13	14393
857.263	14499
857.397	14457
857.53	14339
857.664	14427
857.797	14442
857.931	14412
858.064	14396
858.197	14476
858.331	14343
858.464	14290
858.597	14263
858.731	14351
858.864	14358
858.997	14259
859.13	14332
859.263	14278
859.396	14423
859.529	14339
859.662	14275
859.795	14286
859.928	14457
860.061	14442
860.194	14465
860.327	14400
860.46	14385
860.592	14533
860.725	14480
860.858	14469
860.99	14454
861.123	14233
861.256	14282
861.388	14313
861.521	14952
861.653	14157
861.786	14138
861.918	14259
862.05	14221
862.183	14259
862.315	14301
862.447	14332
862.58	14389
862.712	14111
862.844	14069
862.976	14180
863.108	14088
863.24	14476
863.372	14119
863.504	14126
863.636	14069
863.768	14172
863.9	14107
864.032	14096
864.164	14088
864.296	14130
864.428	14199
864.559	14199
864.691	14263
864.823	14164
864.954	14199
865.086	14210
865.217	14199
865.349	14084
865.48	14183
865.612	14073
865.743	14259
865.875	14096
866.006	14130
866.137	14183
866.269	14103
866.4	14081
866.531	14077
866.662	14092
866.793	14062
866.924	14012
867.055	14088
867.186	14058
867.317	14005
867.448	13955
867.579	14065
867.71	14039
867.841	13970
867.972	14069
868.103	14107
868.233	14172
868.364	14111
868.495	14202
868.625	14385
868.756	14461
868.886	14252
869.017	14320
869.147	14526
869.278	14537
869.408	14343
869.539	14358
869.669	14473
869.799	14461
869.929	14488
870.06	14514
870.19	14686
870.32	14617
870.45	14800
870.58	14834
870.71	14807
870.84	14834
870.97	14762
871.1	14693
871.23	15051
871.36	14990
871.489	14823
871.619	14986
871.749	14998
871.879	15017
872.008	15017
872.138	14982
872.267	15051
872.397	14758
872.526	14792
872.656	14727
872.785	14743
872.915	14902
873.044	15009
873.173	15119
873.303	15047
873.432	15058
873.561	15093
873.69	15131
873.819	14971
873.948	15077
874.077	15112
874.206	15036
874.335	14998
874.464	15169
874.593	15313
874.722	15195
874.851	15408
874.979	15405
875.108	15359
875.237	15279
875.365	15192
875.494	15374
875.623	15405
875.751	15317
875.88	15378
876.008	15378
876.136	15515
876.265	15663
876.393	15861
876.521	15884
876.65	15762
876.778	15690
876.906	15618
877.034	15713
877.162	15644
877.29	15686
877.418	15724
877.546	15732
877.674	15781
877.802	15717
877.93	15743
878.058	15698
878.185	15671
878.313	15739
878.441	15705
878.568	15637
878.696	15671
878.824	15797
878.951	15774
879.079	15861
879.206	15964
879.333	15884
879.461	15781
879.588	15720
879.715	15915
879.842	16059
879.97	15850
880.097	15618
880.224	15576
880.351	15553
880.478	15599
880.605	15622
880.732	15614
880.859	15869
880.986	15641
881.112	15557
881.239	15401
881.366	15325
881.493	15252
881.619	15176
881.746	15146
881.872	15188
881.999	15264
882.125	15260
882.252	15336
882.378	15264
882.505	15431
882.631	15173
882.757	15081
882.883	15127
883.01	15089
883.136	14952
883.262	14910
883.388	14979
883.514	15146
883.64	15032
883.766	14925
883.892	14895
884.018	14891
884.143	14994
884.269	15081
884.395	14830
884.52	14750
884.646	14800
884.772	14705
884.897	14598
885.023	14834
885.148	14960
885.274	14929
885.399	14883
885.524	14724
885.65	14724
885.775	14777
885.9	14804
886.025	14796
886.15	14773
886.275	14632
886.4	14598
886.525	14697
886.65	14689
886.775	14617
886.9	14872
887.025	15055
887.149	14807
887.274	14625
887.399	14587
887.523	14724
887.648	14492
887.773	14511
887.897	14590
888.021	14644
888.146	14598
888.27	14667
888.395	14838
888.519	14617
888.643	14640
888.767	14644
888.891	14499
889.015	14476
889.139	14469
889.263	14465
889.387	14556
889.511	14731
889.635	14549
889.759	14366
889.883	14454
890.006	14446
890.13	14526
890.254	14454
890.377	14374
890.501	14393
890.624	14180
890.748	14305
890.871	14233
890.995	14157
891.118	14092
891.241	14077
891.364	14123
891.488	14317
891.611	14103
891.734	14225
891.857	14221
891.98	14145
892.103	14172
892.226	14191
892.349	14107
892.471	13989
892.594	14081
892.717	14187
892.839	14210
892.962	14043
893.085	14240
893.207	14096
893.33	13989
893.452	14050
893.575	14180
893.697	14084
893.819	14324
893.941	14347
894.064	14199
894.186	14221
894.308	14176
894.43	14244
894.552	14317
894.674	14183
894.796	14088
894.918	14237
895.04	14210
895.161	14225
895.283	14294
895.405	14210
895.526	14233
895.648	14233
895.769	14240
895.891	14320
896.012	14320
896.134	14412
896.255	14263
896.376	14313
896.498	14267
896.619	14358
896.74	14259
896.861	14400
896.982	14617
897.103	14845
897.224	14488
897.345	14556
897.466	14484
897.587	14629
897.708	14769
897.828	14632
897.949	14507
898.07	14412
898.19	14511
898.311	14716
898.431	14598
898.552	14765
898.672	14800
898.792	14739
898.913	14606
899.033	14594
899.153	14507
899.273	14427
899.393	14495
899.513	14579
899.633	14480
899.753	14522
899.873	14450
899.993	14438
900.113	14381
900.232	14610
900.352	14324
900.472	14514
900.591	14400
900.711	14366
900.83	14275
900.95	14488
901.069	14488
901.189	14355
901.308	14142
901.427	14050
901.546	13951
901.665	14081
901.784	14115
901.904	13921
902.023	13776
902.141	13632
902.26	13563
902.379	13647
902.498	13624
902.617	13559
902.735	13655
902.854	13647
902.973	13597
903.091	13331
903.21	13331
903.328	13381
903.446	13190
903.565	13247
903.683	13175
903.801	13057
903.919	13156
904.038	13152
904.156	13034
904.274	13088
904.392	12951
904.51	13084
904.627	12939
904.745	12970
904.863	13000
904.981	12783
905.098	12707
905.216	12722
905.334	12745
905.451	12673
905.569	12760
905.686	12734
905.803	12642
905.921	12559
906.038	12506
906.155	12509
906.272	12384
906.389	12422
906.506	12258
906.623	12289
906.74	12266
906.857	12133
906.974	12182
907.091	12403
907.208	12498
907.324	12292
907.441	12216
907.557	11992
907.674	12049
907.79	11927
907.907	12079
908.023	12026
908.139	12019
908.256	12030
908.372	11977
908.488	11958
908.604	11851
908.72	11764
908.836	11764
908.952	11752
909.068	11809
909.184	11942
909.3	11817
909.415	11840
909.531	11836
909.647	11634
909.762	11589
909.878	11554
909.993	11543
910.108	11558
910.224	11585
910.339	11558
910.454	11444
910.57	11459
910.685	11277
910.8	11657
910.915	11512
911.03	11490
911.145	11288
911.259	11246
911.374	11258
911.489	11201
911.604	11201
911.718	11003
911.833	11041
911.947	10896
912.062	10892
912.176	10961
912.291	11037
912.405	10972
912.519	11235
912.633	11212
912.748	11075
912.862	11045
912.976	10869
913.09	10763
913.204	10835
913.318	10957
913.431	10961
913.545	10904
913.659	10961
913.772	10889
913.886	10801
914	10778
914.113	10869
914.226	10892
914.34	10801
914.453	10721
914.566	10809
914.68	10714
914.793	10698
914.906	10504
915.019	10527
915.132	10451
915.245	10516
915.358	10535
915.47	10550
915.583	10516
915.696	10615
915.809	10687
915.921	10603
916.034	10504
916.146	10451
916.259	10455
916.371	10611
916.483	10493
916.595	10394
916.708	10455
916.82	10516
916.932	10417
917.044	10478
917.156	10489
917.268	10257
917.38	10325
917.491	10265
917.603	10394
917.715	10470
917.826	10424
917.938	10318
918.049	10223
918.161	10382
918.272	10447
918.384	10451
918.495	10337
918.606	10188
918.717	10162
918.828	10253
918.939	10268
919.05	10166
919.161	10234
919.272	10013
919.383	10105
919.494	10287
919.604	10428
919.715	10230
919.826	10185
919.936	10227
920.047	10333
920.157	10306
920.267	10459
920.378	10291
920.488	10158
920.598	10424
920.708	10596
920.818	10466
920.928	10478
921.038	10615
921.148	10554
921.258	10253
921.368	10207
921.477	10090
921.587	10143
921.697	10006
921.806	10120
921.916	9968
922.025	9846
922.134	9808
922.244	9785
922.353	9850
922.462	9705
922.571	9679
922.68	9534
922.789	9519
922.898	9485
923.007	9469
923.116	9580
923.224	9393
923.333	9469
923.442	9378
923.55	9298
923.659	9473
923.767	9420
923.876	9283
923.984	9386
924.092	9256
924.201	9348
924.309	9332
924.417	9370
924.525	9351
924.633	9374
924.741	10249
924.849	9161
924.956	9249
925.064	9112
925.172	9062
925.279	9116
925.387	9150
925.494	9138
925.602	9344
925.709	9272
925.816	9089
925.924	9085
926.031	9260
926.138	9184
926.245	9192
926.352	9100
926.459	9283
926.566	9218
926.673	9119
926.779	9032
926.886	9081
926.993	8891
927.099	8902
927.206	8838
927.312	8792
927.419	8941
927.525	8910
927.631	8899
927.737	8766
927.843	8838
927.95	8655
928.056	8720
928.162	8845
928.267	8823
928.373	9431
928.479	8891
928.585	8629
928.69	8712
928.796	8769
928.901	8705
929.007	8568
929.112	8621
929.218	8663
929.323	8602
929.428	8640
929.533	8655
929.638	8476
929.743	8549
929.848	8571
929.953	8541
930.058	8480
930.163	8305
930.267	8438
930.372	8514
930.477	8343
930.581	8518
930.685	8427
930.79	8248
930.894	8275
930.998	8279
931.103	8370
931.207	8062
931.311	7963
931.415	7982
931.519	7830
931.623	7761
