Data from test_V78500241_3381.txt Node
Date: Fri Mar 25 14:57:15 CST 2022
User: usil
Spectrometer: V785-0024
Trigger mode: 0
Integration Time (sec): 4.000000E-1
Scans to average: 1
Nonlinearity correction enabled: false
Boxcar width: 0
Storing dark spectrum: false
XAxis mode: Wavelengths
Number of Pixels in Spectrum: 1024
>>>>>Begin Spectral Data<<<<<
801.071	21907
801.214	21865
801.356	21576
801.499	21344
801.641	21325
801.783	21184
801.926	21428
802.068	21279
802.211	21237
802.353	21093
802.496	20804
802.638	20800
802.78	20864
802.923	20617
803.065	20590
803.208	20594
803.35	20594
803.492	20682
803.635	20640
803.777	20606
803.919	20720
804.061	21089
804.204	20693
804.346	20511
804.488	20465
804.63	20632
804.773	20507
804.915	20442
805.057	20636
805.199	20454
805.341	20522
805.483	20568
805.626	20541
805.768	20438
805.91	20427
806.052	20617
806.194	20442
806.336	20705
806.478	20590
806.62	20484
806.762	20594
806.904	20670
807.046	20960
807.188	20891
807.33	20773
807.472	20998
807.614	20785
807.756	20731
807.898	20609
808.04	20533
808.182	20590
808.324	20564
808.465	20609
808.607	20754
808.749	20906
808.891	20887
809.033	21032
809.174	20967
809.316	20823
809.458	20842
809.6	20887
809.741	20944
809.883	20986
810.025	21081
810.166	21032
810.308	20910
810.45	21070
810.591	20880
810.733	20701
810.875	20731
811.016	20526
811.158	20587
811.299	20651
811.441	20727
811.582	20777
811.724	20579
811.865	20731
812.007	20640
812.148	20682
812.29	20693
812.431	20720
812.573	20918
812.714	20971
812.855	21173
812.997	21275
813.138	21370
813.279	21336
813.421	21085
813.562	21043
813.703	20941
813.845	20651
813.986	20522
814.127	20355
814.268	20138
814.41	20191
814.551	20187
814.692	20244
814.833	19986
814.974	20119
815.115	20168
815.256	20050
815.397	20126
815.539	20069
815.68	19860
815.821	19921
815.962	19978
816.103	19913
816.244	19753
816.385	19635
816.526	19685
816.666	19422
816.807	19377
816.948	19384
817.089	19460
817.23	19400
817.371	19160
817.512	19304
817.653	19202
817.793	19297
817.934	19362
818.075	19259
818.216	19400
818.356	19244
818.497	19114
818.638	18871
818.778	19034
818.919	18993
819.06	19046
819.2	19145
819.341	19156
819.481	19168
819.622	19312
819.762	19441
819.903	19422
820.043	19384
820.184	19255
820.324	19266
820.465	19388
820.605	19388
820.746	19221
820.886	19145
821.026	19259
821.167	19202
821.307	19343
821.447	19213
821.588	19061
821.728	18977
821.868	18791
822.008	18726
822.149	18719
822.289	18707
822.429	18490
822.569	18441
822.709	18384
822.849	18178
822.99	18262
823.13	18247
823.27	18243
823.41	17992
823.55	17908
823.69	18026
823.83	18045
823.97	18034
824.11	17851
824.25	17798
824.389	17779
824.529	17794
824.669	17783
824.809	17855
824.949	17901
825.089	17824
825.228	17863
825.368	17551
825.508	17486
825.648	17543
825.787	17657
825.927	17615
826.067	17528
826.206	17535
826.346	17577
826.485	17524
826.625	17566
826.765	17661
826.904	17691
827.044	17284
827.183	17341
827.323	17178
827.462	17296
827.601	17292
827.741	17220
827.88	17178
828.02	17227
828.159	17280
828.298	17280
828.437	17326
828.577	17296
828.716	17299
828.855	17178
828.994	16987
829.134	17056
829.273	17117
829.412	17018
829.551	16919
829.69	16968
829.829	17033
829.968	17132
830.107	17006
830.246	17121
830.385	16896
830.524	16980
830.663	16858
830.802	16805
830.941	16561
831.08	16660
831.219	16759
831.357	16782
831.496	16816
831.635	16626
831.774	16535
831.913	16607
832.051	16466
832.19	16451
832.329	16440
832.467	16363
832.606	16360
832.744	16310
832.883	16303
833.022	16356
833.16	16398
833.299	16424
833.437	16405
833.576	16432
833.714	16382
833.852	16474
833.991	16447
834.129	16352
834.267	16462
834.406	16265
834.544	16371
834.682	16432
834.821	16360
834.959	16500
835.097	16424
835.235	16459
835.373	16432
835.511	16424
835.65	16394
835.788	16310
835.926	16135
836.064	16154
836.202	16116
836.34	16329
836.478	16356
836.615	16333
836.753	16386
836.891	16390
837.029	16276
837.167	16325
837.305	16295
837.443	16196
837.58	16067
837.718	16204
837.856	16185
837.993	16162
838.131	16109
838.269	16158
838.406	16105
838.544	16051
838.681	15800
838.819	15873
838.956	15724
839.094	15724
839.231	15747
839.369	15865
839.506	16185
839.643	15975
839.781	15774
839.918	15679
840.055	15679
840.193	15766
840.33	15705
840.467	15701
840.604	15732
840.742	15953
840.879	15576
841.016	15622
841.153	15587
841.29	15899
841.427	15701
841.564	15800
841.701	15743
841.838	15739
841.975	15686
842.112	15622
842.249	15542
842.385	15488
842.522	15701
842.659	15576
842.796	15557
842.933	15492
843.069	15477
843.206	15481
843.343	15595
843.479	15576
843.616	15599
843.752	15249
843.889	15389
844.025	15443
844.162	15317
844.298	15386
844.435	15443
844.571	15203
844.708	15363
844.844	15439
844.98	15504
845.117	15416
845.253	15321
845.389	15230
845.525	15176
845.661	15245
845.798	15089
845.934	15142
846.07	15112
846.206	15214
846.342	15291
846.478	15051
846.614	14853
846.75	14887
846.886	14842
847.022	14921
847.158	14902
847.294	14941
847.429	14868
847.565	14804
847.701	15131
847.837	14594
847.972	14556
848.108	14708
848.244	14754
848.379	14598
848.515	14476
848.65	14473
848.786	14518
848.921	14579
849.057	14564
849.192	14469
849.328	14640
849.463	14492
849.598	14507
849.734	14415
849.869	14286
850.004	14282
850.14	14317
850.275	14351
850.41	14180
850.545	14180
850.68	14301
850.815	14271
850.95	14202
851.085	14465
851.22	14381
851.355	14256
851.49	14202
851.625	14233
851.76	14290
851.895	14176
852.03	14100
852.165	14153
852.299	14332
852.434	14324
852.569	14256
852.703	14263
852.838	14358
852.973	14423
853.107	14377
853.242	14202
853.376	14168
853.511	14050
853.645	14073
853.78	14244
853.914	14100
854.048	14149
854.183	14035
854.317	14180
854.451	14309
854.585	14096
854.72	14096
854.854	14199
854.988	14027
855.122	14107
855.256	13993
855.39	14084
855.524	14111
855.658	14081
855.792	14069
855.926	14180
856.06	14225
856.194	14244
856.327	14221
856.461	14130
856.595	13989
856.729	14020
856.862	14229
856.996	14111
857.13	14199
857.263	14221
857.397	14313
857.53	14058
857.664	14176
857.797	14218
857.931	14145
858.064	14294
858.197	14225
858.331	14134
858.464	14039
858.597	14046
858.731	14092
858.864	14126
858.997	14126
859.13	14126
859.263	14202
859.396	14278
859.529	14221
859.662	14031
859.795	14073
859.928	14149
860.061	14290
860.194	14237
860.327	14073
860.46	14286
860.592	14374
860.725	14301
860.858	14286
860.99	14202
861.123	14054
861.256	14092
861.388	14153
861.521	14960
861.653	14024
861.786	13898
861.918	14031
862.05	13993
862.183	14039
862.315	14199
862.447	14115
862.58	14039
862.712	13913
862.844	13822
862.976	14043
863.108	13936
863.24	14362
863.372	13871
863.504	13871
863.636	13883
863.768	13887
863.9	13906
864.032	13864
864.164	14043
864.296	14016
864.428	14035
864.559	14005
864.691	13963
864.823	13982
864.954	13921
865.086	13928
865.217	13826
865.349	13875
865.48	13875
865.612	13936
865.743	14008
865.875	13967
866.006	13944
866.137	13932
866.269	13909
866.4	13928
866.531	13879
866.662	13814
866.793	13776
866.924	13818
867.055	13947
867.186	13833
867.317	13906
867.448	13696
867.579	13883
867.71	13883
867.841	13849
867.972	13917
868.103	13875
868.233	13944
868.364	13986
868.495	13887
868.625	14119
868.756	14221
868.886	14024
869.017	14176
869.147	14263
869.278	14355
869.408	14103
869.539	14183
869.669	14252
869.799	14218
869.929	14267
870.06	14313
870.19	14503
870.32	14362
870.45	14457
870.58	14488
870.71	14617
870.84	14644
870.97	14461
871.1	14522
871.23	14720
871.36	14610
871.489	14697
871.619	14644
871.749	14686
871.879	14716
872.008	14823
872.138	14739
872.267	14701
872.397	14610
872.526	14602
872.656	14514
872.785	14617
872.915	14823
873.044	14845
873.173	14800
873.303	14788
873.432	14925
873.561	14895
873.69	14781
873.819	14876
873.948	14902
874.077	14777
874.206	14754
874.335	14864
874.464	14952
874.593	15192
874.722	15047
874.851	15226
874.979	15154
875.108	15154
875.237	15070
875.365	15047
875.494	15043
875.623	15199
875.751	15077
875.88	15097
876.008	15226
876.136	15454
876.265	15633
876.393	15667
876.521	15663
876.65	15656
876.778	15629
876.906	15515
877.034	15443
877.162	15542
877.29	15431
877.418	15580
877.546	15568
877.674	15549
877.802	15443
877.93	15492
878.058	15428
878.185	15462
878.313	15530
878.441	15534
878.568	15408
878.696	15485
878.824	15625
878.951	15542
879.079	15724
879.206	15842
879.333	15637
879.461	15564
879.588	15705
879.715	15713
879.842	15880
879.97	15633
880.097	15481
880.224	15367
880.351	15397
880.478	15405
880.605	15393
880.732	15462
880.859	15686
880.986	15466
881.112	15351
881.239	15249
881.366	15131
881.493	15161
881.619	15074
881.746	15020
881.872	15116
881.999	15024
882.125	15001
882.252	15203
882.378	15051
882.505	15302
882.631	14899
882.757	14811
882.883	14853
883.01	14910
883.136	14819
883.262	14788
883.388	14731
883.514	14811
883.64	14880
883.766	14727
883.892	14659
884.018	14708
884.143	14804
884.269	14982
884.395	14655
884.52	14579
884.646	14587
884.772	14549
884.897	14476
885.023	14575
885.148	14705
885.274	14689
885.399	14587
885.524	14629
885.65	14587
885.775	14564
885.9	14655
886.025	14735
886.15	14644
886.275	14533
886.4	14454
886.525	14533
886.65	14488
886.775	14503
886.9	14724
887.025	14735
887.149	14583
887.274	14419
887.399	14423
887.523	14427
887.648	14389
887.773	14343
887.897	14415
888.021	14537
888.146	14469
888.27	14476
888.395	14545
888.519	14480
888.643	14541
888.767	14476
888.891	14419
889.015	14267
889.139	14248
889.263	14176
889.387	14419
889.511	14522
889.635	14488
889.759	14221
889.883	14172
890.006	14347
890.13	14476
890.254	14149
890.377	14332
890.501	14084
890.624	14065
890.748	14123
890.871	14031
890.995	13917
891.118	13906
891.241	13947
891.364	13955
891.488	14046
891.611	14005
891.734	14043
891.857	14054
891.98	14050
892.103	14020
892.226	14096
892.349	13906
892.471	13856
892.594	13906
892.717	14024
892.839	13963
892.962	14005
893.085	14084
893.207	14062
893.33	13887
893.452	13982
893.575	14069
893.697	13974
893.819	14176
893.941	14130
894.064	14012
894.186	13951
894.308	13928
894.43	14096
894.552	14229
894.674	14103
894.796	13928
894.918	14008
895.04	14096
895.161	14153
895.283	14024
895.405	14031
895.526	14119
895.648	14092
895.769	14073
895.891	14161
896.012	14187
896.134	14176
896.255	14221
896.376	14130
896.498	14153
896.619	14157
896.74	14138
896.861	14199
896.982	14488
897.103	14682
897.224	14461
897.345	14473
897.466	14324
897.587	14419
897.708	14560
897.828	14488
897.949	14404
898.07	14214
898.19	14507
898.311	14533
898.431	14419
898.552	14473
898.672	14636
898.792	14610
898.913	14545
899.033	14495
899.153	14366
899.273	14267
899.393	14343
899.513	14366
899.633	14343
899.753	14290
899.873	14237
899.993	14396
900.113	14389
900.232	14389
900.352	14252
900.472	14225
900.591	14229
900.711	14221
900.83	14126
900.95	14286
901.069	14355
901.189	14161
901.308	13902
901.427	13868
901.546	13982
901.665	13784
901.784	14035
901.904	13757
902.023	13841
902.141	13582
902.26	13441
902.379	13578
902.498	13430
902.617	13460
902.735	13559
902.854	13468
902.973	13400
903.091	13183
903.21	13129
903.328	13194
903.446	13065
903.565	13072
903.683	13023
903.801	13031
903.919	12993
904.038	13031
904.156	12837
904.274	12947
904.392	12924
904.51	12768
904.627	12817
904.745	12928
904.863	12916
904.981	12623
905.098	12604
905.216	12502
905.334	12555
905.451	12528
905.569	12551
905.686	12642
905.803	12467
905.921	12300
906.038	12475
906.155	12391
906.272	12262
906.389	12285
906.506	12155
906.623	12114
906.74	12201
906.857	12022
906.974	12049
907.091	12216
907.208	12270
907.324	12133
907.441	12049
907.557	11878
907.674	11859
907.79	11874
907.907	11893
908.023	11893
908.139	11912
908.256	11901
908.372	11764
908.488	11836
908.604	11680
908.72	11558
908.836	11600
908.952	11695
909.068	11684
909.184	11779
909.3	11714
909.415	11638
909.531	11638
909.647	11474
909.762	11474
909.878	11455
909.993	11554
910.108	11471
910.224	11315
910.339	11440
910.454	11277
910.57	11364
910.685	11185
910.8	11486
910.915	11482
911.03	11334
911.145	11201
911.259	11083
911.374	11140
911.489	11064
911.604	11090
911.718	10919
911.833	10919
911.947	10805
912.062	10759
912.176	10835
912.291	10877
912.405	10919
912.519	11048
912.633	11079
912.748	11018
912.862	10896
912.976	10744
913.09	10653
913.204	10763
913.318	10733
913.431	10889
913.545	10805
913.659	10911
913.772	10752
913.886	10603
914	10653
914.113	10771
914.226	10767
914.34	10752
914.453	10508
914.566	10763
914.68	10645
914.793	10596
914.906	10474
915.019	10386
915.132	10337
915.245	10333
915.358	10436
915.47	10497
915.583	10436
915.696	10462
915.809	10478
915.921	10542
916.034	10382
916.146	10367
916.259	10333
916.371	10451
916.483	10459
916.595	10272
916.708	10379
916.82	10356
916.932	10310
917.044	10299
917.156	10325
917.268	10200
917.38	10242
917.491	10223
917.603	10272
917.715	10249
917.826	10398
917.938	10166
918.049	10120
918.161	10230
918.272	10276
918.384	10284
918.495	10303
918.606	10147
918.717	10090
918.828	10173
918.939	10154
919.05	10059
919.161	10166
919.272	9949
919.383	9964
919.494	10185
919.604	10310
919.715	10196
919.826	10063
919.936	10139
920.047	10204
920.157	10204
920.267	10363
920.378	10188
920.488	10219
920.598	10295
920.708	10462
920.818	10333
920.928	10329
921.038	10516
921.148	10367
921.258	10120
921.368	10086
921.477	9979
921.587	9991
921.697	9964
921.806	10044
921.916	9930
922.025	9762
922.134	9743
922.244	9614
922.353	9717
922.462	9603
922.571	9572
922.68	9439
922.789	9382
922.898	9348
923.007	9367
923.116	9386
923.224	9443
923.333	9351
923.442	9287
923.55	9199
923.659	9310
923.767	9313
923.876	9218
923.984	9268
924.092	9154
924.201	9249
924.309	9218
924.417	9245
924.525	9230
924.633	9283
924.741	10067
924.849	9032
924.956	9207
925.064	9039
925.172	8956
925.279	9001
925.387	9036
925.494	9028
925.602	9154
925.709	9127
925.816	8963
925.924	9047
926.031	9146
926.138	9093
926.245	9093
926.352	8998
926.459	9127
926.566	9108
926.673	8998
926.779	8906
926.886	8918
926.993	8868
927.099	8796
927.206	8785
927.312	8750
927.419	8735
927.525	8788
927.631	8762
927.737	8762
927.843	8720
927.95	8537
928.056	8678
928.162	8674
928.267	8735
928.373	9344
928.479	8754
928.585	8575
928.69	8655
928.796	8712
928.901	8526
929.007	8488
929.112	8579
929.218	8556
929.323	8530
929.428	8461
929.533	8667
929.638	8450
929.743	8450
929.848	8488
929.953	8461
930.058	8374
930.163	8259
930.267	8248
930.372	8377
930.477	8267
930.581	8514
930.685	8286
930.79	8237
930.894	8259
930.998	8138
931.103	8309
931.207	8012
931.311	7879
931.415	7868
931.519	7784
931.623	7666
