Data from test_V78500241_2130.txt Node
Date: Fri Mar 25 14:48:32 CST 2022
User: usil
Spectrometer: V785-0024
Trigger mode: 0
Integration Time (sec): 4.000000E-1
Scans to average: 1
Nonlinearity correction enabled: false
Boxcar width: 0
Storing dark spectrum: false
XAxis mode: Wavelengths
Number of Pixels in Spectrum: 1024
>>>>>Begin Spectral Data<<<<<
801.071	22257
801.214	22112
801.356	21907
801.499	21629
801.641	21561
801.783	21576
801.926	21591
802.068	21405
802.211	21386
802.353	21329
802.496	21100
802.638	21055
802.78	21062
802.923	20906
803.065	20777
803.208	20880
803.35	20895
803.492	21013
803.635	20986
803.777	20830
803.919	20979
804.061	21298
804.204	20956
804.346	20727
804.488	20727
804.63	20785
804.773	20758
804.915	20743
805.057	20868
805.199	20792
805.341	20899
805.483	20868
805.626	20914
805.768	20750
805.91	20743
806.052	20921
806.194	20785
806.336	20975
806.478	20693
806.62	20701
806.762	20777
806.904	20956
807.046	21074
807.188	21100
807.33	21096
807.472	21218
807.614	21047
807.756	20971
807.898	20956
808.04	20830
808.182	20823
808.324	20853
808.465	20876
808.607	21051
808.749	21203
808.891	21279
809.033	21325
809.174	21241
809.316	21001
809.458	21287
809.6	20952
809.741	21302
809.883	21195
810.025	21291
810.166	21325
810.308	21306
810.45	21329
810.591	21188
810.733	21043
810.875	20952
811.016	20804
811.158	20777
811.299	21009
811.441	21135
811.582	21032
811.724	21036
811.865	20826
812.007	20982
812.148	20914
812.29	20952
812.431	21173
812.573	21245
812.714	21443
812.855	21344
812.997	21568
813.138	21637
813.279	21439
813.421	21431
813.562	21344
813.703	21279
813.845	20998
813.986	20819
814.127	20549
814.268	20522
814.41	20533
814.551	20461
814.692	20609
814.833	20374
814.974	20549
815.115	20374
815.256	20309
815.397	20298
815.539	20240
815.68	20267
815.821	20187
815.962	20202
816.103	20187
816.244	20062
816.385	19921
816.526	19928
816.666	19814
816.807	19674
816.948	19708
817.089	19799
817.23	19616
817.371	19704
817.512	19693
817.653	19597
817.793	19487
817.934	19609
818.075	19685
818.216	19639
818.356	19483
818.497	19464
818.638	19270
818.778	19228
818.919	19259
819.06	19316
819.2	19365
819.341	19373
819.481	19502
819.622	19643
819.762	19849
819.903	19719
820.043	19666
820.184	19632
820.324	19597
820.465	19635
820.605	19601
820.746	19502
820.886	19537
821.026	19518
821.167	19529
821.307	19529
821.447	19407
821.588	19411
821.728	19213
821.868	19240
822.008	19015
822.149	18989
822.289	19015
822.429	18631
822.569	18665
822.709	18741
822.849	18479
822.99	18502
823.13	18540
823.27	18471
823.41	18426
823.55	18254
823.69	18232
823.83	18330
823.97	18117
824.11	17939
824.25	18045
824.389	18186
824.529	18110
824.669	18091
824.809	18258
824.949	18174
825.089	18159
825.228	18087
825.368	17950
825.508	17836
825.648	17874
825.787	17745
825.927	17847
826.067	17855
826.206	17794
826.346	17836
826.485	17939
826.625	17840
826.765	17813
826.904	17847
827.044	17653
827.183	17687
827.323	17452
827.462	17604
827.601	17516
827.741	17505
827.88	17585
828.02	17334
828.159	17421
828.298	17455
828.437	17577
828.577	17524
828.716	17703
828.855	17452
828.994	17360
829.134	17322
829.273	17159
829.412	17128
829.551	17159
829.69	17235
829.829	17242
829.968	17269
830.107	17448
830.246	17178
830.385	17193
830.524	17147
830.663	17098
830.802	16965
830.941	16885
831.08	16892
831.219	16919
831.357	16946
831.496	17178
831.635	16881
831.774	16736
831.913	16877
832.051	16637
832.19	16736
832.329	16713
832.467	16531
832.606	16592
832.744	16519
832.883	16668
833.022	16599
833.16	16531
833.299	16618
833.437	16618
833.576	16641
833.714	16637
833.852	16645
833.991	16668
834.129	16645
834.267	16641
834.406	16672
834.544	16706
834.682	16630
834.821	16626
834.959	16649
835.097	16538
835.235	16687
835.373	16664
835.511	16653
835.65	16516
835.788	16489
835.926	16405
836.064	16333
836.202	16367
836.34	16569
836.478	16497
836.615	16474
836.753	16546
836.891	16611
837.029	16637
837.167	16519
837.305	16516
837.443	16386
837.58	16329
837.718	16481
837.856	16519
837.993	16223
838.131	16402
838.269	16303
838.406	16436
838.544	16230
838.681	16120
838.819	15979
838.956	15979
839.094	15968
839.231	16036
839.369	16188
839.506	16363
839.643	16238
839.781	16002
839.918	15903
840.055	15941
840.193	15953
840.33	15945
840.467	15949
840.604	16002
840.742	16158
840.879	15907
841.016	15865
841.153	15888
841.29	16090
841.427	15964
841.564	16032
841.701	15903
841.838	15880
841.975	15915
842.112	15793
842.249	15747
842.385	15743
842.522	15915
842.659	15762
842.796	15728
842.933	15694
843.069	15698
843.206	15736
843.343	15880
843.479	15793
843.616	15762
843.752	15500
843.889	15568
844.025	15618
844.162	15507
844.298	15603
844.435	15530
844.571	15416
844.708	15622
844.844	15622
844.98	15637
845.117	15603
845.253	15408
845.389	15439
845.525	15504
845.661	15416
845.798	15233
845.934	15401
846.07	15256
846.206	15374
846.342	15458
846.478	15355
846.614	15142
846.75	15081
846.886	15051
847.022	15233
847.158	15138
847.294	14990
847.429	15039
847.565	15032
847.701	15355
847.837	14792
847.972	14811
848.108	14948
848.244	14960
848.379	14762
848.515	14743
848.65	14655
848.786	14579
848.921	14655
849.057	14758
849.192	14739
849.328	14769
849.463	14762
849.598	14640
849.734	14560
849.869	14499
850.004	14412
850.14	14385
850.275	14568
850.41	14393
850.545	14404
850.68	14400
850.815	14480
850.95	14408
851.085	14617
851.22	14526
851.355	14385
851.49	14355
851.625	14400
851.76	14427
851.895	14336
852.03	14324
852.165	14393
852.299	14484
852.434	14442
852.569	14404
852.703	14465
852.838	14522
852.973	14526
853.107	14537
853.242	14495
853.376	14339
853.511	14225
853.645	14206
853.78	14431
853.914	14351
854.048	14370
854.183	14218
854.317	14343
854.451	14461
854.585	14259
854.72	14389
854.854	14400
854.988	14221
855.122	14320
855.256	14164
855.39	14347
855.524	14393
855.658	14408
855.792	14282
855.926	14275
856.06	14362
856.194	14434
856.327	14271
856.461	14263
856.595	14278
856.729	14237
856.862	14366
856.996	14313
857.13	14282
857.263	14526
857.397	14461
857.53	14431
857.664	14396
857.797	14450
857.931	14461
858.064	14374
858.197	14400
858.331	14305
858.464	14271
858.597	14172
858.731	14256
858.864	14301
858.997	14282
859.13	14278
859.263	14377
859.396	14393
859.529	14320
859.662	14339
859.795	14237
859.928	14301
860.061	14355
860.194	14541
860.327	14305
860.46	14389
860.592	14377
860.725	14488
860.858	14393
860.99	14286
861.123	14237
861.256	14305
861.388	14374
861.521	14975
861.653	14214
861.786	14126
861.918	14126
862.05	14259
862.183	14240
862.315	14336
862.447	14332
862.58	14389
862.712	14054
862.844	13928
862.976	14195
863.108	14142
863.24	14434
863.372	14046
863.504	14084
863.636	14123
863.768	14054
863.9	14134
864.032	14073
864.164	13997
864.296	14092
864.428	14282
864.559	14103
864.691	14168
864.823	14077
864.954	14084
865.086	14145
865.217	14054
865.349	13955
865.48	14027
865.612	14020
865.743	14248
865.875	14206
866.006	14069
866.137	14172
866.269	14027
866.4	14062
866.531	14005
866.662	14008
866.793	14153
866.924	13997
867.055	14107
867.186	14024
867.317	14062
867.448	13925
867.579	14001
867.71	13947
867.841	13932
867.972	14054
868.103	14050
868.233	14130
868.364	14149
868.495	14103
868.625	14317
868.756	14404
868.886	14157
869.017	14191
869.147	14381
869.278	14488
869.408	14336
869.539	14362
869.669	14454
869.799	14370
869.929	14434
870.06	14511
870.19	14678
870.32	14655
870.45	14686
870.58	14769
870.71	14819
870.84	14872
870.97	14678
871.1	14735
871.23	14861
871.36	14880
871.489	14842
871.619	14781
871.749	14944
871.879	14998
872.008	14967
872.138	14944
872.267	14994
872.397	14746
872.526	14823
872.656	14716
872.785	14716
872.915	14986
873.044	14990
873.173	14986
873.303	15055
873.432	15028
873.561	15032
873.69	15017
873.819	14929
873.948	15146
874.077	14975
874.206	14872
874.335	15070
874.464	15085
874.593	15230
874.722	15146
874.851	15321
874.979	15351
875.108	15287
875.237	15230
875.365	15214
875.494	15237
875.623	15294
875.751	15161
875.88	15283
876.008	15378
876.136	15397
876.265	15709
876.393	15865
876.521	15713
876.65	15857
876.778	15705
876.906	15812
877.034	15641
877.162	15667
877.29	15587
877.418	15705
877.546	15618
877.674	15660
877.802	15633
877.93	15762
878.058	15614
878.185	15625
878.313	15663
878.441	15701
878.568	15561
878.696	15679
878.824	15762
878.951	15770
879.079	15880
879.206	16013
879.333	15903
879.461	15709
879.588	15797
879.715	15793
879.842	16013
879.97	15762
880.097	15564
880.224	15561
880.351	15485
880.478	15538
880.605	15576
880.732	15477
880.859	15747
880.986	15603
881.112	15542
881.239	15458
881.366	15317
881.493	15192
881.619	15116
881.746	15268
881.872	15123
881.999	15150
882.125	15070
882.252	15275
882.378	15199
882.505	15313
882.631	15142
882.757	14982
882.883	15116
883.01	15001
883.136	14914
883.262	14929
883.388	14876
883.514	15043
883.64	15089
883.766	14914
883.892	14834
884.018	14849
884.143	15043
884.269	15135
884.395	14815
884.52	14716
884.646	14758
884.772	14655
884.897	14697
885.023	14796
885.148	14887
885.274	14823
885.399	14800
885.524	14823
885.65	14750
885.775	14781
885.9	14705
886.025	14750
886.15	14765
886.275	14777
886.4	14579
886.525	14678
886.65	14644
886.775	14682
886.9	14838
887.025	14948
887.149	14773
887.274	14613
887.399	14484
887.523	14556
887.648	14499
887.773	14507
887.897	14621
888.021	14655
888.146	14511
888.27	14648
888.395	14617
888.519	14530
888.643	14670
888.767	14689
888.891	14541
889.015	14442
889.139	14434
889.263	14374
889.387	14442
889.511	14686
889.635	14556
889.759	14358
889.883	14427
890.006	14419
890.13	14583
890.254	14377
890.377	14351
890.501	14286
890.624	14172
890.748	14286
890.871	14202
890.995	13978
891.118	14039
891.241	14111
891.364	14073
891.488	14240
891.611	14062
891.734	14176
891.857	14202
891.98	14149
892.103	14138
892.226	14161
892.349	14046
892.471	13944
892.594	14054
892.717	14100
892.839	14054
892.962	14172
893.085	14206
893.207	14054
893.33	14050
893.452	14062
893.575	14187
893.697	14096
893.819	14275
893.941	14305
894.064	14221
894.186	14058
894.308	14172
894.43	14271
894.552	14358
894.674	14221
894.796	14031
894.918	14142
895.04	14062
895.161	14157
895.283	14278
895.405	14084
895.526	14210
895.648	14199
895.769	14267
895.891	14271
896.012	14313
896.134	14324
896.255	14313
896.376	14286
896.498	14271
896.619	14431
896.74	14408
896.861	14278
896.982	14640
897.103	14785
897.224	14579
897.345	14495
897.466	14499
897.587	14514
897.708	14708
897.828	14606
897.949	14644
898.07	14385
898.19	14541
898.311	14648
898.431	14644
898.552	14644
898.672	14750
898.792	14701
898.913	14625
899.033	14617
899.153	14556
899.273	14434
899.393	14408
899.513	14495
899.633	14465
899.753	14594
899.873	14590
899.993	14625
900.113	14465
900.232	14552
900.352	14412
900.472	14351
900.591	14313
900.711	14431
900.83	14275
900.95	14450
901.069	14419
901.189	14355
901.308	14092
901.427	13974
901.546	14069
901.665	14069
901.784	14073
901.904	13906
902.023	13841
902.141	13670
902.26	13670
902.379	13696
902.498	13639
902.617	13453
902.735	13658
902.854	13567
902.973	13556
903.091	13403
903.21	13301
903.328	13369
903.446	13240
903.565	13244
903.683	13122
903.801	13095
903.919	13198
904.038	13103
904.156	12985
904.274	13072
904.392	13000
904.51	12894
904.627	13088
904.745	12951
904.863	13065
904.981	12852
905.098	12696
905.216	12722
905.334	12692
905.451	12658
905.569	12608
905.686	12684
905.803	12566
905.921	12490
906.038	12566
906.155	12517
906.272	12384
906.389	12494
906.506	12205
906.623	12262
906.74	12247
906.857	12163
906.974	12167
907.091	12342
907.208	12429
907.324	12216
907.441	12213
907.557	11961
907.674	12079
907.79	12011
907.907	12003
908.023	11988
908.139	12060
908.256	11927
908.372	11908
908.488	11901
908.604	11805
908.72	11817
908.836	11790
908.952	11786
909.068	11824
909.184	11889
909.3	11786
909.415	11824
909.531	11843
909.647	11581
909.762	11516
909.878	11528
909.993	11657
910.108	11562
910.224	11493
910.339	11630
910.454	11414
910.57	11387
910.685	11341
910.8	11589
910.915	11592
911.03	11421
911.145	11208
911.259	11231
911.374	11231
911.489	11159
911.604	11090
911.718	11037
911.833	10991
911.947	10927
912.062	10835
912.176	11033
912.291	11025
912.405	11022
912.519	11258
912.633	11174
912.748	11098
912.862	11025
912.976	10908
913.09	10850
913.204	10774
913.318	10900
913.431	10995
913.545	11022
913.659	11003
913.772	10873
913.886	10782
914	10691
914.113	10889
914.226	10900
914.34	10793
914.453	10645
914.566	10831
914.68	10748
914.793	10752
914.906	10588
915.019	10470
915.132	10409
915.245	10394
915.358	10485
915.47	10512
915.583	10561
915.696	10584
915.809	10611
915.921	10611
916.034	10535
916.146	10440
916.259	10375
916.371	10527
916.483	10504
916.595	10455
916.708	10417
916.82	10432
916.932	10535
917.044	10409
917.156	10379
917.268	10371
917.38	10325
917.491	10329
917.603	10348
917.715	10325
917.826	10440
917.938	10382
918.049	10280
918.161	10299
918.272	10459
918.384	10436
918.495	10352
918.606	10280
918.717	10154
918.828	10211
918.939	10227
919.05	10112
919.161	10242
919.272	10051
919.383	10124
919.494	10287
919.604	10375
919.715	10238
919.826	10169
919.936	10169
920.047	10413
920.157	10238
920.267	10489
920.378	10272
920.488	10188
920.598	10447
920.708	10519
920.818	10428
920.928	10504
921.038	10603
921.148	10493
921.258	10325
921.368	10177
921.477	10055
921.587	10021
921.697	9903
921.806	10139
921.916	9876
922.025	9842
922.134	9762
922.244	9694
922.353	9850
922.462	9618
922.571	9603
922.68	9488
922.789	9458
922.898	9500
923.007	9450
923.116	9496
923.224	9466
923.333	9462
923.442	9386
923.55	9408
923.659	9389
923.767	9408
923.876	9264
923.984	9397
924.092	9321
924.201	9386
924.309	9336
924.417	9386
924.525	9329
924.633	9344
924.741	10211
924.849	9180
924.956	9302
925.064	9173
925.172	9047
925.279	9093
925.387	9184
925.494	9173
925.602	9298
925.709	9230
925.816	9142
925.924	9135
926.031	9161
926.138	9131
926.245	9237
926.352	9055
926.459	9154
926.566	9302
926.673	9062
926.779	8994
926.886	9032
926.993	8864
927.099	8842
927.206	8804
927.312	8777
927.419	8864
927.525	8891
927.631	8902
927.737	8796
927.843	8667
927.95	8655
928.056	8735
928.162	8750
928.267	8838
928.373	9336
928.479	8823
928.585	8640
928.69	8697
928.796	8773
928.901	8705
929.007	8549
929.112	8632
929.218	8644
929.323	8590
929.428	8556
929.533	8655
929.638	8518
929.743	8587
929.848	8602
929.953	8541
930.058	8511
930.163	8294
930.267	8389
930.372	8434
930.477	8374
930.581	8530
930.685	8454
930.79	8279
930.894	8298
930.998	8267
931.103	8404
931.207	8096
931.311	8024
931.415	7947
931.519	7845
931.623	7803
