Data from test_V78500241_348.txt Node
Date: Fri Mar 25 14:36:08 CST 2022
User: usil
Spectrometer: V785-0024
Trigger mode: 0
Integration Time (sec): 4.000000E-1
Scans to average: 1
Nonlinearity correction enabled: false
Boxcar width: 0
Storing dark spectrum: false
XAxis mode: Wavelengths
Number of Pixels in Spectrum: 1024
>>>>>Begin Spectral Data<<<<<
801.071	26872
801.214	26925
801.356	26526
801.499	26450
801.641	26218
801.783	26218
801.926	26259
802.068	26206
802.211	26119
802.353	26202
802.496	25894
802.638	25951
802.78	25925
802.923	25833
803.065	25738
803.208	25947
803.35	25719
803.492	25845
803.635	25837
803.777	25887
803.919	25849
804.061	26237
804.204	25997
804.346	25666
804.488	25723
804.63	25898
804.773	25723
804.915	25799
805.057	25879
805.199	25822
805.341	25868
805.483	25864
805.626	25906
805.768	25807
805.91	25784
806.052	25860
806.194	25765
806.336	26039
806.478	25966
806.62	25822
806.762	25978
806.904	26020
807.046	26336
807.188	26301
807.33	26358
807.472	26248
807.614	26221
807.756	26153
807.898	26134
808.04	25887
808.182	26012
808.324	26134
808.465	26065
808.607	26206
808.749	26370
808.891	26533
809.033	26655
809.174	26446
809.316	26362
809.458	26278
809.6	26442
809.741	26374
809.883	26503
810.025	26530
810.166	26571
810.308	26533
810.45	26613
810.591	26587
810.733	26446
810.875	26221
811.016	26065
811.158	26073
811.299	26248
811.441	26355
811.582	26301
811.724	26263
811.865	26290
812.007	26278
812.148	26206
812.29	26111
812.431	26450
812.573	26434
812.714	26503
812.855	26541
812.997	26705
813.138	26914
813.279	26857
813.421	26648
813.562	26621
813.703	26457
813.845	26400
813.986	26183
814.127	25890
814.268	25860
814.41	25776
814.551	25727
814.692	25780
814.833	25689
814.974	25750
815.115	25856
815.256	25582
815.397	25582
815.539	25632
815.68	25620
815.821	25491
815.962	25559
816.103	25472
816.244	25282
816.385	25278
816.526	25293
816.666	25031
816.807	25015
816.948	25019
817.089	24977
817.23	24939
817.371	24962
817.512	24894
817.653	24719
817.793	24817
817.934	24909
818.075	25004
818.216	24890
818.356	24821
818.497	24665
818.638	24486
818.778	24570
818.919	24486
819.06	24623
819.2	24650
819.341	24878
819.481	24749
819.622	24947
819.762	25160
819.903	25004
820.043	24939
820.184	24913
820.324	24798
820.465	24909
820.605	24825
820.746	24886
820.886	24734
821.026	24795
821.167	24749
821.307	24795
821.447	24722
821.588	24684
821.728	24589
821.868	24395
822.008	24209
822.149	24140
822.289	24308
822.429	23897
822.569	23821
822.709	23817
822.849	23866
822.99	23752
823.13	23748
823.27	23554
823.41	23509
823.55	23376
823.69	23577
823.83	23486
823.97	23436
824.11	23208
824.25	23261
824.389	23105
824.529	23433
824.669	23147
824.809	23265
824.949	23337
825.089	23383
825.228	23189
825.368	22987
825.508	23064
825.648	23022
825.787	23132
825.927	23220
826.067	23044
826.206	22942
826.346	22995
826.485	23128
826.625	23006
826.765	23193
826.904	23178
827.044	22835
827.183	22710
827.323	22774
827.462	22767
827.601	22626
827.741	22733
827.88	22805
828.02	22565
828.159	22455
828.298	22706
828.437	22683
828.577	22596
828.716	22740
828.855	22694
828.994	22508
829.134	22363
829.273	22516
829.412	22318
829.551	22284
829.69	22287
829.829	22474
829.968	22402
830.107	22485
830.246	22352
830.385	22329
830.524	22112
830.663	22303
830.802	22040
830.941	21911
831.08	21934
831.219	21949
831.357	21983
831.496	22200
831.635	22059
831.774	21770
831.913	21876
832.051	21686
832.19	21724
832.329	21778
832.467	21644
832.606	21587
832.744	21599
832.883	21576
833.022	21591
833.16	21648
833.299	21583
833.437	21576
833.576	21599
833.714	21648
833.852	21743
833.991	21625
834.129	21682
834.267	21694
834.406	21701
834.544	21797
834.682	21587
834.821	21580
834.959	21705
835.097	21545
835.235	21587
835.373	21641
835.511	21671
835.65	21466
835.788	21443
835.926	21218
836.064	21252
836.202	21370
836.34	21450
836.478	21458
836.615	21439
836.753	21401
836.891	21466
837.029	21401
837.167	21542
837.305	21351
837.443	21321
837.58	21306
837.718	21317
837.856	21378
837.993	21173
838.131	21272
838.269	21203
838.406	21249
838.544	21116
838.681	20876
838.819	20914
838.956	20773
839.094	20765
839.231	20773
839.369	20857
839.506	21188
839.643	21066
839.781	20655
839.918	20617
840.055	20754
840.193	20705
840.33	20678
840.467	20648
840.604	20720
840.742	20910
840.879	20526
841.016	20476
841.153	20507
841.29	20807
841.427	20621
841.564	20739
841.701	20670
841.838	20705
841.975	20571
842.112	20476
842.249	20442
842.385	20320
842.522	20651
842.659	20499
842.796	20400
842.933	20454
843.069	20237
843.206	20351
843.343	20377
843.479	20385
843.616	20336
843.752	20252
843.889	20172
844.025	20240
844.162	20172
844.298	20176
844.435	20046
844.571	20046
844.708	20122
844.844	20336
844.98	20362
845.117	20229
845.253	20088
845.389	19982
845.525	20115
845.661	19993
845.798	19871
845.934	19906
846.07	19906
846.206	20134
846.342	20164
846.478	19883
846.614	19628
846.75	19597
846.886	19651
847.022	19731
847.158	19643
847.294	19537
847.429	19670
847.565	19609
847.701	19769
847.837	19468
847.972	19327
848.108	19350
848.244	19419
848.379	19320
848.515	19221
848.65	19126
848.786	19164
848.921	19209
849.057	19217
849.192	19259
849.328	19259
849.463	19232
849.598	19088
849.734	19129
849.869	19099
850.004	18977
850.14	18951
850.275	18916
850.41	18776
850.545	18863
850.68	18886
850.815	18935
850.95	18894
851.085	19107
851.22	18966
851.355	18894
851.49	18882
851.625	18779
851.76	18833
851.895	18772
852.03	18795
852.165	18848
852.299	18909
852.434	18928
852.569	18901
852.703	18852
852.838	18947
852.973	18867
853.107	19004
853.242	18768
853.376	18700
853.511	18688
853.645	18757
853.78	18840
853.914	18779
854.048	18642
854.183	18627
854.317	18726
854.451	18993
854.585	18684
854.72	18783
854.854	18738
854.988	18597
855.122	18623
855.256	18604
855.39	18753
855.524	18722
855.658	18741
855.792	18711
855.926	18688
856.06	18783
856.194	18787
856.327	18741
856.461	18677
856.595	18726
856.729	18673
856.862	18772
856.996	18711
857.13	18677
857.263	18677
857.397	18856
857.53	18646
857.664	18639
857.797	18779
857.931	18814
858.064	18757
858.197	18821
858.331	18601
858.464	18585
858.597	18563
858.731	18574
858.864	18612
858.997	18498
859.13	18635
859.263	18745
859.396	18726
859.529	18768
859.662	18589
859.795	18608
859.928	18688
860.061	18810
860.194	18871
860.327	18654
860.46	18669
860.592	18642
860.725	18791
860.858	18703
860.99	18673
861.123	18570
861.256	18502
861.388	18749
861.521	19392
861.653	18532
861.786	18486
861.918	18486
862.05	18559
862.183	18677
862.315	18650
862.447	18722
862.58	18669
862.712	18467
862.844	18330
862.976	18418
863.108	18502
863.24	18821
863.372	18365
863.504	18372
863.636	18342
863.768	18429
863.9	18391
864.032	18201
864.164	18281
864.296	18418
864.428	18494
864.559	18490
864.691	18388
864.823	18319
864.954	18258
865.086	18361
865.217	18209
865.349	18251
865.48	18125
865.612	18281
865.743	18346
865.875	18300
866.006	18232
866.137	18258
866.269	18361
866.4	18315
866.531	18163
866.662	18235
866.793	18270
866.924	18251
867.055	18292
867.186	18232
867.317	18220
867.448	18045
867.579	18251
867.71	18129
867.841	18114
867.972	18232
868.103	18357
868.233	18125
868.364	18174
868.495	18247
868.625	18407
868.756	18426
868.886	18380
869.017	18441
869.147	18593
869.278	18661
869.408	18467
869.539	18395
869.669	18551
869.799	18490
869.929	18684
870.06	18517
870.19	18806
870.32	18707
870.45	18700
870.58	18798
870.71	18867
870.84	19019
870.97	18760
871.1	18802
871.23	19004
871.36	19008
871.489	18871
871.619	18981
871.749	19069
871.879	19076
872.008	19168
872.138	18977
872.267	19065
872.397	18863
872.526	18837
872.656	18920
872.785	18783
872.915	18981
873.044	19095
873.173	19012
873.303	19141
873.432	19076
873.561	19145
873.69	19152
873.819	19126
873.948	19164
874.077	19179
874.206	19031
874.335	19019
874.464	19278
874.593	19240
874.722	19190
874.851	19324
874.979	19320
875.108	19316
875.237	19403
875.365	19331
875.494	19304
875.623	19480
875.751	19297
875.88	19392
876.008	19487
876.136	19624
876.265	19643
876.393	19890
876.521	19788
876.65	19845
876.778	19803
876.906	19742
877.034	19677
877.162	19849
877.29	19643
877.418	19670
877.546	19731
877.674	19704
877.802	19712
877.93	19685
878.058	19750
878.185	19658
878.313	19597
878.441	19826
878.568	19639
878.696	19738
878.824	19761
878.951	19742
879.079	19947
879.206	19951
879.333	19906
879.461	19750
879.588	19849
879.715	19925
879.842	20027
879.97	19822
880.097	19567
880.224	19518
880.351	19529
880.478	19510
880.605	19491
880.732	19525
880.859	19944
880.986	19712
881.112	19738
881.239	19430
881.366	19251
881.493	19293
881.619	19255
881.746	19251
881.872	19240
881.999	19206
882.125	19160
882.252	19350
882.378	19148
882.505	19293
882.631	19225
882.757	18932
882.883	19190
883.01	19000
883.136	18966
883.262	18932
883.388	18833
883.514	19034
883.64	18913
883.766	18859
883.892	18802
884.018	18753
884.143	18878
884.269	19015
884.395	18692
884.52	18540
884.646	18646
884.772	18627
884.897	18528
885.023	18814
885.148	18544
885.274	18787
885.399	18776
885.524	18608
885.65	18677
885.775	18707
885.9	18589
886.025	18620
886.15	18658
886.275	18437
886.4	18540
886.525	18601
886.65	18582
886.775	18471
886.9	18745
887.025	18867
887.149	18479
887.274	18460
887.399	18532
887.523	18475
887.648	18289
887.773	18251
887.897	18452
888.021	18517
888.146	18357
888.27	18479
888.395	18486
888.519	18399
888.643	18254
888.767	18407
888.891	18209
889.015	18232
889.139	18292
889.263	18087
889.387	18258
889.511	18418
889.635	18342
889.759	18121
889.883	18117
890.006	18277
890.13	18296
890.254	18102
890.377	18076
890.501	17946
890.624	17878
890.748	17969
890.871	17836
890.995	17741
891.118	17707
891.241	17752
891.364	17843
891.488	17885
891.611	17878
891.734	17805
891.857	17779
891.98	17767
892.103	17885
892.226	17931
892.349	17764
892.471	17600
892.594	17817
892.717	17726
892.839	17695
892.962	17745
893.085	17760
893.207	17840
893.33	17710
893.452	17676
893.575	17718
893.697	17771
893.819	17863
893.941	17889
894.064	17805
894.186	17703
894.308	17581
894.43	17760
894.552	17859
894.674	17897
894.796	17703
894.918	17722
895.04	17687
895.161	17863
895.283	17752
895.405	17638
895.526	17802
895.648	17752
895.769	17726
895.891	17771
896.012	17946
896.134	17805
896.255	17779
896.376	17813
896.498	17843
896.619	17897
896.74	17843
896.861	17977
896.982	18209
897.103	18323
897.224	18197
897.345	17977
897.466	17965
897.587	17939
897.708	18216
897.828	18019
897.949	17977
898.07	17954
898.19	18064
898.311	18045
898.431	18030
898.552	17992
898.672	18053
898.792	18197
898.913	18110
899.033	17859
899.153	17935
899.273	17786
899.393	17764
899.513	17920
899.633	17821
899.753	17786
899.873	17794
899.993	17821
900.113	17745
900.232	17748
900.352	17779
900.472	17695
900.591	17604
900.711	17691
900.83	17562
900.95	17745
901.069	17726
901.189	17581
901.308	17303
901.427	17288
901.546	17349
901.665	17353
901.784	17242
901.904	17197
902.023	17090
902.141	16850
902.26	16736
902.379	16885
902.498	16790
902.617	16721
902.735	16767
902.854	16763
902.973	16698
903.091	16508
903.21	16466
903.328	16474
903.446	16363
903.565	16219
903.683	16333
903.801	16238
903.919	16249
904.038	16223
904.156	16051
904.274	16238
904.392	16029
904.51	16032
904.627	15922
904.745	16120
904.863	16112
904.981	15857
905.098	15686
905.216	15751
905.334	15701
905.451	15770
905.569	15774
905.686	15759
905.803	15759
905.921	15469
906.038	15625
906.155	15599
906.272	15416
906.389	15458
906.506	15249
906.623	15241
906.74	15264
906.857	15241
906.974	15203
907.091	15310
907.208	15431
907.324	15389
907.441	15264
907.557	15112
907.674	14990
907.79	15005
907.907	15005
908.023	14921
908.139	15081
908.256	14864
908.372	14918
908.488	14804
908.604	14788
908.72	14724
908.836	14746
908.952	14663
909.068	14689
909.184	14788
909.3	14659
909.415	14724
909.531	14705
909.647	14476
909.762	14366
909.878	14362
909.993	14389
910.108	14396
910.224	14362
910.339	14404
910.454	14218
910.57	14282
910.685	14252
910.8	14457
910.915	14362
911.03	14263
911.145	14172
911.259	14039
911.374	14054
911.489	13917
911.604	14012
911.718	13795
911.833	13837
911.947	13700
912.062	13666
912.176	13700
912.291	13795
912.405	13647
912.519	13997
912.633	13970
912.748	13841
912.862	13738
912.976	13689
913.09	13510
913.204	13639
913.318	13624
913.431	13704
913.545	13681
913.659	13670
913.772	13575
913.886	13487
914	13491
914.113	13563
914.226	13586
914.34	13487
914.453	13369
914.566	13510
914.68	13415
914.793	13209
914.906	13198
915.019	13194
915.132	13038
915.245	13129
915.358	13206
915.47	13217
915.583	13228
915.696	13213
915.809	13293
915.921	13293
916.034	13095
916.146	13015
916.259	13061
916.371	13141
916.483	13160
916.595	13069
916.708	13091
916.82	13103
916.932	12943
917.044	12954
917.156	13000
917.268	12867
917.38	12844
917.491	12791
917.603	12985
917.715	12882
917.826	12993
917.938	12795
918.049	12753
918.161	12837
918.272	13019
918.384	12821
918.495	12878
918.606	12741
918.717	12585
918.828	12711
918.939	12734
919.05	12601
919.161	12559
919.272	12471
919.383	12479
919.494	12681
919.604	12814
919.715	12627
919.826	12517
919.936	12532
920.047	12688
920.157	12616
920.267	12817
920.378	12677
920.488	12544
920.598	12882
920.708	12920
920.818	12757
920.928	12749
921.038	12867
921.148	12863
921.258	12665
921.368	12582
921.477	12464
921.587	12391
921.697	12273
921.806	12422
921.916	12167
922.025	12140
922.134	12068
922.244	12053
922.353	12121
922.462	11958
922.571	11824
922.68	11802
922.789	11737
922.898	11752
923.007	11737
923.116	11714
923.224	11726
923.333	11676
923.442	11638
923.55	11520
923.659	11649
923.767	11714
923.876	11551
923.984	11558
924.092	11459
924.201	11493
924.309	11524
924.417	11532
924.525	11436
924.633	11444
924.741	12175
924.849	11246
924.956	11379
925.064	11284
925.172	11102
925.279	11277
925.387	11212
925.494	11246
925.602	11406
925.709	11360
925.816	11166
925.924	11208
926.031	11299
926.138	11269
926.245	11193
926.352	11204
926.459	11174
926.566	11315
926.673	11147
926.779	11086
926.886	11037
926.993	10858
927.099	10896
927.206	10797
927.312	10934
927.419	10892
927.525	10873
927.631	10984
927.737	10797
927.843	10748
927.95	10683
928.056	10710
928.162	10736
928.267	10816
928.373	11364
928.479	10740
928.585	10588
928.69	10710
928.796	10767
928.901	10634
929.007	10421
929.112	10577
929.218	10527
929.323	10455
929.428	10535
929.533	10622
929.638	10474
929.743	10474
929.848	10565
929.953	10519
930.058	10318
930.163	10223
930.267	10169
930.372	10299
930.477	10112
930.581	10363
930.685	10272
930.79	10059
930.894	10147
930.998	10071
931.103	10200
931.207	9873
931.311	9804
931.415	9740
931.519	9557
931.623	9496
