Data from test_V78500241_1254.txt Node
Date: Fri Mar 25 14:42:26 CST 2022
User: usil
Spectrometer: V785-0024
Trigger mode: 0
Integration Time (sec): 4.000000E-1
Scans to average: 1
Nonlinearity correction enabled: false
Boxcar width: 0
Storing dark spectrum: false
XAxis mode: Wavelengths
Number of Pixels in Spectrum: 1024
>>>>>Begin Spectral Data<<<<<
801.071	22432
801.214	22253
801.356	22109
801.499	21873
801.641	21895
801.783	21789
801.926	21816
802.068	21819
802.211	21720
802.353	21523
802.496	21321
802.638	21389
802.78	21291
802.923	21157
803.065	21070
803.208	21081
803.35	21150
803.492	21100
803.635	21272
803.777	20998
803.919	21195
804.061	21439
804.204	21154
804.346	21058
804.488	20872
804.63	21047
804.773	20948
804.915	20994
805.057	21245
805.199	21032
805.341	21047
805.483	21169
805.626	21146
805.768	20941
805.91	21028
806.052	21005
806.194	20929
806.336	21154
806.478	21123
806.62	20982
806.762	21039
806.904	21226
807.046	21428
807.188	21336
807.33	21268
807.472	21466
807.614	21245
807.756	21378
807.898	21252
808.04	21214
808.182	21020
808.324	21184
808.465	21279
808.607	21317
808.749	21473
808.891	21553
809.033	21755
809.174	21511
809.316	21542
809.458	21401
809.6	21359
809.741	21492
809.883	21511
810.025	21675
810.166	21633
810.308	21534
810.45	21576
810.591	21511
810.733	21370
810.875	21165
811.016	21195
811.158	20975
811.299	21249
811.441	21355
811.582	21393
811.724	21249
811.865	21184
812.007	21199
812.148	21237
812.29	21283
812.431	21256
812.573	21523
812.714	21485
812.855	21629
812.997	21759
813.138	21854
813.279	21812
813.421	21743
813.562	21549
813.703	21595
813.845	21382
813.986	21188
814.127	20857
814.268	20788
814.41	20823
814.551	20788
814.692	20823
814.833	20602
814.974	20621
815.115	20800
815.256	20636
815.397	20598
815.539	20583
815.68	20484
815.821	20476
815.962	20446
816.103	20461
816.244	20328
816.385	20256
816.526	20183
816.666	20008
816.807	19974
816.948	20005
817.089	20088
817.23	19955
817.371	19750
817.512	19913
817.653	19898
817.793	19856
817.934	19890
818.075	19894
818.216	19887
818.356	19814
818.497	19738
818.638	19578
818.778	19628
818.919	19559
819.06	19533
819.2	19685
819.341	19784
819.481	19761
819.622	19860
819.762	20107
819.903	20024
820.043	20001
820.184	19814
820.324	19856
820.465	19932
820.605	19909
820.746	19871
820.886	19712
821.026	19784
821.167	19864
821.307	19967
821.447	19814
821.588	19689
821.728	19632
821.868	19457
822.008	19209
822.149	19335
822.289	19232
822.429	19099
822.569	19050
822.709	19103
822.849	18840
822.99	18875
823.13	18772
823.27	18730
823.41	18547
823.55	18483
823.69	18627
823.83	18597
823.97	18544
824.11	18365
824.25	18395
824.389	18498
824.529	18532
824.669	18353
824.809	18448
824.949	18464
825.089	18422
825.228	18464
825.368	18239
825.508	18216
825.648	18140
825.787	18159
825.927	18228
826.067	18121
826.206	18129
826.346	18117
826.485	18186
826.625	18171
826.765	18194
826.904	18174
827.044	17969
827.183	17885
827.323	17851
827.462	17931
827.601	17840
827.741	17798
827.88	17855
828.02	17661
828.159	17821
828.298	17882
828.437	17893
828.577	17798
828.716	17950
828.855	17775
828.994	17615
829.134	17676
829.273	17726
829.412	17687
829.551	17566
829.69	17615
829.829	17497
829.968	17775
830.107	17775
830.246	17570
830.385	17596
830.524	17493
830.663	17486
830.802	17360
830.941	17208
831.08	17132
831.219	17280
831.357	17265
831.496	17410
831.635	17216
831.774	17193
831.913	17162
832.051	17102
832.19	17086
832.329	17083
832.467	16972
832.606	16946
832.744	16942
832.883	16968
833.022	16896
833.16	16953
833.299	16908
833.437	16949
833.576	16949
833.714	16987
833.852	17064
833.991	16957
834.129	17102
834.267	17048
834.406	16984
834.544	17060
834.682	16965
834.821	16946
834.959	17132
835.097	17029
835.235	17067
835.373	16904
835.511	17098
835.65	16889
835.788	16968
835.926	16759
836.064	16752
836.202	16778
836.34	16984
836.478	17045
836.615	16820
836.753	16968
836.891	16965
837.029	16965
837.167	16866
837.305	16744
837.443	16866
837.58	16771
837.718	16801
837.856	16797
837.993	16702
838.131	16786
838.269	16656
838.406	16786
838.544	16607
838.681	16405
838.819	16432
838.956	16299
839.094	16291
839.231	16348
839.369	16459
839.506	16752
839.643	16577
839.781	16261
839.918	16337
840.055	16318
840.193	16280
840.33	16371
840.467	16333
840.604	16344
840.742	16466
840.879	16150
841.016	16150
841.153	16268
841.29	16356
841.427	16333
841.564	16421
841.701	16382
841.838	16150
841.975	16207
842.112	16093
842.249	16109
842.385	16017
842.522	16287
842.659	16158
842.796	16036
842.933	16078
843.069	15987
843.206	16082
843.343	16196
843.479	16093
843.616	16120
843.752	15869
843.889	15831
844.025	16036
844.162	15846
844.298	16040
844.435	15873
844.571	15728
844.708	15865
844.844	16006
844.98	16082
845.117	16040
845.253	15842
845.389	15800
845.525	15846
845.661	15865
845.798	15827
845.934	15907
846.07	15736
846.206	15804
846.342	15941
846.478	15679
846.614	15545
846.75	15416
846.886	15420
847.022	15534
847.158	15428
847.294	15469
847.429	15473
847.565	15450
847.701	15736
847.837	15272
847.972	15169
848.108	15226
848.244	15222
848.379	15070
848.515	15024
848.65	15009
848.786	15104
848.921	15051
849.057	15089
849.192	15104
849.328	15047
849.463	15017
849.598	15043
849.734	15062
849.869	14785
850.004	14906
850.14	14746
850.275	14876
850.41	14849
850.545	14651
850.68	14830
850.815	14731
850.95	14743
851.085	14910
851.22	14910
851.355	14773
851.49	14678
851.625	14701
851.76	14785
851.895	14701
852.03	14651
852.165	14781
852.299	14758
852.434	14956
852.569	14800
852.703	14861
852.838	14842
852.973	14929
853.107	14933
853.242	14830
853.376	14781
853.511	14590
853.645	14667
853.78	14754
853.914	14754
854.048	14670
854.183	14545
854.317	14689
854.451	14796
854.585	14724
854.72	14594
854.854	14781
854.988	14621
855.122	14693
855.256	14697
855.39	14613
855.524	14739
855.658	14724
855.792	14701
855.926	14708
856.06	14659
856.194	14823
856.327	14682
856.461	14625
856.595	14625
856.729	14708
856.862	14758
856.996	14720
857.13	14727
857.263	14682
857.397	14758
857.53	14682
857.664	14773
857.797	14796
857.931	14788
858.064	14674
858.197	14849
858.331	14716
858.464	14594
858.597	14621
858.731	14678
858.864	14686
858.997	14686
859.13	14682
859.263	14735
859.396	14655
859.529	14659
859.662	14670
859.795	14594
859.928	14579
860.061	14815
860.194	14823
860.327	14655
860.46	14686
860.592	14899
860.725	14781
860.858	14830
860.99	14678
861.123	14594
861.256	14583
861.388	14659
861.521	15317
861.653	14533
861.786	14419
861.918	14503
862.05	14518
862.183	14712
862.315	14720
862.447	14617
862.58	14541
862.712	14438
862.844	14374
862.976	14522
863.108	14533
863.24	14998
863.372	14412
863.504	14377
863.636	14461
863.768	14457
863.9	14495
864.032	14351
864.164	14351
864.296	14450
864.428	14499
864.559	14469
864.691	14545
864.823	14526
864.954	14476
865.086	14461
865.217	14488
865.349	14415
865.48	14419
865.612	14336
865.743	14579
865.875	14499
866.006	14389
866.137	14377
866.269	14434
866.4	14442
866.531	14389
866.662	14396
866.793	14457
866.924	14400
867.055	14450
867.186	14374
867.317	14412
867.448	14381
867.579	14377
867.71	14404
867.841	14389
867.972	14438
868.103	14393
868.233	14476
868.364	14526
868.495	14465
868.625	14613
868.756	14838
868.886	14590
869.017	14674
869.147	14769
869.278	14785
869.408	14678
869.539	14674
869.669	14750
869.799	14648
869.929	14788
870.06	14819
870.19	15009
870.32	14963
870.45	15112
870.58	15066
870.71	15135
870.84	15116
870.97	15055
871.1	14933
871.23	15279
871.36	15291
871.489	15123
871.619	15195
871.749	15317
871.879	15268
872.008	15447
872.138	15184
872.267	15287
872.397	15195
872.526	15077
872.656	15020
872.785	15112
872.915	15310
873.044	15351
873.173	15104
873.303	15302
873.432	15374
873.561	15355
873.69	15294
873.819	15237
873.948	15355
874.077	15287
874.206	15325
874.335	15291
874.464	15538
874.593	15603
874.722	15610
874.851	15698
874.979	15671
875.108	15625
875.237	15561
875.365	15614
875.494	15629
875.623	15743
875.751	15519
875.88	15595
876.008	15682
876.136	15823
876.265	15964
876.393	16154
876.521	16097
876.65	16177
876.778	16090
876.906	16006
877.034	15979
877.162	16135
877.29	15918
877.418	16055
877.546	16051
877.674	16013
877.802	16055
877.93	15975
878.058	15930
878.185	15873
878.313	16017
878.441	16093
878.568	15800
878.696	15994
878.824	16082
878.951	16097
879.079	16242
879.206	16500
879.333	16230
879.461	16063
879.588	16268
879.715	16352
879.842	16405
879.97	16112
880.097	15949
880.224	15804
880.351	15930
880.478	15922
880.605	15857
880.732	15888
880.859	16166
880.986	15994
881.112	15953
881.239	15724
881.366	15587
881.493	15534
881.619	15523
881.746	15526
881.872	15504
881.999	15500
882.125	15530
882.252	15587
882.378	15534
882.505	15698
882.631	15492
882.757	15428
882.883	15431
883.01	15325
883.136	15370
883.262	15264
883.388	15180
883.514	15439
883.64	15473
883.766	15275
883.892	15222
884.018	15321
884.143	15348
884.269	15462
884.395	15173
884.52	15070
884.646	15051
884.772	15142
884.897	15024
885.023	15058
885.148	15180
885.274	15310
885.399	15135
885.524	15032
885.65	15039
885.775	15047
885.9	14986
886.025	15176
886.15	15188
886.275	14944
886.4	14963
886.525	15085
886.65	15024
886.775	14948
886.9	15218
887.025	15252
887.149	15131
887.274	14754
887.399	14891
887.523	14887
887.648	14739
887.773	14834
887.897	14971
888.021	14918
888.146	14918
888.27	14982
888.395	15089
888.519	14891
888.643	14963
888.767	14914
888.891	14807
889.015	14686
889.139	14788
889.263	14754
889.387	14815
889.511	15017
889.635	14933
889.759	14849
889.883	14800
890.006	14727
890.13	14933
890.254	14644
890.377	14644
890.501	14507
890.624	14454
890.748	14651
890.871	14415
890.995	14415
891.118	14374
891.241	14408
891.364	14415
891.488	14613
891.611	14556
891.734	14514
891.857	14530
891.98	14450
892.103	14587
892.226	14469
892.349	14404
892.471	14301
892.594	14404
892.717	14454
892.839	14400
892.962	14400
893.085	14549
893.207	14492
893.33	14324
893.452	14408
893.575	14469
893.697	14434
893.819	14545
893.941	14659
894.064	14526
894.186	14396
894.308	14400
894.43	14556
894.552	14640
894.674	14621
894.796	14511
894.918	14617
895.04	14434
895.161	14541
895.283	14564
895.405	14385
895.526	14492
895.648	14560
895.769	14579
895.891	14552
896.012	14598
896.134	14602
896.255	14674
896.376	14575
896.498	14560
896.619	14579
896.74	14549
896.861	14648
896.982	14929
897.103	15039
897.224	14906
897.345	14876
897.466	14781
897.587	14918
897.708	15020
897.828	14792
897.949	14785
898.07	14727
898.19	14792
898.311	15020
898.431	14807
898.552	14925
898.672	14933
898.792	14994
898.913	14948
899.033	14872
899.153	14735
899.273	14667
899.393	14606
899.513	14788
899.633	14887
899.753	14838
899.873	14689
899.993	14807
900.113	14880
900.232	14785
900.352	14777
900.472	14758
900.591	14678
900.711	14655
900.83	14606
900.95	14743
901.069	14754
901.189	14571
901.308	14431
901.427	14267
901.546	14305
901.665	14332
901.784	14301
901.904	14202
902.023	14142
902.141	13925
902.26	13890
902.379	13982
902.498	13894
902.617	13845
902.735	13849
902.854	13856
902.973	13772
903.091	13613
903.21	13556
903.328	13559
903.446	13502
903.565	13358
903.683	13480
903.801	13289
903.919	13369
904.038	13350
904.156	13324
904.274	13255
904.392	13259
904.51	13251
904.627	13331
904.745	13312
904.863	13274
904.981	13152
905.098	12897
905.216	12970
905.334	12970
905.451	12966
905.569	12932
905.686	13034
905.803	12901
905.921	12806
906.038	12829
906.155	12821
906.272	12585
906.389	12669
906.506	12486
906.623	12483
906.74	12540
906.857	12334
906.974	12456
907.091	12684
907.208	12635
907.324	12582
907.441	12399
907.557	12273
907.674	12232
907.79	12239
907.907	12239
908.023	12315
908.139	12216
908.256	12152
908.372	12159
908.488	12167
908.604	12068
908.72	11977
908.836	12076
908.952	12076
909.068	12015
909.184	12125
909.3	12007
909.415	12019
909.531	12049
909.647	11840
909.762	11813
909.878	11729
909.993	11828
910.108	11821
910.224	11737
910.339	11790
910.454	11771
910.57	11600
910.685	11554
910.8	11836
910.915	11836
911.03	11611
911.145	11474
911.259	11562
911.374	11402
911.489	11425
911.604	11296
911.718	11261
911.833	11265
911.947	11159
912.062	11029
912.176	11201
912.291	11315
912.405	11277
912.519	11440
912.633	11478
912.748	11223
912.862	11284
912.976	11208
913.09	11006
913.204	11086
913.318	11174
913.431	11216
913.545	11261
913.659	11201
913.772	11159
913.886	11029
914	10980
914.113	11159
914.226	11086
914.34	11083
914.453	10911
914.566	11010
914.68	10896
914.793	10908
914.906	10710
915.019	10656
915.132	10649
915.245	10683
915.358	10763
915.47	10778
915.583	10714
915.696	10824
915.809	10869
915.921	10896
916.034	10843
916.146	10675
916.259	10694
916.371	10801
916.483	10687
916.595	10626
916.708	10706
916.82	10656
916.932	10721
917.044	10649
917.156	10550
917.268	10516
917.38	10569
917.491	10489
917.603	10550
917.715	10603
917.826	10656
917.938	10500
918.049	10432
918.161	10516
918.272	10668
918.384	10660
918.495	10584
918.606	10394
918.717	10367
918.828	10432
918.939	10459
919.05	10363
919.161	10432
919.272	10234
919.383	10265
919.494	10436
919.604	10710
919.715	10405
919.826	10322
919.936	10409
920.047	10474
920.157	10424
920.267	10660
920.378	10462
920.488	10375
920.598	10691
920.708	10782
920.818	10675
920.928	10615
921.038	10828
921.148	10778
921.258	10497
921.368	10360
921.477	10295
921.587	10363
921.697	10162
921.806	10333
921.916	10158
922.025	9975
922.134	9975
922.244	9915
922.353	10044
922.462	9937
922.571	9854
922.68	9724
922.789	9644
922.898	9667
923.007	9561
923.116	9774
923.224	9694
923.333	9663
923.442	9606
923.55	9557
923.659	9584
923.767	9580
923.876	9496
923.984	9618
924.092	9424
924.201	9542
924.309	9618
924.417	9519
924.525	9485
924.633	9553
924.741	10280
924.849	9306
924.956	9450
925.064	9291
925.172	9249
925.279	9268
925.387	9302
925.494	9302
925.602	9458
925.709	9370
925.816	9336
925.924	9321
926.031	9374
926.138	9420
926.245	9382
926.352	9237
926.459	9329
926.566	9351
926.673	9348
926.779	9169
926.886	9112
926.993	9051
927.099	9028
927.206	8948
927.312	9001
927.419	9089
927.525	8994
927.631	9020
927.737	8948
927.843	8910
927.95	8781
928.056	8960
928.162	8937
928.267	8933
928.373	9595
928.479	9077
928.585	8811
928.69	8857
928.796	8944
928.901	8899
929.007	8735
929.112	8872
929.218	8754
929.323	8830
929.428	8773
929.533	8853
929.638	8648
929.743	8735
929.848	8712
929.953	8651
930.058	8640
930.163	8461
930.267	8476
930.372	8712
930.477	8480
930.581	8792
930.685	8613
930.79	8469
930.894	8495
930.998	8423
931.103	8590
931.207	8294
931.311	8138
931.415	8103
931.519	7932
931.623	7902
