Data from test_V78500241_1345.txt Node
Date: Fri Mar 25 14:43:04 CST 2022
User: usil
Spectrometer: V785-0024
Trigger mode: 0
Integration Time (sec): 4.000000E-1
Scans to average: 1
Nonlinearity correction enabled: false
Boxcar width: 0
Storing dark spectrum: false
XAxis mode: Wavelengths
Number of Pixels in Spectrum: 1024
>>>>>Begin Spectral Data<<<<<
801.071	22394
801.214	22295
801.356	22124
801.499	21804
801.641	21713
801.783	21827
801.926	21797
802.068	21679
802.211	21652
802.353	21583
802.496	21340
802.638	21214
802.78	21237
802.923	21123
803.065	21062
803.208	21051
803.35	21127
803.492	21279
803.635	21184
803.777	21089
803.919	21146
804.061	21397
804.204	21070
804.346	21070
804.488	20895
804.63	21039
804.773	20887
804.915	21001
805.057	21085
805.199	20952
805.341	21131
805.483	21116
805.626	21043
805.768	21074
805.91	21017
806.052	20982
806.194	20960
806.336	21131
806.478	20948
806.62	20990
806.762	21146
806.904	21249
807.046	21469
807.188	21351
807.33	21389
807.472	21530
807.614	21226
807.756	21359
807.898	21245
808.04	21184
808.182	21245
808.324	21256
808.465	21211
808.607	21538
808.749	21576
808.891	21717
809.033	21736
809.174	21838
809.316	21603
809.458	21587
809.6	21420
809.741	21580
809.883	21656
810.025	21530
810.166	21622
810.308	21572
810.45	21500
810.591	21580
810.733	21393
810.875	21279
811.016	21127
811.158	21214
811.299	21340
811.441	21264
811.582	21294
811.724	21298
811.865	21226
812.007	21173
812.148	21192
812.29	21237
812.431	21401
812.573	21500
812.714	21561
812.855	21660
812.997	21743
813.138	21953
813.279	21762
813.421	21675
813.562	21557
813.703	21454
813.845	21348
813.986	21127
814.127	20891
814.268	20739
814.41	20743
814.551	20727
814.692	20701
814.833	20769
814.974	20716
815.115	20762
815.256	20674
815.397	20476
815.539	20492
815.68	20469
815.821	20419
815.962	20564
816.103	20476
816.244	20320
816.385	20290
816.526	20149
816.666	20073
816.807	19890
816.948	20050
817.089	20016
817.23	20020
817.371	19917
817.512	19986
817.653	19883
817.793	19795
817.934	19932
818.075	19833
818.216	19936
818.356	19803
818.497	19734
818.638	19594
818.778	19491
818.919	19727
819.06	19544
819.2	19677
819.341	19715
819.481	19864
819.622	19928
819.762	20035
819.903	19997
820.043	20043
820.184	19715
820.324	19830
820.465	19826
820.605	19818
820.746	19852
820.886	19753
821.026	19826
821.167	19852
821.307	19925
821.447	19860
821.588	19738
821.728	19559
821.868	19411
822.008	19160
822.149	19240
822.289	19266
822.429	18954
822.569	19069
822.709	18947
822.849	18757
822.99	18749
823.13	18791
823.27	18753
823.41	18620
823.55	18582
823.69	18509
823.83	18688
823.97	18547
824.11	18475
824.25	18235
824.389	18308
824.529	18410
824.669	18369
824.809	18418
824.949	18479
825.089	18380
825.228	18388
825.368	18178
825.508	18167
825.648	18152
825.787	18266
825.927	18247
826.067	18152
826.206	18079
826.346	18247
826.485	18091
826.625	18133
826.765	18304
826.904	18136
827.044	18083
827.183	17836
827.323	17843
827.462	17973
827.601	17874
827.741	17847
827.88	17973
828.02	17726
828.159	17847
828.298	17908
828.437	17874
828.577	17764
828.716	17916
828.855	17821
828.994	17604
829.134	17661
829.273	17672
829.412	17577
829.551	17482
829.69	17642
829.829	17608
829.968	17729
830.107	17691
830.246	17627
830.385	17634
830.524	17505
830.663	17425
830.802	17334
830.941	17299
831.08	17254
831.219	17368
831.357	17315
831.496	17471
831.635	17277
831.774	17197
831.913	17166
832.051	16938
832.19	16972
832.329	17094
832.467	17006
832.606	16904
832.744	16965
832.883	16984
833.022	16991
833.16	17029
833.299	16999
833.437	16908
833.576	17075
833.714	17014
833.852	16965
833.991	16995
834.129	17075
834.267	17113
834.406	16991
834.544	17064
834.682	16934
834.821	16957
834.959	17174
835.097	16995
835.235	17067
835.373	17071
835.511	17025
835.65	16900
835.788	16919
835.926	16725
836.064	16782
836.202	16752
836.34	16965
836.478	16919
836.615	16904
836.753	16896
836.891	16980
837.029	17022
837.167	16892
837.305	16881
837.443	16786
837.58	16805
837.718	16835
837.856	16767
837.993	16774
838.131	16786
838.269	16683
838.406	16679
838.544	16660
838.681	16478
838.819	16318
838.956	16295
839.094	16223
839.231	16253
839.369	16485
839.506	16691
839.643	16607
839.781	16280
839.918	16253
840.055	16150
840.193	16230
840.33	16474
840.467	16280
840.604	16192
840.742	16481
840.879	16112
841.016	16101
841.153	16196
841.29	16394
841.427	16356
841.564	16314
841.701	16284
841.838	16226
841.975	16177
842.112	16135
842.249	16128
842.385	16021
842.522	16291
842.659	16158
842.796	15983
842.933	16097
843.069	15941
843.206	16002
843.343	16063
843.479	16086
843.616	16082
843.752	15854
843.889	15800
844.025	16017
844.162	15903
844.298	15998
844.435	15846
844.571	15793
844.708	15873
844.844	16055
844.98	16006
845.117	16074
845.253	15911
845.389	15774
845.525	15873
845.661	15895
845.798	15808
845.934	15994
846.07	15816
846.206	15960
846.342	15987
846.478	15869
846.614	15701
846.75	15523
846.886	15416
847.022	15561
847.158	15504
847.294	15500
847.429	15439
847.565	15454
847.701	15717
847.837	15142
847.972	15097
848.108	15275
848.244	15260
848.379	15089
848.515	14952
848.65	15043
848.786	15001
848.921	15024
849.057	15150
849.192	15192
849.328	15116
849.463	15077
849.598	15001
849.734	14944
849.869	14918
850.004	14857
850.14	14819
850.275	14887
850.41	14720
850.545	14826
850.68	14727
850.815	14830
850.95	14834
851.085	15005
851.22	14819
851.355	14891
851.49	14724
851.625	14705
851.76	14670
851.895	14670
852.03	14583
852.165	14762
852.299	14804
852.434	14845
852.569	14777
852.703	14842
852.838	14811
852.973	14788
853.107	14887
853.242	14716
853.376	14640
853.511	14613
853.645	14564
853.78	14716
853.914	14743
854.048	14617
854.183	14617
854.317	14629
854.451	14838
854.585	14610
854.72	14552
854.854	14659
854.988	14549
855.122	14621
855.256	14537
855.39	14720
855.524	14716
855.658	14701
855.792	14686
855.926	14720
856.06	14651
856.194	14678
856.327	14670
856.461	14640
856.595	14682
856.729	14526
856.862	14727
856.996	14781
857.13	14804
857.263	14777
857.397	14716
857.53	14758
857.664	14804
857.797	14895
857.931	14724
858.064	14644
858.197	14712
858.331	14617
858.464	14511
858.597	14587
858.731	14632
858.864	14648
858.997	14621
859.13	14636
859.263	14648
859.396	14686
859.529	14552
859.662	14648
859.795	14640
859.928	14697
860.061	14842
860.194	14762
860.327	14640
860.46	14670
860.592	14686
860.725	14830
860.858	14632
860.99	14632
861.123	14651
861.256	14560
861.388	14621
861.521	15264
861.653	14617
861.786	14377
861.918	14514
862.05	14526
862.183	14587
862.315	14644
862.447	14724
862.58	14606
862.712	14514
862.844	14404
862.976	14552
863.108	14469
863.24	14838
863.372	14286
863.504	14377
863.636	14492
863.768	14514
863.9	14374
864.032	14290
864.164	14366
864.296	14374
864.428	14537
864.559	14545
864.691	14480
864.823	14492
864.954	14488
865.086	14492
865.217	14518
865.349	14362
865.48	14434
865.612	14476
865.743	14511
865.875	14450
866.006	14355
866.137	14427
866.269	14419
866.4	14355
866.531	14374
866.662	14320
866.793	14412
866.924	14328
867.055	14438
867.186	14469
867.317	14400
867.448	14309
867.579	14355
867.71	14332
867.841	14229
867.972	14476
868.103	14320
868.233	14442
868.364	14385
868.495	14495
868.625	14640
868.756	14659
868.886	14473
869.017	14590
869.147	14750
869.278	14807
869.408	14594
869.539	14651
869.669	14762
869.799	14689
869.929	14826
870.06	14777
870.19	15001
870.32	14880
870.45	14914
870.58	15051
870.71	15142
870.84	15112
870.97	15058
871.1	15036
871.23	15222
871.36	15268
871.489	15070
871.619	15211
871.749	15211
871.879	15378
872.008	15408
872.138	15310
872.267	15214
872.397	15184
872.526	15074
872.656	15024
872.785	15047
872.915	15260
873.044	15294
873.173	15245
873.303	15264
873.432	15294
873.561	15397
873.69	15336
873.819	15260
873.948	15458
874.077	15283
874.206	15291
874.335	15355
874.464	15382
874.593	15610
874.722	15496
874.851	15652
874.979	15648
875.108	15610
875.237	15557
875.365	15526
875.494	15557
875.623	15732
875.751	15549
875.88	15591
876.008	15800
876.136	15823
876.265	16044
876.393	16162
876.521	16078
876.65	16147
876.778	16010
876.906	15972
877.034	15915
877.162	16040
877.29	15865
877.418	15899
877.546	16116
877.674	15972
877.802	15934
877.93	16059
878.058	16063
878.185	15857
878.313	16051
878.441	15991
878.568	15865
878.696	15934
878.824	16150
878.951	16139
879.079	16257
879.206	16333
879.333	16303
879.461	16169
879.588	16192
879.715	16344
879.842	16402
879.97	16166
880.097	15884
880.224	15956
880.351	15869
880.478	15865
880.605	15835
880.732	15876
880.859	16185
880.986	15838
881.112	15918
881.239	15641
881.366	15675
881.493	15564
881.619	15603
881.746	15538
881.872	15572
881.999	15530
882.125	15641
882.252	15572
882.378	15606
882.505	15751
882.631	15504
882.757	15378
882.883	15447
883.01	15348
883.136	15344
883.262	15268
883.388	15249
883.514	15389
883.64	15447
883.766	15260
883.892	15203
884.018	15275
884.143	15386
884.269	15447
884.395	15203
884.52	15070
884.646	14952
884.772	14975
884.897	15020
885.023	15127
885.148	15233
885.274	15226
885.399	15245
885.524	15154
885.65	15150
885.775	15066
885.9	15032
886.025	15176
886.15	15093
886.275	14941
886.4	14883
886.525	14975
886.65	15089
886.775	15028
886.9	15203
887.025	15203
887.149	15032
887.274	14906
887.399	14815
887.523	14883
887.648	14807
887.773	14811
887.897	14929
888.021	14941
888.146	14804
888.27	15055
888.395	15123
888.519	14944
888.643	14975
888.767	14895
888.891	14868
889.015	14731
889.139	14823
889.263	14701
889.387	14746
889.511	14967
889.635	14880
889.759	14697
889.883	14693
890.006	14727
890.13	14804
890.254	14621
890.377	14731
890.501	14495
890.624	14564
890.748	14636
890.871	14404
890.995	14484
891.118	14324
891.241	14355
891.364	14412
891.488	14514
891.611	14446
891.734	14442
891.857	14495
891.98	14400
892.103	14526
892.226	14492
892.349	14343
892.471	14172
892.594	14396
892.717	14419
892.839	14389
892.962	14366
893.085	14522
893.207	14366
893.33	14317
893.452	14286
893.575	14419
893.697	14431
893.819	14545
893.941	14655
894.064	14499
894.186	14286
894.308	14298
894.43	14465
894.552	14621
894.674	14568
894.796	14400
894.918	14465
895.04	14446
895.161	14556
895.283	14579
895.405	14408
895.526	14484
895.648	14488
895.769	14602
895.891	14522
896.012	14461
896.134	14594
896.255	14575
896.376	14442
896.498	14533
896.619	14594
896.74	14522
896.861	14686
896.982	14918
897.103	14990
897.224	14902
897.345	14773
897.466	14838
897.587	14861
897.708	15047
897.828	14868
897.949	14826
898.07	14750
898.19	14750
898.311	14979
898.431	14880
898.552	14769
898.672	14979
898.792	14990
898.913	14868
899.033	14811
899.153	14648
899.273	14663
899.393	14743
899.513	14777
899.633	14765
899.753	14739
899.873	14686
899.993	14845
900.113	14606
900.232	14773
900.352	14838
900.472	14701
900.591	14617
900.711	14610
900.83	14663
900.95	14724
901.069	14712
901.189	14560
901.308	14267
901.427	14240
901.546	14305
901.665	14313
901.784	14320
901.904	14096
902.023	14050
902.141	13925
902.26	13826
902.379	13902
902.498	13940
902.617	13708
902.735	13818
902.854	13868
902.973	13776
903.091	13540
903.21	13685
903.328	13548
903.446	13445
903.565	13468
903.683	13434
903.801	13331
903.919	13422
904.038	13369
904.156	13274
904.274	13263
904.392	13183
904.51	13228
904.627	13156
904.745	13339
904.863	13304
904.981	12996
905.098	12962
905.216	13023
905.334	12932
905.451	12962
905.569	12962
905.686	12943
905.803	12951
905.921	12772
906.038	12867
906.155	12753
906.272	12578
906.389	12662
906.506	12486
906.623	12551
906.74	12486
906.857	12403
906.974	12475
907.091	12498
907.208	12612
907.324	12486
907.441	12464
907.557	12220
907.674	12235
907.79	12152
907.907	12216
908.023	12289
908.139	12323
908.256	12182
908.372	12239
908.488	12167
908.604	12015
908.72	12007
908.836	12034
908.952	12015
909.068	12049
909.184	12190
909.3	11954
909.415	12015
909.531	12003
909.647	11718
909.762	11798
909.878	11790
909.993	11756
910.108	11771
910.224	11691
910.339	11741
910.454	11684
910.57	11551
910.685	11596
910.8	11859
910.915	11904
911.03	11604
911.145	11516
911.259	11429
911.374	11482
911.489	11364
911.604	11353
911.718	11216
911.833	11280
911.947	11048
912.062	11056
912.176	11204
912.291	11140
912.405	11303
912.519	11414
912.633	11433
912.748	11307
912.862	11258
912.976	11067
913.09	10965
913.204	11052
913.318	11132
913.431	11189
913.545	11159
913.659	11288
913.772	11079
913.886	10980
914	10915
914.113	11117
914.226	11128
914.34	11056
914.453	10885
914.566	11071
914.68	10919
914.793	10957
914.906	10759
915.019	10755
915.132	10599
915.245	10664
915.358	10721
915.47	10778
915.583	10748
915.696	10618
915.809	10850
915.921	10809
916.034	10702
916.146	10649
916.259	10645
916.371	10778
916.483	10729
916.595	10550
916.708	10645
916.82	10615
916.932	10649
917.044	10634
917.156	10584
917.268	10500
917.38	10558
917.491	10459
917.603	10550
917.715	10653
917.826	10584
917.938	10436
918.049	10436
918.161	10535
918.272	10733
918.384	10668
918.495	10523
918.606	10432
918.717	10402
918.828	10405
918.939	10519
919.05	10405
919.161	10413
919.272	10131
919.383	10173
919.494	10554
919.604	10565
919.715	10337
919.826	10268
919.936	10382
920.047	10504
920.157	10402
920.267	10611
920.378	10500
920.488	10379
920.598	10656
920.708	10782
920.818	10535
920.928	10656
921.038	10778
921.148	10641
921.258	10451
921.368	10451
921.477	10280
921.587	10249
921.697	10177
921.806	10185
921.916	10101
922.025	10017
922.134	9945
922.244	9907
922.353	10074
922.462	9907
922.571	9781
922.68	9701
922.789	9728
922.898	9682
923.007	9568
923.116	9709
923.224	9644
923.333	9603
923.442	9492
923.55	9553
923.659	9504
923.767	9545
923.876	9519
923.984	9534
924.092	9488
924.201	9545
924.309	9492
924.417	9595
924.525	9507
924.633	9450
924.741	10440
924.849	9302
924.956	9473
925.064	9355
925.172	9275
925.279	9268
925.387	9370
925.494	9344
925.602	9397
925.709	9344
925.816	9207
925.924	9275
926.031	9370
926.138	9378
926.245	9389
926.352	9222
926.459	9340
926.566	9393
926.673	9329
926.779	9203
926.886	9165
926.993	9028
927.099	8979
927.206	8933
927.312	8990
927.419	9135
927.525	9119
927.631	9097
927.737	8994
927.843	8864
927.95	8788
928.056	8952
928.162	8944
928.267	8986
928.373	9603
928.479	8990
928.585	8766
928.69	8929
928.796	8952
928.901	8762
929.007	8621
929.112	8830
929.218	8804
929.323	8659
929.428	8712
929.533	8895
929.638	8701
929.743	8632
929.848	8731
929.953	8640
930.058	8587
930.163	8465
930.267	8469
930.372	8583
930.477	8408
930.581	8705
930.685	8564
930.79	8446
930.894	8457
930.998	8461
931.103	8503
931.207	8259
931.311	8187
931.415	8123
931.519	7898
931.623	7852
