Data from test_V78500241_520.txt Node
Date: Fri Mar 25 14:37:20 CST 2022
User: usil
Spectrometer: V785-0024
Trigger mode: 0
Integration Time (sec): 4.000000E-1
Scans to average: 1
Nonlinearity correction enabled: false
Boxcar width: 0
Storing dark spectrum: false
XAxis mode: Wavelengths
Number of Pixels in Spectrum: 1024
>>>>>Begin Spectral Data<<<<<
801.071	26948
801.214	26826
801.356	26640
801.499	26541
801.641	26499
801.783	26408
801.926	26537
802.068	26339
802.211	26267
802.353	26103
802.496	25856
802.638	25849
802.78	25989
802.923	25837
803.065	25807
803.208	25811
803.35	25788
803.492	25906
803.635	25947
803.777	25966
803.919	25974
804.061	26396
804.204	25986
804.346	25826
804.488	25849
804.63	25966
804.773	25742
804.915	26012
805.057	26027
805.199	25959
805.341	25982
805.483	26069
805.626	26096
805.768	25906
805.91	26073
806.052	26103
806.194	25921
806.336	26271
806.478	26149
806.62	26298
806.762	26332
806.904	26549
807.046	26815
807.188	26811
807.33	26956
807.472	26944
807.614	26948
807.756	27275
807.898	27211
808.04	27545
808.182	27800
808.324	28535
808.465	28847
808.607	29760
808.749	30049
808.891	30536
809.033	30620
809.174	30216
809.316	29570
809.458	29025
809.6	28280
809.741	28090
809.883	27690
810.025	27534
810.166	27283
810.308	27173
810.45	27154
810.591	26861
810.733	26735
810.875	26530
811.016	26453
811.158	26351
811.299	26488
811.441	26560
811.582	26476
811.724	26301
811.865	26362
812.007	26244
812.148	26252
812.29	26237
812.431	26290
812.573	26598
812.714	26655
812.855	26834
812.997	26883
813.138	26990
813.279	26902
813.421	26689
813.562	26712
813.703	26408
813.845	26408
813.986	26092
814.127	25906
814.268	25799
814.41	25818
814.551	25670
814.692	25860
814.833	25715
814.974	25674
815.115	25772
815.256	25476
815.397	25518
815.539	25514
815.68	25540
815.821	25377
815.962	25388
816.103	25354
816.244	25293
816.385	25168
816.526	25160
816.666	25012
816.807	24878
816.948	24981
817.089	24924
817.23	24890
817.371	24806
817.512	24798
817.653	24810
817.793	24791
817.934	24707
818.075	24783
818.216	24856
818.356	24719
818.497	24578
818.638	24433
818.778	24517
818.919	24418
819.06	24509
819.2	24544
819.341	24696
819.481	24688
819.622	24871
819.762	25008
819.903	24844
820.043	24856
820.184	24939
820.324	24882
820.465	24863
820.605	24859
820.746	24859
820.886	24639
821.026	24730
821.167	24673
821.307	24806
821.447	24661
821.588	24509
821.728	24498
821.868	24353
822.008	24205
822.149	24136
822.289	23996
822.429	23980
822.569	23786
822.709	23665
822.849	23661
822.99	23710
823.13	23543
823.27	23398
823.41	23360
823.55	23280
823.69	23539
823.83	23383
823.97	23288
824.11	23121
824.25	23083
824.389	23140
824.529	23113
824.669	23056
824.809	23151
824.949	23227
825.089	23254
825.228	23185
825.368	22987
825.508	22980
825.648	22999
825.787	23037
825.927	23041
826.067	22965
826.206	22961
826.346	23094
826.485	22987
826.625	22850
826.765	22995
826.904	22953
827.044	22687
827.183	22565
827.323	22493
827.462	22603
827.601	22607
827.741	22603
827.88	22512
828.02	22519
828.159	22512
828.298	22531
828.437	22577
828.577	22554
828.716	22763
828.855	22314
828.994	22443
829.134	22257
829.273	22329
829.412	22166
829.551	22257
829.69	22185
829.829	22325
829.968	22352
830.107	22284
830.246	22101
830.385	22192
830.524	22177
830.663	22067
830.802	22044
830.941	21766
831.08	21835
831.219	21956
831.357	21854
831.496	22063
831.635	21838
831.774	21743
831.913	21603
832.051	21534
832.19	21690
832.329	21698
832.467	21504
832.606	21473
832.744	21504
832.883	21515
833.022	21625
833.16	21583
833.299	21698
833.437	21576
833.576	21690
833.714	21732
833.852	21751
833.991	21838
834.129	21819
834.267	21842
834.406	21690
834.544	21778
834.682	21667
834.821	21690
834.959	21842
835.097	21583
835.235	21713
835.373	21530
835.511	21462
835.65	21393
835.788	21370
835.926	21310
836.064	21081
836.202	21096
836.34	21310
836.478	21386
836.615	21306
836.753	21431
836.891	21382
837.029	21408
837.167	21393
837.305	21351
837.443	21222
837.58	21077
837.718	21260
837.856	21233
837.993	21245
838.131	21184
838.269	21074
838.406	21127
838.544	20975
838.681	20762
838.819	20853
838.956	20716
839.094	20571
839.231	20648
839.369	20872
839.506	21108
839.643	20842
839.781	20564
839.918	20629
840.055	20629
840.193	20583
840.33	20446
840.467	20606
840.604	20549
840.742	20739
840.879	20343
841.016	20461
841.153	20545
841.29	20613
841.427	20629
841.564	20705
841.701	20488
841.838	20286
841.975	20366
842.112	20419
842.249	20317
842.385	20275
842.522	20488
842.659	20298
842.796	20305
842.933	20298
843.069	20046
843.206	20248
843.343	20415
843.479	20305
843.616	20412
843.752	20111
843.889	20062
844.025	20339
844.162	20119
844.298	20210
844.435	20210
844.571	20164
844.708	20172
844.844	20339
844.98	20499
845.117	20427
845.253	20541
845.389	20853
845.525	21359
845.661	22291
845.798	23330
845.934	24536
846.07	24722
846.206	24661
846.342	24034
846.478	22725
846.614	21534
846.75	20670
846.886	20385
847.022	20130
847.158	19986
847.294	19734
847.429	19746
847.565	19578
847.701	19795
847.837	19369
847.972	19187
848.108	19369
848.244	19343
848.379	19069
848.515	19137
848.65	19118
848.786	19084
848.921	19148
849.057	19129
849.192	19103
849.328	19152
849.463	19034
849.598	18966
849.734	18943
849.869	18875
850.004	18840
850.14	18806
850.275	18867
850.41	18802
850.545	18837
850.68	18787
850.815	18817
850.95	18829
851.085	18985
851.22	18977
851.355	18764
851.49	18791
851.625	18700
851.76	18631
851.895	18650
852.03	18654
852.165	18779
852.299	18814
852.434	18966
852.569	18787
852.703	18684
852.838	18768
852.973	18989
853.107	18935
853.242	18802
853.376	18726
853.511	18601
853.645	18620
853.78	18760
853.914	18623
854.048	18642
854.183	18753
854.317	18635
854.451	18833
854.585	18669
854.72	18749
854.854	18768
854.988	18623
855.122	18608
855.256	18426
855.39	18589
855.524	18783
855.658	18681
855.792	18612
855.926	18540
856.06	18681
856.194	18772
856.327	18608
856.461	18525
856.595	18563
856.729	18589
856.862	18795
856.996	18574
857.13	18639
857.263	18719
857.397	18711
857.53	18677
857.664	18589
857.797	18707
857.931	18677
858.064	18620
858.197	18700
858.331	18566
858.464	18460
858.597	18372
858.731	18471
858.864	18528
858.997	18555
859.13	18563
859.263	18665
859.396	18604
859.529	18540
859.662	18540
859.795	18460
859.928	18601
860.061	18650
860.194	18684
860.327	18441
860.46	18517
860.592	18566
860.725	18658
860.858	18642
860.99	18380
861.123	18426
861.256	18540
861.388	18620
861.521	19407
861.653	18414
861.786	18346
861.918	18429
862.05	18479
862.183	18502
862.315	18433
862.447	18677
862.58	18486
862.712	18342
862.844	18357
862.976	18346
863.108	18403
863.24	18684
863.372	18152
863.504	18289
863.636	18194
863.768	18266
863.9	18239
864.032	18300
864.164	18167
864.296	18258
864.428	18311
864.559	18346
864.691	18289
864.823	18429
864.954	18201
865.086	18205
865.217	18205
865.349	18133
865.48	18155
865.612	18163
865.743	18327
865.875	18213
866.006	18053
866.137	18247
866.269	18270
866.4	18228
866.531	18232
866.662	18133
866.793	18144
866.924	18117
867.055	18087
867.186	18022
867.317	18144
867.448	18041
867.579	18098
867.71	18152
867.841	18038
867.972	18136
868.103	18019
868.233	18083
868.364	18072
868.495	18140
868.625	18342
868.756	18410
868.886	18350
869.017	18502
869.147	18498
869.278	18475
869.408	18464
869.539	18289
869.669	18456
869.799	18460
869.929	18460
870.06	18418
870.19	18692
870.32	18719
870.45	18722
870.58	18768
870.71	18817
870.84	18837
870.97	18791
871.1	18840
871.23	18920
871.36	18840
871.489	18829
871.619	19019
871.749	18909
871.879	19072
872.008	19084
872.138	19000
872.267	19053
872.397	18852
872.526	18798
872.656	18894
872.785	18875
872.915	19000
873.044	19228
873.173	18989
873.303	19110
873.432	19084
873.561	19118
873.69	19042
873.819	19065
873.948	19114
874.077	19008
874.206	19038
874.335	19118
874.464	19088
874.593	19430
874.722	19297
874.851	19457
874.979	19464
875.108	19369
875.237	19278
875.365	19289
875.494	19438
875.623	19537
875.751	19335
875.88	19464
876.008	19525
876.136	19738
876.265	19875
876.393	19967
876.521	19925
876.65	19894
876.778	19879
876.906	19864
877.034	19662
877.162	19955
877.29	19746
877.418	19970
877.546	19890
877.674	19894
877.802	19947
877.93	20062
878.058	20069
878.185	19765
878.313	20107
878.441	20237
878.568	20054
878.696	20294
878.824	20480
878.951	20765
879.079	21039
879.206	21382
879.333	21781
879.461	22029
879.588	22211
879.715	22291
879.842	22306
879.97	21785
880.097	21032
880.224	20925
880.351	20636
880.478	20499
880.605	20324
880.732	20351
880.859	20564
880.986	20336
881.112	20229
881.239	20062
881.366	19944
881.493	19864
881.619	19860
881.746	19852
881.872	19814
881.999	19807
882.125	19723
882.252	19947
882.378	19909
882.505	20073
882.631	19845
882.757	19674
882.883	19689
883.01	19662
883.136	19594
883.262	19491
883.388	19422
883.514	19734
883.64	19784
883.766	19647
883.892	19476
884.018	19487
884.143	19521
884.269	19639
884.395	19297
884.52	19358
884.646	19415
884.772	19297
884.897	19190
885.023	19422
885.148	19430
885.274	19434
885.399	19381
885.524	19369
885.65	19110
885.775	19270
885.9	19168
886.025	19320
886.15	19190
886.275	19217
886.4	19050
886.525	19126
886.65	19019
886.775	18996
886.9	19225
887.025	19274
887.149	19019
887.274	18814
887.399	18776
887.523	18665
887.648	18661
887.773	18661
887.897	18810
888.021	18745
888.146	18688
888.27	18730
888.395	18791
888.519	18700
888.643	18787
888.767	18620
888.891	18509
889.015	18456
889.139	18486
889.263	18330
889.387	18513
889.511	18528
889.635	18483
889.759	18372
889.883	18216
890.006	18365
890.13	18388
890.254	18296
890.377	18319
890.501	18072
890.624	18049
890.748	18209
890.871	17984
890.995	17999
891.118	17904
891.241	17969
891.364	17889
891.488	18045
891.611	17912
891.734	17901
891.857	18041
891.98	17916
892.103	17912
892.226	17958
892.349	17851
892.471	17699
892.594	17878
892.717	17859
892.839	17745
892.962	17958
893.085	17942
893.207	17832
893.33	17623
893.452	17646
893.575	17843
893.697	17855
893.819	17973
893.941	18022
894.064	18011
894.186	17707
894.308	17771
894.43	17885
894.552	17973
894.674	17916
894.796	17710
894.918	17813
895.04	17764
895.161	17923
895.283	17752
895.405	17676
895.526	17767
895.648	17707
895.769	17775
895.891	17942
896.012	17798
896.134	17870
896.255	17832
896.376	17901
896.498	17847
896.619	17878
896.74	17840
896.861	17958
896.982	18087
897.103	18281
897.224	18167
897.345	18087
897.466	18026
897.587	18026
897.708	18140
897.828	18083
897.949	18057
898.07	17893
898.19	18030
898.311	18178
898.431	17965
898.552	18076
898.672	18049
898.792	18106
898.913	18091
899.033	17901
899.153	17798
899.273	17684
899.393	17813
899.513	17809
899.633	17847
899.753	17771
899.873	17843
899.993	17828
900.113	17729
900.232	17828
900.352	17809
900.472	17695
900.591	17532
900.711	17577
900.83	17566
900.95	17794
901.069	17790
901.189	17661
901.308	17326
901.427	17231
901.546	17223
901.665	17311
901.784	17216
901.904	17231
902.023	17010
902.141	16889
902.26	16771
902.379	16847
902.498	16771
902.617	16774
902.735	16771
902.854	16717
902.973	16717
903.091	16478
903.21	16386
903.328	16485
903.446	16447
903.565	16234
903.683	16299
903.801	16135
903.919	16188
904.038	16230
904.156	16044
904.274	16112
904.392	16059
904.51	16063
904.627	15937
904.745	16101
904.863	16051
904.981	15778
905.098	15675
905.216	15667
905.334	15781
905.451	15671
905.569	15705
905.686	15713
905.803	15698
905.921	15526
906.038	15580
906.155	15549
906.272	15351
906.389	15389
906.506	15249
906.623	15218
906.74	15123
906.857	14956
906.974	15119
907.091	15294
907.208	15302
907.324	15294
907.441	15150
907.557	14986
907.674	14914
907.79	14868
907.907	14960
908.023	14937
908.139	14998
908.256	14857
908.372	14845
908.488	14781
908.604	14724
908.72	14648
908.836	14655
908.952	14705
909.068	14625
909.184	14697
909.3	14701
909.415	14606
909.531	14587
909.647	14450
909.762	14431
909.878	14328
909.993	14488
910.108	14275
910.224	14298
910.339	14415
910.454	14271
910.57	14206
910.685	14119
910.8	14434
910.915	14351
911.03	14168
911.145	14039
911.259	13944
911.374	14073
911.489	13944
911.604	13845
911.718	13727
911.833	13674
911.947	13620
912.062	13559
912.176	13731
912.291	13780
912.405	13693
912.519	13951
912.633	13913
912.748	13715
912.862	13757
912.976	13502
913.09	13521
913.204	13518
913.318	13647
913.431	13704
913.545	13685
913.659	13700
913.772	13491
913.886	13384
914	13369
914.113	13422
914.226	13521
914.34	13529
914.453	13304
914.566	13521
914.68	13339
914.793	13400
914.906	13110
915.019	13012
915.132	13034
915.245	13183
915.358	13133
915.47	13133
915.583	13015
915.696	13110
915.809	13183
915.921	13251
916.034	13107
916.146	13046
916.259	12981
916.371	13061
916.483	13050
916.595	12985
916.708	12973
916.82	12954
916.932	12993
917.044	12913
917.156	12871
917.268	12867
917.38	12856
917.491	12776
917.603	12905
917.715	12894
917.826	12890
917.938	12730
918.049	12665
918.161	12814
918.272	12806
918.384	12802
918.495	12848
918.606	12650
918.717	12555
918.828	12635
918.939	12639
919.05	12544
919.161	12608
919.272	12281
919.383	12384
919.494	12627
919.604	12722
919.715	12593
919.826	12456
919.936	12509
920.047	12665
920.157	12585
920.267	12662
920.378	12650
920.488	12509
920.598	12620
920.708	12916
920.818	12745
920.928	12734
921.038	12814
921.148	12802
921.258	12509
921.368	12437
921.477	12338
921.587	12323
921.697	12270
921.806	12292
921.916	12224
922.025	12057
922.134	11958
922.244	11893
922.353	12072
922.462	11950
922.571	11866
922.68	11646
922.789	11638
922.898	11665
923.007	11573
923.116	11661
923.224	11608
923.333	11665
923.442	11604
923.55	11471
923.659	11474
923.767	11627
923.876	11490
923.984	11482
924.092	11406
924.201	11474
924.309	11417
924.417	11448
924.525	11398
924.633	11353
924.741	12163
924.849	11185
924.956	11246
925.064	11147
925.172	11140
925.279	11220
925.387	11261
925.494	11155
925.602	11368
925.709	11311
925.816	11132
925.924	11147
926.031	11273
926.138	11170
926.245	11193
926.352	11037
926.459	11208
926.566	11296
926.673	11094
926.779	10904
926.886	10949
926.993	10801
927.099	10843
927.206	10816
927.312	10759
927.419	10915
927.525	10835
927.631	10801
927.737	10660
927.843	10611
927.95	10561
928.056	10649
928.162	10721
928.267	10714
928.373	11212
928.479	10771
928.585	10474
928.69	10683
928.796	10710
928.901	10542
929.007	10367
929.112	10550
929.218	10531
929.323	10440
929.428	10367
929.533	10554
929.638	10447
929.743	10356
929.848	10459
929.953	10390
930.058	10299
930.163	10242
930.267	10162
930.372	10276
930.477	10181
930.581	10333
930.685	10192
930.79	10055
930.894	10078
930.998	10025
931.103	10169
931.207	9861
931.311	9755
931.415	9622
931.519	9466
931.623	9443
