Data from test_V78500241_478.txt Node
Date: Fri Mar 25 14:37:02 CST 2022
User: usil
Spectrometer: V785-0024
Trigger mode: 0
Integration Time (sec): 4.000000E-1
Scans to average: 1
Nonlinearity correction enabled: false
Boxcar width: 0
Storing dark spectrum: false
XAxis mode: Wavelengths
Number of Pixels in Spectrum: 1024
>>>>>Begin Spectral Data<<<<<
801.071	26575
801.214	26499
801.356	26183
801.499	26092
801.641	25879
801.783	25890
801.926	25906
802.068	25902
802.211	25814
802.353	25693
802.496	25533
802.638	25510
802.78	25559
802.923	25460
803.065	25403
803.208	25468
803.35	25430
803.492	25540
803.635	25575
803.777	25643
803.919	25529
804.061	25841
804.204	25605
804.346	25502
804.488	25426
804.63	25472
804.773	25335
804.915	25502
805.057	25601
805.199	25552
805.341	25415
805.483	25468
805.626	25590
805.768	25438
805.91	25487
806.052	25472
806.194	25358
806.336	25578
806.478	25415
806.62	25529
806.762	25628
806.904	25746
807.046	25875
807.188	25909
807.33	25864
807.472	25887
807.614	25795
807.756	25879
807.898	25689
808.04	25628
808.182	25594
808.324	25677
808.465	25674
808.607	25845
808.749	26043
808.891	26115
809.033	26210
809.174	26020
809.316	26001
809.458	26001
809.6	25837
809.741	26035
809.883	26088
810.025	26157
810.166	25989
810.308	26134
810.45	26145
810.591	25986
810.733	25989
810.875	25902
811.016	25734
811.158	25613
811.299	25719
811.441	25955
811.582	25879
811.724	25913
811.865	25731
812.007	25780
812.148	25788
812.29	25883
812.431	25993
812.573	25978
812.714	26138
812.855	26145
812.997	26339
813.138	26480
813.279	26294
813.421	26263
813.562	26305
813.703	26069
813.845	25940
813.986	25582
814.127	25578
814.268	25384
814.41	25525
814.551	25365
814.692	25483
814.833	25221
814.974	25247
815.115	25297
815.256	25069
815.397	25187
815.539	25202
815.68	25187
815.821	25114
815.962	25095
816.103	24954
816.244	24783
816.385	24753
816.526	24749
816.666	24532
816.807	24399
816.948	24601
817.089	24494
817.23	24494
817.371	24460
817.512	24448
817.653	24399
817.793	24445
817.934	24342
818.075	24532
818.216	24486
818.356	24372
818.497	24319
818.638	24110
818.778	24114
818.919	24243
819.06	24034
819.2	24403
819.341	24311
819.481	24391
819.622	24521
819.762	24654
819.903	24604
820.043	24578
820.184	24616
820.324	24445
820.465	24410
820.605	24536
820.746	24456
820.886	24311
821.026	24376
821.167	24395
821.307	24418
821.447	24308
821.588	24159
821.728	24038
821.868	23954
822.008	23870
822.149	23745
822.289	23794
822.429	23577
822.569	23471
822.709	23463
822.849	23239
822.99	23159
823.13	23227
823.27	23155
823.41	23003
823.55	23044
823.69	23022
823.83	23018
823.97	22866
824.11	22843
824.25	22771
824.389	22877
824.529	22904
824.669	22774
824.809	22820
824.949	22767
825.089	22809
825.228	22946
825.368	22717
825.508	22664
825.648	22710
825.787	22561
825.927	22634
826.067	22500
826.206	22664
826.346	22580
826.485	22599
826.625	22542
826.765	22786
826.904	22679
827.044	22398
827.183	22253
827.323	22265
827.462	22367
827.601	22204
827.741	22253
827.88	22344
828.02	22196
828.159	22177
828.298	22177
828.437	22257
828.577	22238
828.716	22314
828.855	22200
828.994	21998
829.134	22036
829.273	22131
829.412	21994
829.551	21964
829.69	21956
829.829	22006
829.968	22044
830.107	22040
830.246	21934
830.385	21857
830.524	21827
830.663	21732
830.802	21671
830.941	21580
831.08	21576
831.219	21637
831.357	21530
831.496	21709
831.635	21386
831.774	21450
831.913	21450
832.051	21275
832.19	21317
832.329	21275
832.467	21249
832.606	21146
832.744	21100
832.883	21085
833.022	21211
833.16	21207
833.299	21169
833.437	21363
833.576	21207
833.714	21173
833.852	21336
833.991	21230
834.129	21192
834.267	21336
834.406	21142
834.544	21252
834.682	21275
834.821	21146
834.959	21329
835.097	21142
835.235	21291
835.373	21241
835.511	21135
835.65	21089
835.788	21009
835.926	20826
836.064	20895
836.202	21039
836.34	21173
836.478	21233
836.615	20998
836.753	21058
836.891	21020
837.029	21112
837.167	20979
837.305	21005
837.443	20834
837.58	20895
837.718	20994
837.856	20925
837.993	20883
838.131	20914
838.269	20720
838.406	20800
838.544	20686
838.681	20594
838.819	20454
838.956	20358
839.094	20328
839.231	20522
839.369	20488
839.506	20891
839.643	20583
839.781	20434
839.918	20320
840.055	20317
840.193	20214
840.33	20259
840.467	20282
840.604	20298
840.742	20587
840.879	20202
841.016	20305
841.153	20214
841.29	20317
841.427	20259
841.564	20259
841.701	20355
841.838	20225
841.975	20191
842.112	20229
842.249	19970
842.385	19959
842.522	20180
842.659	20043
842.796	19917
842.933	19864
843.069	19909
843.206	19951
843.343	20046
843.479	19970
843.616	19940
843.752	19776
843.889	19712
844.025	19921
844.162	19681
844.298	19833
844.435	19830
844.571	19681
844.708	19803
844.844	19917
844.98	19852
845.117	19833
845.253	19662
845.389	19635
845.525	19772
845.661	19795
845.798	19518
845.934	19651
846.07	19632
846.206	19731
846.342	19738
846.478	19586
846.614	19369
846.75	19365
846.886	19289
847.022	19373
847.158	19324
847.294	19175
847.429	19164
847.565	19069
847.701	19468
847.837	18928
847.972	18867
848.108	18897
848.244	18993
848.379	18821
848.515	18905
848.65	18730
848.786	18856
848.921	18730
849.057	18882
849.192	18890
849.328	18829
849.463	18863
849.598	18825
849.734	18692
849.869	18563
850.004	18555
850.14	18513
850.275	18612
850.41	18414
850.545	18433
850.68	18429
850.815	18544
850.95	18559
851.085	18791
851.22	18566
851.355	18574
851.49	18475
851.625	18494
851.76	18513
851.895	18330
852.03	18376
852.165	18437
852.299	18460
852.434	18490
852.569	18498
852.703	18593
852.838	18536
852.973	18722
853.107	18544
853.242	18464
853.376	18376
853.511	18277
853.645	18281
853.78	18414
853.914	18323
854.048	18216
854.183	18266
854.317	18289
854.451	18570
854.585	18384
854.72	18384
854.854	18418
854.988	18285
855.122	18296
855.256	18076
855.39	18407
855.524	18372
855.658	18445
855.792	18334
855.926	18388
856.06	18376
856.194	18407
856.327	18266
856.461	18247
856.595	18243
856.729	18205
856.862	18452
856.996	18403
857.13	18300
857.263	18559
857.397	18338
857.53	18365
857.664	18311
857.797	18315
857.931	18464
858.064	18338
858.197	18467
858.331	18323
858.464	18235
858.597	18213
858.731	18262
858.864	18235
858.997	18197
859.13	18216
859.263	18304
859.396	18308
859.529	18289
859.662	18289
859.795	18220
859.928	18285
860.061	18365
860.194	18414
860.327	18239
860.46	18285
860.592	18384
860.725	18342
860.858	18391
860.99	18254
861.123	18148
861.256	18277
861.388	18247
861.521	18966
861.653	18079
861.786	18022
861.918	18178
862.05	18273
862.183	18262
862.315	18391
862.447	18365
862.58	18228
862.712	18117
862.844	18011
862.976	18171
863.108	18125
863.24	18361
863.372	17954
863.504	18030
863.636	18034
863.768	18026
863.9	18011
864.032	17927
864.164	17893
864.296	18091
864.428	18114
864.559	18022
864.691	18136
864.823	18102
864.954	17859
865.086	17870
865.217	17916
865.349	17843
865.48	17980
865.612	17878
865.743	18072
865.875	17840
866.006	17863
866.137	17901
866.269	18011
866.4	17904
866.531	17843
866.662	17790
866.793	17726
866.924	17927
867.055	17980
867.186	17920
867.317	17798
867.448	17805
867.579	17729
867.71	17748
867.841	17893
867.972	17901
868.103	17729
868.233	17954
868.364	17741
868.495	18026
868.625	18121
868.756	18224
868.886	17939
869.017	18148
869.147	18205
869.278	18114
869.408	18095
869.539	17996
869.669	18224
869.799	18155
869.929	18133
870.06	18205
870.19	18361
870.32	18494
870.45	18346
870.58	18532
870.71	18414
870.84	18604
870.97	18486
871.1	18563
871.23	18551
871.36	18688
871.489	18532
871.619	18627
871.749	18627
871.879	18757
872.008	18837
872.138	18779
872.267	18597
872.397	18540
872.526	18570
872.656	18464
872.785	18639
872.915	18665
873.044	18791
873.173	18722
873.303	18722
873.432	18711
873.561	18825
873.69	18749
873.819	18734
873.948	18829
874.077	18741
874.206	18741
874.335	18779
874.464	18825
874.593	18985
874.722	18935
874.851	18996
874.979	19053
875.108	19008
875.237	18970
875.365	18924
875.494	18837
875.623	19046
875.751	18932
875.88	19084
876.008	19080
876.136	19236
876.265	19468
876.393	19441
876.521	19689
876.65	19476
876.778	19438
876.906	19354
877.034	19335
877.162	19438
877.29	19274
877.418	19464
877.546	19514
877.674	19365
877.802	19438
877.93	19396
878.058	19388
878.185	19335
878.313	19308
878.441	19472
878.568	19190
878.696	19331
878.824	19358
878.951	19445
879.079	19582
879.206	19643
879.333	19628
879.461	19445
879.588	19746
879.715	19674
879.842	19734
879.97	19464
880.097	19247
880.224	19316
880.351	19259
880.478	19278
880.605	19168
880.732	19095
880.859	19499
880.986	19312
881.112	19236
881.239	19202
881.366	19008
881.493	18867
881.619	18890
881.746	18932
881.872	18829
881.999	18753
882.125	18810
882.252	18973
882.378	18840
882.505	19145
882.631	18825
882.757	18597
882.883	18768
883.01	18639
883.136	18646
883.262	18551
883.388	18475
883.514	18688
883.64	18681
883.766	18646
883.892	18410
884.018	18517
884.143	18589
884.269	18791
884.395	18300
884.52	18380
884.646	18338
884.772	18292
884.897	18300
885.023	18281
885.148	18350
885.274	18410
885.399	18292
885.524	18315
885.65	18232
885.775	18403
885.9	18247
886.025	18273
886.15	18323
886.275	18319
886.4	18213
886.525	18300
886.65	18072
886.775	18308
886.9	18399
887.025	18471
887.149	18228
887.274	18045
887.399	18030
887.523	18030
887.648	18053
887.773	17992
887.897	18125
888.021	18129
888.146	18026
888.27	18174
888.395	18125
888.519	18121
888.643	18114
888.767	18133
888.891	17927
889.015	17889
889.139	17984
889.263	17866
889.387	17958
889.511	18186
889.635	17988
889.759	17836
889.883	17729
890.006	17790
890.13	17897
890.254	17729
890.377	17737
890.501	17657
890.624	17596
890.748	17661
890.871	17611
890.995	17471
891.118	17364
891.241	17486
891.364	17516
891.488	17611
891.611	17581
891.734	17532
891.857	17570
891.98	17493
892.103	17577
892.226	17532
892.349	17471
892.471	17429
892.594	17482
892.717	17429
892.839	17543
892.962	17509
893.085	17532
893.207	17596
893.33	17417
893.452	17299
893.575	17414
893.697	17341
893.819	17611
893.941	17657
894.064	17501
894.186	17318
894.308	17417
894.43	17425
894.552	17623
894.674	17600
894.796	17421
894.918	17433
895.04	17425
895.161	17455
895.283	17596
895.405	17417
895.526	17478
895.648	17452
895.769	17497
895.891	17619
896.012	17547
896.134	17528
896.255	17543
896.376	17444
896.498	17440
896.619	17566
896.74	17554
896.861	17551
896.982	17855
897.103	17969
897.224	17893
897.345	17756
897.466	17691
897.587	17756
897.708	17851
897.828	17809
897.949	17684
898.07	17577
898.19	17726
898.311	17931
898.431	17699
898.552	17756
898.672	17847
898.792	17878
898.913	17836
899.033	17543
899.153	17623
899.273	17535
899.393	17528
899.513	17592
899.633	17474
899.753	17516
899.873	17653
899.993	17459
900.113	17554
900.232	17478
900.352	17452
900.472	17444
900.591	17334
900.711	17398
900.83	17368
900.95	17486
901.069	17429
901.189	17311
901.308	17132
901.427	17014
901.546	17098
901.665	16942
901.784	17079
901.904	16881
902.023	16786
902.141	16428
902.26	16447
902.379	16531
902.498	16527
902.617	16462
902.735	16546
902.854	16489
902.973	16493
903.091	16196
903.21	16204
903.328	16166
903.446	16051
903.565	16067
903.683	16025
903.801	15850
903.919	16021
904.038	15987
904.156	15903
904.274	15884
904.392	15808
904.51	15778
904.627	15869
904.745	15876
904.863	15778
904.981	15526
905.098	15435
905.216	15477
905.334	15576
905.451	15496
905.569	15481
905.686	15412
905.803	15408
905.921	15264
906.038	15405
906.155	15336
906.272	15188
906.389	15119
906.506	15131
906.623	14979
906.74	15081
906.857	15036
906.974	14887
907.091	15074
907.208	15237
907.324	15058
907.441	14864
907.557	14746
907.674	14861
907.79	14724
907.907	14762
908.023	14777
908.139	14689
908.256	14606
908.372	14568
908.488	14579
908.604	14552
908.72	14434
908.836	14564
908.952	14408
909.068	14495
909.184	14560
909.3	14389
909.415	14484
909.531	14469
909.647	14282
909.762	14199
909.878	14168
909.993	14214
910.108	14157
910.224	14168
910.339	14210
910.454	13967
910.57	13986
910.685	13974
910.8	14103
910.915	14138
911.03	14035
911.145	13849
911.259	13784
911.374	13830
911.489	13772
911.604	13662
911.718	13559
911.833	13586
911.947	13544
912.062	13422
912.176	13472
912.291	13647
912.405	13567
912.519	13651
912.633	13715
912.748	13700
912.862	13514
912.976	13422
913.09	13468
913.204	13388
913.318	13419
913.431	13559
913.545	13464
913.659	13472
913.772	13411
913.886	13384
914	13129
914.113	13331
914.226	13426
914.34	13324
914.453	13240
914.566	13388
914.68	13304
914.793	13149
914.906	13034
915.019	12981
915.132	12954
915.245	12985
915.358	13038
915.47	12954
915.583	12916
915.696	12996
915.809	13057
915.921	13171
916.034	12806
916.146	12932
916.259	12935
916.371	12958
916.483	12924
916.595	12829
916.708	12821
916.82	12798
916.932	12810
917.044	12825
917.156	12795
917.268	12692
917.38	12684
917.491	12642
917.603	12669
917.715	12703
917.826	12795
917.938	12681
918.049	12559
918.161	12688
918.272	12798
918.384	12776
918.495	12711
918.606	12486
918.717	12410
918.828	12513
918.939	12479
919.05	12452
919.161	12475
919.272	12281
919.383	12300
919.494	12566
919.604	12654
919.715	12498
919.826	12323
919.936	12464
920.047	12585
920.157	12429
920.267	12612
920.378	12414
920.488	12395
920.598	12703
920.708	12772
920.818	12547
920.928	12612
921.038	12764
921.148	12665
921.258	12445
921.368	12254
921.477	12209
921.587	12190
921.697	12110
921.806	12270
921.916	12110
922.025	12007
922.134	11916
922.244	11851
922.353	11939
922.462	11688
922.571	11684
922.68	11570
922.789	11547
922.898	11600
923.007	11539
923.116	11600
923.224	11592
923.333	11566
923.442	11417
923.55	11303
923.659	11353
923.767	11433
923.876	11326
923.984	11467
924.092	11280
924.201	11337
924.309	11391
924.417	11250
924.525	11239
924.633	11368
924.741	12148
924.849	11090
924.956	11265
925.064	11086
925.172	11041
925.279	11086
925.387	11102
925.494	11166
925.602	11185
925.709	11181
925.816	11083
925.924	11105
926.031	11109
926.138	11083
926.245	11075
926.352	10984
926.459	11029
926.566	11147
926.673	10976
926.779	10911
926.886	10866
926.993	10744
927.099	10668
927.206	10694
927.312	10691
927.419	10816
927.525	10721
927.631	10771
927.737	10527
927.843	10668
927.95	10470
928.056	10554
928.162	10672
928.267	10706
928.373	11113
928.479	10649
928.585	10455
928.69	10440
928.796	10603
928.901	10428
929.007	10367
929.112	10478
929.218	10466
929.323	10402
929.428	10322
929.533	10428
929.638	10287
929.743	10253
929.848	10375
929.953	10272
930.058	10219
930.163	10040
930.267	10063
930.372	10234
930.477	10051
930.581	10211
930.685	10131
930.79	9937
930.894	10044
930.998	9911
931.103	10021
931.207	9743
931.311	9701
931.415	9603
931.519	9351
931.623	9435
