Data from test_V78500241_1958.txt Node
Date: Fri Mar 25 14:47:20 CST 2022
User: usil
Spectrometer: V785-0024
Trigger mode: 0
Integration Time (sec): 4.000000E-1
Scans to average: 1
Nonlinearity correction enabled: false
Boxcar width: 0
Storing dark spectrum: false
XAxis mode: Wavelengths
Number of Pixels in Spectrum: 1024
>>>>>Begin Spectral Data<<<<<
801.071	22063
801.214	21873
801.356	21778
801.499	21610
801.641	21504
801.783	21428
801.926	21367
802.068	21374
802.211	21332
802.353	21283
802.496	21104
802.638	20815
802.78	20929
802.923	20796
803.065	20769
803.208	20724
803.35	20864
803.492	20883
803.635	20914
803.777	20785
803.919	20815
804.061	21100
804.204	20845
804.346	20716
804.488	20758
804.63	20727
804.773	20689
804.915	20754
805.057	20944
805.199	20655
805.341	20712
805.483	20823
805.626	20765
805.768	20590
805.91	20678
806.052	20720
806.194	20621
806.336	20883
806.478	20819
806.62	20651
806.762	20743
806.904	20804
807.046	21230
807.188	20929
807.33	21013
807.472	21108
807.614	20906
807.756	20921
807.898	20887
808.04	20686
808.182	20739
808.324	20853
808.465	20773
808.607	20910
808.749	21116
808.891	21051
809.033	21222
809.174	21249
809.316	21020
809.458	21017
809.6	21085
809.741	21127
809.883	21146
810.025	21230
810.166	21157
810.308	21256
810.45	21169
810.591	21089
810.733	20994
810.875	20948
811.016	20838
811.158	20659
811.299	20880
811.441	20853
811.582	20895
811.724	20902
811.865	20830
812.007	20849
812.148	20811
812.29	20842
812.431	20948
812.573	21135
812.714	21260
812.855	21351
812.997	21355
813.138	21534
813.279	21336
813.421	21233
813.562	21287
813.703	21039
813.845	21077
813.986	20811
814.127	20545
814.268	20518
814.41	20404
814.551	20404
814.692	20423
814.833	20256
814.974	20298
815.115	20317
815.256	20126
815.397	20206
815.539	20084
815.68	20214
815.821	20054
815.962	20096
816.103	20092
816.244	20024
816.385	19868
816.526	19940
816.666	19791
816.807	19525
816.948	19620
817.089	19586
817.23	19594
817.371	19533
817.512	19537
817.653	19491
817.793	19434
817.934	19430
818.075	19597
818.216	19464
818.356	19567
818.497	19358
818.638	19133
818.778	19285
818.919	19221
819.06	19251
819.2	19335
819.341	19388
819.481	19434
819.622	19548
819.762	19750
819.903	19609
820.043	19590
820.184	19540
820.324	19495
820.465	19575
820.605	19483
820.746	19643
820.886	19358
821.026	19491
821.167	19460
821.307	19381
821.447	19381
821.588	19384
821.728	19282
821.868	19126
822.008	18848
822.149	19000
822.289	18768
822.429	18646
822.569	18582
822.709	18692
822.849	18346
822.99	18388
823.13	18433
823.27	18369
823.41	18273
823.55	18171
823.69	18182
823.83	18129
823.97	18053
824.11	17980
824.25	17923
824.389	17977
824.529	18034
824.669	17969
824.809	18098
824.949	18068
825.089	18114
825.228	17935
825.368	17836
825.508	17775
825.648	17813
825.787	17821
825.927	17756
826.067	17687
826.206	17676
826.346	17863
826.485	17748
826.625	17668
826.765	17977
826.904	17798
827.044	17581
827.183	17543
827.323	17486
827.462	17600
827.601	17478
827.741	17490
827.88	17490
828.02	17440
828.159	17391
828.298	17364
828.437	17459
828.577	17292
828.716	17566
828.855	17421
828.994	17261
829.134	17147
829.273	17200
829.412	17140
829.551	17109
829.69	17178
829.829	17170
829.968	17360
830.107	17391
830.246	17216
830.385	17132
830.524	17071
830.663	17060
830.802	17014
830.941	16839
831.08	16801
831.219	16896
831.357	16904
831.496	17178
831.635	16824
831.774	16698
831.913	16748
832.051	16683
832.19	16580
832.329	16702
832.467	16634
832.606	16512
832.744	16508
832.883	16596
833.022	16462
833.16	16577
833.299	16596
833.437	16694
833.576	16569
833.714	16592
833.852	16542
833.991	16569
834.129	16656
834.267	16630
834.406	16626
834.544	16668
834.682	16641
834.821	16637
834.959	16694
835.097	16565
835.235	16717
835.373	16626
835.511	16622
835.65	16451
835.788	16466
835.926	16363
836.064	16310
836.202	16394
836.34	16447
836.478	16538
836.615	16451
836.753	16626
836.891	16554
837.029	16596
837.167	16440
837.305	16470
837.443	16386
837.58	16356
837.718	16390
837.856	16394
837.993	16325
838.131	16303
838.269	16234
838.406	16371
838.544	16238
838.681	16082
838.819	16097
838.956	15953
839.094	15960
839.231	16029
839.369	16074
839.506	16287
839.643	16131
839.781	15968
839.918	15922
840.055	15975
840.193	15880
840.33	15895
840.467	15907
840.604	15937
840.742	16192
840.879	15804
841.016	15831
841.153	15842
841.29	16010
841.427	16040
841.564	16017
841.701	15937
841.838	15911
841.975	15823
842.112	15869
842.249	15724
842.385	15797
842.522	15884
842.659	15766
842.796	15667
842.933	15873
843.069	15622
843.206	15644
843.343	15857
843.479	15698
843.616	15701
843.752	15496
843.889	15504
844.025	15625
844.162	15439
844.298	15629
844.435	15542
844.571	15526
844.708	15519
844.844	15690
844.98	15671
845.117	15564
845.253	15530
845.389	15428
845.525	15454
845.661	15428
845.798	15275
845.934	15367
846.07	15233
846.206	15351
846.342	15420
846.478	15405
846.614	15146
846.75	15066
846.886	15017
847.022	15135
847.158	15062
847.294	15070
847.429	15051
847.565	15028
847.701	15370
847.837	14750
847.972	14727
848.108	14895
848.244	14849
848.379	14834
848.515	14773
848.65	14648
848.786	14701
848.921	14712
849.057	14788
849.192	14686
849.328	14762
849.463	14750
849.598	14750
849.734	14541
849.869	14537
850.004	14469
850.14	14556
850.275	14503
850.41	14362
850.545	14317
850.68	14355
850.815	14503
850.95	14381
851.085	14693
851.22	14663
851.355	14507
851.49	14381
851.625	14366
851.76	14575
851.895	14362
852.03	14332
852.165	14385
852.299	14461
852.434	14549
852.569	14495
852.703	14362
852.838	14526
852.973	14598
853.107	14651
853.242	14423
853.376	14351
853.511	14244
853.645	14259
853.78	14457
853.914	14301
854.048	14332
854.183	14298
854.317	14336
854.451	14450
854.585	14305
854.72	14339
854.854	14347
854.988	14149
855.122	14218
855.256	14214
855.39	14294
855.524	14446
855.658	14313
855.792	14396
855.926	14408
856.06	14362
856.194	14393
856.327	14320
856.461	14317
856.595	14210
856.729	14240
856.862	14408
856.996	14336
857.13	14305
857.263	14412
857.397	14461
857.53	14347
857.664	14412
857.797	14450
857.931	14408
858.064	14298
858.197	14476
858.331	14294
858.464	14282
858.597	14267
858.731	14263
858.864	14332
858.997	14294
859.13	14309
859.263	14301
859.396	14381
859.529	14248
859.662	14298
859.795	14317
859.928	14286
860.061	14366
860.194	14450
860.327	14393
860.46	14358
860.592	14431
860.725	14450
860.858	14438
860.99	14294
861.123	14195
861.256	14294
861.388	14343
861.521	15009
861.653	14221
861.786	14202
861.918	14123
862.05	14240
862.183	14332
862.315	14244
862.447	14366
862.58	14267
862.712	14134
862.844	14001
862.976	14142
863.108	14088
863.24	14389
863.372	14005
863.504	13974
863.636	14153
863.768	14176
863.9	14153
864.032	14027
864.164	14180
864.296	14065
864.428	14081
864.559	14202
864.691	14157
864.823	14206
864.954	14119
865.086	14225
865.217	14001
865.349	14050
865.48	14069
865.612	14050
865.743	14240
865.875	14172
866.006	14065
866.137	14142
866.269	14130
866.4	14081
866.531	14100
866.662	14005
866.793	14054
866.924	14054
867.055	14115
867.186	13986
867.317	14039
867.448	13997
867.579	14012
867.71	14069
867.841	13993
867.972	14126
868.103	14096
868.233	14225
868.364	14145
868.495	14172
868.625	14286
868.756	14377
868.886	14229
869.017	14275
869.147	14454
869.278	14370
869.408	14370
869.539	14476
869.669	14309
869.799	14404
869.929	14461
870.06	14473
870.19	14636
870.32	14701
870.45	14693
870.58	14720
870.71	14830
870.84	14758
870.97	14739
871.1	14697
871.23	14910
871.36	14994
871.489	14861
871.619	14963
871.749	14861
871.879	15013
872.008	15020
872.138	15005
872.267	14967
872.397	14708
872.526	14765
872.656	14743
872.785	14845
872.915	14952
873.044	14933
873.173	14941
873.303	15001
873.432	15047
873.561	15028
873.69	14982
873.819	15051
873.948	15097
874.077	15020
874.206	14979
874.335	14994
874.464	15207
874.593	15348
874.722	15192
874.851	15397
874.979	15249
875.108	15264
875.237	15306
875.365	15214
875.494	15279
875.623	15306
875.751	15214
875.88	15412
876.008	15386
876.136	15466
876.265	15709
876.393	15865
876.521	15819
876.65	15724
876.778	15717
876.906	15709
877.034	15652
877.162	15705
877.29	15698
877.418	15755
877.546	15667
877.674	15705
877.802	15686
877.93	15618
878.058	15644
878.185	15648
878.313	15705
878.441	15728
878.568	15580
878.696	15591
878.824	15789
878.951	15823
879.079	15812
879.206	15975
879.333	15823
879.461	15766
879.588	15903
879.715	15892
879.842	15972
879.97	15774
880.097	15492
880.224	15568
880.351	15641
880.478	15694
880.605	15530
880.732	15564
880.859	15762
880.986	15545
881.112	15572
881.239	15462
881.366	15222
881.493	15294
881.619	15249
881.746	15298
881.872	15279
881.999	15176
882.125	15116
882.252	15291
882.378	15313
882.505	15435
882.631	15237
882.757	15085
882.883	15135
883.01	15017
883.136	14990
883.262	14842
883.388	14956
883.514	15066
883.64	15097
883.766	15043
883.892	14857
884.018	14800
884.143	14986
884.269	15131
884.395	14853
884.52	14701
884.646	14792
884.772	14651
884.897	14651
885.023	14750
885.148	14792
885.274	14941
885.399	14792
885.524	14807
885.65	14697
885.775	14750
885.9	14746
886.025	14887
886.15	14876
886.275	14659
886.4	14632
886.525	14788
886.65	14697
886.775	14674
886.9	14864
887.025	14986
887.149	14682
887.274	14602
887.399	14556
887.523	14587
887.648	14545
887.773	14434
887.897	14625
888.021	14712
888.146	14556
888.27	14655
888.395	14720
888.519	14705
888.643	14735
888.767	14651
888.891	14533
889.015	14362
889.139	14545
889.263	14438
889.387	14454
889.511	14644
889.635	14549
889.759	14355
889.883	14377
890.006	14427
890.13	14514
890.254	14332
890.377	14385
890.501	14214
890.624	14145
890.748	14290
890.871	14187
890.995	14088
891.118	14001
891.241	14199
891.364	14107
891.488	14263
891.611	14164
891.734	14172
891.857	14142
891.98	14259
892.103	14195
892.226	14221
892.349	14107
892.471	14081
892.594	14123
892.717	14199
892.839	14077
892.962	14123
893.085	14298
893.207	14115
893.33	14020
893.452	14005
893.575	14183
893.697	14134
893.819	14237
893.941	14396
894.064	14339
894.186	14149
894.308	14050
894.43	14252
894.552	14286
894.674	14275
894.796	14123
894.918	14206
895.04	14225
895.161	14351
895.283	14221
895.405	14199
895.526	14172
895.648	14229
895.769	14252
895.891	14218
896.012	14286
896.134	14366
896.255	14305
896.376	14210
896.498	14172
896.619	14320
896.74	14271
896.861	14450
896.982	14503
897.103	14773
897.224	14476
897.345	14598
897.466	14412
897.587	14629
897.708	14724
897.828	14480
897.949	14461
898.07	14434
898.19	14492
898.311	14739
898.431	14537
898.552	14648
898.672	14739
898.792	14708
898.913	14705
899.033	14579
899.153	14427
899.273	14488
899.393	14541
899.513	14442
899.633	14492
899.753	14492
899.873	14404
899.993	14556
900.113	14400
900.232	14617
900.352	14446
900.472	14438
900.591	14256
900.711	14374
900.83	14305
900.95	14423
901.069	14393
901.189	14298
901.308	14191
901.427	13947
901.546	14016
901.665	13993
901.784	14054
901.904	14065
902.023	13765
902.141	13616
902.26	13662
902.379	13643
902.498	13715
902.617	13559
902.735	13533
902.854	13594
902.973	13586
903.091	13396
903.21	13285
903.328	13377
903.446	13183
903.565	13198
903.683	13187
903.801	13057
903.919	13129
904.038	13190
904.156	12939
904.274	13065
904.392	12981
904.51	13031
904.627	13012
904.745	13038
904.863	13076
904.981	12810
905.098	12696
905.216	12760
905.334	12677
905.451	12646
905.569	12684
905.686	12707
905.803	12726
905.921	12467
906.038	12673
906.155	12494
906.272	12429
906.389	12467
906.506	12308
906.623	12350
906.74	12216
906.857	12163
906.974	12159
907.091	12346
907.208	12410
907.324	12266
907.441	12136
907.557	12114
907.674	12045
907.79	11977
907.907	12038
908.023	12110
908.139	12022
908.256	11954
908.372	11988
908.488	11939
908.604	11813
908.72	11756
908.836	11821
908.952	11718
909.068	11794
909.184	11927
909.3	11832
909.415	11851
909.531	11805
909.647	11581
909.762	11577
909.878	11596
909.993	11581
910.108	11512
910.224	11512
910.339	11638
910.454	11497
910.57	11364
910.685	11326
910.8	11672
910.915	11547
911.03	11554
911.145	11227
911.259	11204
911.374	11258
911.489	11269
911.604	11147
911.718	11014
911.833	11045
911.947	10847
912.062	10850
912.176	10961
912.291	10934
912.405	11052
912.519	11216
912.633	11178
912.748	11178
912.862	11003
912.976	10900
913.09	10763
913.204	10866
913.318	10938
913.431	10934
913.545	11029
913.659	11052
913.772	10858
913.886	10847
914	10812
914.113	10946
914.226	10828
914.34	10862
914.453	10717
914.566	10767
914.68	10824
914.793	10793
914.906	10546
915.019	10523
915.132	10432
915.245	10470
915.358	10481
915.47	10569
915.583	10569
915.696	10611
915.809	10729
915.921	10660
916.034	10523
916.146	10527
916.259	10409
916.371	10523
916.483	10512
916.595	10390
916.708	10485
916.82	10508
916.932	10466
917.044	10440
917.156	10402
917.268	10310
917.38	10341
917.491	10375
917.603	10352
917.715	10436
917.826	10489
917.938	10322
918.049	10249
918.161	10344
918.272	10519
918.384	10386
918.495	10432
918.606	10284
918.717	10166
918.828	10215
918.939	10238
919.05	10139
919.161	10257
919.272	10059
919.383	10059
919.494	10257
919.604	10485
919.715	10303
919.826	10169
919.936	10211
920.047	10398
920.157	10299
920.267	10440
920.378	10219
920.488	10314
920.598	10474
920.708	10546
920.818	10405
920.928	10428
921.038	10599
921.148	10588
921.258	10230
921.368	10192
921.477	10120
921.587	10063
921.697	10017
921.806	10162
921.916	10044
922.025	9857
922.134	9857
922.244	9804
922.353	9804
922.462	9728
922.571	9648
922.68	9553
922.789	9515
922.898	9500
923.007	9481
923.116	9561
923.224	9492
923.333	9492
923.442	9344
923.55	9382
923.659	9397
923.767	9408
923.876	9325
923.984	9469
924.092	9294
924.201	9340
924.309	9359
924.417	9329
924.525	9332
924.633	9310
924.741	10265
924.849	9157
924.956	9287
925.064	9154
925.172	9100
925.279	9100
925.387	9119
925.494	9161
925.602	9302
925.709	9256
925.816	9077
925.924	9036
926.031	9287
926.138	9169
926.245	9127
926.352	9062
926.459	9199
926.566	9199
926.673	9150
926.779	8994
926.886	8979
926.993	8941
927.099	8864
927.206	8823
927.312	8781
927.419	8952
927.525	8861
927.631	8910
927.737	8819
927.843	8693
927.95	8659
928.056	8712
928.162	8769
928.267	8762
928.373	9386
928.479	8826
928.585	8640
928.69	8720
928.796	8769
928.901	8720
929.007	8571
929.112	8674
929.218	8629
929.323	8568
929.428	8617
929.533	8727
929.638	8579
929.743	8480
929.848	8617
929.953	8564
930.058	8507
930.163	8328
930.267	8339
930.372	8484
930.477	8377
930.581	8587
930.685	8336
930.79	8202
930.894	8381
930.998	8233
931.103	8415
931.207	8149
931.311	7978
931.415	7974
931.519	7795
931.623	7803
