Data from test_V78500241_810.txt Node
Date: Fri Mar 25 14:39:21 CST 2022
User: usil
Spectrometer: V785-0024
Trigger mode: 0
Integration Time (sec): 4.000000E-1
Scans to average: 1
Nonlinearity correction enabled: false
Boxcar width: 0
Storing dark spectrum: false
XAxis mode: Wavelengths
Number of Pixels in Spectrum: 1024
>>>>>Begin Spectral Data<<<<<
801.071	26282
801.214	26199
801.356	25997
801.499	25887
801.641	25731
801.783	25635
801.926	25731
802.068	25590
802.211	25365
802.353	25483
802.496	25259
802.638	25251
802.78	25137
802.923	25050
803.065	25168
803.208	25133
803.35	25228
803.492	25247
803.635	25297
803.777	25114
803.919	25206
804.061	25674
804.204	25232
804.346	25259
804.488	25236
804.63	25350
804.773	25213
804.915	25411
805.057	25499
805.199	25377
805.341	25643
805.483	25715
805.626	25799
805.768	25647
805.91	25715
806.052	25906
806.194	25921
806.336	26294
806.478	26237
806.62	26336
806.762	26731
806.904	27055
807.046	27557
807.188	27580
807.33	27903
807.472	28405
807.614	28881
807.756	29566
807.898	30353
808.04	31514
808.182	32914
808.324	34900
808.465	37396
808.607	39667
808.749	41973
808.891	43225
809.033	43438
809.174	42087
809.316	39831
809.458	37354
809.6	34660
809.741	32746
809.883	31122
810.025	29984
810.166	29178
810.308	28702
810.45	28055
810.591	27603
810.733	27233
810.875	26842
811.016	26571
811.158	26587
811.299	26499
811.441	26393
811.582	26229
811.724	26084
811.865	25955
812.007	25936
812.148	25902
812.29	25890
812.431	25940
812.573	26206
812.714	26065
812.855	26202
812.997	26218
813.138	26305
813.279	26172
813.421	26058
813.562	26058
813.703	25925
813.845	25601
813.986	25308
814.127	25137
814.268	25012
814.41	25023
814.551	25023
814.692	24882
814.833	24837
814.974	24806
815.115	24741
815.256	24661
815.397	24635
815.539	24730
815.68	24486
815.821	24456
815.962	24460
816.103	24471
816.244	24186
816.385	24186
816.526	24121
816.666	23969
816.807	23786
816.948	23942
817.089	23874
817.23	23897
817.371	23980
817.512	23668
817.653	23729
817.793	23657
817.934	23794
818.075	23703
818.216	23729
818.356	23551
818.497	23676
818.638	23345
818.778	23379
818.919	23372
819.06	23474
819.2	23509
819.341	23733
819.481	23562
819.622	23657
819.762	23836
819.903	23859
820.043	23790
820.184	23843
820.324	23596
820.465	23657
820.605	23573
820.746	23600
820.886	23364
821.026	23596
821.167	23581
821.307	23619
821.447	23471
821.588	23425
821.728	23227
821.868	23105
822.008	22873
822.149	22953
822.289	22835
822.429	22687
822.569	22550
822.709	22615
822.849	22318
822.99	22394
823.13	22234
823.27	22371
823.41	22051
823.55	22059
823.69	22139
823.83	22154
823.97	22032
824.11	21774
824.25	21892
824.389	21941
824.529	21903
824.669	21907
824.809	22002
824.949	22036
825.089	21975
825.228	21937
825.368	21732
825.508	21755
825.648	21679
825.787	21755
825.927	21762
826.067	21545
826.206	21656
826.346	21751
826.485	21705
826.625	21625
826.765	21705
826.904	21686
827.044	21477
827.183	21447
827.323	21424
827.462	21344
827.601	21447
827.741	21226
827.88	21382
828.02	21268
828.159	21279
828.298	21188
828.437	21275
828.577	21313
828.716	21374
828.855	21252
828.994	21127
829.134	20986
829.273	21089
829.412	21043
829.551	21024
829.69	21131
829.829	20944
829.968	21058
830.107	21043
830.246	20971
830.385	20944
830.524	20914
830.663	20815
830.802	20796
830.941	20659
831.08	20560
831.219	20682
831.357	20617
831.496	20906
831.635	20629
831.774	20621
831.913	20476
832.051	20442
832.19	20488
832.329	20469
832.467	20454
832.606	20495
832.744	20434
832.883	20431
833.022	20522
833.16	20617
833.299	20708
833.437	20746
833.576	20918
833.714	20971
833.852	21173
833.991	21131
834.129	21233
834.267	21313
834.406	21302
834.544	21222
834.682	21112
834.821	20929
834.959	21096
835.097	20845
835.235	20762
835.373	20765
835.511	20541
835.65	20503
835.788	20374
835.926	20218
836.064	20195
836.202	20122
836.34	20195
836.478	20339
836.615	20187
836.753	20161
836.891	20271
837.029	20157
837.167	20180
837.305	20195
837.443	20065
837.58	20005
837.718	20024
837.856	19947
837.993	19989
838.131	19978
838.269	19807
838.406	19887
838.544	19860
838.681	19693
838.819	19609
838.956	19430
839.094	19430
839.231	19457
839.369	19537
839.506	19818
839.643	19666
839.781	19483
839.918	19324
840.055	19426
840.193	19377
840.33	19400
840.467	19396
840.604	19449
840.742	19776
840.879	19312
841.016	19217
841.153	19400
841.29	19529
841.427	19362
841.564	19476
841.701	19354
841.838	19350
841.975	19324
842.112	19213
842.249	19137
842.385	19129
842.522	19377
842.659	19297
842.796	19228
842.933	19202
843.069	19198
843.206	19335
843.343	19350
843.479	19304
843.616	19266
843.752	19107
843.889	19187
844.025	19346
844.162	19209
844.298	19491
844.435	19445
844.571	19563
844.708	19814
844.844	20122
844.98	20442
845.117	21005
845.253	21610
845.389	22900
845.525	25499
845.661	29779
845.798	34843
845.934	38887
846.07	40394
846.206	39492
846.342	36045
846.478	30981
846.614	26419
846.75	23566
846.886	21732
847.022	20762
847.158	20103
847.294	19597
847.429	19499
847.565	19133
847.701	19190
847.837	18639
847.972	18494
848.108	18620
848.244	18620
848.379	18163
848.515	18285
848.65	18243
848.786	18136
848.921	18232
849.057	18270
849.192	18220
849.328	18194
849.463	18190
849.598	17988
849.734	17904
849.869	18083
850.004	17870
850.14	17931
850.275	17802
850.41	17756
850.545	17805
850.68	17760
850.815	17775
850.95	17821
851.085	18041
851.22	17912
851.355	17885
851.49	17851
851.625	17843
851.76	17802
851.895	17668
852.03	17733
852.165	17935
852.299	17783
852.434	17882
852.569	17931
852.703	17851
852.838	17992
852.973	18102
853.107	18041
853.242	18060
853.376	17794
853.511	17802
853.645	17874
853.78	17965
853.914	17923
854.048	17863
854.183	17973
854.317	18030
854.451	18334
854.585	17923
854.72	17939
854.854	17988
854.988	17897
855.122	17931
855.256	17703
855.39	17824
855.524	17786
855.658	17889
855.792	17775
855.926	17729
856.06	17764
856.194	17798
856.327	17665
856.461	17680
856.595	17596
856.729	17600
856.862	17805
856.996	17691
857.13	17771
857.263	17745
857.397	17737
857.53	17600
857.664	17714
857.797	17764
857.931	17817
858.064	17691
858.197	17775
858.331	17653
858.464	17528
858.597	17509
858.731	17600
858.864	17497
858.997	17535
859.13	17581
859.263	17512
859.396	17680
859.529	17482
859.662	17535
859.795	17501
859.928	17630
860.061	17657
860.194	17703
860.327	17608
860.46	17547
860.592	17604
860.725	17551
860.858	17615
860.99	17554
861.123	17455
861.256	17406
861.388	17463
861.521	18148
861.653	17436
861.786	17299
861.918	17410
862.05	17463
862.183	17532
862.315	17452
862.447	17566
862.58	17391
862.712	17345
862.844	17128
862.976	17223
863.108	17356
863.24	17695
863.372	17185
863.504	17197
863.636	17178
863.768	17227
863.9	17136
864.032	17231
864.164	17197
864.296	17208
864.428	17315
864.559	17395
864.691	17345
864.823	17235
864.954	17193
865.086	17200
865.217	17090
865.349	17029
865.48	17102
865.612	17132
865.743	17296
865.875	17204
866.006	17075
866.137	17102
866.269	17178
866.4	17102
866.531	17136
866.662	17113
866.793	17143
866.924	17052
867.055	17121
867.186	17162
867.317	17105
867.448	17037
867.579	17147
867.71	16961
867.841	17022
867.972	17045
868.103	17041
868.233	17113
868.364	17105
868.495	17200
868.625	17383
868.756	17410
868.886	17273
869.017	17414
869.147	17463
869.278	17334
869.408	17421
869.539	17395
869.669	17395
869.799	17478
869.929	17558
870.06	17562
870.19	17657
870.32	17714
870.45	17733
870.58	17916
870.71	17920
870.84	17828
870.97	17828
871.1	17718
871.23	17882
871.36	18117
871.489	17954
871.619	17961
871.749	17969
871.879	18114
872.008	18171
872.138	18148
872.267	18068
872.397	18015
872.526	17893
872.656	18030
872.785	18022
872.915	18266
873.044	18281
873.173	18205
873.303	18205
873.432	18266
873.561	18365
873.69	18163
873.819	18220
873.948	18369
874.077	18319
874.206	18330
874.335	18490
874.464	18661
874.593	18681
874.722	18654
874.851	18806
874.979	18684
875.108	18829
875.237	18779
875.365	18791
875.494	18924
875.623	18905
875.751	18825
875.88	18920
876.008	19065
876.136	19228
876.265	19480
876.393	19537
876.521	19548
876.65	19696
876.778	19567
876.906	19597
877.034	19643
877.162	19658
877.29	19727
877.418	19841
877.546	19959
877.674	19997
877.802	20134
877.93	20202
878.058	20305
878.185	20431
878.313	20644
878.441	20804
878.568	20925
878.696	21637
878.824	22219
878.951	23022
879.079	24266
879.206	25822
879.333	27287
879.461	28634
879.588	29539
879.715	29577
879.842	28953
879.97	27454
880.097	25643
880.224	24460
880.351	23611
880.478	22980
880.605	22428
880.732	22200
880.859	22272
880.986	21797
881.112	21857
881.239	21770
881.366	21485
881.493	21420
881.619	21431
881.746	21359
881.872	21500
881.999	21504
882.125	21500
882.252	21561
882.378	21580
882.505	21553
882.631	21507
882.757	21401
882.883	21504
883.01	21351
883.136	21458
883.262	21283
883.388	21176
883.514	21317
883.64	21386
883.766	21203
883.892	21142
884.018	21226
884.143	21184
884.269	21405
884.395	21123
884.52	21104
884.646	21123
884.772	21150
884.897	20979
885.023	21013
885.148	21184
885.274	21241
885.399	21100
885.524	20937
885.65	20845
885.775	20693
885.9	20617
886.025	20705
886.15	20442
886.275	20278
886.4	20069
886.525	20043
886.65	19993
886.775	19795
886.9	19959
887.025	20069
887.149	19514
887.274	19415
887.399	19278
887.523	19335
887.648	19190
887.773	19103
887.897	19228
888.021	19160
888.146	19023
888.27	19168
888.395	19065
888.519	19004
888.643	18833
888.767	19027
888.891	18707
889.015	18631
889.139	18589
889.263	18525
889.387	18559
889.511	18749
889.635	18585
889.759	18410
889.883	18342
890.006	18384
890.13	18346
890.254	18254
890.377	18292
890.501	18087
890.624	17996
890.748	17980
890.871	17847
890.995	17855
891.118	17722
891.241	17920
891.364	17790
891.488	17859
891.611	17836
891.734	17741
891.857	17767
891.98	17775
892.103	17775
892.226	17646
892.349	17760
892.471	17490
892.594	17490
892.717	17554
892.839	17585
892.962	17562
893.085	17543
893.207	17528
893.33	17185
893.452	17406
893.575	17421
893.697	17337
893.819	17547
893.941	17554
894.064	17497
894.186	17185
894.308	17280
894.43	17493
894.552	17425
894.674	17398
894.796	17193
894.918	17315
895.04	17200
895.161	17349
895.283	17303
895.405	17041
895.526	17174
895.648	17147
895.769	17212
895.891	17098
896.012	17269
896.134	17147
896.255	17113
896.376	17181
896.498	17208
896.619	17254
896.74	17216
896.861	17162
896.982	17372
897.103	17646
897.224	17532
897.345	17406
897.466	17315
897.587	17376
897.708	17539
897.828	17356
897.949	17269
898.07	17197
898.19	17147
898.311	17448
898.431	17269
898.552	17356
898.672	17398
898.792	17471
898.913	17425
899.033	17223
899.153	17071
899.273	17178
899.393	17124
899.513	17193
899.633	17246
899.753	17117
899.873	17140
899.993	17204
900.113	17162
900.232	17174
900.352	17143
900.472	17003
900.591	17003
900.711	16965
900.83	16980
900.95	17033
901.069	17033
901.189	16889
901.308	16706
901.427	16615
901.546	16588
901.665	16550
901.784	16683
901.904	16451
902.023	16367
902.141	16223
902.26	16128
902.379	16158
902.498	15991
902.617	15987
902.735	16109
902.854	15987
902.973	15998
903.091	15819
903.21	15778
903.328	15694
903.446	15751
903.565	15595
903.683	15549
903.801	15424
903.919	15477
904.038	15534
904.156	15313
904.274	15344
904.392	15275
904.51	15245
904.627	15329
904.745	15252
904.863	15340
904.981	15180
905.098	14830
905.216	15028
905.334	14937
905.451	14990
905.569	14967
905.686	15062
905.803	14937
905.921	14663
906.038	14864
906.155	14743
906.272	14651
906.389	14735
906.506	14454
906.623	14457
906.74	14568
906.857	14347
906.974	14438
907.091	14537
907.208	14636
907.324	14556
907.441	14339
907.557	14187
907.674	14248
907.79	14123
907.907	14164
908.023	14237
908.139	14176
908.256	14111
908.372	14050
908.488	14103
908.604	13963
908.72	13921
908.836	13917
908.952	13837
909.068	13909
909.184	14062
909.3	13928
909.415	13967
909.531	13898
909.647	13734
909.762	13734
909.878	13540
909.993	13693
910.108	13628
910.224	13700
910.339	13632
910.454	13480
910.57	13476
910.685	13426
910.8	13609
910.915	13666
911.03	13567
911.145	13384
911.259	13335
911.374	13297
911.489	13232
911.604	13129
911.718	13061
911.833	13156
911.947	12970
912.062	12897
912.176	13008
912.291	12932
912.405	13088
912.519	13190
912.633	13183
912.748	13069
912.862	13034
912.976	12947
913.09	12764
913.204	12852
913.318	12825
913.431	12981
913.545	12985
913.659	13015
913.772	12863
913.886	12734
914	12715
914.113	12821
914.226	12878
914.34	12806
914.453	12787
914.566	12783
914.68	12707
914.793	12768
914.906	12566
915.019	12426
915.132	12395
915.245	12517
915.358	12547
915.47	12426
915.583	12456
915.696	12532
915.809	12544
915.921	12749
916.034	12513
916.146	12426
916.259	12407
916.371	12486
916.483	12555
916.595	12334
916.708	12433
916.82	12506
916.932	12376
917.044	12330
917.156	12369
917.268	12327
917.38	12376
917.491	12155
917.603	12266
917.715	12327
917.826	12308
917.938	12133
918.049	12125
918.161	12098
918.272	12304
918.384	12350
918.495	12171
918.606	11999
918.717	12019
918.828	12022
918.939	11999
919.05	11980
919.161	11980
919.272	11813
919.383	11813
919.494	12133
919.604	12205
919.715	11992
919.826	11912
919.936	12011
920.047	12057
920.157	11927
920.267	12129
920.378	12072
920.488	11954
920.598	12178
920.708	12243
920.818	12213
920.928	12125
921.038	12357
921.148	12243
921.258	12022
921.368	11863
921.477	11729
921.587	11756
921.697	11611
921.806	11786
921.916	11665
922.025	11554
922.134	11490
922.244	11395
922.353	11509
922.462	11429
922.571	11280
922.68	11223
922.789	11109
922.898	11166
923.007	11090
923.116	11147
923.224	11121
923.333	11079
923.442	10980
923.55	10980
923.659	10991
923.767	11052
923.876	10915
923.984	11083
924.092	10869
924.201	10980
924.309	10968
924.417	10972
924.525	10824
924.633	10896
924.741	11836
924.849	10725
924.956	10927
925.064	10710
925.172	10599
925.279	10694
925.387	10763
925.494	10721
925.602	10801
925.709	10843
925.816	10645
925.924	10687
926.031	10721
926.138	10615
926.245	10717
926.352	10580
926.459	10759
926.566	10744
926.673	10615
926.779	10592
926.886	10531
926.993	10398
927.099	10291
927.206	10344
927.312	10394
927.419	10390
927.525	10280
927.631	10356
927.737	10253
927.843	10257
927.95	10109
928.056	10223
928.162	10211
928.267	10337
928.373	10847
928.479	10325
928.585	10021
928.69	10158
928.796	10227
928.901	10166
929.007	9926
929.112	10116
929.218	10154
929.323	9953
929.428	9922
929.533	10086
929.638	9918
929.743	9941
929.848	9987
929.953	9953
930.058	9911
930.163	9743
930.267	9743
930.372	9838
930.477	9694
930.581	9861
930.685	9781
930.79	9633
930.894	9705
930.998	9595
931.103	9804
931.207	9424
931.311	9291
931.415	9233
931.519	9188
931.623	9051
