Data from test_V78500241_2919.txt Node
Date: Fri Mar 25 14:54:02 CST 2022
User: usil
Spectrometer: V785-0024
Trigger mode: 0
Integration Time (sec): 4.000000E-1
Scans to average: 1
Nonlinearity correction enabled: false
Boxcar width: 0
Storing dark spectrum: false
XAxis mode: Wavelengths
Number of Pixels in Spectrum: 1024
>>>>>Begin Spectral Data<<<<<
801.071	22105
801.214	21907
801.356	21739
801.499	21652
801.641	21450
801.783	21462
801.926	21450
802.068	21378
802.211	21359
802.353	21157
802.496	20921
802.638	20975
802.78	20876
802.923	20849
803.065	20823
803.208	20834
803.35	20758
803.492	20811
803.635	20929
803.777	20739
803.919	20933
804.061	21195
804.204	20895
804.346	20659
804.488	20724
804.63	20826
804.773	20648
804.915	20746
805.057	20845
805.199	20587
805.341	20815
805.483	20872
805.626	20712
805.768	20762
805.91	20781
806.052	20640
806.194	20613
806.336	20826
806.478	20594
806.62	20724
806.762	20708
806.904	20861
807.046	21154
807.188	20986
807.33	21005
807.472	20948
807.614	21020
807.756	20785
807.898	20834
808.04	20857
808.182	20743
808.324	20857
808.465	20861
808.607	20960
808.749	21188
808.891	21207
809.033	21218
809.174	21161
809.316	21077
809.458	21032
809.6	21081
809.741	21165
809.883	21089
810.025	21207
810.166	21192
810.308	21264
810.45	21131
810.591	21127
810.733	20925
810.875	20910
811.016	20823
811.158	20781
811.299	20853
811.441	20914
811.582	20933
811.724	20921
811.865	20830
812.007	20800
812.148	20727
812.29	20876
812.431	21028
812.573	21142
812.714	21329
812.855	21332
812.997	21458
813.138	21625
813.279	21439
813.421	21279
813.562	21237
813.703	21188
813.845	20944
813.986	20678
814.127	20549
814.268	20480
814.41	20469
814.551	20381
814.692	20446
814.833	20271
814.974	20351
815.115	20396
815.256	20168
815.397	20267
815.539	20218
815.68	20046
815.821	20161
815.962	20206
816.103	20031
816.244	20092
816.385	19791
816.526	19807
816.666	19639
816.807	19422
816.948	19597
817.089	19571
817.23	19670
817.371	19571
817.512	19529
817.653	19388
817.793	19369
817.934	19594
818.075	19514
818.216	19533
818.356	19457
818.497	19255
818.638	19152
818.778	19217
818.919	19255
819.06	19171
819.2	19312
819.341	19289
819.481	19381
819.622	19556
819.762	19837
819.903	19597
820.043	19597
820.184	19464
820.324	19552
820.465	19559
820.605	19441
820.746	19407
820.886	19293
821.026	19365
821.167	19426
821.307	19483
821.447	19472
821.588	19259
821.728	19145
821.868	19080
822.008	18920
822.149	18882
822.289	18791
822.429	18540
822.569	18597
822.709	18639
822.849	18361
822.99	18338
823.13	18258
823.27	18353
823.41	18182
823.55	18129
823.69	18197
823.83	18296
823.97	18152
824.11	17946
824.25	17942
824.389	17931
824.529	18019
824.669	17931
824.809	18026
824.949	17969
825.089	17927
825.228	18019
825.368	17821
825.508	17760
825.648	17745
825.787	17790
825.927	17832
826.067	17737
826.206	17714
826.346	17748
826.485	17794
826.625	17634
826.765	17878
826.904	17859
827.044	17452
827.183	17573
827.323	17376
827.462	17436
827.601	17402
827.741	17425
827.88	17440
828.02	17242
828.159	17345
828.298	17303
828.437	17463
828.577	17391
828.716	17566
828.855	17425
828.994	17185
829.134	17216
829.273	17151
829.412	17064
829.551	17109
829.69	17071
829.829	17090
829.968	17143
830.107	17178
830.246	17094
830.385	17174
830.524	17094
830.663	16930
830.802	16957
830.941	16854
831.08	16790
831.219	16828
831.357	16740
831.496	16953
831.635	16752
831.774	16675
831.913	16660
832.051	16607
832.19	16531
832.329	16660
832.467	16443
832.606	16428
832.744	16443
832.883	16428
833.022	16390
833.16	16379
833.299	16432
833.437	16478
833.576	16485
833.714	16550
833.852	16493
833.991	16542
834.129	16569
834.267	16554
834.406	16546
834.544	16424
834.682	16558
834.821	16546
834.959	16653
835.097	16413
835.235	16668
835.373	16538
835.511	16649
835.65	16504
835.788	16405
835.926	16329
836.064	16314
836.202	16230
836.34	16402
836.478	16451
836.615	16382
836.753	16379
836.891	16531
837.029	16409
837.167	16440
837.305	16424
837.443	16299
837.58	16192
837.718	16390
837.856	16276
837.993	16363
838.131	16303
838.269	16196
838.406	16131
838.544	16249
838.681	15884
838.819	15983
838.956	15854
839.094	15850
839.231	15873
839.369	16059
839.506	16246
839.643	16032
839.781	15930
839.918	15903
840.055	15838
840.193	15709
840.33	15766
840.467	15842
840.604	15838
840.742	16006
840.879	15698
841.016	15755
841.153	15739
841.29	15873
841.427	15804
841.564	15937
841.701	15781
841.838	15751
841.975	15682
842.112	15686
842.249	15595
842.385	15526
842.522	15838
842.659	15629
842.796	15591
842.933	15580
843.069	15561
843.206	15504
843.343	15644
843.479	15606
843.616	15633
843.752	15359
843.889	15367
844.025	15553
844.162	15325
844.298	15504
844.435	15332
844.571	15382
844.708	15466
844.844	15572
844.98	15504
845.117	15439
845.253	15370
845.389	15214
845.525	15283
845.661	15393
845.798	15188
845.934	15150
846.07	15241
846.206	15138
846.342	15313
846.478	15097
846.614	14979
846.75	14952
846.886	14883
847.022	15062
847.158	14982
847.294	14929
847.429	14967
847.565	14899
847.701	15169
847.837	14777
847.972	14686
848.108	14910
848.244	14762
848.379	14613
848.515	14579
848.65	14450
848.786	14552
848.921	14560
849.057	14762
849.192	14644
849.328	14629
849.463	14560
849.598	14560
849.734	14450
849.869	14533
850.004	14381
850.14	14393
850.275	14351
850.41	14187
850.545	14263
850.68	14309
850.815	14298
850.95	14309
851.085	14552
851.22	14488
851.355	14377
851.49	14309
851.625	14278
851.76	14328
851.895	14134
852.03	14191
852.165	14218
852.299	14377
852.434	14408
852.569	14374
852.703	14374
852.838	14446
852.973	14454
853.107	14454
853.242	14263
853.376	14278
853.511	14096
853.645	14096
853.78	14385
853.914	14263
854.048	14157
854.183	14145
854.317	14191
854.451	14271
854.585	14225
854.72	14145
854.854	14313
854.988	14134
855.122	14168
855.256	14039
855.39	14252
855.524	14214
855.658	14275
855.792	14221
855.926	14267
856.06	14294
856.194	14332
856.327	14237
856.461	14149
856.595	14111
856.729	14100
856.862	14259
856.996	14294
857.13	14244
857.263	14290
857.397	14290
857.53	14240
857.664	14218
857.797	14275
857.931	14294
858.064	14240
858.197	14267
858.331	14153
858.464	14149
858.597	14046
858.731	14100
858.864	14172
858.997	14081
859.13	14153
859.263	14164
859.396	14267
859.529	14115
859.662	14176
859.795	14138
859.928	14191
860.061	14290
860.194	14355
860.327	14256
860.46	14183
860.592	14259
860.725	14298
860.858	14290
860.99	14195
861.123	14119
861.256	14157
861.388	14168
861.521	14838
861.653	14119
861.786	13986
861.918	14157
862.05	14100
862.183	14164
862.315	14191
862.447	14202
862.58	14005
862.712	14073
862.844	13917
862.976	14046
863.108	13986
863.24	14298
863.372	13921
863.504	13944
863.636	13932
863.768	14024
863.9	14035
864.032	13909
864.164	13906
864.296	14008
864.428	14081
864.559	14088
864.691	14077
864.823	14031
864.954	14100
865.086	13997
865.217	13986
865.349	13887
865.48	13997
865.612	13932
865.743	14084
865.875	13974
866.006	13993
866.137	13974
866.269	13959
866.4	13898
866.531	13936
866.662	13940
866.793	14008
866.924	13837
867.055	14001
867.186	13906
867.317	13936
867.448	13849
867.579	13921
867.71	13982
867.841	13871
867.972	13909
868.103	13913
868.233	13974
868.364	13940
868.495	14039
868.625	14088
868.756	14343
868.886	14043
869.017	14191
869.147	14324
869.278	14229
869.408	14168
869.539	14229
869.669	14199
869.799	14240
869.929	14351
870.06	14305
870.19	14564
870.32	14514
870.45	14545
870.58	14590
870.71	14655
870.84	14648
870.97	14560
871.1	14610
871.23	14857
871.36	14792
871.489	14708
871.619	14769
871.749	14746
871.879	14800
872.008	14906
872.138	14811
872.267	14815
872.397	14735
872.526	14636
872.656	14670
872.785	14640
872.915	14834
873.044	14986
873.173	14823
873.303	14800
873.432	14823
873.561	14918
873.69	14845
873.819	14906
873.948	14967
874.077	14861
874.206	14872
874.335	14876
874.464	15013
874.593	15097
874.722	15104
874.851	15260
874.979	15184
875.108	15211
875.237	15085
875.365	15104
875.494	15150
875.623	15241
875.751	15241
875.88	15214
876.008	15344
876.136	15538
876.265	15591
876.393	15663
876.521	15606
876.65	15644
876.778	15629
876.906	15492
877.034	15534
877.162	15469
877.29	15584
877.418	15557
877.546	15603
877.674	15545
877.802	15591
877.93	15515
878.058	15519
878.185	15496
878.313	15511
878.441	15580
878.568	15416
878.696	15504
878.824	15644
878.951	15633
879.079	15622
879.206	15857
879.333	15793
879.461	15637
879.588	15660
879.715	15797
879.842	15956
879.97	15690
880.097	15458
880.224	15359
880.351	15443
880.478	15488
880.605	15374
880.732	15450
880.859	15633
880.986	15397
881.112	15511
881.239	15268
881.366	15291
881.493	15150
881.619	15032
881.746	15146
881.872	15093
881.999	14986
882.125	15024
882.252	15138
882.378	15127
882.505	15135
882.631	15077
882.757	14906
882.883	14971
883.01	14941
883.136	14823
883.262	14720
883.388	14739
883.514	14899
883.64	14960
883.766	14925
883.892	14686
884.018	14792
884.143	14956
884.269	14994
884.395	14674
884.52	14617
884.646	14526
884.772	14480
884.897	14560
885.023	14613
885.148	14655
885.274	14796
885.399	14682
885.524	14549
885.65	14743
885.775	14697
885.9	14568
886.025	14823
886.15	14625
886.275	14583
886.4	14461
886.525	14522
886.65	14549
886.775	14556
886.9	14712
887.025	14838
887.149	14648
887.274	14469
887.399	14351
887.523	14423
887.648	14419
887.773	14309
887.897	14499
888.021	14530
888.146	14408
888.27	14549
888.395	14514
888.519	14446
888.643	14503
888.767	14552
888.891	14362
889.015	14317
889.139	14278
889.263	14317
889.387	14419
889.511	14514
889.635	14446
889.759	14358
889.883	14229
890.006	14381
890.13	14507
890.254	14286
890.377	14248
890.501	14100
890.624	14123
890.748	14187
890.871	14103
890.995	14046
891.118	13902
891.241	14088
891.364	13997
891.488	14138
891.611	13963
891.734	14005
891.857	14176
891.98	13936
892.103	14092
892.226	14100
892.349	14005
892.471	13993
892.594	14020
892.717	14054
892.839	13963
892.962	13967
893.085	14084
893.207	14001
893.33	13917
893.452	13795
893.575	14081
893.697	14088
893.819	14199
893.941	14240
894.064	14202
894.186	13967
894.308	13989
894.43	14183
894.552	14221
894.674	14172
894.796	13928
894.918	14180
895.04	14027
895.161	14195
895.283	14096
895.405	14020
895.526	14172
895.648	14100
895.769	14115
895.891	14142
896.012	14183
896.134	14161
896.255	14199
896.376	14168
896.498	14161
896.619	14161
896.74	14149
896.861	14267
896.982	14541
897.103	14659
897.224	14480
897.345	14434
897.466	14419
897.587	14431
897.708	14518
897.828	14556
897.949	14393
898.07	14263
898.19	14473
898.311	14625
898.431	14465
898.552	14590
898.672	14610
898.792	14552
898.913	14610
899.033	14412
899.153	14450
899.273	14263
899.393	14370
899.513	14370
899.633	14427
899.753	14495
899.873	14393
899.993	14427
900.113	14476
900.232	14385
900.352	14415
900.472	14358
900.591	14191
900.711	14221
900.83	14225
900.95	14275
901.069	14396
901.189	14195
901.308	14046
901.427	13974
901.546	13947
901.665	13967
901.784	13978
901.904	13833
902.023	13780
902.141	13559
902.26	13609
902.379	13487
902.498	13521
902.617	13499
902.735	13636
902.854	13521
902.973	13457
903.091	13289
903.21	13156
903.328	13160
903.446	13156
903.565	13103
903.683	13202
903.801	12947
903.919	13061
904.038	13065
904.156	12882
904.274	12958
904.392	12916
904.51	12787
904.627	12901
904.745	12943
904.863	12985
904.981	12692
905.098	12563
905.216	12684
905.334	12574
905.451	12654
905.569	12513
905.686	12658
905.803	12662
905.921	12426
906.038	12490
906.155	12414
906.272	12334
906.389	12308
906.506	12079
906.623	12213
906.74	12098
906.857	12072
906.974	12163
907.091	12372
907.208	12201
907.324	12243
907.441	12041
907.557	11973
907.674	11908
907.79	11859
907.907	11969
908.023	11950
908.139	11927
908.256	11851
908.372	11836
908.488	11878
908.604	11729
908.72	11646
908.836	11642
908.952	11668
909.068	11722
909.184	11843
909.3	11634
909.415	11775
909.531	11718
909.647	11539
909.762	11429
909.878	11417
909.993	11459
910.108	11547
910.224	11387
910.339	11429
910.454	11448
910.57	11311
910.685	11265
910.8	11448
910.915	11459
911.03	11322
911.145	11223
911.259	11086
911.374	11223
911.489	11079
911.604	11083
911.718	10942
911.833	10904
911.947	10793
912.062	10702
912.176	10892
912.291	10850
912.405	10965
912.519	11079
912.633	11242
912.748	10968
912.862	10961
912.976	10809
913.09	10691
913.204	10771
913.318	10843
913.431	10919
913.545	10835
913.659	10927
913.772	10771
913.886	10691
914	10626
914.113	10744
914.226	10904
914.34	10759
914.453	10588
914.566	10831
914.68	10653
914.793	10618
914.906	10443
915.019	10341
915.132	10379
915.245	10413
915.358	10402
915.47	10538
915.583	10558
915.696	10470
915.809	10531
915.921	10577
916.034	10344
916.146	10394
916.259	10299
916.371	10428
916.483	10413
916.595	10379
916.708	10371
916.82	10352
916.932	10291
917.044	10341
917.156	10379
917.268	10299
917.38	10272
917.491	10230
917.603	10215
917.715	10276
917.826	10421
917.938	10215
918.049	10086
918.161	10306
918.272	10451
918.384	10344
918.495	10265
918.606	10078
918.717	10082
918.828	10131
918.939	10124
919.05	10021
919.161	10131
919.272	9903
919.383	9987
919.494	10230
919.604	10371
919.715	10109
919.826	10063
919.936	10230
920.047	10242
920.157	10219
920.267	10306
920.378	10234
920.488	10234
920.598	10375
920.708	10459
920.818	10402
920.928	10360
921.038	10504
921.148	10500
921.258	10192
921.368	10086
921.477	10078
921.587	10021
921.697	9880
921.806	9949
921.916	9930
922.025	9785
922.134	9667
922.244	9728
922.353	9743
922.462	9648
922.571	9587
922.68	9447
922.789	9454
922.898	9378
923.007	9329
923.116	9454
923.224	9458
923.333	9416
923.442	9321
923.55	9253
923.659	9317
923.767	9408
923.876	9275
923.984	9374
924.092	9207
924.201	9397
924.309	9310
924.417	9313
924.525	9214
924.633	9233
924.741	10238
924.849	9051
924.956	9203
925.064	9043
925.172	9032
925.279	9077
925.387	9051
925.494	9108
925.602	9199
925.709	9157
925.816	9013
925.924	9104
926.031	9161
926.138	9066
926.245	9173
926.352	9074
926.459	9100
926.566	9241
926.673	9104
926.779	8986
926.886	8872
926.993	8891
927.099	8750
927.206	8762
927.312	8777
927.419	8792
927.525	8750
927.631	8861
927.737	8727
927.843	8731
927.95	8568
928.056	8678
928.162	8682
928.267	8769
928.373	9321
928.479	8746
928.585	8533
928.69	8716
928.796	8735
928.901	8579
929.007	8419
929.112	8686
929.218	8594
929.323	8450
929.428	8549
929.533	8674
929.638	8457
929.743	8522
929.848	8579
929.953	8492
930.058	8427
930.163	8199
930.267	8294
930.372	8423
930.477	8267
930.581	8552
930.685	8381
930.79	8199
930.894	8244
930.998	8180
931.103	8393
931.207	8035
931.311	7940
931.415	7932
931.519	7765
931.623	7700
