Data from test_V78500241_2506.txt Node
Date: Fri Mar 25 14:51:09 CST 2022
User: usil
Spectrometer: V785-0024
Trigger mode: 0
Integration Time (sec): 4.000000E-1
Scans to average: 1
Nonlinearity correction enabled: false
Boxcar width: 0
Storing dark spectrum: false
XAxis mode: Wavelengths
Number of Pixels in Spectrum: 1024
>>>>>Begin Spectral Data<<<<<
801.071	21972
801.214	21968
801.356	21728
801.499	21610
801.641	21511
801.783	21458
801.926	21340
802.068	21389
802.211	21218
802.353	21203
802.496	20963
802.638	20963
802.78	20864
802.923	20842
803.065	20773
803.208	20708
803.35	20708
803.492	20902
803.635	20785
803.777	20746
803.919	20800
804.061	21123
804.204	20773
804.346	20640
804.488	20629
804.63	20575
804.773	20667
804.915	20705
805.057	20716
805.199	20667
805.341	20804
805.483	20792
805.626	20697
805.768	20670
805.91	20655
806.052	20663
806.194	20682
806.336	20918
806.478	20659
806.62	20602
806.762	20785
806.904	20956
807.046	21024
807.188	21043
807.33	20971
807.472	20933
807.614	20891
807.756	20857
807.898	20834
808.04	20716
808.182	20602
808.324	20720
808.465	20823
808.607	20971
808.749	20990
808.891	21161
809.033	21157
809.174	21173
809.316	20925
809.458	21123
809.6	21043
809.741	21028
809.883	21096
810.025	21321
810.166	21260
810.308	21157
810.45	21157
810.591	21013
810.733	21001
810.875	20937
811.016	20769
811.158	20842
811.299	20815
811.441	21024
811.582	20849
811.724	20811
811.865	20739
812.007	20743
812.148	20796
812.29	20872
812.431	21036
812.573	21100
812.714	21062
812.855	21272
812.997	21363
813.138	21504
813.279	21382
813.421	21359
813.562	21363
813.703	21051
813.845	21036
813.986	20708
814.127	20514
814.268	20396
814.41	20385
814.551	20347
814.692	20492
814.833	20240
814.974	20275
815.115	20377
815.256	20218
815.397	20088
815.539	20202
815.68	20081
815.821	19970
815.962	19974
816.103	20096
816.244	19967
816.385	19864
816.526	19746
816.666	19651
816.807	19552
816.948	19476
817.089	19601
817.23	19582
817.371	19384
817.512	19483
817.653	19419
817.793	19289
817.934	19487
818.075	19548
818.216	19495
818.356	19441
818.497	19232
818.638	19175
818.778	19255
818.919	19095
819.06	19293
819.2	19255
819.341	19339
819.481	19285
819.622	19533
819.762	19704
819.903	19704
820.043	19491
820.184	19483
820.324	19449
820.465	19575
820.605	19434
820.746	19324
820.886	19365
821.026	19434
821.167	19426
821.307	19480
821.447	19304
821.588	19213
821.728	19152
821.868	18939
822.008	18970
822.149	18973
822.289	18837
822.429	18517
822.569	18665
822.709	18574
822.849	18254
822.99	18216
823.13	18270
823.27	18327
823.41	18201
823.55	18201
823.69	18232
823.83	18243
823.97	18095
824.11	17920
824.25	17870
824.389	17996
824.529	18026
824.669	17931
824.809	17935
824.949	18022
825.089	18060
825.228	17939
825.368	17771
825.508	17680
825.648	17737
825.787	17851
825.927	17722
826.067	17710
826.206	17775
826.346	17779
826.485	17699
826.625	17691
826.765	17802
826.904	17817
827.044	17551
827.183	17516
827.323	17353
827.462	17421
827.601	17497
827.741	17376
827.88	17512
828.02	17299
828.159	17356
828.298	17379
828.437	17608
828.577	17273
828.716	17577
828.855	17299
828.994	17159
829.134	17189
829.273	17147
829.412	17029
829.551	17124
829.69	17113
829.829	17212
829.968	17170
830.107	17235
830.246	17071
830.385	17132
830.524	17029
830.663	17006
830.802	16892
830.941	16767
831.08	16733
831.219	16839
831.357	16900
831.496	17079
831.635	16713
831.774	16672
831.913	16664
832.051	16660
832.19	16641
832.329	16611
832.467	16546
832.606	16421
832.744	16421
832.883	16398
833.022	16462
833.16	16341
833.299	16603
833.437	16523
833.576	16504
833.714	16481
833.852	16550
833.991	16573
834.129	16618
834.267	16615
834.406	16497
834.544	16523
834.682	16569
834.821	16504
834.959	16733
835.097	16481
835.235	16573
835.373	16580
835.511	16474
835.65	16489
835.788	16554
835.926	16333
836.064	16261
836.202	16226
836.34	16424
836.478	16500
836.615	16424
836.753	16356
836.891	16508
837.029	16424
837.167	16314
837.305	16352
837.443	16249
837.58	16314
837.718	16322
837.856	16371
837.993	16253
838.131	16257
838.269	16226
838.406	16139
838.544	16181
838.681	16048
838.819	16055
838.956	15838
839.094	15861
839.231	15892
839.369	16048
839.506	16204
839.643	16090
839.781	15835
839.918	15808
840.055	15953
840.193	15755
840.33	15842
840.467	15835
840.604	15827
840.742	16071
840.879	15816
841.016	15770
841.153	15751
841.29	16017
841.427	15911
841.564	15964
841.701	15800
841.838	15842
841.975	15747
842.112	15724
842.249	15599
842.385	15618
842.522	15838
842.659	15751
842.796	15614
842.933	15686
843.069	15477
843.206	15591
843.343	15705
843.479	15629
843.616	15698
843.752	15450
843.889	15454
844.025	15545
844.162	15428
844.298	15580
844.435	15367
844.571	15397
844.708	15507
844.844	15561
844.98	15603
845.117	15538
845.253	15329
845.389	15264
845.525	15344
845.661	15351
845.798	15108
845.934	15268
846.07	15203
846.206	15291
846.342	15382
846.478	15222
846.614	15058
846.75	14963
846.886	14960
847.022	15108
847.158	15077
847.294	15039
847.429	14971
847.565	14921
847.701	15169
847.837	14735
847.972	14686
848.108	14830
848.244	14689
848.379	14602
848.515	14629
848.65	14514
848.786	14552
848.921	14644
849.057	14708
849.192	14750
849.328	14678
849.463	14735
849.598	14598
849.734	14522
849.869	14404
850.004	14404
850.14	14438
850.275	14473
850.41	14305
850.545	14355
850.68	14339
850.815	14446
850.95	14328
851.085	14571
851.22	14484
851.355	14332
851.49	14278
851.625	14339
851.76	14267
851.895	14267
852.03	14233
852.165	14336
852.299	14461
852.434	14465
852.569	14499
852.703	14446
852.838	14503
852.973	14469
853.107	14461
853.242	14377
853.376	14278
853.511	14164
853.645	14187
853.78	14393
853.914	14240
854.048	14134
854.183	14199
854.317	14202
854.451	14343
854.585	14240
854.72	14225
854.854	14263
854.988	14138
855.122	14107
855.256	14012
855.39	14210
855.524	14210
855.658	14263
855.792	14256
855.926	14271
856.06	14282
856.194	14362
856.327	14271
856.461	14195
856.595	14191
856.729	14218
856.862	14237
856.996	14294
857.13	14336
857.263	14305
857.397	14396
857.53	14195
857.664	14290
857.797	14290
857.931	14423
858.064	14317
858.197	14339
858.331	14218
858.464	14206
858.597	14058
858.731	14202
858.864	14206
858.997	14153
859.13	14267
859.263	14271
859.396	14305
859.529	14240
859.662	14149
859.795	14142
859.928	14301
860.061	14438
860.194	14385
860.327	14256
860.46	14305
860.592	14381
860.725	14400
860.858	14339
860.99	14092
861.123	14123
861.256	14126
861.388	14252
861.521	14857
861.653	14027
861.786	14119
861.918	14100
862.05	14111
862.183	14168
862.315	14164
862.447	14233
862.58	14218
862.712	14077
862.844	13993
862.976	14100
863.108	14039
863.24	14271
863.372	13917
863.504	14073
863.636	13982
863.768	14024
863.9	13967
864.032	13986
864.164	14069
864.296	13989
864.428	14119
864.559	14153
864.691	14126
864.823	14062
864.954	14058
865.086	14039
865.217	14046
865.349	13928
865.48	13986
865.612	13997
865.743	14157
865.875	14073
866.006	14001
866.137	13974
866.269	13993
866.4	13940
866.531	13936
866.662	13925
866.793	13959
866.924	13967
867.055	13959
867.186	13993
867.317	14008
867.448	13894
867.579	14008
867.71	13928
867.841	13894
867.972	14054
868.103	14065
868.233	14039
868.364	14084
868.495	14077
868.625	14195
868.756	14256
868.886	14092
869.017	14244
869.147	14336
869.278	14404
869.408	14317
869.539	14191
869.669	14256
869.799	14328
869.929	14362
870.06	14374
870.19	14655
870.32	14549
870.45	14522
870.58	14594
870.71	14769
870.84	14762
870.97	14648
871.1	14636
871.23	14849
871.36	14693
871.489	14716
871.619	14765
871.749	14883
871.879	14880
872.008	15013
872.138	14861
872.267	14823
872.397	14743
872.526	14705
872.656	14659
872.785	14724
872.915	14845
873.044	14914
873.173	14998
873.303	14899
873.432	14956
873.561	15032
873.69	14811
873.819	14982
873.948	14982
874.077	14986
874.206	14861
874.335	14864
874.464	15097
874.593	15188
874.722	15142
874.851	15249
874.979	15268
875.108	15150
875.237	15169
875.365	15097
875.494	15188
875.623	15233
875.751	15184
875.88	15241
876.008	15431
876.136	15443
876.265	15622
876.393	15800
876.521	15717
876.65	15713
876.778	15633
876.906	15572
877.034	15576
877.162	15618
877.29	15641
877.418	15724
877.546	15580
877.674	15679
877.802	15690
877.93	15667
878.058	15587
878.185	15545
878.313	15561
878.441	15610
878.568	15511
878.696	15618
878.824	15614
878.951	15755
879.079	15762
879.206	15873
879.333	15766
879.461	15610
879.588	15724
879.715	15766
879.842	15869
879.97	15660
880.097	15428
880.224	15435
880.351	15439
880.478	15466
880.605	15431
880.732	15545
880.859	15762
880.986	15477
881.112	15538
881.239	15408
881.366	15192
881.493	15214
881.619	15180
881.746	15199
881.872	15226
881.999	15108
882.125	15123
882.252	15294
882.378	15188
882.505	15264
882.631	15127
882.757	14902
882.883	15058
883.01	15032
883.136	14967
883.262	14830
883.388	14792
883.514	14982
883.64	14975
883.766	14960
883.892	14781
884.018	14708
884.143	15032
884.269	15024
884.395	14735
884.52	14670
884.646	14716
884.772	14503
884.897	14587
885.023	14693
885.148	14682
885.274	14838
885.399	14792
885.524	14621
885.65	14689
885.775	14602
885.9	14659
886.025	14773
886.15	14735
886.275	14712
886.4	14530
886.525	14575
886.65	14636
886.775	14556
886.9	14861
887.025	14891
887.149	14579
887.274	14541
887.399	14480
887.523	14450
887.648	14469
887.773	14343
887.897	14587
888.021	14533
888.146	14499
888.27	14651
888.395	14613
888.519	14590
888.643	14629
888.767	14492
888.891	14476
889.015	14305
889.139	14423
889.263	14240
889.387	14434
889.511	14602
889.635	14594
889.759	14389
889.883	14431
890.006	14305
890.13	14488
890.254	14221
890.377	14343
890.501	14183
890.624	14195
890.748	14256
890.871	14050
890.995	13978
891.118	13951
891.241	14058
891.364	14138
891.488	14168
891.611	14123
891.734	14012
891.857	14138
891.98	14084
892.103	14100
892.226	14050
892.349	14084
892.471	13860
892.594	14001
892.717	14149
892.839	14012
892.962	14103
893.085	14126
893.207	14069
893.33	13970
893.452	13917
893.575	14153
893.697	14046
893.819	14233
893.941	14180
894.064	14237
894.186	14065
894.308	13993
894.43	14225
894.552	14237
894.674	14244
894.796	14012
894.918	14157
895.04	14050
895.161	14115
895.283	14183
895.405	14218
895.526	14126
895.648	14195
895.769	14134
895.891	14282
896.012	14206
896.134	14263
896.255	14218
896.376	14225
896.498	14103
896.619	14267
896.74	14218
896.861	14351
896.982	14507
897.103	14758
897.224	14541
897.345	14415
897.466	14381
897.587	14556
897.708	14545
897.828	14522
897.949	14404
898.07	14324
898.19	14480
898.311	14606
898.431	14457
898.552	14602
898.672	14598
898.792	14731
898.913	14674
899.033	14503
899.153	14537
899.273	14419
899.393	14465
899.513	14465
899.633	14415
899.753	14377
899.873	14450
899.993	14492
900.113	14396
900.232	14492
900.352	14370
900.472	14271
900.591	14336
900.711	14309
900.83	14252
900.95	14465
901.069	14404
901.189	14161
901.308	14142
901.427	13986
901.546	13959
901.665	13970
901.784	14012
901.904	13871
902.023	13811
902.141	13544
902.26	13597
902.379	13632
902.498	13586
902.617	13518
902.735	13525
902.854	13563
902.973	13518
903.091	13251
903.21	13236
903.328	13247
903.446	13179
903.565	13149
903.683	13042
903.801	13042
903.919	13190
904.038	13069
904.156	12947
904.274	12909
904.392	12970
904.51	12837
904.627	12897
904.745	12935
904.863	12916
904.981	12798
905.098	12639
905.216	12593
905.334	12597
905.451	12650
905.569	12627
905.686	12597
905.803	12555
905.921	12456
906.038	12555
906.155	12448
906.272	12323
906.389	12350
906.506	12194
906.623	12201
906.74	12232
906.857	12140
906.974	12129
907.091	12281
907.208	12319
907.324	12228
907.441	12194
907.557	11954
907.674	11954
907.79	11847
907.907	11893
908.023	11961
908.139	11946
908.256	11904
908.372	11916
908.488	11840
908.604	11733
908.72	11680
908.836	11722
908.952	11737
909.068	11764
909.184	11764
909.3	11767
909.415	11805
909.531	11699
909.647	11570
909.762	11573
909.878	11448
909.993	11547
910.108	11406
910.224	11421
910.339	11490
910.454	11315
910.57	11387
910.685	11231
910.8	11634
910.915	11467
911.03	11349
911.145	11216
911.259	11208
911.374	11201
911.489	11124
911.604	11090
911.718	10965
911.833	10923
911.947	10866
912.062	10763
912.176	10961
912.291	10965
912.405	10869
912.519	11083
912.633	11185
912.748	10927
912.862	10961
912.976	10854
913.09	10668
913.204	10698
913.318	10702
913.431	10839
913.545	10934
913.659	10862
913.772	10820
913.886	10694
914	10714
914.113	10843
914.226	10850
914.34	10790
914.453	10634
914.566	10866
914.68	10729
914.793	10630
914.906	10478
915.019	10367
915.132	10402
915.245	10390
915.358	10519
915.47	10497
915.583	10489
915.696	10470
915.809	10592
915.921	10615
916.034	10462
916.146	10417
916.259	10512
916.371	10512
916.483	10409
916.595	10371
916.708	10394
916.82	10398
916.932	10424
917.044	10352
917.156	10314
917.268	10249
917.38	10280
917.491	10276
917.603	10253
917.715	10424
917.826	10306
917.938	10265
918.049	10207
918.161	10322
918.272	10413
918.384	10462
918.495	10238
918.606	10200
918.717	10082
918.828	10135
918.939	10139
919.05	10139
919.161	10071
919.272	9911
919.383	10093
919.494	10291
919.604	10386
919.715	10253
919.826	10128
919.936	10204
920.047	10219
920.157	10219
920.267	10356
920.378	10295
920.488	10215
920.598	10428
920.708	10478
920.818	10394
920.928	10375
921.038	10527
921.148	10466
921.258	10219
921.368	10109
921.477	10040
921.587	9987
921.697	9911
921.806	10013
921.916	9895
922.025	9675
922.134	9774
922.244	9713
922.353	9781
922.462	9603
922.571	9618
922.68	9488
922.789	9405
922.898	9454
923.007	9386
923.116	9485
923.224	9443
923.333	9424
923.442	9359
923.55	9283
923.659	9420
923.767	9439
923.876	9310
923.984	9355
924.092	9211
924.201	9359
924.309	9340
924.417	9203
924.525	9275
924.633	9268
924.741	10177
924.849	9093
924.956	9199
925.064	9100
925.172	8956
925.279	9047
925.387	9066
925.494	9055
925.602	9184
925.709	9150
925.816	9024
925.924	9089
926.031	9127
926.138	9119
926.245	9154
926.352	9077
926.459	9214
926.566	9237
926.673	9104
926.779	8925
926.886	9005
926.993	8842
927.099	8708
927.206	8701
927.312	8762
927.419	8815
927.525	8804
927.631	8823
927.737	8708
927.843	8682
927.95	8712
928.056	8682
928.162	8785
928.267	8750
928.373	9344
928.479	8773
928.585	8587
928.69	8663
928.796	8762
928.901	8598
929.007	8450
929.112	8629
929.218	8590
929.323	8533
929.428	8537
929.533	8621
929.638	8461
929.743	8511
929.848	8560
929.953	8541
930.058	8396
930.163	8271
930.267	8362
930.372	8393
930.477	8309
930.581	8507
930.685	8412
930.79	8214
930.894	8256
930.998	8206
931.103	8389
931.207	8008
931.311	7947
931.415	7963
931.519	7738
931.623	7712
