Data from test_V78500241_1699.txt Node
Date: Fri Mar 25 14:45:32 CST 2022
User: usil
Spectrometer: V785-0024
Trigger mode: 0
Integration Time (sec): 4.000000E-1
Scans to average: 1
Nonlinearity correction enabled: false
Boxcar width: 0
Storing dark spectrum: false
XAxis mode: Wavelengths
Number of Pixels in Spectrum: 1024
>>>>>Begin Spectral Data<<<<<
801.071	22211
801.214	22074
801.356	21808
801.499	21869
801.641	21652
801.783	21663
801.926	21675
802.068	21473
802.211	21545
802.353	21340
802.496	21226
802.638	20956
802.78	21074
802.923	21032
803.065	20967
803.208	20899
803.35	21032
803.492	21024
803.635	21013
803.777	20956
803.919	21036
804.061	21401
804.204	21093
804.346	20895
804.488	20849
804.63	20876
804.773	20785
804.915	20769
805.057	20960
805.199	20796
805.341	20948
805.483	21108
805.626	20941
805.768	20902
805.91	20876
806.052	20785
806.194	20777
806.336	20975
806.478	20811
806.62	20804
806.762	20975
806.904	21043
807.046	21207
807.188	21283
807.33	21237
807.472	21367
807.614	21142
807.756	21146
807.898	20952
808.04	20998
808.182	20845
808.324	20948
808.465	21085
808.607	21142
808.749	21317
808.891	21386
809.033	21549
809.174	21275
809.316	21306
809.458	21344
809.6	21260
809.741	21367
809.883	21306
810.025	21458
810.166	21561
810.308	21374
810.45	21268
810.591	21294
810.733	21112
810.875	21047
811.016	21009
811.158	20910
811.299	21188
811.441	21233
811.582	21363
811.724	21112
811.865	20982
812.007	21017
812.148	21039
812.29	21116
812.431	21195
812.573	21348
812.714	21428
812.855	21523
812.997	21397
813.138	21766
813.279	21606
813.421	21561
813.562	21473
813.703	21321
813.845	21214
813.986	20944
814.127	20773
814.268	20629
814.41	20621
814.551	20648
814.692	20670
814.833	20590
814.974	20514
815.115	20648
815.256	20332
815.397	20396
815.539	20404
815.68	20263
815.821	20290
815.962	20362
816.103	20389
816.244	20081
816.385	20027
816.526	19970
816.666	20077
816.807	19647
816.948	19826
817.089	19795
817.23	19776
817.371	19693
817.512	19795
817.653	19731
817.793	19700
817.934	19753
818.075	19765
818.216	19795
818.356	19677
818.497	19537
818.638	19403
818.778	19369
818.919	19377
819.06	19441
819.2	19556
819.341	19658
819.481	19685
819.622	19746
819.762	19906
819.903	19731
820.043	19765
820.184	19715
820.324	19666
820.465	19791
820.605	19677
820.746	19818
820.886	19521
821.026	19655
821.167	19651
821.307	19666
821.447	19639
821.588	19533
821.728	19407
821.868	19316
822.008	19103
822.149	19061
822.289	19069
822.429	18837
822.569	18772
822.709	18840
822.849	18627
822.99	18700
823.13	18506
823.27	18517
823.41	18395
823.55	18350
823.69	18448
823.83	18334
823.97	18365
824.11	18129
824.25	18201
824.389	18220
824.529	18342
824.669	18235
824.809	18254
824.949	18315
825.089	18201
825.228	18239
825.368	18053
825.508	17961
825.648	18038
825.787	18019
825.927	17935
826.067	17840
826.206	17908
826.346	17870
826.485	17942
826.625	17942
826.765	18121
826.904	17920
827.044	17741
827.183	17760
827.323	17695
827.462	17573
827.601	17695
827.741	17623
827.88	17657
828.02	17455
828.159	17611
828.298	17623
828.437	17703
828.577	17611
828.716	17760
828.855	17573
828.994	17425
829.134	17478
829.273	17459
829.412	17387
829.551	17250
829.69	17429
829.829	17455
829.968	17406
830.107	17444
830.246	17474
830.385	17402
830.524	17318
830.663	17166
830.802	17151
830.941	17094
831.08	16908
831.219	17079
831.357	17056
831.496	17189
831.635	16915
831.774	16873
831.913	16953
832.051	16850
832.19	16873
832.329	16885
832.467	16774
832.606	16725
832.744	16755
832.883	16691
833.022	16679
833.16	16691
833.299	16820
833.437	16683
833.576	16793
833.714	16778
833.852	16755
833.991	16767
834.129	16892
834.267	16869
834.406	16713
834.544	16877
834.682	16774
834.821	16744
834.959	16843
835.097	16729
835.235	16904
835.373	16740
835.511	16748
835.65	16668
835.788	16668
835.926	16508
836.064	16497
836.202	16470
836.34	16694
836.478	16717
836.615	16691
836.753	16748
836.891	16767
837.029	16717
837.167	16653
837.305	16611
837.443	16474
837.58	16508
837.718	16546
837.856	16481
837.993	16550
838.131	16516
838.269	16409
838.406	16417
838.544	16371
838.681	16196
838.819	16143
838.956	16090
839.094	16051
839.231	16154
839.369	16196
839.506	16440
839.643	16257
839.781	16112
839.918	16071
840.055	15960
840.193	16071
840.33	16067
840.467	16006
840.604	16116
840.742	16265
840.879	16044
841.016	16002
841.153	15960
841.29	16154
841.427	16032
841.564	16093
841.701	16063
841.838	16101
841.975	16090
842.112	16048
842.249	15934
842.385	15804
842.522	15975
842.659	15755
842.796	15892
842.933	15785
843.069	15899
843.206	15846
843.343	15823
843.479	15918
843.616	15888
843.752	15641
843.889	15682
844.025	15850
844.162	15694
844.298	15694
844.435	15526
844.571	15557
844.708	15732
844.844	15720
844.98	15846
845.117	15675
845.253	15637
845.389	15519
845.525	15564
845.661	15553
845.798	15496
845.934	15515
846.07	15500
846.206	15481
846.342	15538
846.478	15458
846.614	15241
846.75	15093
846.886	15199
847.022	15279
847.158	15226
847.294	15195
847.429	15192
847.565	15074
847.701	15317
847.837	14887
847.972	14883
848.108	14925
848.244	14963
848.379	14811
848.515	14819
848.65	14883
848.786	14895
848.921	14796
849.057	14952
849.192	14956
849.328	14781
849.463	14918
849.598	14777
849.734	14587
849.869	14697
850.004	14541
850.14	14549
850.275	14541
850.41	14476
850.545	14446
850.68	14499
850.815	14617
850.95	14507
851.085	14743
851.22	14640
851.355	14579
851.49	14495
851.625	14530
851.76	14541
851.895	14511
852.03	14461
852.165	14522
852.299	14602
852.434	14587
852.569	14621
852.703	14526
852.838	14583
852.973	14769
853.107	14667
853.242	14511
853.376	14461
853.511	14336
853.645	14446
853.78	14568
853.914	14404
854.048	14442
854.183	14396
854.317	14362
854.451	14598
854.585	14370
854.72	14366
854.854	14484
854.988	14351
855.122	14408
855.256	14210
855.39	14469
855.524	14579
855.658	14450
855.792	14461
855.926	14469
856.06	14461
856.194	14495
856.327	14419
856.461	14347
856.595	14385
856.729	14442
856.862	14594
856.996	14484
857.13	14507
857.263	14541
857.397	14560
857.53	14442
857.664	14518
857.797	14511
857.931	14549
858.064	14522
858.197	14560
858.331	14385
858.464	14347
858.597	14256
858.731	14412
858.864	14423
858.997	14370
859.13	14549
859.263	14431
859.396	14507
859.529	14492
859.662	14412
859.795	14362
859.928	14514
860.061	14583
860.194	14469
860.327	14404
860.46	14389
860.592	14537
860.725	14522
860.858	14530
860.99	14396
861.123	14374
861.256	14324
861.388	14415
861.521	14937
861.653	14286
861.786	14282
861.918	14301
862.05	14484
862.183	14423
862.315	14461
862.447	14457
862.58	14339
862.712	14309
862.844	14191
862.976	14202
863.108	14339
863.24	14712
863.372	14103
863.504	14199
863.636	14237
863.768	14202
863.9	14256
864.032	14237
864.164	14218
864.296	14176
864.428	14381
864.559	14286
864.691	14309
864.823	14267
864.954	14256
865.086	14248
865.217	14142
865.349	14134
865.48	14111
865.612	14195
865.743	14415
865.875	14176
866.006	14161
866.137	14199
866.269	14111
866.4	14081
866.531	14084
866.662	14176
866.793	14176
866.924	14126
867.055	14130
867.186	14191
867.317	14092
867.448	14081
867.579	14107
867.71	14073
867.841	13982
867.972	14214
868.103	14153
868.233	14199
868.364	14244
868.495	14259
868.625	14351
868.756	14484
868.886	14396
869.017	14389
869.147	14549
869.278	14617
869.408	14511
869.539	14446
869.669	14583
869.799	14518
869.929	14617
870.06	14655
870.19	14762
870.32	14724
870.45	14678
870.58	14727
870.71	14914
870.84	14921
870.97	14735
871.1	14823
871.23	14956
871.36	15036
871.489	14941
871.619	14986
871.749	15085
871.879	14982
872.008	15112
872.138	14937
872.267	14975
872.397	14918
872.526	14807
872.656	14864
872.785	14982
872.915	15085
873.044	15097
873.173	15142
873.303	15157
873.432	15142
873.561	15104
873.69	15108
873.819	15093
873.948	15127
874.077	15169
874.206	15077
874.335	15077
874.464	15188
874.593	15363
874.722	15340
874.851	15492
874.979	15363
875.108	15412
875.237	15405
875.365	15260
875.494	15363
875.623	15405
875.751	15389
875.88	15416
876.008	15549
876.136	15671
876.265	15781
876.393	15922
876.521	15846
876.65	15804
876.778	15823
876.906	15736
877.034	15759
877.162	15747
877.29	15743
877.418	15770
877.546	15766
877.674	15736
877.802	15831
877.93	15937
878.058	15797
878.185	15720
878.313	15812
878.441	15831
878.568	15595
878.696	15739
878.824	15903
878.951	15937
879.079	15964
879.206	16109
879.333	16002
879.461	15797
879.588	15911
879.715	15983
879.842	16169
879.97	15857
880.097	15622
880.224	15603
880.351	15686
880.478	15686
880.605	15606
880.732	15690
880.859	15880
880.986	15682
881.112	15797
881.239	15572
881.366	15443
881.493	15412
881.619	15298
881.746	15378
881.872	15233
881.999	15336
882.125	15359
882.252	15401
882.378	15363
882.505	15447
882.631	15146
882.757	15161
882.883	15245
883.01	15260
883.136	15074
883.262	15055
883.388	14899
883.514	15131
883.64	15245
883.766	15131
883.892	14918
884.018	15043
884.143	15051
884.269	15245
884.395	14941
884.52	14746
884.646	14925
884.772	14720
884.897	14834
885.023	14819
885.148	14933
885.274	14982
885.399	14921
885.524	14830
885.65	14842
885.775	14899
885.9	14838
886.025	15043
886.15	14944
886.275	14785
886.4	14613
886.525	14849
886.65	14735
886.775	14834
886.9	15017
887.025	15051
887.149	14823
887.274	14716
887.399	14610
887.523	14705
887.648	14697
887.773	14549
887.897	14727
888.021	14663
888.146	14640
888.27	14678
888.395	14746
888.519	14686
888.643	14693
888.767	14720
888.891	14568
889.015	14495
889.139	14629
889.263	14514
889.387	14632
889.511	14701
889.635	14636
889.759	14549
889.883	14473
890.006	14450
890.13	14655
890.254	14446
890.377	14377
890.501	14294
890.624	14343
890.748	14404
890.871	14358
890.995	14286
891.118	14016
891.241	14229
891.364	14240
891.488	14347
891.611	14336
891.734	14210
891.857	14275
891.98	14271
892.103	14336
892.226	14199
892.349	14126
892.471	14031
892.594	14214
892.717	14195
892.839	14119
892.962	14134
893.085	14290
893.207	14138
893.33	14043
893.452	14191
893.575	14301
893.697	14069
893.819	14431
893.941	14492
894.064	14336
894.186	14206
894.308	14259
894.43	14423
894.552	14404
894.674	14286
894.796	14153
894.918	14225
895.04	14267
895.161	14381
895.283	14389
895.405	14278
895.526	14366
895.648	14259
895.769	14374
895.891	14290
896.012	14495
896.134	14465
896.255	14385
896.376	14408
896.498	14332
896.619	14469
896.74	14343
896.861	14450
896.982	14769
897.103	14830
897.224	14606
897.345	14587
897.466	14594
897.587	14636
897.708	14785
897.828	14674
897.949	14659
898.07	14423
898.19	14716
898.311	14773
898.431	14640
898.552	14773
898.672	14815
898.792	14792
898.913	14807
899.033	14651
899.153	14625
899.273	14545
899.393	14594
899.513	14606
899.633	14670
899.753	14716
899.873	14583
899.993	14640
900.113	14629
900.232	14533
900.352	14469
900.472	14514
900.591	14347
900.711	14396
900.83	14377
900.95	14537
901.069	14598
901.189	14419
901.308	14206
901.427	14161
901.546	14210
901.665	14164
901.784	14164
901.904	14096
902.023	13909
902.141	13761
902.26	13658
902.379	13731
902.498	13685
902.617	13632
902.735	13696
902.854	13685
902.973	13662
903.091	13411
903.21	13297
903.328	13518
903.446	13278
903.565	13282
903.683	13312
903.801	13179
903.919	13213
904.038	13225
904.156	13076
904.274	13126
904.392	13000
904.51	13080
904.627	13103
904.745	13107
904.863	13091
904.981	12848
905.098	12791
905.216	12787
905.334	12852
905.451	12768
905.569	12707
905.686	12787
905.803	12745
905.921	12540
906.038	12635
906.155	12597
906.272	12502
906.389	12429
906.506	12357
906.623	12414
906.74	12327
906.857	12133
906.974	12304
907.091	12433
907.208	12509
907.324	12399
907.441	12285
907.557	12129
907.674	12125
907.79	12068
907.907	12003
908.023	12114
908.139	12106
908.256	12049
908.372	11969
908.488	12049
908.604	11817
908.72	11794
908.836	11885
908.952	11851
909.068	11920
909.184	11931
909.3	11840
909.415	11939
909.531	11946
909.647	11684
909.762	11611
909.878	11615
909.993	11539
910.108	11646
910.224	11592
910.339	11562
910.454	11596
910.57	11440
910.685	11440
910.8	11676
910.915	11623
911.03	11478
911.145	11360
911.259	11311
911.374	11303
911.489	11273
911.604	11212
911.718	11117
911.833	11094
911.947	11022
912.062	10987
912.176	11018
912.291	11094
912.405	11060
912.519	11318
912.633	11372
912.748	11147
912.862	11094
912.976	10946
913.09	10801
913.204	10892
913.318	10892
913.431	11014
913.545	11048
913.659	11071
913.772	10965
913.886	10812
914	10847
914.113	11014
914.226	10927
914.34	10953
914.453	10763
914.566	10938
914.68	10824
914.793	10839
914.906	10630
915.019	10561
915.132	10573
915.245	10535
915.358	10538
915.47	10607
915.583	10615
915.696	10538
915.809	10714
915.921	10740
916.034	10577
916.146	10508
916.259	10455
916.371	10592
916.483	10558
916.595	10451
916.708	10436
916.82	10516
916.932	10497
917.044	10485
917.156	10379
917.268	10306
917.38	10466
917.491	10344
917.603	10447
917.715	10523
917.826	10519
917.938	10375
918.049	10379
918.161	10409
918.272	10493
918.384	10500
918.495	10466
918.606	10295
918.717	10192
918.828	10306
918.939	10295
919.05	10223
919.161	10215
919.272	9998
919.383	10147
919.494	10310
919.604	10470
919.715	10303
919.826	10261
919.936	10215
920.047	10371
920.157	10265
920.267	10573
920.378	10356
920.488	10329
920.598	10508
920.708	10607
920.818	10508
920.928	10402
921.038	10668
921.148	10630
921.258	10329
921.368	10287
921.477	10150
921.587	10055
921.697	10059
921.806	10166
921.916	10017
922.025	9857
922.134	9873
922.244	9846
922.353	9895
922.462	9728
922.571	9701
922.68	9595
922.789	9507
922.898	9538
923.007	9534
923.116	9587
923.224	9526
923.333	9553
923.442	9477
923.55	9420
923.659	9485
923.767	9534
923.876	9382
923.984	9466
924.092	9363
924.201	9412
924.309	9435
924.417	9386
924.525	9351
924.633	9359
924.741	10261
924.849	9146
924.956	9329
925.064	9195
925.172	9127
925.279	9154
925.387	9256
925.494	9161
925.602	9291
925.709	9245
925.816	9119
925.924	9207
926.031	9325
926.138	9253
926.245	9264
926.352	9055
926.459	9222
926.566	9298
926.673	9169
926.779	9055
926.886	9089
926.993	8990
927.099	8933
927.206	8849
927.312	8891
927.419	8910
927.525	8914
927.631	8948
927.737	8868
927.843	8750
927.95	8731
928.056	8819
928.162	8785
928.267	8857
928.373	9435
928.479	8906
928.585	8640
928.69	8800
928.796	8823
928.901	8712
929.007	8533
929.112	8720
929.218	8716
929.323	8651
929.428	8594
929.533	8735
929.638	8533
929.743	8670
929.848	8705
929.953	8579
930.058	8568
930.163	8351
930.267	8431
930.372	8511
930.477	8320
930.581	8552
930.685	8492
930.79	8309
930.894	8370
930.998	8343
931.103	8393
931.207	8142
931.311	8054
931.415	8020
931.519	7795
931.623	7837
