Data from test_V78500241_954.txt Node
Date: Fri Mar 25 14:40:21 CST 2022
User: usil
Spectrometer: V785-0024
Trigger mode: 0
Integration Time (sec): 4.000000E-1
Scans to average: 1
Nonlinearity correction enabled: false
Boxcar width: 0
Storing dark spectrum: false
XAxis mode: Wavelengths
Number of Pixels in Spectrum: 1024
>>>>>Begin Spectral Data<<<<<
801.071	23501
801.214	23395
801.356	23216
801.499	23079
801.641	23006
801.783	22927
801.926	22938
802.068	22942
802.211	22733
802.353	22664
802.496	22573
802.638	22443
802.78	22306
802.923	22371
803.065	22344
803.208	22219
803.35	22432
803.492	22405
803.635	22577
803.777	22306
803.919	22363
804.061	22615
804.204	22280
804.346	22284
804.488	22135
804.63	22219
804.773	22200
804.915	22276
805.057	22238
805.199	22246
805.341	22246
805.483	22436
805.626	22249
805.768	22242
805.91	22211
806.052	22314
806.194	22223
806.336	22462
806.478	22306
806.62	22337
806.762	22470
806.904	22550
807.046	22763
807.188	22911
807.33	22877
807.472	22873
807.614	22839
807.756	23185
807.898	22999
808.04	23151
808.182	23345
808.324	23619
808.465	23927
808.607	24410
808.749	24688
808.891	24920
809.033	24852
809.174	24677
809.316	24391
809.458	24076
809.6	23798
809.741	23558
809.883	23326
810.025	23448
810.166	23284
810.308	23083
810.45	23067
810.591	22984
810.733	22694
810.875	22759
811.016	22508
811.158	22512
811.299	22748
811.441	22713
811.582	22713
811.724	22615
811.865	22512
812.007	22428
812.148	22512
812.29	22462
812.431	22687
812.573	22812
812.714	22923
812.855	22987
812.997	23136
813.138	23060
813.279	23121
813.421	23094
813.562	22987
813.703	22797
813.845	22596
813.986	22352
814.127	22166
814.268	22086
814.41	21975
814.551	22173
814.692	22090
814.833	21975
814.974	21884
815.115	21945
815.256	21732
815.397	21857
815.539	21800
815.68	21743
815.821	21713
815.962	21728
816.103	21667
816.244	21591
816.385	21443
816.526	21382
816.666	21416
816.807	21077
816.948	21226
817.089	21256
817.23	21222
817.371	21043
817.512	21176
817.653	21036
817.793	21047
817.934	21062
818.075	21230
818.216	21058
818.356	21116
818.497	20990
818.638	20815
818.778	20872
818.919	20807
819.06	20849
819.2	20925
819.341	21089
819.481	21017
819.622	21047
819.762	21348
819.903	21192
820.043	21150
820.184	21100
820.324	21161
820.465	21173
820.605	21108
820.746	21009
820.886	20941
821.026	20982
821.167	20990
821.307	21135
821.447	21051
821.588	20941
821.728	20826
821.868	20606
822.008	20355
822.149	20484
822.289	20552
822.429	20062
822.569	20073
822.709	20225
822.849	19837
822.99	19769
823.13	19944
823.27	19833
823.41	19830
823.55	19670
823.69	19826
823.83	19624
823.97	19651
824.11	19441
824.25	19586
824.389	19521
824.529	19571
824.669	19407
824.809	19639
824.949	19689
825.089	19578
825.228	19544
825.368	19274
825.508	19270
825.648	19263
825.787	19350
825.927	19297
826.067	19266
826.206	19160
826.346	19240
826.485	19365
826.625	19190
826.765	19365
826.904	19244
827.044	19012
827.183	19088
827.323	18897
827.462	19031
827.601	19084
827.741	18916
827.88	19057
828.02	18825
828.159	18993
828.298	19038
828.437	18928
828.577	18951
828.716	19046
828.855	18989
828.994	18795
829.134	18776
829.273	18722
829.412	18646
829.551	18635
829.69	18711
829.829	18734
829.968	18741
830.107	18947
830.246	18707
830.385	18658
830.524	18631
830.663	18544
830.802	18437
830.941	18254
831.08	18342
831.219	18372
831.357	18338
831.496	18547
831.635	18327
831.774	18289
831.913	18213
832.051	18030
832.19	18144
832.329	18163
832.467	18030
832.606	18019
832.744	18110
832.883	18003
833.022	17988
833.16	18022
833.299	18083
833.437	18079
833.576	18114
833.714	18121
833.852	18159
833.991	18136
834.129	18163
834.267	18216
834.406	18144
834.544	18258
834.682	18159
834.821	18186
834.959	18239
835.097	18079
835.235	18155
835.373	18064
835.511	18125
835.65	17923
835.788	17973
835.926	17817
836.064	17684
836.202	17729
836.34	17870
836.478	17969
836.615	17851
836.753	17977
836.891	18019
837.029	17916
837.167	17969
837.305	17676
837.443	17805
837.58	17767
837.718	17748
837.856	17794
837.993	17794
838.131	17707
838.269	17627
838.406	17726
838.544	17638
838.681	17493
838.819	17406
838.956	17337
839.094	17387
839.231	17345
839.369	17429
839.506	17676
839.643	17547
839.781	17197
839.918	17208
840.055	17406
840.193	17227
840.33	17220
840.467	17376
840.604	17254
840.742	17501
840.879	17090
841.016	17284
841.153	17155
841.29	17345
841.427	17242
841.564	17258
841.701	17261
841.838	17216
841.975	17246
842.112	17292
842.249	16972
842.385	16995
842.522	17200
842.659	17052
842.796	17056
842.933	16927
843.069	17067
843.206	16930
843.343	17086
843.479	17022
843.616	17098
843.752	16824
843.889	16816
844.025	17083
844.162	16892
844.298	17025
844.435	16828
844.571	16831
844.708	16858
844.844	17109
844.98	17117
845.117	17105
845.253	17105
845.389	17124
845.525	17414
845.661	17961
845.798	18532
845.934	18951
846.07	19251
846.206	19285
846.342	18981
846.478	18224
846.614	17512
846.75	16953
846.886	16733
847.022	16752
847.158	16508
847.294	16462
847.429	16478
847.565	16375
847.701	16675
847.837	16238
847.972	16086
848.108	16249
848.244	16147
848.379	16036
848.515	15953
848.65	15968
848.786	15937
848.921	15998
849.057	16063
849.192	16131
849.328	15949
849.463	15975
849.598	15903
849.734	15838
849.869	15751
850.004	15709
850.14	15690
850.275	15701
850.41	15603
850.545	15534
850.68	15660
850.815	15804
850.95	15629
851.085	15930
851.22	15705
851.355	15625
851.49	15694
851.625	15587
851.76	15660
851.895	15500
852.03	15507
852.165	15561
852.299	15705
852.434	15743
852.569	15736
852.703	15732
852.838	15808
852.973	15903
853.107	15873
853.242	15603
853.376	15614
853.511	15458
853.645	15561
853.78	15694
853.914	15515
854.048	15515
854.183	15530
854.317	15637
854.451	15770
854.585	15526
854.72	15595
854.854	15720
854.988	15435
855.122	15458
855.256	15481
855.39	15538
855.524	15709
855.658	15637
855.792	15603
855.926	15633
856.06	15637
856.194	15660
856.327	15580
856.461	15542
856.595	15542
856.729	15511
856.862	15648
856.996	15587
857.13	15488
857.263	15701
857.397	15728
857.53	15545
857.664	15591
857.797	15591
857.931	15694
858.064	15542
858.197	15542
858.331	15603
858.464	15519
858.597	15306
858.731	15603
858.864	15454
858.997	15576
859.13	15466
859.263	15561
859.396	15622
859.529	15542
859.662	15496
859.795	15466
859.928	15504
860.061	15751
860.194	15755
860.327	15591
860.46	15481
860.592	15526
860.725	15667
860.858	15625
860.99	15530
861.123	15466
861.256	15393
861.388	15526
861.521	16192
861.653	15317
861.786	15279
861.918	15355
862.05	15473
862.183	15454
862.315	15462
862.447	15553
862.58	15622
862.712	15268
862.844	15268
862.976	15283
863.108	15264
863.24	15774
863.372	15291
863.504	15249
863.636	15351
863.768	15310
863.9	15279
864.032	15169
864.164	15214
864.296	15230
864.428	15313
864.559	15420
864.691	15458
864.823	15329
864.954	15386
865.086	15332
865.217	15230
865.349	15131
865.48	15275
865.612	15268
865.743	15321
865.875	15173
866.006	15237
866.137	15294
866.269	15214
866.4	15180
866.531	15199
866.662	15272
866.793	15146
866.924	15192
867.055	15195
867.186	15165
867.317	15203
867.448	15157
867.579	15192
867.71	15188
867.841	15157
867.972	15146
868.103	15207
868.233	15226
868.364	15203
868.495	15237
868.625	15462
868.756	15542
868.886	15374
869.017	15428
869.147	15606
869.278	15629
869.408	15500
869.539	15580
869.669	15557
869.799	15542
869.929	15606
870.06	15587
870.19	15713
870.32	15823
870.45	15842
870.58	15876
870.71	15956
870.84	15926
870.97	15895
871.1	15869
871.23	16017
871.36	15987
871.489	16017
871.619	16063
871.749	16006
871.879	16101
872.008	16230
872.138	16223
872.267	16010
872.397	15937
872.526	15918
872.656	15983
872.785	16002
872.915	16166
873.044	16116
873.173	16234
873.303	16090
873.432	16162
873.561	16276
873.69	16128
873.819	16116
873.948	16204
874.077	16207
874.206	16101
874.335	16169
874.464	16322
874.593	16329
874.722	16375
874.851	16531
874.979	16417
875.108	16443
875.237	16432
875.365	16382
875.494	16470
875.623	16550
875.751	16390
875.88	16512
876.008	16637
876.136	16717
876.265	17037
876.393	17029
876.521	16850
876.65	17048
876.778	17006
876.906	16949
877.034	16843
877.162	16892
877.29	16889
877.418	16946
877.546	16953
877.674	16949
877.802	16946
877.93	16984
878.058	16923
878.185	16911
878.313	17056
878.441	17143
878.568	17064
878.696	17117
878.824	17288
878.951	17330
879.079	17729
879.206	17916
879.333	18022
879.461	18159
879.588	18152
879.715	18327
879.842	18399
879.97	18060
880.097	17524
880.224	17368
880.351	17299
880.478	17189
880.605	17102
880.732	17147
880.859	17315
880.986	17147
881.112	17018
881.239	16976
881.366	16858
881.493	16736
881.619	16596
881.746	16660
881.872	16725
881.999	16725
882.125	16790
882.252	16694
882.378	16820
882.505	16869
882.631	16592
882.757	16523
882.883	16645
883.01	16599
883.136	16398
883.262	16436
883.388	16371
883.514	16455
883.64	16554
883.766	16508
883.892	16333
884.018	16402
884.143	16618
884.269	16538
884.395	16268
884.52	16246
884.646	16188
884.772	16147
884.897	16082
885.023	16223
885.148	16390
885.274	16333
885.399	16268
885.524	16177
885.65	16246
885.775	16154
885.9	16109
886.025	16226
886.15	16211
886.275	16051
886.4	16013
886.525	16055
886.65	15964
886.775	16044
886.9	16295
887.025	16352
887.149	16032
887.274	15842
887.399	15907
887.523	15766
887.648	15781
887.773	15823
887.897	15915
888.021	15838
888.146	15831
888.27	15880
888.395	15918
888.519	15945
888.643	15854
888.767	15884
888.891	15766
889.015	15633
889.139	15679
889.263	15545
889.387	15762
889.511	15770
889.635	15793
889.759	15644
889.883	15690
890.006	15637
890.13	15728
890.254	15549
890.377	15599
890.501	15416
890.624	15397
890.748	15450
890.871	15302
890.995	15260
891.118	15211
891.241	15226
891.364	15325
891.488	15431
891.611	15306
891.734	15393
891.857	15211
891.98	15275
892.103	15351
892.226	15184
892.349	15233
892.471	15123
892.594	15207
892.717	15268
892.839	15169
892.962	15150
893.085	15226
893.207	15245
893.33	15055
893.452	15119
893.575	15222
893.697	15142
893.819	15325
893.941	15408
894.064	15272
894.186	15180
894.308	15077
894.43	15302
894.552	15500
894.674	15329
894.796	15222
894.918	15222
895.04	15123
895.161	15378
895.283	15329
895.405	15214
895.526	15302
895.648	15260
895.769	15397
895.891	15275
896.012	15420
896.134	15382
896.255	15374
896.376	15211
896.498	15389
896.619	15374
896.74	15428
896.861	15507
896.982	15656
897.103	15785
897.224	15549
897.345	15614
897.466	15523
897.587	15648
897.708	15732
897.828	15622
897.949	15584
898.07	15523
898.19	15561
898.311	15690
898.431	15492
898.552	15511
898.672	15793
898.792	15800
898.913	15766
899.033	15568
899.153	15576
899.273	15408
899.393	15504
899.513	15485
899.633	15488
899.753	15660
899.873	15564
899.993	15473
900.113	15500
900.232	15584
900.352	15439
900.472	15454
900.591	15386
900.711	15397
900.83	15329
900.95	15462
901.069	15458
901.189	15260
901.308	15062
901.427	15024
901.546	14960
901.665	15001
901.784	15017
901.904	14842
902.023	14842
902.141	14663
902.26	14594
902.379	14613
902.498	14606
902.617	14526
902.735	14682
902.854	14552
902.973	14533
903.091	14278
903.21	14298
903.328	14263
903.446	14142
903.565	14138
903.683	14145
903.801	14054
903.919	14111
904.038	14126
904.156	13906
904.274	14050
904.392	13917
904.51	13894
904.627	13833
904.745	13989
904.863	14001
904.981	13647
905.098	13628
905.216	13643
905.334	13620
905.451	13567
905.569	13518
905.686	13559
905.803	13590
905.921	13396
906.038	13434
906.155	13369
906.272	13251
906.389	13324
906.506	13145
906.623	13175
906.74	13217
906.857	13012
906.974	13069
907.091	13141
907.208	13259
907.324	13179
907.441	12962
907.557	12875
907.674	12833
907.79	12764
907.907	12802
908.023	12837
908.139	12878
908.256	12833
908.372	12798
908.488	12749
908.604	12673
908.72	12578
908.836	12601
908.952	12585
909.068	12639
909.184	12726
909.3	12509
909.415	12654
909.531	12684
909.647	12437
909.762	12426
909.878	12334
909.993	12418
910.108	12380
910.224	12327
910.339	12353
910.454	12258
910.57	12235
910.685	12087
910.8	12525
910.915	12384
911.03	12205
911.145	12022
911.259	12011
911.374	12087
911.489	12026
911.604	11904
911.718	11828
911.833	11843
911.947	11722
912.062	11619
912.176	11760
912.291	11836
912.405	11783
912.519	11912
912.633	11954
912.748	11843
912.862	11824
912.976	11592
913.09	11551
913.204	11615
913.318	11623
913.431	11710
913.545	11764
913.659	11745
913.772	11611
913.886	11516
914	11452
914.113	11657
914.226	11676
914.34	11619
914.453	11455
914.566	11589
914.68	11417
914.793	11395
914.906	11258
915.019	11166
915.132	11174
915.245	11181
915.358	11223
915.47	11239
915.583	11318
915.696	11261
915.809	11318
915.921	11391
916.034	11223
916.146	11220
916.259	11242
916.371	11246
916.483	11254
916.595	11178
916.708	11227
916.82	11086
916.932	11124
917.044	11166
917.156	11124
917.268	11048
917.38	11045
917.491	11052
917.603	11162
917.715	11181
917.826	11212
917.938	11086
918.049	10889
918.161	10965
918.272	11109
918.384	11105
918.495	10965
918.606	10915
918.717	10873
918.828	10915
918.939	10972
919.05	10820
919.161	10881
919.272	10694
919.383	10809
919.494	10877
919.604	11193
919.715	10923
919.826	10831
919.936	10877
920.047	10968
920.157	10923
920.267	11151
920.378	10984
920.488	10854
920.598	11105
920.708	11273
920.818	11121
920.928	11083
921.038	11280
921.148	11250
921.258	10930
921.368	10801
921.477	10744
921.587	10793
921.697	10615
921.806	10839
921.916	10630
922.025	10512
922.134	10466
922.244	10405
922.353	10451
922.462	10295
922.571	10268
922.68	10063
922.789	10166
922.898	10150
923.007	10139
923.116	10105
923.224	10181
923.333	10162
923.442	9964
923.55	9991
923.659	9953
923.767	10090
923.876	9964
923.984	10078
924.092	9892
924.201	10002
924.309	10036
924.417	9960
924.525	9968
924.633	9808
924.741	10763
924.849	9690
924.956	9899
925.064	9774
925.172	9656
925.279	9774
925.387	9736
925.494	9785
925.602	9876
925.709	9816
925.816	9663
925.924	9740
926.031	9781
926.138	9781
926.245	9800
926.352	9663
926.459	9755
926.566	9774
926.673	9641
926.779	9629
926.886	9637
926.993	9447
927.099	9469
927.206	9443
927.312	9389
927.419	9435
927.525	9420
927.631	9584
927.737	9393
927.843	9336
927.95	9199
928.056	9279
928.162	9325
928.267	9397
928.373	9934
928.479	9405
928.585	9173
928.69	9287
928.796	9351
928.901	9237
929.007	9043
929.112	9279
929.218	9199
929.323	9135
929.428	9188
929.533	9237
929.638	9089
929.743	9138
929.848	9142
929.953	9089
930.058	8982
930.163	8853
930.267	8899
930.372	9112
930.477	8811
930.581	9047
930.685	8975
930.79	8796
930.894	8834
930.998	8830
931.103	8971
931.207	8598
931.311	8610
931.415	8507
931.519	8343
931.623	8328
