Data from test_V78500241_1787.txt Node
Date: Fri Mar 25 14:46:09 CST 2022
User: usil
Spectrometer: V785-0024
Trigger mode: 0
Integration Time (sec): 4.000000E-1
Scans to average: 1
Nonlinearity correction enabled: false
Boxcar width: 0
Storing dark spectrum: false
XAxis mode: Wavelengths
Number of Pixels in Spectrum: 1024
>>>>>Begin Spectral Data<<<<<
801.071	22101
801.214	22101
801.356	21759
801.499	21549
801.641	21485
801.783	21515
801.926	21663
802.068	21389
802.211	21302
802.353	21332
802.496	21146
802.638	21173
802.78	21066
802.923	20857
803.065	20807
803.208	20727
803.35	20887
803.492	20918
803.635	21055
803.777	20842
803.919	20887
804.061	21344
804.204	20925
804.346	20746
804.488	20804
804.63	20762
804.773	20807
804.915	20762
805.057	20880
805.199	20769
805.341	20845
805.483	20914
805.626	20899
805.768	20750
805.91	20796
806.052	20815
806.194	20716
806.336	20910
806.478	20735
806.62	20727
806.762	20785
806.904	20971
807.046	21336
807.188	21142
807.33	21017
807.472	21096
807.614	21062
807.756	21123
807.898	20933
808.04	20712
808.182	20758
808.324	20861
808.465	20853
808.607	21104
808.749	21184
808.891	21294
809.033	21431
809.174	21180
809.316	21135
809.458	21226
809.6	21024
809.741	21370
809.883	21207
810.025	21370
810.166	21268
810.308	21283
810.45	21218
810.591	21332
810.733	20960
810.875	21093
811.016	20838
811.158	20845
811.299	20941
811.441	21066
811.582	21055
811.724	20785
811.865	20921
812.007	20868
812.148	20857
812.29	20979
812.431	21123
812.573	21256
812.714	21268
812.855	21389
812.997	21542
813.138	21743
813.279	21500
813.421	21530
813.562	21355
813.703	21321
813.845	21005
813.986	20857
814.127	20682
814.268	20537
814.41	20537
814.551	20530
814.692	20415
814.833	20298
814.974	20370
815.115	20514
815.256	20362
815.397	20267
815.539	20484
815.68	20313
815.821	20259
815.962	20187
816.103	20286
816.244	20043
816.385	19955
816.526	19967
816.666	19795
816.807	19643
816.948	19708
817.089	19681
817.23	19689
817.371	19575
817.512	19597
817.653	19571
817.793	19521
817.934	19731
818.075	19727
818.216	19578
818.356	19578
818.497	19430
818.638	19266
818.778	19312
818.919	19403
819.06	19301
819.2	19537
819.341	19525
819.481	19537
819.622	19643
819.762	19890
819.903	19750
820.043	19655
820.184	19712
820.324	19628
820.465	19689
820.605	19609
820.746	19578
820.886	19464
821.026	19620
821.167	19670
821.307	19620
821.447	19559
821.588	19445
821.728	19316
821.868	19000
822.008	19023
822.149	19046
822.289	18905
822.429	18753
822.569	18661
822.709	18726
822.849	18502
822.99	18509
823.13	18532
823.27	18486
823.41	18338
823.55	18186
823.69	18262
823.83	18311
823.97	18224
824.11	18121
824.25	18060
824.389	18049
824.529	18228
824.669	18072
824.809	18174
824.949	18125
825.089	18106
825.228	18159
825.368	17874
825.508	17878
825.648	17923
825.787	17939
825.927	17817
826.067	17805
826.206	17741
826.346	17828
826.485	17904
826.625	17836
826.765	17984
826.904	17904
827.044	17627
827.183	17729
827.323	17539
827.462	17623
827.601	17638
827.741	17532
827.88	17535
828.02	17478
828.159	17501
828.298	17608
828.437	17638
828.577	17554
828.716	17600
828.855	17474
828.994	17204
829.134	17337
829.273	17330
829.412	17261
829.551	17280
829.69	17269
829.829	17273
829.968	17307
830.107	17337
830.246	17337
830.385	17269
830.524	17083
830.663	17212
830.802	17067
830.941	16896
831.08	16839
831.219	17056
831.357	17094
831.496	17113
831.635	17052
831.774	16835
831.913	16748
832.051	16710
832.19	16774
832.329	16862
832.467	16660
832.606	16607
832.744	16523
832.883	16706
833.022	16542
833.16	16596
833.299	16664
833.437	16615
833.576	16653
833.714	16725
833.852	16668
833.991	16687
834.129	16797
834.267	16809
834.406	16713
834.544	16618
834.682	16793
834.821	16672
834.959	16744
835.097	16599
835.235	16774
835.373	16683
835.511	16736
835.65	16618
835.788	16664
835.926	16409
836.064	16344
836.202	16489
836.34	16679
836.478	16649
836.615	16569
836.753	16580
836.891	16607
837.029	16523
837.167	16436
837.305	16550
837.443	16466
837.58	16272
837.718	16470
837.856	16394
837.993	16432
838.131	16493
838.269	16154
838.406	16363
838.544	16253
838.681	16135
838.819	16139
838.956	15968
839.094	15998
839.231	16055
839.369	16097
839.506	16417
839.643	16356
839.781	16032
839.918	15915
840.055	16029
840.193	16013
840.33	15926
840.467	16021
840.604	16017
840.742	16253
840.879	15861
841.016	15895
841.153	15876
841.29	16128
841.427	16013
841.564	15956
841.701	16109
841.838	15930
841.975	15899
842.112	15945
842.249	15709
842.385	15774
842.522	15884
842.659	15804
842.796	15812
842.933	15728
843.069	15751
843.206	15736
843.343	15854
843.479	15800
843.616	15762
843.752	15561
843.889	15599
844.025	15728
844.162	15530
844.298	15694
844.435	15469
844.571	15500
844.708	15644
844.844	15675
844.98	15759
845.117	15724
845.253	15538
845.389	15389
845.525	15485
845.661	15500
845.798	15340
845.934	15492
846.07	15370
846.206	15424
846.342	15526
846.478	15401
846.614	15157
846.75	15066
846.886	15077
847.022	15207
847.158	15165
847.294	15131
847.429	15165
847.565	15066
847.701	15336
847.837	14883
847.972	14883
848.108	15043
848.244	14891
848.379	14819
848.515	14678
848.65	14629
848.786	14625
848.921	14663
849.057	14845
849.192	14872
849.328	14785
849.463	14800
849.598	14712
849.734	14613
849.869	14579
850.004	14629
850.14	14518
850.275	14545
850.41	14602
850.545	14492
850.68	14427
850.815	14473
850.95	14442
851.085	14663
851.22	14549
851.355	14537
851.49	14526
851.625	14514
851.76	14434
851.895	14332
852.03	14385
852.165	14480
852.299	14522
852.434	14545
852.569	14587
852.703	14465
852.838	14552
852.973	14659
853.107	14610
853.242	14415
853.376	14343
853.511	14233
853.645	14309
853.78	14473
853.914	14332
854.048	14336
854.183	14275
854.317	14317
854.451	14522
854.585	14396
854.72	14385
854.854	14495
854.988	14370
855.122	14374
855.256	14225
855.39	14328
855.524	14541
855.658	14423
855.792	14385
855.926	14423
856.06	14465
856.194	14511
856.327	14465
856.461	14385
856.595	14214
856.729	14473
856.862	14492
856.996	14434
857.13	14446
857.263	14465
857.397	14533
857.53	14473
857.664	14404
857.797	14507
857.931	14442
858.064	14457
858.197	14476
858.331	14332
858.464	14404
858.597	14328
858.731	14438
858.864	14415
858.997	14275
859.13	14355
859.263	14415
859.396	14469
859.529	14347
859.662	14374
859.795	14317
859.928	14366
860.061	14610
860.194	14514
860.327	14480
860.46	14431
860.592	14446
860.725	14514
860.858	14507
860.99	14336
861.123	14259
861.256	14286
861.388	14370
861.521	14982
861.653	14305
861.786	14183
861.918	14202
862.05	14389
862.183	14332
862.315	14267
862.447	14370
862.58	14351
862.712	14016
862.844	14119
862.976	14180
863.108	14218
863.24	14434
863.372	14126
863.504	14111
863.636	14164
863.768	14233
863.9	14069
864.032	14176
864.164	14134
864.296	14096
864.428	14244
864.559	14252
864.691	14199
864.823	14180
864.954	14153
865.086	14164
865.217	14130
865.349	14050
865.48	14153
865.612	14229
865.743	14259
865.875	14119
866.006	14115
866.137	14237
866.269	14138
866.4	14126
866.531	14103
866.662	13978
866.793	14058
866.924	14039
867.055	14138
867.186	14107
867.317	14168
867.448	13989
867.579	14005
867.71	14027
867.841	14123
867.972	14145
868.103	14130
868.233	14134
868.364	14191
868.495	14096
868.625	14374
868.756	14461
868.886	14328
869.017	14313
869.147	14533
869.278	14480
869.408	14351
869.539	14393
869.669	14412
869.799	14484
869.929	14537
870.06	14522
870.19	14765
870.32	14667
870.45	14788
870.58	14819
870.71	14826
870.84	14876
870.97	14716
871.1	14834
871.23	15024
871.36	15085
871.489	14800
871.619	15024
871.749	14921
871.879	15051
872.008	15116
872.138	14986
872.267	15081
872.397	14853
872.526	14762
872.656	14853
872.785	14826
872.915	15047
873.044	15070
873.173	14998
873.303	15108
873.432	15097
873.561	15043
873.69	14925
873.819	15119
873.948	15112
874.077	15028
874.206	14941
874.335	14994
874.464	15195
874.593	15332
874.722	15332
874.851	15355
874.979	15336
875.108	15367
875.237	15298
875.365	15157
875.494	15389
875.623	15481
875.751	15249
875.88	15431
876.008	15485
876.136	15545
876.265	15880
876.393	15884
876.521	15808
876.65	15911
876.778	15709
876.906	15739
877.034	15663
877.162	15770
877.29	15762
877.418	15755
877.546	15804
877.674	15724
877.802	15789
877.93	15739
878.058	15781
878.185	15663
878.313	15751
878.441	15743
878.568	15694
878.696	15584
878.824	15759
878.951	15766
879.079	15884
879.206	16013
879.333	16002
879.461	15819
879.588	15854
879.715	15907
879.842	16017
879.97	15854
880.097	15629
880.224	15625
880.351	15663
880.478	15614
880.605	15568
880.732	15587
880.859	15861
880.986	15652
881.112	15656
881.239	15530
881.366	15351
881.493	15306
881.619	15237
881.746	15279
881.872	15268
881.999	15188
882.125	15214
882.252	15294
882.378	15302
882.505	15397
882.631	15222
882.757	15116
882.883	15093
883.01	15081
883.136	14998
883.262	15001
883.388	14880
883.514	15150
883.64	15161
883.766	15055
883.892	14887
884.018	14956
884.143	15032
884.269	15211
884.395	14857
884.52	14746
884.646	14792
884.772	14750
884.897	14758
885.023	14800
885.148	14910
885.274	14899
885.399	14910
885.524	14842
885.65	14845
885.775	14853
885.9	14807
886.025	14899
886.15	14876
886.275	14796
886.4	14667
886.525	14788
886.65	14762
886.775	14693
886.9	14887
887.025	15058
887.149	14807
887.274	14705
887.399	14579
887.523	14621
887.648	14594
887.773	14465
887.897	14716
888.021	14693
888.146	14579
888.27	14602
888.395	14754
888.519	14655
888.643	14693
888.767	14636
888.891	14648
889.015	14461
889.139	14545
889.263	14495
889.387	14610
889.511	14731
889.635	14545
889.759	14454
889.883	14465
890.006	14488
890.13	14644
890.254	14412
890.377	14526
890.501	14282
890.624	14225
890.748	14282
890.871	14259
890.995	14237
891.118	14126
891.241	14233
891.364	14199
891.488	14191
891.611	14180
891.734	14187
891.857	14256
891.98	14161
892.103	14298
892.226	14278
892.349	14130
892.471	14119
892.594	14164
892.717	14073
892.839	14240
892.962	14187
893.085	14214
893.207	14195
893.33	14142
893.452	14077
893.575	14282
893.697	14130
893.819	14267
893.941	14332
894.064	14324
894.186	14142
894.308	14126
894.43	14267
894.552	14324
894.674	14256
894.796	14134
894.918	14142
895.04	14218
895.161	14343
895.283	14271
895.405	14256
895.526	14278
895.648	14282
895.769	14248
895.891	14282
896.012	14324
896.134	14438
896.255	14362
896.376	14415
896.498	14374
896.619	14450
896.74	14339
896.861	14366
896.982	14705
897.103	14819
897.224	14583
897.345	14564
897.466	14473
897.587	14511
897.708	14678
897.828	14746
897.949	14511
898.07	14408
898.19	14560
898.311	14811
898.431	14564
898.552	14606
898.672	14834
898.792	14724
898.913	14720
899.033	14610
899.153	14499
899.273	14450
899.393	14393
899.513	14579
899.633	14461
899.753	14598
899.873	14461
899.993	14575
900.113	14541
900.232	14587
900.352	14511
900.472	14438
900.591	14400
900.711	14469
900.83	14362
900.95	14495
901.069	14503
901.189	14324
901.308	14176
901.427	14005
901.546	14103
901.665	14008
901.784	14153
901.904	13959
902.023	13852
902.141	13731
902.26	13636
902.379	13712
902.498	13571
902.617	13590
902.735	13727
902.854	13575
902.973	13567
903.091	13430
903.21	13308
903.328	13369
903.446	13331
903.565	13240
903.683	13213
903.801	13122
903.919	13190
904.038	13171
904.156	13088
904.274	13160
904.392	12962
904.51	12924
904.627	12966
904.745	13057
904.863	13042
904.981	12916
905.098	12722
905.216	12821
905.334	12692
905.451	12646
905.569	12757
905.686	12852
905.803	12757
905.921	12475
906.038	12688
906.155	12532
906.272	12456
906.389	12456
906.506	12311
906.623	12380
906.74	12346
906.857	12254
906.974	12247
907.091	12365
907.208	12490
907.324	12350
907.441	12258
907.557	12114
907.674	12068
907.79	12041
907.907	11961
908.023	12076
908.139	12072
908.256	11996
908.372	11965
908.488	11954
908.604	11889
908.72	11824
908.836	11794
908.952	11710
909.068	11817
909.184	11931
909.3	11859
909.415	11847
909.531	11908
909.647	11680
909.762	11627
909.878	11554
909.993	11619
910.108	11566
910.224	11554
910.339	11562
910.454	11547
910.57	11478
910.685	11296
910.8	11722
910.915	11630
911.03	11467
911.145	11337
911.259	11197
911.374	11341
911.489	11189
911.604	11284
911.718	11060
911.833	11064
911.947	10949
912.062	10854
912.176	11010
912.291	11033
912.405	11060
912.519	11254
912.633	11220
912.748	11181
912.862	11018
912.976	10938
913.09	10831
913.204	10946
913.318	11045
913.431	11022
913.545	11029
913.659	11102
913.772	10965
913.886	10824
914	10809
914.113	10904
914.226	10908
914.34	10858
914.453	10675
914.566	10885
914.68	10763
914.793	10786
914.906	10603
915.019	10542
915.132	10481
915.245	10580
915.358	10599
915.47	10580
915.583	10542
915.696	10584
915.809	10702
915.921	10733
916.034	10580
916.146	10565
916.259	10489
916.371	10618
916.483	10497
916.595	10443
916.708	10550
916.82	10508
916.932	10379
917.044	10455
917.156	10481
917.268	10295
917.38	10280
917.491	10398
917.603	10428
917.715	10443
917.826	10497
917.938	10325
918.049	10272
918.161	10398
918.272	10554
918.384	10508
918.495	10424
918.606	10280
918.717	10207
918.828	10234
918.939	10318
919.05	10200
919.161	10291
919.272	10032
919.383	10124
919.494	10310
919.604	10481
919.715	10268
919.826	10192
919.936	10249
920.047	10344
920.157	10390
920.267	10436
920.378	10310
920.488	10230
920.598	10462
920.708	10622
920.818	10390
920.928	10478
921.038	10615
921.148	10599
921.258	10337
921.368	10234
921.477	10173
921.587	10090
921.697	10051
921.806	10131
921.916	10063
922.025	9964
922.134	9808
922.244	9793
922.353	9941
922.462	9762
922.571	9660
922.68	9545
922.789	9549
922.898	9526
923.007	9473
923.116	9534
923.224	9553
923.333	9523
923.442	9351
923.55	9386
923.659	9450
923.767	9511
923.876	9424
923.984	9416
924.092	9321
924.201	9393
924.309	9428
924.417	9424
924.525	9359
924.633	9401
924.741	10344
924.849	9077
924.956	9332
925.064	9077
925.172	9127
925.279	9161
925.387	9192
925.494	9253
925.602	9344
925.709	9256
925.816	9138
925.924	9203
926.031	9298
926.138	9214
926.245	9268
926.352	9176
926.459	9279
926.566	9317
926.673	9214
926.779	9058
926.886	9074
926.993	8914
927.099	8948
927.206	8819
927.312	8804
927.419	9013
927.525	8853
927.631	8937
927.737	8883
927.843	8872
927.95	8716
928.056	8811
928.162	8804
928.267	8868
928.373	9538
928.479	8887
928.585	8697
928.69	8796
928.796	8766
928.901	8693
929.007	8629
929.112	8773
929.218	8636
929.323	8667
929.428	8598
929.533	8826
929.638	8594
929.743	8606
929.848	8758
929.953	8617
930.058	8503
930.163	8362
930.267	8385
930.372	8568
930.477	8423
930.581	8606
930.685	8377
930.79	8339
930.894	8355
930.998	8370
931.103	8503
931.207	8157
931.311	8126
931.415	8046
931.519	7830
931.623	7811
