Data from test_V78500241_3470.txt Node
Date: Fri Mar 25 14:57:52 CST 2022
User: usil
Spectrometer: V785-0024
Trigger mode: 0
Integration Time (sec): 4.000000E-1
Scans to average: 1
Nonlinearity correction enabled: false
Boxcar width: 0
Storing dark spectrum: false
XAxis mode: Wavelengths
Number of Pixels in Spectrum: 1024
>>>>>Begin Spectral Data<<<<<
801.071	21983
801.214	21888
801.356	21618
801.499	21523
801.641	21294
801.783	21192
801.926	21291
802.068	21294
802.211	21146
802.353	21055
802.496	20845
802.638	20826
802.78	20724
802.923	20632
803.065	20629
803.208	20492
803.35	20701
803.492	20769
803.635	20769
803.777	20629
803.919	20720
804.061	21055
804.204	20667
804.346	20533
804.488	20461
804.63	20602
804.773	20473
804.915	20549
805.057	20560
805.199	20495
805.341	20530
805.483	20629
805.626	20602
805.768	20358
805.91	20568
806.052	20537
806.194	20415
806.336	20636
806.478	20495
806.62	20507
806.762	20648
806.904	20735
807.046	20910
807.188	20788
807.33	20975
807.472	20921
807.614	20636
807.756	20655
807.898	20636
808.04	20533
808.182	20667
808.324	20590
808.465	20655
808.607	20720
808.749	20906
808.891	20944
809.033	21036
809.174	20819
809.316	20830
809.458	20804
809.6	20765
809.741	20925
809.883	21009
810.025	21017
810.166	21066
810.308	20944
810.45	20910
810.591	20929
810.733	20743
810.875	20602
811.016	20503
811.158	20598
811.299	20670
811.441	20796
811.582	20705
811.724	20617
811.865	20648
812.007	20583
812.148	20549
812.29	20670
812.431	20735
812.573	20975
812.714	21043
812.855	21131
812.997	21142
813.138	21329
813.279	21169
813.421	21131
813.562	20952
813.703	20838
813.845	20895
813.986	20465
814.127	20305
814.268	20339
814.41	20130
814.551	20138
814.692	20187
814.833	20153
814.974	20164
815.115	20145
815.256	20058
815.397	20126
815.539	20081
815.68	19967
815.821	19799
815.962	19936
816.103	19780
816.244	19818
816.385	19586
816.526	19677
816.666	19540
816.807	19312
816.948	19407
817.089	19362
817.23	19312
817.371	19343
817.512	19289
817.653	19297
817.793	19297
817.934	19270
818.075	19354
818.216	19247
818.356	19331
818.497	19038
818.638	18909
818.778	18943
818.919	19004
819.06	19000
819.2	19042
819.341	19156
819.481	19183
819.622	19362
819.762	19563
819.903	19453
820.043	19320
820.184	19263
820.324	19217
820.465	19213
820.605	19255
820.746	19396
820.886	19110
821.026	19198
821.167	19198
821.307	19301
821.447	19198
821.588	19038
821.728	18981
821.868	18844
822.008	18631
822.149	18772
822.289	18738
822.429	18490
822.569	18365
822.709	18372
822.849	18171
822.99	18186
823.13	18148
823.27	18186
823.41	18034
823.55	17977
823.69	18060
823.83	17999
823.97	17973
824.11	17741
824.25	17889
824.389	17794
824.529	17840
824.669	17741
824.809	17824
824.949	17824
825.089	17737
825.228	17828
825.368	17581
825.508	17524
825.648	17611
825.787	17672
825.927	17608
826.067	17566
826.206	17532
826.346	17589
826.485	17467
826.625	17532
826.765	17520
826.904	17512
827.044	17307
827.183	17258
827.323	17223
827.462	17299
827.601	17204
827.741	17200
827.88	17250
828.02	17197
828.159	17155
828.298	17269
828.437	17402
828.577	17246
828.716	17334
828.855	17151
828.994	17113
829.134	16987
829.273	17045
829.412	17041
829.551	16934
829.69	16984
829.829	16930
829.968	17071
830.107	16999
830.246	17041
830.385	16915
830.524	16915
830.663	16782
830.802	16717
830.941	16645
831.08	16664
831.219	16626
831.357	16763
831.496	16816
831.635	16535
831.774	16573
831.913	16531
832.051	16382
832.19	16333
832.329	16462
832.467	16424
832.606	16284
832.744	16200
832.883	16223
833.022	16318
833.16	16382
833.299	16398
833.437	16329
833.576	16344
833.714	16253
833.852	16348
833.991	16421
834.129	16462
834.267	16432
834.406	16329
834.544	16402
834.682	16382
834.821	16344
834.959	16550
835.097	16417
835.235	16432
835.373	16436
835.511	16382
835.65	16325
835.788	16344
835.926	16131
836.064	16074
836.202	16185
836.34	16284
836.478	16459
836.615	16276
836.753	16196
836.891	16428
837.029	16230
837.167	16181
837.305	16310
837.443	16192
837.58	16097
837.718	16303
837.856	16185
837.993	16044
838.131	16105
838.269	16010
838.406	16150
838.544	16051
838.681	15888
838.819	15876
838.956	15690
839.094	15663
839.231	15842
839.369	15800
839.506	16162
839.643	16025
839.781	15781
839.918	15709
840.055	15838
840.193	15701
840.33	15629
840.467	15603
840.604	15778
840.742	15972
840.879	15629
841.016	15648
841.153	15625
841.29	15895
841.427	15739
841.564	15812
841.701	15759
841.838	15576
841.975	15644
842.112	15595
842.249	15538
842.385	15477
842.522	15728
842.659	15629
842.796	15466
842.933	15523
843.069	15458
843.206	15447
843.343	15587
843.479	15519
843.616	15599
843.752	15260
843.889	15325
844.025	15428
844.162	15344
844.298	15454
844.435	15291
844.571	15214
844.708	15382
844.844	15408
844.98	15523
845.117	15340
845.253	15344
845.389	15211
845.525	15233
845.661	15131
845.798	15112
845.934	15192
846.07	15070
846.206	15218
846.342	15131
846.478	15123
846.614	14929
846.75	14895
846.886	14796
847.022	14925
847.158	14902
847.294	14925
847.429	14967
847.565	14861
847.701	15214
847.837	14636
847.972	14556
848.108	14689
848.244	14613
848.379	14579
848.515	14480
848.65	14492
848.786	14484
848.921	14461
849.057	14568
849.192	14533
849.328	14480
849.463	14457
849.598	14522
849.734	14446
849.869	14320
850.004	14286
850.14	14259
850.275	14301
850.41	14142
850.545	14225
850.68	14237
850.815	14294
850.95	14237
851.085	14514
851.22	14374
851.355	14275
851.49	14259
851.625	14233
851.76	14176
851.895	14126
852.03	14244
852.165	14229
852.299	14229
852.434	14298
852.569	14267
852.703	14313
852.838	14389
852.973	14396
853.107	14362
853.242	14126
853.376	14103
853.511	14035
853.645	14119
853.78	14202
853.914	14191
854.048	14161
854.183	14130
854.317	14263
854.451	14324
854.585	14168
854.72	14138
854.854	14195
854.988	14115
855.122	14142
855.256	14008
855.39	14100
855.524	14218
855.658	14225
855.792	14214
855.926	14221
856.06	14252
856.194	14233
856.327	14180
856.461	14153
856.595	14069
856.729	14103
856.862	14180
856.996	14107
857.13	14172
857.263	14294
857.397	14282
857.53	14157
857.664	14278
857.797	14176
857.931	14313
858.064	14218
858.197	14317
858.331	14142
858.464	14096
858.597	14001
858.731	14187
858.864	14077
858.997	14100
859.13	14206
859.263	14180
859.396	14244
859.529	14092
859.662	14130
859.795	14157
859.928	14180
860.061	14286
860.194	14370
860.327	14195
860.46	14096
860.592	14298
860.725	14290
860.858	14256
860.99	14111
861.123	14119
861.256	14069
861.388	14073
861.521	14826
861.653	13951
861.786	14020
861.918	14069
862.05	14081
862.183	14145
862.315	14145
862.447	14221
862.58	14111
862.712	13936
862.844	13993
862.976	14054
863.108	14008
863.24	14412
863.372	13986
863.504	13997
863.636	13917
863.768	14039
863.9	13940
864.032	13951
864.164	13936
864.296	13940
864.428	14050
864.559	14092
864.691	14016
864.823	13932
864.954	13955
865.086	13986
865.217	13913
865.349	13814
865.48	13940
865.612	13936
865.743	14024
865.875	14012
866.006	13932
866.137	13841
866.269	13959
866.4	13951
866.531	13887
866.662	13894
866.793	13845
866.924	13871
867.055	13955
867.186	13940
867.317	13921
867.448	13833
867.579	13936
867.71	13925
867.841	13875
867.972	13871
868.103	13944
868.233	13928
868.364	13883
868.495	13963
868.625	14100
868.756	14218
868.886	14084
869.017	14138
869.147	14339
869.278	14324
869.408	14214
869.539	14183
869.669	14256
869.799	14153
869.929	14229
870.06	14278
870.19	14476
870.32	14511
870.45	14552
870.58	14541
870.71	14667
870.84	14682
870.97	14530
871.1	14492
871.23	14777
871.36	14777
871.489	14670
871.619	14667
871.749	14876
871.879	14777
872.008	14952
872.138	14849
872.267	14788
872.397	14705
872.526	14629
872.656	14575
872.785	14667
872.915	14895
873.044	14986
873.173	14902
873.303	14921
873.432	14921
873.561	14849
873.69	14975
873.819	14739
873.948	14826
874.077	14849
874.206	14842
874.335	14834
874.464	15020
874.593	15089
874.722	15024
874.851	15218
874.979	15127
875.108	15214
875.237	15176
875.365	15017
875.494	15116
875.623	15230
875.751	14982
875.88	15226
876.008	15279
876.136	15355
876.265	15576
876.393	15561
876.521	15648
876.65	15625
876.778	15538
876.906	15481
877.034	15504
877.162	15519
877.29	15469
877.418	15504
877.546	15500
877.674	15553
877.802	15515
877.93	15576
878.058	15606
878.185	15374
878.313	15603
878.441	15538
878.568	15386
878.696	15500
878.824	15580
878.951	15549
879.079	15724
879.206	15941
879.333	15694
879.461	15641
879.588	15656
879.715	15816
879.842	15808
879.97	15675
880.097	15378
880.224	15359
880.351	15553
880.478	15397
880.605	15367
880.732	15359
880.859	15698
880.986	15397
881.112	15473
881.239	15412
881.366	15230
881.493	15112
881.619	15131
881.746	15081
881.872	15051
881.999	15001
882.125	15055
882.252	15062
882.378	15039
882.505	15188
882.631	14960
882.757	14823
882.883	14876
883.01	14826
883.136	14823
883.262	14727
883.388	14716
883.514	14925
883.64	14910
883.766	14781
883.892	14640
884.018	14777
884.143	14842
884.269	15024
884.395	14625
884.52	14602
884.646	14655
884.772	14480
884.897	14484
885.023	14594
885.148	14648
885.274	14773
885.399	14712
885.524	14636
885.65	14636
885.775	14632
885.9	14598
886.025	14735
886.15	14712
886.275	14594
886.4	14549
886.525	14522
886.65	14450
886.775	14549
886.9	14758
887.025	14785
887.149	14590
887.274	14530
887.399	14332
887.523	14374
887.648	14301
887.773	14423
887.897	14415
888.021	14446
888.146	14423
888.27	14518
888.395	14575
888.519	14400
888.643	14568
888.767	14465
888.891	14374
889.015	14229
889.139	14400
889.263	14309
889.387	14358
889.511	14454
889.635	14454
889.759	14301
889.883	14309
890.006	14301
890.13	14381
890.254	14248
890.377	14187
890.501	14084
890.624	14050
890.748	14172
890.871	13974
890.995	14035
891.118	13951
891.241	13967
891.364	14005
891.488	14096
891.611	13932
891.734	13955
891.857	14039
891.98	14062
892.103	14107
892.226	14008
892.349	13970
892.471	13845
892.594	13967
892.717	14054
892.839	14016
892.962	13925
893.085	14001
893.207	13982
893.33	13909
893.452	13898
893.575	14001
893.697	13936
893.819	14191
893.941	14202
894.064	14096
894.186	13974
894.308	14005
894.43	14065
894.552	14142
894.674	14092
894.796	13947
894.918	14020
895.04	14039
895.161	14096
895.283	14100
895.405	14054
895.526	14126
895.648	14073
895.769	14081
895.891	14115
896.012	14275
896.134	14130
896.255	14084
896.376	14134
896.498	14176
896.619	14290
896.74	14119
896.861	14084
896.982	14568
897.103	14568
897.224	14313
897.345	14408
897.466	14358
897.587	14419
897.708	14545
897.828	14617
897.949	14412
898.07	14358
898.19	14320
898.311	14583
898.431	14385
898.552	14434
898.672	14545
898.792	14632
898.913	14617
899.033	14450
899.153	14366
899.273	14271
899.393	14248
899.513	14362
899.633	14370
899.753	14419
899.873	14339
899.993	14362
900.113	14332
900.232	14415
900.352	14339
900.472	14294
900.591	14221
900.711	14271
900.83	14256
900.95	14370
901.069	14286
901.189	14180
901.308	14001
901.427	13902
901.546	13947
901.665	13986
901.784	13864
901.904	13685
902.023	13780
902.141	13499
902.26	13510
902.379	13582
902.498	13453
902.617	13430
902.735	13483
902.854	13476
902.973	13358
903.091	13145
903.21	13179
903.328	13263
903.446	13008
903.565	13065
903.683	13057
903.801	12947
903.919	13004
904.038	12985
904.156	12920
904.274	13065
904.392	12943
904.51	12840
904.627	12798
904.745	12890
904.863	12905
904.981	12662
905.098	12604
905.216	12608
905.334	12593
905.451	12494
905.569	12563
905.686	12612
905.803	12563
905.921	12445
906.038	12479
906.155	12441
906.272	12232
906.389	12262
906.506	12159
906.623	12216
906.74	12102
906.857	11969
906.974	12083
907.091	12251
907.208	12315
907.324	12171
907.441	12064
907.557	11965
907.674	11904
907.79	11726
907.907	11927
908.023	11889
908.139	11965
908.256	11923
908.372	11874
908.488	11817
908.604	11748
908.72	11615
908.836	11733
908.952	11573
909.068	11676
909.184	11779
909.3	11680
909.415	11703
909.531	11722
909.647	11566
909.762	11402
909.878	11337
909.993	11444
910.108	11296
910.224	11372
910.339	11414
910.454	11372
910.57	11269
910.685	11140
910.8	11490
910.915	11429
911.03	11318
911.145	11166
911.259	11113
911.374	11132
911.489	11064
911.604	11045
911.718	10911
911.833	10854
911.947	10816
912.062	10733
912.176	10858
912.291	10908
912.405	10866
912.519	11098
912.633	11109
912.748	11037
912.862	10915
912.976	10767
913.09	10668
913.204	10710
913.318	10767
913.431	10831
913.545	10927
913.659	10911
913.772	10691
913.886	10675
914	10527
914.113	10733
914.226	10729
914.34	10763
914.453	10561
914.566	10755
914.68	10668
914.793	10622
914.906	10413
915.019	10382
915.132	10284
915.245	10367
915.358	10440
915.47	10485
915.583	10436
915.696	10516
915.809	10527
915.921	10516
916.034	10382
916.146	10344
916.259	10424
916.371	10481
916.483	10405
916.595	10318
916.708	10360
916.82	10322
916.932	10352
917.044	10257
917.156	10299
917.268	10242
917.38	10310
917.491	10109
917.603	10310
917.715	10337
917.826	10379
917.938	10265
918.049	10124
918.161	10280
918.272	10421
918.384	10363
918.495	10306
918.606	10215
918.717	10086
918.828	10158
918.939	10192
919.05	10071
919.161	10101
919.272	9873
919.383	10010
919.494	10211
919.604	10363
919.715	10200
919.826	10010
919.936	10109
920.047	10249
920.157	10177
920.267	10413
920.378	10215
920.488	10116
920.598	10344
920.708	10500
920.818	10390
920.928	10363
921.038	10588
921.148	10497
921.258	10177
921.368	10150
921.477	10017
921.587	9994
921.697	9823
921.806	10097
921.916	9907
922.025	9709
922.134	9732
922.244	9694
922.353	9747
922.462	9595
922.571	9606
922.68	9428
922.789	9420
922.898	9492
923.007	9420
923.116	9500
923.224	9397
923.333	9378
923.442	9283
923.55	9310
923.659	9370
923.767	9340
923.876	9249
923.984	9367
924.092	9203
924.201	9291
924.309	9302
924.417	9317
924.525	9291
924.633	9211
924.741	10200
924.849	9051
924.956	9230
925.064	9104
925.172	8982
925.279	9017
925.387	9127
925.494	9173
925.602	9211
925.709	9154
925.816	9020
925.924	9074
926.031	9192
926.138	9119
926.245	9093
926.352	9005
926.459	9157
926.566	9188
926.673	9058
926.779	8948
926.886	9036
926.993	8899
927.099	8746
927.206	8777
927.312	8724
927.419	8785
927.525	8743
927.631	8823
927.737	8735
927.843	8667
927.95	8663
928.056	8727
928.162	8739
928.267	8807
928.373	9393
928.479	8762
928.585	8533
928.69	8746
928.796	8735
928.901	8606
929.007	8442
929.112	8613
929.218	8590
929.323	8454
929.428	8556
929.533	8594
929.638	8415
929.743	8514
929.848	8560
929.953	8465
930.058	8415
930.163	8263
930.267	8298
930.372	8446
930.477	8267
930.581	8495
930.685	8374
930.79	8252
930.894	8279
930.998	8195
931.103	8355
931.207	8035
931.311	7967
931.415	7925
931.519	7696
931.623	7746
