Data from test_V78500241_366.txt Node
Date: Fri Mar 25 14:36:16 CST 2022
User: usil
Spectrometer: V785-0024
Trigger mode: 0
Integration Time (sec): 4.000000E-1
Scans to average: 1
Nonlinearity correction enabled: false
Boxcar width: 0
Storing dark spectrum: false
XAxis mode: Wavelengths
Number of Pixels in Spectrum: 1024
>>>>>Begin Spectral Data<<<<<
801.071	26781
801.214	26842
801.356	26549
801.499	26438
801.641	26332
801.783	26225
801.926	26301
802.068	26259
802.211	26035
802.353	26195
802.496	26065
802.638	25841
802.78	25879
802.923	25750
803.065	25662
803.208	25670
803.35	25830
803.492	25799
803.635	25947
803.777	25818
803.919	25966
804.061	26027
804.204	25822
804.346	25658
804.488	25662
804.63	25887
804.773	25742
804.915	25845
805.057	25936
805.199	25887
805.341	25833
805.483	25860
805.626	25769
805.768	25799
805.91	25837
806.052	25856
806.194	25738
806.336	26012
806.478	25750
806.62	25784
806.762	25913
806.904	26107
807.046	26332
807.188	26244
807.33	26084
807.472	26294
807.614	26069
807.756	26218
807.898	26039
808.04	25909
808.182	25932
808.324	25966
808.465	26016
808.607	26062
808.749	26187
808.891	26381
809.033	26579
809.174	26469
809.316	26252
809.458	26465
809.6	26305
809.741	26396
809.883	26450
810.025	26374
810.166	26533
810.308	26465
810.45	26427
810.591	26362
810.733	26218
810.875	26168
811.016	26149
811.158	26183
811.299	26351
811.441	26256
811.582	26317
811.724	26103
811.865	26119
812.007	26187
812.148	26119
812.29	26092
812.431	26374
812.573	26552
812.714	26530
812.855	26621
812.997	26720
813.138	26857
813.279	26670
813.421	26651
813.562	26495
813.703	26415
813.845	26347
813.986	26058
814.127	26027
814.268	25689
814.41	25860
814.551	25643
814.692	25750
814.833	25700
814.974	25704
815.115	25811
815.256	25445
815.397	25441
815.539	25487
815.68	25419
815.821	25491
815.962	25533
816.103	25441
816.244	25263
816.385	25190
816.526	25152
816.666	25023
816.807	24715
816.948	24890
817.089	24932
817.23	24943
817.371	24890
817.512	24798
817.653	24749
817.793	24692
817.934	24924
818.075	24871
818.216	24901
818.356	24738
818.497	24589
818.638	24551
818.778	24513
818.919	24654
819.06	24582
819.2	24661
819.341	24760
819.481	24734
819.622	24954
819.762	24913
819.903	24916
820.043	24890
820.184	24821
820.324	24817
820.465	24951
820.605	24848
820.746	24768
820.886	24635
821.026	24779
821.167	24730
821.307	24764
821.447	24642
821.588	24635
821.728	24422
821.868	24308
822.008	24117
822.149	24121
822.289	24136
822.429	23931
822.569	23927
822.709	24003
822.849	23649
822.99	23638
823.13	23604
823.27	23528
823.41	23368
823.55	23315
823.69	23307
823.83	23467
823.97	23288
824.11	23216
824.25	23261
824.389	23159
824.529	23330
824.669	23147
824.809	23307
824.949	23208
825.089	23265
825.228	23159
825.368	23174
825.508	22991
825.648	23022
825.787	22946
825.927	23079
826.067	23044
826.206	22961
826.346	23117
826.485	23033
826.625	23033
826.765	23094
826.904	22915
827.044	22744
827.183	22748
827.323	22615
827.462	22664
827.601	22622
827.741	22630
827.88	22649
828.02	22516
828.159	22626
828.298	22706
828.437	22641
828.577	22645
828.716	22763
828.855	22535
828.994	22375
829.134	22436
829.273	22478
829.412	22291
829.551	22284
829.69	22284
829.829	22238
829.968	22379
830.107	22417
830.246	22333
830.385	22200
830.524	22181
830.663	22192
830.802	22120
830.941	21812
831.08	21937
831.219	21937
831.357	21960
831.496	22078
831.635	22017
831.774	21857
831.913	21774
832.051	21587
832.19	21709
832.329	21686
832.467	21720
832.606	21557
832.744	21637
832.883	21545
833.022	21519
833.16	21485
833.299	21568
833.437	21466
833.576	21595
833.714	21618
833.852	21603
833.991	21637
834.129	21682
834.267	21652
834.406	21576
834.544	21530
834.682	21644
834.821	21526
834.959	21652
835.097	21462
835.235	21686
835.373	21534
835.511	21519
835.65	21363
835.788	21447
835.926	21279
836.064	21268
836.202	21329
836.34	21473
836.478	21488
836.615	21348
836.753	21435
836.891	21553
837.029	21454
837.167	21389
837.305	21386
837.443	21154
837.58	21233
837.718	21408
837.856	21268
837.993	21249
838.131	21264
838.269	21275
838.406	21135
838.544	21116
838.681	21001
838.819	20910
838.956	20663
839.094	20743
839.231	20739
839.369	20864
839.506	21055
839.643	20956
839.781	20659
839.918	20735
840.055	20674
840.193	20636
840.33	20724
840.467	20617
840.604	20636
840.742	20788
840.879	20537
841.016	20541
841.153	20423
841.29	20712
841.427	20545
841.564	20678
841.701	20564
841.838	20457
841.975	20476
842.112	20488
842.249	20419
842.385	20263
842.522	20613
842.659	20339
842.796	20172
842.933	20408
843.069	20298
843.206	20191
843.343	20389
843.479	20225
843.616	20374
843.752	20077
843.889	20122
844.025	20199
844.162	20122
844.298	20180
844.435	20008
844.571	19993
844.708	20119
844.844	20206
844.98	20164
845.117	20237
845.253	20088
845.389	19928
845.525	20039
845.661	20035
845.798	19852
845.934	19932
846.07	19852
846.206	19967
846.342	20073
846.478	19898
846.614	19693
846.75	19620
846.886	19590
847.022	19658
847.158	19502
847.294	19605
847.429	19647
847.565	19453
847.701	19708
847.837	19308
847.972	19278
848.108	19365
848.244	19407
848.379	19194
848.515	19046
848.65	19053
848.786	19148
848.921	19133
849.057	19206
849.192	19236
849.328	19190
849.463	19118
849.598	19095
849.734	19031
849.869	19057
850.004	18909
850.14	18977
850.275	18901
850.41	18875
850.545	18863
850.68	18802
850.815	19012
850.95	18863
851.085	19091
851.22	19023
851.355	18798
851.49	18779
851.625	18757
851.76	18787
851.895	18745
852.03	18795
852.165	18829
852.299	18825
852.434	18878
852.569	18837
852.703	18871
852.838	18863
852.973	19027
853.107	18840
853.242	18711
853.376	18722
853.511	18585
853.645	18646
853.78	18878
853.914	18608
854.048	18639
854.183	18703
854.317	18669
854.451	18852
854.585	18726
854.72	18688
854.854	18825
854.988	18585
855.122	18669
855.256	18570
855.39	18631
855.524	18817
855.658	18612
855.792	18616
855.926	18612
856.06	18642
856.194	18715
856.327	18700
856.461	18521
856.595	18711
856.729	18563
856.862	18753
856.996	18585
857.13	18730
857.263	18894
857.397	18711
857.53	18589
857.664	18578
857.797	18654
857.931	18764
858.064	18677
858.197	18696
858.331	18597
858.464	18646
858.597	18506
858.731	18589
858.864	18616
858.997	18532
859.13	18551
859.263	18559
859.396	18722
859.529	18509
859.662	18506
859.795	18559
859.928	18528
860.061	18817
860.194	18776
860.327	18593
860.46	18506
860.592	18627
860.725	18650
860.858	18745
860.99	18570
861.123	18521
861.256	18429
861.388	18597
861.521	19259
861.653	18483
861.786	18403
861.918	18490
862.05	18521
862.183	18570
862.315	18559
862.447	18741
862.58	18570
862.712	18403
862.844	18380
862.976	18445
863.108	18410
863.24	18871
863.372	18300
863.504	18380
863.636	18418
863.768	18399
863.9	18296
864.032	18254
864.164	18289
864.296	18251
864.428	18448
864.559	18380
864.691	18448
864.823	18311
864.954	18342
865.086	18315
865.217	18171
865.349	18209
865.48	18186
865.612	18239
865.743	18407
865.875	18292
866.006	18186
866.137	18232
866.269	18224
866.4	18174
866.531	18190
866.662	18216
866.793	18224
866.924	18125
867.055	18079
867.186	18235
867.317	18213
867.448	18007
867.579	18087
867.71	18125
867.841	18007
867.972	18235
868.103	18178
868.233	18167
868.364	18140
868.495	18300
868.625	18429
868.756	18418
868.886	18330
869.017	18422
869.147	18467
869.278	18547
869.408	18372
869.539	18395
869.669	18521
869.799	18414
869.929	18464
870.06	18578
870.19	18719
870.32	18631
870.45	18776
870.58	18757
870.71	18897
870.84	18932
870.97	18840
871.1	18859
871.23	18951
871.36	18962
871.489	18856
871.619	19038
871.749	19008
871.879	18985
872.008	19072
872.138	18966
872.267	18966
872.397	18825
872.526	18802
872.656	18779
872.785	18913
872.915	19019
873.044	18989
873.173	18996
873.303	19031
873.432	19141
873.561	19072
873.69	19015
873.819	19137
873.948	19156
874.077	19038
874.206	19061
874.335	19004
874.464	19091
874.593	19324
874.722	19263
874.851	19308
874.979	19236
875.108	19346
875.237	19373
875.365	19141
875.494	19278
875.623	19381
875.751	19164
875.88	19350
876.008	19449
876.136	19472
876.265	19594
876.393	19811
876.521	19788
876.65	19807
876.778	19750
876.906	19693
877.034	19674
877.162	19788
877.29	19586
877.418	19734
877.546	19689
877.674	19712
877.802	19685
877.93	19708
878.058	19620
878.185	19632
878.313	19696
878.441	19738
878.568	19578
878.696	19582
878.824	19734
878.951	19830
879.079	19928
879.206	20046
879.333	19856
879.461	19780
879.588	19788
879.715	20008
879.842	19997
879.97	19868
880.097	19567
880.224	19521
880.351	19525
880.478	19540
880.605	19510
880.732	19506
880.859	19765
880.986	19544
881.112	19548
881.239	19464
881.366	19362
881.493	19236
881.619	19118
881.746	19259
881.872	19141
881.999	19110
882.125	19259
882.252	19187
882.378	19206
882.505	19308
882.631	19129
882.757	18996
882.883	18951
883.01	18878
883.136	18966
883.262	18760
883.388	18875
883.514	18977
883.64	19027
883.766	18856
883.892	18745
884.018	18700
884.143	18882
884.269	18996
884.395	18661
884.52	18654
884.646	18547
884.772	18498
884.897	18426
885.023	18517
885.148	18677
885.274	18738
885.399	18639
885.524	18574
885.65	18582
885.775	18616
885.9	18532
886.025	18620
886.15	18654
886.275	18570
886.4	18422
886.525	18471
886.65	18448
886.775	18464
886.9	18589
887.025	18760
887.149	18555
887.274	18429
887.399	18399
887.523	18330
887.648	18254
887.773	18205
887.897	18399
888.021	18365
888.146	18311
888.27	18403
888.395	18365
888.519	18304
888.643	18410
888.767	18304
888.891	18235
889.015	18190
889.139	18258
889.263	18087
889.387	18300
889.511	18315
889.635	18228
889.759	18095
889.883	18121
890.006	18224
890.13	18251
890.254	17980
890.377	18171
890.501	18003
890.624	17874
890.748	17908
890.871	17901
890.995	17737
891.118	17585
891.241	17707
891.364	17821
891.488	18030
891.611	17794
891.734	17729
891.857	17798
891.98	17699
892.103	17771
892.226	17764
892.349	17752
892.471	17604
892.594	17653
892.717	17722
892.839	17649
892.962	17619
893.085	17802
893.207	17748
893.33	17551
893.452	17653
893.575	17786
893.697	17699
893.819	17866
893.941	17969
894.064	17832
894.186	17619
894.308	17570
894.43	17855
894.552	17946
894.674	17840
894.796	17646
894.918	17646
895.04	17687
895.161	17843
895.283	17748
895.405	17779
895.526	17748
895.648	17729
895.769	17657
895.891	17737
896.012	17794
896.134	17771
896.255	17847
896.376	17843
896.498	17745
896.619	17840
896.74	17843
896.861	17882
896.982	18152
897.103	18258
897.224	18144
897.345	18102
897.466	17908
897.587	18019
897.708	18144
897.828	18098
897.949	18034
898.07	17866
898.19	17897
898.311	18125
898.431	18064
898.552	18053
898.672	18167
898.792	18019
898.913	18003
899.033	17901
899.153	17699
899.273	17710
899.393	17790
899.513	17764
899.633	17847
899.753	17748
899.873	17661
899.993	17843
900.113	17653
900.232	17779
900.352	17779
900.472	17661
900.591	17642
900.711	17695
900.83	17589
900.95	17741
901.069	17718
901.189	17589
901.308	17322
901.427	17299
901.546	17265
901.665	17178
901.784	17265
901.904	17094
902.023	16938
902.141	16892
902.26	16843
902.379	16801
902.498	16717
902.617	16774
902.735	16854
902.854	16694
902.973	16660
903.091	16478
903.21	16538
903.328	16527
903.446	16405
903.565	16219
903.683	16318
903.801	16211
903.919	16246
904.038	16185
904.156	16048
904.274	16120
904.392	16128
904.51	16093
904.627	16135
904.745	16055
904.863	16120
904.981	15823
905.098	15694
905.216	15762
905.334	15747
905.451	15610
905.569	15637
905.686	15751
905.803	15698
905.921	15603
906.038	15625
906.155	15584
906.272	15332
906.389	15431
906.506	15310
906.623	15275
906.74	15245
906.857	15222
906.974	15203
907.091	15317
907.208	15447
907.324	15283
907.441	15146
907.557	15093
907.674	14815
907.79	14933
907.907	14826
908.023	15005
908.139	15009
908.256	14834
908.372	14929
908.488	14887
908.604	14743
908.72	14598
908.836	14697
908.952	14708
909.068	14594
909.184	14830
909.3	14663
909.415	14735
909.531	14686
909.647	14454
909.762	14408
909.878	14427
909.993	14366
910.108	14290
910.224	14317
910.339	14282
910.454	14309
910.57	14240
910.685	14180
910.8	14362
910.915	14450
911.03	14191
911.145	14096
911.259	14031
911.374	14088
911.489	13993
911.604	13803
911.718	13860
911.833	13791
911.947	13674
912.062	13563
912.176	13811
912.291	13731
912.405	13788
912.519	13875
912.633	13967
912.748	13780
912.862	13788
912.976	13636
913.09	13441
913.204	13647
913.318	13613
913.431	13742
913.545	13662
913.659	13765
913.772	13510
913.886	13472
914	13438
914.113	13510
914.226	13559
914.34	13533
914.453	13339
914.566	13521
914.68	13438
914.793	13343
914.906	13114
915.019	13156
915.132	13019
915.245	13084
915.358	13156
915.47	13110
915.583	13053
915.696	13137
915.809	13198
915.921	13171
916.034	13008
916.146	12958
916.259	12947
916.371	13080
916.483	13183
916.595	12981
916.708	12989
916.82	12970
916.932	12947
917.044	12863
917.156	12928
917.268	12840
917.38	12867
917.491	12795
917.603	12821
917.715	12928
917.826	12913
917.938	12802
918.049	12684
918.161	12779
918.272	12905
918.384	12897
918.495	12707
918.606	12570
918.717	12593
918.828	12589
918.939	12658
919.05	12547
919.161	12612
919.272	12441
919.383	12544
919.494	12585
919.604	12829
919.715	12631
919.826	12593
919.936	12563
920.047	12536
920.157	12669
920.267	12722
920.378	12616
920.488	12532
920.598	12783
920.708	12806
920.818	12760
920.928	12787
921.038	12913
921.148	12821
921.258	12547
921.368	12384
921.477	12327
921.587	12342
921.697	12228
921.806	12350
921.916	12281
922.025	12091
922.134	11916
922.244	11984
922.353	12038
922.462	11798
922.571	11904
922.68	11665
922.789	11665
922.898	11745
923.007	11589
923.116	11691
923.224	11627
923.333	11680
923.442	11592
923.55	11535
923.659	11539
923.767	11615
923.876	11516
923.984	11592
924.092	11459
924.201	11459
924.309	11528
924.417	11516
924.525	11421
924.633	11471
924.741	12224
924.849	11258
924.956	11398
925.064	11322
925.172	11159
925.279	11185
925.387	11242
925.494	11303
925.602	11307
925.709	11322
925.816	11113
925.924	11208
926.031	11197
926.138	11185
926.245	11136
926.352	11136
926.459	11330
926.566	11356
926.673	11090
926.779	10991
926.886	10965
926.993	10976
927.099	10782
927.206	10797
927.312	10889
927.419	10885
927.525	10839
927.631	10869
927.737	10774
927.843	10714
927.95	10668
928.056	10687
928.162	10755
928.267	10797
928.373	11395
928.479	10850
928.585	10596
928.69	10607
928.796	10801
928.901	10675
929.007	10367
929.112	10550
929.218	10546
929.323	10455
929.428	10485
929.533	10588
929.638	10386
929.743	10443
929.848	10512
929.953	10436
930.058	10348
930.163	10196
930.267	10227
930.372	10379
930.477	10192
930.581	10474
930.685	10249
930.79	10036
930.894	10169
930.998	10086
931.103	10227
931.207	9892
931.311	9774
931.415	9713
931.519	9496
931.623	9641
