Data from test_V78500241_1158.txt Node
Date: Fri Mar 25 14:41:46 CST 2022
User: usil
Spectrometer: V785-0024
Trigger mode: 0
Integration Time (sec): 4.000000E-1
Scans to average: 1
Nonlinearity correction enabled: false
Boxcar width: 0
Storing dark spectrum: false
XAxis mode: Wavelengths
Number of Pixels in Spectrum: 1024
>>>>>Begin Spectral Data<<<<<
801.071	22607
801.214	22459
801.356	22291
801.499	22093
801.641	21934
801.783	21876
801.926	21964
802.068	21922
802.211	21724
802.353	21625
802.496	21519
802.638	21408
802.78	21355
802.923	21344
803.065	21138
803.208	21260
803.35	21237
803.492	21245
803.635	21340
803.777	21176
803.919	21291
804.061	21587
804.204	21317
804.346	21180
804.488	21100
804.63	21093
804.773	21188
804.915	21157
805.057	21222
805.199	21169
805.341	21119
805.483	21241
805.626	21161
805.768	21169
805.91	21070
806.052	21218
806.194	20975
806.336	21344
806.478	21207
806.62	21173
806.762	21199
806.904	21370
807.046	21424
807.188	21587
807.33	21485
807.472	21587
807.614	21481
807.756	21549
807.898	21317
808.04	21249
808.182	21340
808.324	21302
808.465	21359
808.607	21679
808.749	21717
808.891	21819
809.033	21861
809.174	21880
809.316	21679
809.458	21656
809.6	21526
809.741	21770
809.883	21614
810.025	21827
810.166	21720
810.308	21747
810.45	21755
810.591	21576
810.733	21458
810.875	21428
811.016	21283
811.158	21344
811.299	21268
811.441	21496
811.582	21500
811.724	21355
811.865	21256
812.007	21386
812.148	21370
812.29	21408
812.431	21606
812.573	21686
812.714	21850
812.855	21918
812.997	21911
813.138	22055
813.279	21812
813.421	21895
813.562	21751
813.703	21705
813.845	21462
813.986	21245
814.127	21112
814.268	20895
814.41	20963
814.551	20990
814.692	21020
814.833	20910
814.974	20921
815.115	20902
815.256	20701
815.397	20708
815.539	20697
815.68	20526
815.821	20492
815.962	20678
816.103	20514
816.244	20568
816.385	20324
816.526	20446
816.666	20328
816.807	20081
816.948	20237
817.089	20084
817.23	20054
817.371	20077
817.512	20119
817.653	20062
817.793	19909
817.934	20035
818.075	20111
818.216	19982
818.356	19997
818.497	19936
818.638	19780
818.778	19719
818.919	19753
819.06	19814
819.2	19883
819.341	19974
819.481	19917
819.622	20054
819.762	20309
819.903	20187
820.043	20062
820.184	20043
820.324	20088
820.465	20065
820.605	20126
820.746	20065
820.886	19788
821.026	20107
821.167	20008
821.307	19997
821.447	19963
821.588	19913
821.728	19750
821.868	19674
822.008	19518
822.149	19434
822.289	19301
822.429	19198
822.569	19164
822.709	19183
822.849	18985
822.99	18867
823.13	18954
823.27	18829
823.41	18814
823.55	18696
823.69	18810
823.83	18776
823.97	18639
824.11	18490
824.25	18597
824.389	18479
824.529	18684
824.669	18456
824.809	18532
824.949	18608
825.089	18566
825.228	18525
825.368	18399
825.508	18361
825.648	18399
825.787	18330
825.927	18452
826.067	18232
826.206	18224
826.346	18228
826.485	18247
826.625	18201
826.765	18441
826.904	18361
827.044	18083
827.183	18079
827.323	17916
827.462	17950
827.601	18038
827.741	18057
827.88	17984
828.02	17851
828.159	17954
828.298	18011
828.437	18114
828.577	18057
828.716	18243
828.855	17901
828.994	17722
829.134	17676
829.273	17718
829.412	17783
829.551	17703
829.69	17775
829.829	17722
829.968	17752
830.107	17714
830.246	17813
830.385	17630
830.524	17619
830.663	17528
830.802	17497
830.941	17440
831.08	17433
831.219	17478
831.357	17459
831.496	17657
831.635	17326
831.774	17299
831.913	17265
832.051	17121
832.19	17181
832.329	17269
832.467	17022
832.606	17056
832.744	17018
832.883	17022
833.022	17075
833.16	17181
833.299	17075
833.437	17124
833.576	17231
833.714	17128
833.852	17159
833.991	17174
834.129	17212
834.267	17162
834.406	17174
834.544	17189
834.682	17117
834.821	17193
834.959	17307
835.097	17136
835.235	17235
835.373	17105
835.511	17117
835.65	16995
835.788	17079
835.926	16889
836.064	16881
836.202	16862
836.34	17010
836.478	17113
836.615	17109
836.753	16987
836.891	17052
837.029	16972
837.167	17056
837.305	16889
837.443	16854
837.58	16923
837.718	16984
837.856	16862
837.993	16927
838.131	16919
838.269	16805
838.406	16782
838.544	16862
838.681	16634
838.819	16584
838.956	16306
839.094	16424
839.231	16462
839.369	16569
839.506	16805
839.643	16660
839.781	16481
839.918	16348
840.055	16413
840.193	16497
840.33	16375
840.467	16409
840.604	16447
840.742	16649
840.879	16280
841.016	16363
841.153	16314
841.29	16641
841.427	16417
841.564	16402
841.701	16447
841.838	16310
841.975	16386
842.112	16322
842.249	16272
842.385	16211
842.522	16325
842.659	16192
842.796	16147
842.933	16207
843.069	16219
843.206	16097
843.343	16314
843.479	16230
843.616	16242
843.752	16013
843.889	16029
844.025	16162
844.162	15979
844.298	16162
844.435	16032
844.571	15934
844.708	16051
844.844	16211
844.98	16150
845.117	16135
845.253	15934
845.389	16017
845.525	16086
845.661	15983
845.798	15998
845.934	16116
846.07	16078
846.206	16086
846.342	15968
846.478	15998
846.614	15705
846.75	15660
846.886	15553
847.022	15595
847.158	15557
847.294	15595
847.429	15690
847.565	15587
847.701	15728
847.837	15378
847.972	15241
848.108	15405
848.244	15450
848.379	15195
848.515	15264
848.65	15161
848.786	15214
848.921	15188
849.057	15154
849.192	15256
849.328	15218
849.463	15195
849.598	15055
849.734	15116
849.869	15051
850.004	14925
850.14	14952
850.275	14883
850.41	14910
850.545	14823
850.68	14971
850.815	14933
850.95	14868
851.085	15173
851.22	15001
851.355	14914
851.49	14887
851.625	14925
851.76	14849
851.895	14777
852.03	14857
852.165	14883
852.299	15024
852.434	14918
852.569	14937
852.703	14925
852.838	15009
852.973	15058
853.107	15135
853.242	14914
853.376	14796
853.511	14640
853.645	14800
853.78	14842
853.914	14800
854.048	14773
854.183	14785
854.317	14708
854.451	14948
854.585	14804
854.72	14678
854.854	14861
854.988	14792
855.122	14811
855.256	14724
855.39	14796
855.524	14834
855.658	14838
855.792	14781
855.926	14769
856.06	14830
856.194	14872
856.327	14845
856.461	14651
856.595	14739
856.729	14724
856.862	14842
856.996	14796
857.13	14819
857.263	14895
857.397	15005
857.53	14868
857.664	14765
857.797	14971
857.931	14872
858.064	14708
858.197	14838
858.331	14769
858.464	14811
858.597	14625
858.731	14815
858.864	14762
858.997	14811
859.13	14792
859.263	14906
859.396	14914
859.529	14838
859.662	14739
859.795	14788
859.928	14823
860.061	14960
860.194	14956
860.327	14670
860.46	14750
860.592	14849
860.725	14925
860.858	14948
860.99	14746
861.123	14746
861.256	14868
861.388	14750
861.521	15538
861.653	14667
861.786	14575
861.918	14762
862.05	14693
862.183	14689
862.315	14735
862.447	14773
862.58	14868
862.712	14530
862.844	14480
862.976	14659
863.108	14659
863.24	14941
863.372	14526
863.504	14564
863.636	14560
863.768	14644
863.9	14522
864.032	14545
864.164	14579
864.296	14655
864.428	14667
864.559	14667
864.691	14678
864.823	14598
864.954	14594
865.086	14636
865.217	14659
865.349	14571
865.48	14552
865.612	14606
865.743	14606
865.875	14571
866.006	14446
866.137	14636
866.269	14533
866.4	14579
866.531	14495
866.662	14317
866.793	14423
866.924	14469
867.055	14564
867.186	14511
867.317	14476
867.448	14389
867.579	14400
867.71	14427
867.841	14408
867.972	14552
868.103	14514
868.233	14499
868.364	14610
868.495	14693
868.625	14769
868.756	14895
868.886	14648
869.017	14819
869.147	14880
869.278	14788
869.408	14853
869.539	14861
869.669	14876
869.799	14796
869.929	14944
870.06	14842
870.19	15043
870.32	15055
870.45	15032
870.58	15146
870.71	15294
870.84	15344
870.97	15104
871.1	15135
871.23	15321
871.36	15416
871.489	15176
871.619	15370
871.749	15405
871.879	15443
872.008	15469
872.138	15363
872.267	15363
872.397	15199
872.526	15256
872.656	15176
872.785	15264
872.915	15439
873.044	15344
873.173	15412
873.303	15515
873.432	15424
873.561	15542
873.69	15416
873.819	15405
873.948	15477
874.077	15416
874.206	15401
874.335	15447
874.464	15530
874.593	15614
874.722	15584
874.851	15671
874.979	15728
875.108	15755
875.237	15736
875.365	15644
875.494	15770
875.623	15816
875.751	15705
875.88	15766
876.008	15873
876.136	15994
876.265	16181
876.393	16242
876.521	16242
876.65	16143
876.778	16177
876.906	16120
877.034	16082
877.162	16131
877.29	16086
877.418	16124
877.546	16211
877.674	16097
877.802	16116
877.93	16166
878.058	16139
878.185	16013
878.313	16097
878.441	16188
878.568	16021
878.696	16223
878.824	16181
878.951	16162
879.079	16424
879.206	16451
879.333	16398
879.461	16333
879.588	16398
879.715	16436
879.842	16550
879.97	16390
880.097	16055
880.224	16048
880.351	16032
880.478	16071
880.605	15972
880.732	16143
880.859	16257
880.986	16051
881.112	16067
881.239	15918
881.366	15823
881.493	15667
881.619	15641
881.746	15660
881.872	15671
881.999	15580
882.125	15660
882.252	15747
882.378	15652
882.505	15812
882.631	15572
882.757	15549
882.883	15614
883.01	15511
883.136	15367
883.262	15332
883.388	15336
883.514	15473
883.64	15580
883.766	15447
883.892	15382
884.018	15389
884.143	15523
884.269	15587
884.395	15340
884.52	15245
884.646	15218
884.772	15116
884.897	15138
885.023	15146
885.148	15355
885.274	15332
885.399	15344
885.524	15123
885.65	15230
885.775	15195
885.9	15176
886.025	15233
886.15	15268
886.275	15104
886.4	15051
886.525	15123
886.65	15108
886.775	15150
886.9	15203
887.025	15370
887.149	15081
887.274	15104
887.399	14952
887.523	14929
887.648	14921
887.773	14986
887.897	15112
888.021	15100
888.146	15047
888.27	15028
888.395	15081
888.519	15017
888.643	15062
888.767	15074
888.891	14910
889.015	14804
889.139	14899
889.263	14826
889.387	15062
889.511	15047
889.635	14933
889.759	14807
889.883	14811
890.006	14944
890.13	14941
890.254	14708
890.377	14781
890.501	14613
890.624	14697
890.748	14762
890.871	14568
890.995	14484
891.118	14415
891.241	14564
891.364	14560
891.488	14655
891.611	14537
891.734	14587
891.857	14564
891.98	14526
892.103	14613
892.226	14610
892.349	14560
892.471	14393
892.594	14503
892.717	14518
892.839	14583
892.962	14552
893.085	14625
893.207	14655
893.33	14339
893.452	14446
893.575	14629
893.697	14442
893.819	14571
893.941	14705
894.064	14667
894.186	14495
894.308	14473
894.43	14571
894.552	14697
894.674	14750
894.796	14427
894.918	14571
895.04	14415
895.161	14678
895.283	14610
895.405	14564
895.526	14632
895.648	14686
895.769	14617
895.891	14674
896.012	14743
896.134	14743
896.255	14701
896.376	14663
896.498	14743
896.619	14701
896.74	14750
896.861	14773
896.982	15013
897.103	15100
897.224	14921
897.345	14857
897.466	14891
897.587	15001
897.708	15028
897.828	14998
897.949	14929
898.07	14785
898.19	14933
898.311	15077
898.431	14960
898.552	15032
898.672	15180
898.792	15146
898.913	15009
899.033	15017
899.153	14868
899.273	14758
899.393	14857
899.513	14861
899.633	14838
899.753	14842
899.873	14838
899.993	14887
900.113	14876
900.232	14883
900.352	14861
900.472	14720
900.591	14678
900.711	14773
900.83	14621
900.95	14765
901.069	14861
901.189	14655
901.308	14431
901.427	14423
901.546	14343
901.665	14457
901.784	14404
901.904	14324
902.023	14157
902.141	14065
902.26	13982
902.379	14065
902.498	13871
902.617	13856
902.735	13982
902.854	14001
902.973	13947
903.091	13620
903.21	13772
903.328	13734
903.446	13518
903.565	13540
903.683	13563
903.801	13358
903.919	13521
904.038	13468
904.156	13301
904.274	13369
904.392	13278
904.51	13377
904.627	13312
904.745	13415
904.863	13369
904.981	13133
905.098	13088
905.216	13038
905.334	13023
905.451	13046
905.569	12993
905.686	13076
905.803	13050
905.921	12882
906.038	12905
906.155	12852
906.272	12779
906.389	12844
906.506	12681
906.623	12570
906.74	12620
906.857	12563
906.974	12445
907.091	12635
907.208	12738
907.324	12642
907.441	12559
907.557	12426
907.674	12384
907.79	12262
907.907	12319
908.023	12391
908.139	12460
908.256	12285
908.372	12281
908.488	12194
908.604	12163
908.72	12015
908.836	12140
908.952	12098
909.068	12129
909.184	12197
909.3	12163
909.415	12155
909.531	12079
909.647	11908
909.762	11893
909.878	11866
909.993	11904
910.108	11836
910.224	11866
910.339	11805
910.454	11741
910.57	11756
910.685	11649
910.8	11920
910.915	11904
911.03	11752
911.145	11668
911.259	11585
911.374	11505
911.489	11474
911.604	11440
911.718	11364
911.833	11220
911.947	11223
912.062	11193
912.176	11235
912.291	11391
912.405	11318
912.519	11398
912.633	11608
912.748	11315
912.862	11417
912.976	11201
913.09	11064
913.204	11162
913.318	11140
913.431	11349
913.545	11303
913.659	11299
913.772	11193
913.886	11029
914	11090
914.113	11216
914.226	11140
914.34	11151
914.453	10953
914.566	11159
914.68	11037
914.793	11014
914.906	10869
915.019	10771
915.132	10702
915.245	10778
915.358	10755
915.47	10816
915.583	10812
915.696	10923
915.809	10892
915.921	10987
916.034	10759
916.146	10790
916.259	10721
916.371	10824
916.483	10828
916.595	10759
916.708	10740
916.82	10752
916.932	10763
917.044	10755
917.156	10706
917.268	10527
917.38	10653
917.491	10580
917.603	10668
917.715	10672
917.826	10641
917.938	10603
918.049	10516
918.161	10649
918.272	10816
918.384	10790
918.495	10702
918.606	10508
918.717	10447
918.828	10500
918.939	10519
919.05	10405
919.161	10504
919.272	10390
919.383	10402
919.494	10660
919.604	10786
919.715	10554
919.826	10500
919.936	10516
920.047	10637
920.157	10596
920.267	10771
920.378	10558
920.488	10577
920.598	10721
920.708	10892
920.818	10698
920.928	10755
921.038	10858
921.148	10869
921.258	10615
921.368	10527
921.477	10417
921.587	10405
921.697	10280
921.806	10409
921.916	10272
922.025	10063
922.134	10101
922.244	10055
922.353	10128
922.462	10013
922.571	9991
922.68	9823
922.789	9686
922.898	9892
923.007	9808
923.116	9789
923.224	9770
923.333	9698
923.442	9633
923.55	9606
923.659	9679
923.767	9797
923.876	9705
923.984	9648
924.092	9606
924.201	9663
924.309	9637
924.417	9720
924.525	9591
924.633	9648
924.741	10394
924.849	9424
924.956	9629
925.064	9412
925.172	9405
925.279	9397
925.387	9450
925.494	9443
925.602	9633
925.709	9439
925.816	9428
925.924	9401
926.031	9466
926.138	9367
926.245	9412
926.352	9325
926.459	9488
926.566	9511
926.673	9416
926.779	9268
926.886	9245
926.993	9131
927.099	9116
927.206	9104
927.312	9070
927.419	9180
927.525	9154
927.631	9142
927.737	9017
927.843	9051
927.95	8937
928.056	9036
928.162	9024
928.267	9074
928.373	9705
928.479	9097
928.585	8823
928.69	9001
928.796	9062
928.901	8971
929.007	8826
929.112	8948
929.218	8960
929.323	8872
929.428	8861
929.533	8971
929.638	8758
929.743	8883
929.848	8815
929.953	8773
930.058	8735
930.163	8598
930.267	8636
930.372	8750
930.477	8590
930.581	8754
930.685	8697
930.79	8530
930.894	8587
930.998	8549
931.103	8617
931.207	8309
931.311	8279
931.415	8195
931.519	7993
931.623	8062
