Data from test_V78500241_771.txt Node
Date: Fri Mar 25 14:39:05 CST 2022
User: usil
Spectrometer: V785-0024
Trigger mode: 0
Integration Time (sec): 4.000000E-1
Scans to average: 1
Nonlinearity correction enabled: false
Boxcar width: 0
Storing dark spectrum: false
XAxis mode: Wavelengths
Number of Pixels in Spectrum: 1024
>>>>>Begin Spectral Data<<<<<
801.071	26956
801.214	26731
801.356	26533
801.499	26507
801.641	26278
801.783	26240
801.926	26256
802.068	26100
802.211	25993
802.353	26100
802.496	25780
802.638	25807
802.78	25651
802.923	25715
803.065	25479
803.208	25685
803.35	25700
803.492	25814
803.635	25852
803.777	25761
803.919	25902
804.061	26005
804.204	25951
804.346	25860
804.488	25875
804.63	25951
804.773	25947
804.915	26153
805.057	26107
805.199	26122
805.341	26252
805.483	26393
805.626	26412
805.768	26286
805.91	26492
806.052	26598
806.194	26621
806.336	27039
806.478	27039
806.62	27272
806.762	27458
806.904	27861
807.046	28424
807.188	28588
807.33	29193
807.472	29668
807.614	30315
807.756	31240
807.898	32126
808.04	33652
808.182	35421
808.324	38092
808.465	41086
808.607	44263
808.749	46911
808.891	48825
809.033	48684
809.174	47258
809.316	44358
809.458	41258
809.6	38035
809.741	35284
809.883	33195
810.025	31868
810.166	30764
810.308	29950
810.45	29326
810.591	28691
810.733	28382
810.875	27918
811.016	27534
811.158	27336
811.299	27393
811.441	27256
811.582	27062
811.724	26731
811.865	26750
812.007	26712
812.148	26499
812.29	26412
812.431	26663
812.573	26632
812.714	26785
812.855	26838
812.997	26731
813.138	27001
813.279	26796
813.421	26670
813.562	26362
813.703	26355
813.845	26142
813.986	25784
814.127	25685
814.268	25586
814.41	25483
814.551	25514
814.692	25422
814.833	25209
814.974	25179
815.115	25441
815.256	25221
815.397	25129
815.539	25091
815.68	25015
815.821	24966
815.962	24863
816.103	24798
816.244	24837
816.385	24574
816.526	24650
816.666	24346
816.807	24258
816.948	24330
817.089	24353
817.23	24289
817.371	24315
817.512	24342
817.653	24144
817.793	24167
817.934	24148
818.075	24087
818.216	24148
818.356	24095
818.497	24053
818.638	23794
818.778	23935
818.919	23908
819.06	23832
819.2	24018
819.341	23999
819.481	23950
819.622	24129
819.762	24304
819.903	24178
820.043	24155
820.184	24106
820.324	24144
820.465	24125
820.605	23980
820.746	24049
820.886	23813
821.026	23908
821.167	23923
821.307	23908
821.447	23870
821.588	23684
821.728	23592
821.868	23387
822.008	23303
822.149	23239
822.289	23162
822.429	23033
822.569	23109
822.709	22908
822.849	22653
822.99	22725
823.13	22717
823.27	22561
823.41	22462
823.55	22295
823.69	22504
823.83	22474
823.97	22405
824.11	22344
824.25	22280
824.389	22234
824.529	22261
824.669	22310
824.809	22379
824.949	22276
825.089	22310
825.228	22329
825.368	22177
825.508	21987
825.648	22120
825.787	22147
825.927	22067
826.067	22078
826.206	22059
826.346	21994
826.485	22067
826.625	22055
826.765	22101
826.904	21949
827.044	21892
827.183	21774
827.323	21671
827.462	21728
827.601	21755
827.741	21736
827.88	21663
828.02	21523
828.159	21641
828.298	21576
828.437	21701
828.577	21507
828.716	21842
828.855	21682
828.994	21325
829.134	21424
829.273	21397
829.412	21275
829.551	21302
829.69	21275
829.829	21370
829.968	21378
830.107	21397
830.246	21340
830.385	21283
830.524	21275
830.663	21070
830.802	21051
830.941	20781
831.08	21009
831.219	21066
831.357	21062
831.496	21055
831.635	20941
831.774	20952
831.913	20925
832.051	20796
832.19	20754
832.329	20899
832.467	20773
832.606	20815
832.744	20811
832.883	20956
833.022	20883
833.16	20937
833.299	21157
833.437	21123
833.576	21367
833.714	21576
833.852	21671
833.991	21732
834.129	21953
834.267	21915
834.406	21720
834.544	21698
834.682	21599
834.821	21428
834.959	21473
835.097	21180
835.235	21222
835.373	21131
835.511	20967
835.65	20834
835.788	20743
835.926	20564
836.064	20400
836.202	20374
836.34	20579
836.478	20629
836.615	20492
836.753	20530
836.891	20537
837.029	20465
837.167	20469
837.305	20389
837.443	20339
837.58	20244
837.718	20328
837.856	20412
837.993	20275
838.131	20126
838.269	20183
838.406	20195
838.544	20077
838.681	19986
838.819	19875
838.956	19712
839.094	19830
839.231	19845
839.369	19807
839.506	20081
839.643	20024
839.781	19871
839.918	19708
840.055	19799
840.193	19742
840.33	19708
840.467	19811
840.604	19689
840.742	19974
840.879	19597
841.016	19624
841.153	19643
841.29	19864
841.427	19700
841.564	19826
841.701	19689
841.838	19723
841.975	19582
842.112	19632
842.249	19495
842.385	19464
842.522	19719
842.659	19499
842.796	19613
842.933	19651
843.069	19529
843.206	19499
843.343	19681
843.479	19639
843.616	19662
843.752	19529
843.889	19567
844.025	19807
844.162	19689
844.298	19925
844.435	19799
844.571	20043
844.708	20377
844.844	20815
844.98	21237
845.117	21789
845.253	22752
845.389	24460
845.525	27892
845.661	33542
845.798	39960
845.934	44910
846.07	46911
846.206	45466
846.342	41227
846.478	34440
846.614	28763
846.75	25099
846.886	22927
847.022	21622
847.158	20648
847.294	20199
847.429	19887
847.565	19590
847.701	19666
847.837	19187
847.972	18916
848.108	19000
848.244	18993
848.379	18604
848.515	18738
848.65	18517
848.786	18563
848.921	18555
849.057	18642
849.192	18673
849.328	18506
849.463	18384
849.598	18357
849.734	18304
849.869	18319
850.004	18171
850.14	18220
850.275	18152
850.41	17992
850.545	18228
850.68	18125
850.815	18216
850.95	18095
851.085	18296
851.22	18315
851.355	18152
851.49	18182
851.625	18133
851.76	18159
851.895	18057
852.03	18068
852.165	18114
852.299	18251
852.434	18205
852.569	18201
852.703	18182
852.838	18334
852.973	18418
853.107	18460
853.242	18369
853.376	18251
853.511	18125
853.645	18258
853.78	18418
853.914	18426
854.048	18304
854.183	18490
854.317	18544
854.451	18703
854.585	18422
854.72	18369
854.854	18422
854.988	18243
855.122	18323
855.256	18163
855.39	18232
855.524	18247
855.658	18106
855.792	18235
855.926	18182
856.06	18152
856.194	18243
856.327	18057
856.461	17946
856.595	17992
856.729	17973
856.862	18068
856.996	18079
857.13	18072
857.263	18102
857.397	18125
857.53	18015
857.664	18030
857.797	18015
857.931	18007
858.064	18011
858.197	18060
858.331	17882
858.464	17870
858.597	17798
858.731	17984
858.864	17889
858.997	17828
859.13	17946
859.263	17946
859.396	17923
859.529	17824
859.662	17775
859.795	17752
859.928	17882
860.061	17973
860.194	18038
860.327	17901
860.46	17923
860.592	17946
860.725	17866
860.858	17954
860.99	17790
861.123	17756
861.256	17726
861.388	17843
861.521	18536
861.653	17726
861.786	17570
861.918	17699
862.05	17779
862.183	17760
862.315	17764
862.447	17798
862.58	17710
862.712	17573
862.844	17554
862.976	17558
863.108	17619
863.24	18003
863.372	17505
863.504	17516
863.636	17585
863.768	17497
863.9	17512
864.032	17414
864.164	17520
864.296	17532
864.428	17558
864.559	17493
864.691	17577
864.823	17623
864.954	17497
865.086	17566
865.217	17349
865.349	17410
865.48	17356
865.612	17459
865.743	17535
865.875	17364
866.006	17398
866.137	17452
866.269	17512
866.4	17589
866.531	17402
866.662	17383
866.793	17414
866.924	17429
867.055	17467
867.186	17353
867.317	17395
867.448	17239
867.579	17391
867.71	17337
867.841	17235
867.972	17414
868.103	17440
868.233	17459
868.364	17467
868.495	17577
868.625	17589
868.756	17745
868.886	17722
869.017	17627
869.147	17821
869.278	17756
869.408	17714
869.539	17649
869.669	17863
869.799	17798
869.929	17931
870.06	17741
870.19	17969
870.32	18038
870.45	18022
870.58	18144
870.71	18251
870.84	18266
870.97	18197
871.1	18148
871.23	18342
871.36	18330
871.489	18281
871.619	18342
871.749	18369
871.879	18433
872.008	18551
872.138	18334
872.267	18525
872.397	18365
872.526	18254
872.656	18239
872.785	18311
872.915	18467
873.044	18536
873.173	18479
873.303	18677
873.432	18616
873.561	18764
873.69	18688
873.819	18620
873.948	18856
874.077	18635
874.206	18848
874.335	18844
874.464	18856
874.593	19034
874.722	18951
874.851	19171
874.979	19187
875.108	19187
875.237	19179
875.365	19217
875.494	19194
875.623	19396
875.751	19388
875.88	19403
876.008	19613
876.136	19750
876.265	20050
876.393	20107
876.521	20107
876.65	20237
876.778	20206
876.906	20157
877.034	20081
877.162	20305
877.29	20290
877.418	20537
877.546	20609
877.674	20636
877.802	20800
877.93	20960
878.058	21100
878.185	21108
878.313	21523
878.441	21831
878.568	21998
878.696	22561
878.824	23455
878.951	24559
879.079	26142
879.206	28101
879.333	29992
879.461	31639
879.588	32594
879.715	32773
879.842	32088
879.97	30136
880.097	27975
880.224	26389
880.351	25434
880.478	24555
880.605	23878
880.732	23459
880.859	23417
880.986	23033
881.112	22904
881.239	22828
881.366	22713
881.493	22584
881.619	22626
881.746	22546
881.872	22672
881.999	22596
882.125	22653
882.252	22809
882.378	22915
882.505	22961
882.631	22755
882.757	22767
882.883	22694
883.01	22691
883.136	22588
883.262	22565
883.388	22436
883.514	22626
883.64	22679
883.766	22512
883.892	22462
884.018	22382
884.143	22565
884.269	22733
884.395	22451
884.52	22344
884.646	22360
884.772	22287
884.897	22291
885.023	22306
885.148	22333
885.274	22348
885.399	22295
885.524	22200
885.65	22017
885.775	21979
885.9	21751
886.025	21694
886.15	21504
886.275	21298
886.4	21123
886.525	21100
886.65	20819
886.775	20716
886.9	20868
887.025	20906
887.149	20457
887.274	20294
887.399	20157
887.523	20092
887.648	19833
887.773	19818
887.897	19902
888.021	19909
888.146	19696
888.27	19666
888.395	19807
888.519	19578
888.643	19662
888.767	19563
888.891	19457
889.015	19411
889.139	19171
889.263	19247
889.387	19236
889.511	19274
889.635	19301
889.759	19019
889.883	18897
890.006	19012
890.13	19031
890.254	18901
890.377	18977
890.501	18684
890.624	18608
890.748	18646
890.871	18585
890.995	18399
891.118	18273
891.241	18327
891.364	18258
891.488	18407
891.611	18308
891.734	18209
891.857	18273
891.98	18277
892.103	18205
892.226	18220
892.349	18038
892.471	17939
892.594	18064
892.717	18049
892.839	17988
892.962	17961
893.085	18019
893.207	17916
893.33	17783
893.452	17878
893.575	17901
893.697	17786
893.819	17916
893.941	18060
894.064	17969
894.186	17668
894.308	17592
894.43	17771
894.552	17817
894.674	17775
894.796	17516
894.918	17539
895.04	17589
895.161	17771
895.283	17585
895.405	17554
895.526	17547
895.648	17490
895.769	17649
895.891	17543
896.012	17554
896.134	17573
896.255	17520
896.376	17528
896.498	17459
896.619	17471
896.74	17509
896.861	17543
896.982	17824
897.103	17961
897.224	17767
897.345	17573
897.466	17592
897.587	17722
897.708	17699
897.828	17691
897.949	17566
898.07	17524
898.19	17551
898.311	17790
898.431	17714
898.552	17596
898.672	17672
898.792	17756
898.913	17676
899.033	17585
899.153	17547
899.273	17349
899.393	17364
899.513	17436
899.633	17478
899.753	17505
899.873	17501
899.993	17570
900.113	17402
900.232	17520
900.352	17356
900.472	17353
900.591	17246
900.711	17356
900.83	17178
900.95	17265
901.069	17391
901.189	17197
901.308	16946
901.427	16854
901.546	16771
901.665	16869
901.784	16778
901.904	16668
902.023	16710
902.141	16398
902.26	16306
902.379	16478
902.498	16257
902.617	16280
902.735	16390
902.854	16242
902.973	16234
903.091	15937
903.21	16032
903.328	15911
903.446	15835
903.565	15800
903.683	15873
903.801	15736
903.919	15686
904.038	15663
904.156	15572
904.274	15660
904.392	15545
904.51	15466
904.627	15564
904.745	15671
904.863	15519
904.981	15294
905.098	15173
905.216	15089
905.334	15230
905.451	15272
905.569	15138
905.686	15093
905.803	15093
905.921	14891
906.038	15123
906.155	14944
906.272	14819
906.389	14826
906.506	14670
906.623	14773
906.74	14697
906.857	14606
906.974	14583
907.091	14686
907.208	14777
907.324	14670
907.441	14587
907.557	14381
907.674	14465
907.79	14362
907.907	14431
908.023	14461
908.139	14351
908.256	14336
908.372	14259
908.488	14336
908.604	14161
908.72	14100
908.836	14096
908.952	14126
909.068	14107
909.184	14202
909.3	14050
909.415	14073
909.531	14123
909.647	13879
909.762	13833
909.878	13799
909.993	13852
910.108	13841
910.224	13776
910.339	13830
910.454	13784
910.57	13643
910.685	13662
910.8	13913
910.915	13864
911.03	13704
911.145	13502
911.259	13464
911.374	13457
911.489	13483
911.604	13411
911.718	13274
911.833	13255
911.947	13145
912.062	12905
912.176	13301
912.291	13266
912.405	13194
912.519	13419
912.633	13396
912.748	13263
912.862	13175
912.976	13088
913.09	12951
913.204	13057
913.318	13103
913.431	13198
913.545	13152
913.659	13225
913.772	13145
913.886	12996
914	12935
914.113	13103
914.226	13046
914.34	13046
914.453	12901
914.566	12951
914.68	12844
914.793	12726
914.906	12730
915.019	12642
915.132	12536
915.245	12688
915.358	12662
915.47	12658
915.583	12665
915.696	12700
915.809	12696
915.921	12776
916.034	12593
916.146	12563
916.259	12555
916.371	12749
916.483	12593
916.595	12490
916.708	12612
916.82	12654
916.932	12623
917.044	12593
917.156	12456
917.268	12464
917.38	12426
917.491	12372
917.603	12369
917.715	12517
917.826	12471
917.938	12365
918.049	12338
918.161	12372
918.272	12460
918.384	12445
918.495	12437
918.606	12232
918.717	12159
918.828	12171
918.939	12254
919.05	12155
919.161	12190
919.272	11958
919.383	12041
919.494	12163
919.604	12308
919.715	12213
919.826	12060
919.936	12133
920.047	12171
920.157	12133
920.267	12334
920.378	12232
920.488	12239
920.598	12437
920.708	12528
920.818	12270
920.928	12361
921.038	12414
921.148	12456
921.258	12163
921.368	12041
921.477	11954
921.587	12022
921.697	11855
921.806	11984
921.916	11847
922.025	11710
922.134	11699
922.244	11589
922.353	11638
922.462	11558
922.571	11528
922.68	11326
922.789	11315
922.898	11360
923.007	11299
923.116	11372
923.224	11265
923.333	11326
923.442	11159
923.55	11189
923.659	11197
923.767	11239
923.876	11075
923.984	11140
924.092	11048
924.201	11105
924.309	11090
924.417	11216
924.525	11128
924.633	11033
924.741	11767
924.849	10801
924.956	11060
925.064	10881
925.172	10828
925.279	10793
925.387	10889
925.494	10866
925.602	10987
925.709	10927
925.816	10797
925.924	10771
926.031	10942
926.138	10843
926.245	10877
926.352	10698
926.459	10843
926.566	10915
926.673	10771
926.779	10630
926.886	10729
926.993	10588
927.099	10470
927.206	10466
927.312	10512
927.419	10512
927.525	10493
927.631	10527
927.737	10379
927.843	10371
927.95	10303
928.056	10341
928.162	10394
928.267	10443
928.373	11132
928.479	10462
928.585	10249
928.69	10310
928.796	10356
928.901	10280
929.007	10135
929.112	10341
929.218	10200
929.323	10173
929.428	10204
929.533	10268
929.638	10166
929.743	10112
929.848	10135
929.953	10139
930.058	10063
930.163	9888
930.267	9846
930.372	10010
930.477	9876
930.581	10139
930.685	9960
930.79	9838
930.894	9816
930.998	9774
931.103	9907
931.207	9542
931.311	9462
931.415	9435
931.519	9294
931.623	9237
