Data from test_V78500241_779.txt Node
Date: Fri Mar 25 14:39:08 CST 2022
User: usil
Spectrometer: V785-0024
Trigger mode: 0
Integration Time (sec): 4.000000E-1
Scans to average: 1
Nonlinearity correction enabled: false
Boxcar width: 0
Storing dark spectrum: false
XAxis mode: Wavelengths
Number of Pixels in Spectrum: 1024
>>>>>Begin Spectral Data<<<<<
801.071	26773
801.214	26720
801.356	26324
801.499	26199
801.641	26161
801.783	26183
801.926	26157
802.068	25982
802.211	25875
802.353	25849
802.496	25567
802.638	25556
802.78	25616
802.923	25575
803.065	25468
803.208	25502
803.35	25601
803.492	25734
803.635	25734
803.777	25639
803.919	25826
804.061	25997
804.204	25837
804.346	25852
804.488	25696
804.63	25731
804.773	25868
804.915	25868
805.057	26031
805.199	25989
805.341	26172
805.483	26252
805.626	26252
805.768	26259
805.91	26343
806.052	26465
806.194	26518
806.336	26804
806.478	26933
806.62	27104
806.762	27466
806.904	27660
807.046	28268
807.188	28523
807.33	28885
807.472	29414
807.614	30174
807.756	30852
807.898	31772
808.04	33173
808.182	34911
808.324	37628
808.465	40185
808.607	43259
808.749	45941
808.891	47345
809.033	47710
809.174	46086
809.316	43457
809.458	40375
809.6	37202
809.741	34573
809.883	32739
810.025	31384
810.166	30471
810.308	29714
810.45	29056
810.591	28432
810.733	27964
810.875	27648
811.016	27310
811.158	27176
811.299	27123
811.441	26975
811.582	26838
811.724	26800
811.865	26609
812.007	26412
812.148	26423
812.29	26347
812.431	26469
812.573	26606
812.714	26545
812.855	26594
812.997	26731
813.138	26777
813.279	26724
813.421	26511
813.562	26400
813.703	26214
813.845	25970
813.986	25689
814.127	25464
814.268	25419
814.41	25365
814.551	25183
814.692	25308
814.833	25129
814.974	25175
815.115	25316
815.256	25038
815.397	24939
815.539	25019
815.68	24905
815.821	24886
815.962	24992
816.103	24772
816.244	24639
816.385	24456
816.526	24464
816.666	24319
816.807	24159
816.948	24300
817.089	24213
817.23	24102
817.371	24034
817.512	24228
817.653	24049
817.793	24018
817.934	24030
818.075	24057
818.216	23988
818.356	23935
818.497	23904
818.638	23813
818.778	23733
818.919	23745
819.06	23912
819.2	23912
819.341	24018
819.481	23961
819.622	23984
819.762	24281
819.903	24087
820.043	24087
820.184	23942
820.324	23999
820.465	24091
820.605	23961
820.746	23802
820.886	23775
821.026	23790
821.167	23843
821.307	23908
821.447	23920
821.588	23547
821.728	23516
821.868	23368
822.008	23242
822.149	23204
822.289	23109
822.429	22858
822.569	22797
822.709	22866
822.849	22725
822.99	22580
823.13	22557
823.27	22481
823.41	22440
823.55	22379
823.69	22382
823.83	22428
823.97	22196
824.11	22207
824.25	22135
824.389	22280
824.529	22230
824.669	22192
824.809	22284
824.949	22192
825.089	22276
825.228	22086
825.368	21991
825.508	21994
825.648	21972
825.787	22017
825.927	22059
826.067	21922
826.206	21937
826.346	22055
826.485	22040
826.625	21937
826.765	21934
826.904	21857
827.044	21774
827.183	21698
827.323	21671
827.462	21637
827.601	21682
827.741	21622
827.88	21595
828.02	21542
828.159	21492
828.298	21720
828.437	21709
828.577	21458
828.716	21572
828.855	21500
828.994	21447
829.134	21344
829.273	21241
829.412	21291
829.551	21332
829.69	21226
829.829	21157
829.968	21397
830.107	21275
830.246	21332
830.385	21165
830.524	21146
830.663	21028
830.802	21013
830.941	20864
831.08	20811
831.219	20941
831.357	21017
831.496	21169
831.635	20921
831.774	20823
831.913	20834
832.051	20739
832.19	20693
832.329	20746
832.467	20712
832.606	20811
832.744	20606
832.883	20724
833.022	20880
833.16	21058
833.299	20967
833.437	21093
833.576	21359
833.714	21488
833.852	21641
833.991	21705
834.129	21785
834.267	21884
834.406	21614
834.544	21709
834.682	21583
834.821	21363
834.959	21583
835.097	21272
835.235	21138
835.373	20944
835.511	20891
835.65	20788
835.788	20800
835.926	20465
836.064	20381
836.202	20442
836.34	20530
836.478	20564
836.615	20396
836.753	20492
836.891	20480
837.029	20457
837.167	20438
837.305	20408
837.443	20320
837.58	20240
837.718	20431
837.856	20275
837.993	20138
838.131	20290
838.269	20073
838.406	20111
838.544	20024
838.681	19811
838.819	19845
838.956	19704
839.094	19693
839.231	19704
839.369	19837
839.506	20058
839.643	19887
839.781	19624
839.918	19635
840.055	19734
840.193	19632
840.33	19632
840.467	19552
840.604	19628
840.742	19970
840.879	19537
841.016	19700
841.153	19559
841.29	19738
841.427	19757
841.564	19723
841.701	19719
841.838	19590
841.975	19460
842.112	19605
842.249	19533
842.385	19430
842.522	19601
842.659	19537
842.796	19422
842.933	19544
843.069	19449
843.206	19537
843.343	19620
843.479	19548
843.616	19514
843.752	19434
843.889	19415
844.025	19575
844.162	19559
844.298	19723
844.435	19864
844.571	19799
844.708	20286
844.844	20648
844.98	21028
845.117	21701
845.253	22489
845.389	24049
845.525	27458
845.661	32621
845.798	39043
845.934	43647
846.07	45469
846.206	44259
846.342	40010
846.478	33583
846.614	28337
846.75	24677
846.886	22706
847.022	21367
847.158	20530
847.294	20073
847.429	19890
847.565	19445
847.701	19635
847.837	19046
847.972	18878
848.108	18977
848.244	18844
848.379	18612
848.515	18528
848.65	18448
848.786	18437
848.921	18475
849.057	18574
849.192	18525
849.328	18433
849.463	18441
849.598	18323
849.734	18300
849.869	18228
850.004	18129
850.14	18209
850.275	18167
850.41	18019
850.545	18064
850.68	18114
850.815	18152
850.95	17969
851.085	18213
851.22	18057
851.355	18064
851.49	18068
851.625	18064
851.76	18171
851.895	17942
852.03	17980
852.165	18163
852.299	18064
852.434	18178
852.569	18159
852.703	18262
852.838	18247
852.973	18410
853.107	18205
853.242	18186
853.376	18049
853.511	18049
853.645	18045
853.78	18239
853.914	18270
854.048	18228
854.183	18174
854.317	18353
854.451	18452
854.585	18239
854.72	18334
854.854	18330
854.988	18159
855.122	18209
855.256	18026
855.39	18072
855.524	18205
855.658	18083
855.792	18068
855.926	18022
856.06	17984
856.194	18034
856.327	18019
856.461	17942
856.595	17836
856.729	17889
856.862	18076
856.996	18060
857.13	18030
857.263	18117
857.397	18072
857.53	17904
857.664	18068
857.797	17942
857.931	17882
858.064	17904
858.197	17897
858.331	17817
858.464	17828
858.597	17707
858.731	17885
858.864	17809
858.997	17775
859.13	17878
859.263	17828
859.396	17882
859.529	17805
859.662	17798
859.795	17657
859.928	17722
860.061	17942
860.194	17973
860.327	17745
860.46	17726
860.592	17802
860.725	17912
860.858	17889
860.99	17699
861.123	17745
861.256	17718
861.388	17619
861.521	18304
861.653	17672
861.786	17501
861.918	17516
862.05	17695
862.183	17680
862.315	17821
862.447	17805
862.58	17657
862.712	17566
862.844	17474
862.976	17490
863.108	17596
863.24	17893
863.372	17398
863.504	17368
863.636	17387
863.768	17471
863.9	17493
864.032	17444
864.164	17452
864.296	17372
864.428	17551
864.559	17608
864.691	17436
864.823	17581
864.954	17452
865.086	17414
865.217	17341
865.349	17349
865.48	17318
865.612	17383
865.743	17505
865.875	17334
866.006	17353
866.137	17471
866.269	17326
866.4	17246
866.531	17387
866.662	17284
866.793	17299
866.924	17337
867.055	17505
867.186	17391
867.317	17292
867.448	17174
867.579	17242
867.71	17254
867.841	17318
867.972	17334
868.103	17356
868.233	17421
868.364	17440
868.495	17360
868.625	17455
868.756	17668
868.886	17486
869.017	17752
869.147	17737
869.278	17619
869.408	17653
869.539	17687
869.669	17710
869.799	17630
869.929	17798
870.06	17798
870.19	17885
870.32	17901
870.45	17954
870.58	18015
870.71	18285
870.84	18304
870.97	18155
871.1	18045
871.23	18285
871.36	18152
871.489	18186
871.619	18243
871.749	18296
871.879	18380
872.008	18433
872.138	18376
872.267	18289
872.397	18300
872.526	18201
872.656	18171
872.785	18186
872.915	18445
873.044	18559
873.173	18369
873.303	18544
873.432	18574
873.561	18684
873.69	18502
873.819	18563
873.948	18650
874.077	18608
874.206	18582
874.335	18703
874.464	18817
874.593	18973
874.722	18916
874.851	18993
874.979	19110
875.108	19099
875.237	19114
875.365	19084
875.494	19198
875.623	19251
875.751	19168
875.88	19354
876.008	19415
876.136	19594
876.265	19845
876.393	19940
876.521	19940
876.65	20016
876.778	19997
876.906	20050
877.034	19940
877.162	20233
877.29	20126
877.418	20248
877.546	20469
877.674	20404
877.802	20450
877.93	20800
878.058	20872
878.185	21062
878.313	21237
878.441	21591
878.568	21869
878.696	22478
878.824	23204
878.951	24266
879.079	25643
879.206	27595
879.333	29410
879.461	31141
879.588	32035
879.715	31959
879.842	31217
879.97	29649
880.097	27492
880.224	25970
880.351	24810
880.478	24148
880.605	23539
880.732	23121
880.859	23220
880.986	22862
881.112	22793
881.239	22569
881.366	22546
881.493	22428
881.619	22280
881.746	22341
881.872	22382
881.999	22371
882.125	22519
882.252	22485
882.378	22577
882.505	22736
882.631	22440
882.757	22363
882.883	22527
883.01	22341
883.136	22299
883.262	22223
883.388	22196
883.514	22314
883.64	22405
883.766	22310
883.892	22051
884.018	22192
884.143	22268
884.269	22333
884.395	22223
884.52	22036
884.646	22090
884.772	22029
884.897	22055
885.023	22063
885.148	22135
885.274	22128
885.399	21876
885.524	21907
885.65	21785
885.775	21614
885.9	21587
886.025	21526
886.15	21291
886.275	21108
886.4	20952
886.525	20678
886.65	20625
886.775	20568
886.9	20667
887.025	20686
887.149	20419
887.274	20195
887.399	19993
887.523	19883
887.648	19795
887.773	19712
887.897	19734
888.021	19719
888.146	19552
888.27	19605
888.395	19540
888.519	19518
888.643	19407
888.767	19476
888.891	19209
889.015	19156
889.139	19084
889.263	18993
889.387	19156
889.511	19160
889.635	19091
889.759	19034
889.883	18825
890.006	18909
890.13	19042
890.254	18715
890.377	18757
890.501	18452
890.624	18528
890.748	18574
890.871	18494
890.995	18205
891.118	18095
891.241	18319
891.364	18315
891.488	18243
891.611	18174
891.734	18159
891.857	18117
891.98	18114
892.103	18155
892.226	17965
892.349	17961
892.471	17885
892.594	17946
892.717	17946
892.839	17809
892.962	17927
893.085	17912
893.207	17729
893.33	17737
893.452	17668
893.575	17783
893.697	17714
893.819	17802
893.941	17748
894.064	17745
894.186	17703
894.308	17570
894.43	17676
894.552	17809
894.674	17695
894.796	17387
894.918	17528
895.04	17512
895.161	17630
895.283	17406
895.405	17471
895.526	17467
895.648	17345
895.769	17455
895.891	17524
896.012	17486
896.134	17421
896.255	17391
896.376	17398
896.498	17410
896.619	17478
896.74	17429
896.861	17478
896.982	17634
897.103	17882
897.224	17756
897.345	17600
897.466	17570
897.587	17520
897.708	17611
897.828	17573
897.949	17497
898.07	17353
898.19	17604
898.311	17703
898.431	17448
898.552	17585
898.672	17615
898.792	17657
898.913	17619
899.033	17482
899.153	17360
899.273	17326
899.393	17395
899.513	17410
899.633	17448
899.753	17532
899.873	17455
899.993	17410
900.113	17322
900.232	17364
900.352	17277
900.472	17273
900.591	17181
900.711	17090
900.83	17143
900.95	17261
901.069	17334
901.189	17071
901.308	16892
901.427	16710
901.546	16721
901.665	16733
901.784	16866
901.904	16710
902.023	16470
902.141	16379
902.26	16276
902.379	16223
902.498	16303
902.617	16322
902.735	16246
902.854	16128
902.973	16211
903.091	15869
903.21	15956
903.328	15937
903.446	15846
903.565	15797
903.683	15690
903.801	15534
903.919	15622
904.038	15656
904.156	15538
904.274	15637
904.392	15488
904.51	15431
904.627	15424
904.745	15462
904.863	15500
904.981	15230
905.098	15127
905.216	15089
905.334	15085
905.451	15138
905.569	15013
905.686	15081
905.803	15169
905.921	14864
906.038	14986
906.155	14811
906.272	14838
906.389	14861
906.506	14648
906.623	14571
906.74	14686
906.857	14518
906.974	14499
907.091	14667
907.208	14708
907.324	14590
907.441	14446
907.557	14393
907.674	14385
907.79	14278
907.907	14298
908.023	14404
908.139	14259
908.256	14240
908.372	14237
908.488	14176
908.604	14065
908.72	14046
908.836	14138
908.952	14039
909.068	13974
909.184	14020
909.3	14084
909.415	14142
909.531	14043
909.647	13776
909.762	13795
909.878	13757
909.993	13769
910.108	13761
910.224	13845
910.339	13837
910.454	13639
910.57	13578
910.685	13575
910.8	13875
910.915	13780
911.03	13605
911.145	13495
911.259	13468
911.374	13407
911.489	13400
911.604	13293
911.718	13133
911.833	13194
911.947	13099
912.062	13004
912.176	13228
912.291	13228
912.405	13080
912.519	13297
912.633	13388
912.748	13225
912.862	13247
912.976	13126
913.09	12951
913.204	13072
913.318	13012
913.431	13137
913.545	13160
913.659	13175
913.772	13004
913.886	12966
914	12920
914.113	12913
914.226	13031
914.34	12951
914.453	12817
914.566	12954
914.68	12871
914.793	12719
914.906	12597
915.019	12589
915.132	12479
915.245	12658
915.358	12696
915.47	12608
915.583	12616
915.696	12642
915.809	12722
915.921	12791
916.034	12479
916.146	12513
916.259	12574
916.371	12608
916.483	12559
916.595	12517
916.708	12589
916.82	12566
916.932	12555
917.044	12498
917.156	12490
917.268	12414
917.38	12346
917.491	12395
917.603	12365
917.715	12486
917.826	12460
917.938	12258
918.049	12247
918.161	12323
918.272	12399
918.384	12429
918.495	12327
918.606	12140
918.717	12148
918.828	12205
918.939	12171
919.05	12049
919.161	12079
919.272	11874
919.383	12026
919.494	12178
919.604	12391
919.715	12091
919.826	12064
919.936	12076
920.047	12270
920.157	12072
920.267	12311
920.378	12148
920.488	12190
920.598	12311
920.708	12418
920.818	12289
920.928	12254
921.038	12418
921.148	12361
921.258	12129
921.368	11965
921.477	11935
921.587	11893
921.697	11847
921.806	11916
921.916	11863
922.025	11551
922.134	11608
922.244	11532
922.353	11634
922.462	11474
922.571	11433
922.68	11227
922.789	11239
922.898	11265
923.007	11212
923.116	11239
923.224	11220
923.333	11273
923.442	11094
923.55	11086
923.659	11102
923.767	11170
923.876	10957
923.984	11258
924.092	11045
924.201	11037
924.309	11056
924.417	10987
924.525	10999
924.633	11014
924.741	11707
924.849	10824
924.956	10915
925.064	10790
925.172	10782
925.279	10706
925.387	10774
925.494	10831
925.602	10938
925.709	10816
925.816	10736
925.924	10755
926.031	10847
926.138	10759
926.245	10755
926.352	10649
926.459	10862
926.566	10831
926.673	10675
926.779	10561
926.886	10550
926.993	10558
927.099	10402
927.206	10409
927.312	10318
927.419	10402
927.525	10432
927.631	10432
927.737	10310
927.843	10329
927.95	10185
928.056	10291
928.162	10344
928.267	10440
928.373	10953
928.479	10413
928.585	10131
928.69	10310
928.796	10329
928.901	10063
929.007	10025
929.112	10219
929.218	10169
929.323	10109
929.428	10086
929.533	10227
929.638	10017
929.743	10032
929.848	10097
929.953	10116
930.058	9941
930.163	9842
930.267	9850
930.372	9888
930.477	9743
930.581	10078
930.685	9949
930.79	9736
930.894	9759
930.998	9660
931.103	9850
931.207	9519
931.311	9458
931.415	9370
931.519	9184
931.623	9169
