Data from test_V78500241_864.txt Node
Date: Fri Mar 25 14:39:44 CST 2022
User: usil
Spectrometer: V785-0024
Trigger mode: 0
Integration Time (sec): 4.000000E-1
Scans to average: 1
Nonlinearity correction enabled: false
Boxcar width: 0
Storing dark spectrum: false
XAxis mode: Wavelengths
Number of Pixels in Spectrum: 1024
>>>>>Begin Spectral Data<<<<<
801.071	25746
801.214	25685
801.356	25240
801.499	25221
801.641	25217
801.783	25091
801.926	25133
802.068	24935
802.211	24905
802.353	24833
802.496	24616
802.638	24642
802.78	24555
802.923	24418
803.065	24448
803.208	24525
803.35	24612
803.492	24623
803.635	24642
803.777	24528
803.919	24601
804.061	24916
804.204	24513
804.346	24532
804.488	24486
804.63	24536
804.773	24327
804.915	24475
805.057	24787
805.199	24631
805.341	24875
805.483	24856
805.626	24722
805.768	24623
805.91	24909
806.052	24958
806.194	24875
806.336	25122
806.478	25129
806.62	25225
806.762	25289
806.904	25601
807.046	25982
807.188	25890
807.33	26199
807.472	26476
807.614	26804
807.756	27123
807.898	27492
808.04	28090
808.182	29075
808.324	30155
808.465	31491
808.607	32880
808.749	34162
808.891	34930
809.033	34877
809.174	34128
809.316	32948
809.458	31479
809.6	30098
809.741	28923
809.883	27934
810.025	27424
810.166	27108
810.308	26796
810.45	26461
810.591	26218
810.733	25811
810.875	25540
811.016	25422
811.158	25358
811.299	25479
811.441	25304
811.582	25137
811.724	25266
811.865	25031
812.007	24962
812.148	24932
812.29	24954
812.431	25110
812.573	25251
812.714	25289
812.855	25453
812.997	25464
813.138	25495
813.279	25525
813.421	25217
813.562	25171
813.703	25019
813.845	24802
813.986	24498
814.127	24273
814.268	24270
814.41	24258
814.551	24239
814.692	24319
814.833	24182
814.974	24129
815.115	24213
815.256	24015
815.397	23969
815.539	24038
815.68	23817
815.821	23817
815.962	23783
816.103	23912
816.244	23767
816.385	23657
816.526	23573
816.666	23509
816.807	23250
816.948	23334
817.089	23444
817.23	23284
817.371	23349
817.512	23212
817.653	23258
817.793	23189
817.934	23200
818.075	23254
818.216	23288
818.356	23166
818.497	23037
818.638	22862
818.778	22881
818.919	22896
819.06	22896
819.2	23048
819.341	23052
819.481	23086
819.622	23216
819.762	23391
819.903	23288
820.043	23242
820.184	23235
820.324	23109
820.465	23197
820.605	23113
820.746	23022
820.886	22949
821.026	23010
821.167	23136
821.307	23022
821.447	23071
821.588	22858
821.728	22683
821.868	22630
822.008	22390
822.149	22390
822.289	22405
822.429	22246
822.569	22143
822.709	22135
822.849	21739
822.99	21865
823.13	21846
823.27	21785
823.41	21641
823.55	21667
823.69	21694
823.83	21675
823.97	21724
824.11	21534
824.25	21424
824.389	21412
824.529	21523
824.669	21447
824.809	21652
824.949	21557
825.089	21580
825.228	21606
825.368	21306
825.508	21378
825.648	21264
825.787	21211
825.927	21275
826.067	21195
826.206	21188
826.346	21272
826.485	21340
826.625	21218
826.765	21424
826.904	21230
827.044	20929
827.183	20963
827.323	20853
827.462	20834
827.601	20872
827.741	20853
827.88	20914
828.02	20762
828.159	20876
828.298	20804
828.437	20982
828.577	20754
828.716	21001
828.855	20743
828.994	20613
829.134	20590
829.273	20651
829.412	20556
829.551	20465
829.69	20446
829.829	20636
829.968	20606
830.107	20648
830.246	20659
830.385	20446
830.524	20362
830.663	20362
830.802	20317
830.941	20134
831.08	20012
831.219	20374
831.357	20206
831.496	20400
831.635	20161
831.774	20096
831.913	20046
832.051	19902
832.19	20005
832.329	19993
832.467	19879
832.606	19887
832.744	19856
832.883	19818
833.022	19959
833.16	20031
833.299	20035
833.437	20100
833.576	20153
833.714	20202
833.852	20358
833.991	20355
834.129	20476
834.267	20404
834.406	20423
834.544	20332
834.682	20317
834.821	20233
834.959	20347
835.097	20054
835.235	20119
835.373	20054
835.511	19970
835.65	19860
835.788	19746
835.926	19616
836.064	19620
836.202	19597
836.34	19841
836.478	19776
836.615	19651
836.753	19704
836.891	19784
837.029	19750
837.167	19632
837.305	19552
837.443	19514
837.58	19495
837.718	19666
837.856	19605
837.993	19441
838.131	19487
838.269	19392
838.406	19419
838.544	19350
838.681	19247
838.819	19141
838.956	18924
839.094	18928
839.231	19004
839.369	19126
839.506	19354
839.643	19209
839.781	19004
839.918	18993
840.055	18806
840.193	18989
840.33	18947
840.467	18947
840.604	19008
840.742	19274
840.879	18878
841.016	18985
841.153	18798
841.29	18951
841.427	18875
841.564	19088
841.701	18928
841.838	18829
841.975	19027
842.112	18783
842.249	18692
842.385	18547
842.522	18856
842.659	18791
842.796	18646
842.933	18829
843.069	18711
843.206	18692
843.343	18795
843.479	18806
843.616	18760
843.752	18551
843.889	18563
844.025	18779
844.162	18540
844.298	18700
844.435	18753
844.571	18802
844.708	18989
844.844	19187
844.98	19358
845.117	19666
845.253	19822
845.389	20503
845.525	21953
845.661	24327
845.798	27024
845.934	29375
846.07	30365
846.206	30087
846.342	28265
846.478	25343
846.614	22725
846.75	20872
846.886	19951
847.022	19339
847.158	18844
847.294	18570
847.429	18513
847.565	18304
847.701	18464
847.837	18034
847.972	17920
848.108	17874
848.244	17878
848.379	17710
848.515	17608
848.65	17657
848.786	17623
848.921	17570
849.057	17802
849.192	17680
849.328	17600
849.463	17600
849.598	17509
849.734	17528
849.869	17455
850.004	17360
850.14	17448
850.275	17391
850.41	17181
850.545	17273
850.68	17254
850.815	17433
850.95	17269
851.085	17516
851.22	17387
851.355	17334
851.49	17356
851.625	17311
851.76	17258
851.895	17273
852.03	17140
852.165	17436
852.299	17417
852.434	17440
852.569	17334
852.703	17353
852.838	17402
852.973	17425
853.107	17455
853.242	17395
853.376	17242
853.511	17140
853.645	17277
853.78	17440
853.914	17356
854.048	17231
854.183	17318
854.317	17433
854.451	17463
854.585	17235
854.72	17376
854.854	17318
854.988	17204
855.122	17181
855.256	17018
855.39	17242
855.524	17246
855.658	17277
855.792	17079
855.926	17250
856.06	17318
856.194	17132
856.327	17071
856.461	17121
856.595	17052
856.729	17060
856.862	17258
856.996	17208
857.13	17231
857.263	17242
857.397	17231
857.53	17006
857.664	17178
857.797	17170
857.931	17288
858.064	17102
858.197	17223
858.331	17136
858.464	17067
858.597	17010
858.731	16999
858.864	17048
858.997	17041
859.13	17162
859.263	17079
859.396	17140
859.529	17052
859.662	17056
859.795	17014
859.928	17086
860.061	17337
860.194	17208
860.327	17102
860.46	17083
860.592	17159
860.725	17212
860.858	17113
860.99	17079
861.123	16991
861.256	17006
861.388	17064
861.521	17695
861.653	16877
861.786	16869
861.918	16889
862.05	17003
862.183	16976
862.315	16949
862.447	17128
862.58	16885
862.712	16847
862.844	16790
862.976	16896
863.108	16782
863.24	17181
863.372	16778
863.504	16748
863.636	16721
863.768	16801
863.9	16694
864.032	16668
864.164	16744
864.296	16717
864.428	16812
864.559	16839
864.691	16809
864.823	16744
864.954	16824
865.086	16664
865.217	16698
865.349	16599
865.48	16679
865.612	16691
865.743	16812
865.875	16759
866.006	16649
866.137	16710
866.269	16672
866.4	16634
866.531	16725
866.662	16607
866.793	16649
866.924	16649
867.055	16740
867.186	16706
867.317	16733
867.448	16500
867.579	16565
867.71	16577
867.841	16641
867.972	16805
868.103	16805
868.233	16702
868.364	16713
868.495	16691
868.625	16866
868.756	17086
868.886	16828
869.017	17022
869.147	16995
869.278	17090
869.408	16972
869.539	16976
869.669	17064
869.799	17006
869.929	17029
870.06	17124
870.19	17151
870.32	17220
870.45	17376
870.58	17318
870.71	17391
870.84	17414
870.97	17376
871.1	17315
871.23	17493
871.36	17566
871.489	17414
871.619	17482
871.749	17459
871.879	17649
872.008	17691
872.138	17619
872.267	17551
872.397	17444
872.526	17398
872.656	17387
872.785	17402
872.915	17592
873.044	17630
873.173	17551
873.303	17703
873.432	17843
873.561	17813
873.69	17661
873.819	17714
873.948	17828
874.077	17665
874.206	17840
874.335	17840
874.464	17973
874.593	18087
874.722	18022
874.851	18106
874.979	18117
875.108	18194
875.237	18091
875.365	18038
875.494	18174
875.623	18201
875.751	18095
875.88	18235
876.008	18159
876.136	18433
876.265	18635
876.393	18795
876.521	18810
876.65	18852
876.778	18635
876.906	18711
877.034	18738
877.162	18806
877.29	18859
877.418	18894
877.546	18951
877.674	18875
877.802	19004
877.93	19046
878.058	19046
878.185	19137
878.313	19369
878.441	19293
878.568	19460
878.696	19761
878.824	20183
878.951	20716
879.079	21477
879.206	22333
879.333	23292
879.461	24003
879.588	24391
879.715	24407
879.842	24144
879.97	23178
880.097	22139
880.224	21401
880.351	20967
880.478	20537
880.605	20191
880.732	20149
880.859	20248
880.986	19928
881.112	19982
881.239	19689
881.366	19677
881.493	19647
881.619	19464
881.746	19609
881.872	19578
881.999	19472
882.125	19510
882.252	19620
882.378	19563
882.505	19666
882.631	19601
882.757	19582
882.883	19468
883.01	19403
883.136	19365
883.262	19232
883.388	19308
883.514	19225
883.64	19335
883.766	19350
883.892	19171
884.018	19156
884.143	19407
884.269	19460
884.395	19240
884.52	19053
884.646	19126
884.772	19050
884.897	18939
885.023	19206
885.148	19171
885.274	19225
885.399	19122
885.524	18966
885.65	18966
885.775	18837
885.9	18821
886.025	18928
886.15	18848
886.275	18654
886.4	18467
886.525	18551
886.65	18380
886.775	18422
886.9	18528
887.025	18642
887.149	18414
887.274	18194
887.399	18140
887.523	17935
887.648	17828
887.773	17767
887.897	17954
888.021	17878
888.146	17843
888.27	17859
888.395	18015
888.519	17790
888.643	17901
888.767	17805
888.891	17653
889.015	17566
889.139	17592
889.263	17627
889.387	17577
889.511	17691
889.635	17611
889.759	17554
889.883	17436
890.006	17474
890.13	17570
890.254	17345
890.377	17379
890.501	17151
890.624	17200
890.748	17185
890.871	17117
890.995	17010
891.118	16980
891.241	16991
891.364	16900
891.488	17067
891.611	17018
891.734	16934
891.857	16965
891.98	16976
892.103	16991
892.226	16927
892.349	16801
892.471	16710
892.594	16812
892.717	16919
892.839	16854
892.962	16831
893.085	16896
893.207	16835
893.33	16485
893.452	16725
893.575	16915
893.697	16744
893.819	16843
893.941	16885
894.064	16782
894.186	16713
894.308	16542
894.43	16892
894.552	16839
894.674	16793
894.796	16672
894.918	16687
895.04	16592
895.161	16786
895.283	16774
895.405	16588
895.526	16634
895.648	16622
895.769	16706
895.891	16850
896.012	16847
896.134	16752
896.255	16683
896.376	16717
896.498	16698
896.619	16729
896.74	16660
896.861	16694
896.982	17140
897.103	17212
897.224	17079
897.345	16984
897.466	16843
897.587	16877
897.708	17140
897.828	16908
897.949	17014
898.07	16812
898.19	16927
898.311	16938
898.431	16919
898.552	16961
898.672	17079
898.792	17033
898.913	16957
899.033	16972
899.153	16778
899.273	16706
899.393	16660
899.513	16824
899.633	16812
899.753	16873
899.873	16763
899.993	16919
900.113	16656
900.232	16896
900.352	16771
900.472	16599
900.591	16538
900.711	16569
900.83	16592
900.95	16752
901.069	16824
901.189	16611
901.308	16356
901.427	16234
901.546	16238
901.665	16253
901.784	16188
901.904	16177
902.023	16032
902.141	15770
902.26	15698
902.379	15789
902.498	15800
902.617	15724
902.735	15838
902.854	15641
902.973	15743
903.091	15386
903.21	15340
903.328	15450
903.446	15370
903.565	15310
903.683	15272
903.801	15176
903.919	15260
904.038	15245
904.156	15051
904.274	14994
904.392	14948
904.51	15104
904.627	15013
904.745	15074
904.863	15058
904.981	14838
905.098	14712
905.216	14712
905.334	14686
905.451	14655
905.569	14678
905.686	14659
905.803	14606
905.921	14522
906.038	14602
906.155	14518
906.272	14324
906.389	14408
906.506	14199
906.623	14267
906.74	14248
906.857	14149
906.974	14149
907.091	14294
907.208	14362
907.324	14225
907.441	14058
907.557	13993
907.674	13989
907.79	13986
907.907	13890
908.023	13913
908.139	13784
908.256	13860
908.372	13776
908.488	13849
908.604	13651
908.72	13620
908.836	13636
908.952	13700
909.068	13643
909.184	13753
909.3	13651
909.415	13715
909.531	13704
909.647	13365
909.762	13449
909.878	13354
909.993	13411
910.108	13464
910.224	13365
910.339	13396
910.454	13327
910.57	13171
910.685	13221
910.8	13453
910.915	13373
911.03	13312
911.145	13091
911.259	13110
911.374	13114
911.489	12996
911.604	12970
911.718	12779
911.833	12768
911.947	12665
912.062	12658
912.176	12700
912.291	12772
912.405	12700
912.519	12954
912.633	12993
912.748	12859
912.862	12806
912.976	12612
913.09	12570
913.204	12555
913.318	12616
913.431	12707
913.545	12749
913.659	12757
913.772	12585
913.886	12471
914	12445
914.113	12623
914.226	12601
914.34	12547
914.453	12460
914.566	12502
914.68	12369
914.793	12353
914.906	12194
915.019	12178
915.132	12152
915.245	12235
915.358	12220
915.47	12251
915.583	12197
915.696	12209
915.809	12262
915.921	12330
916.034	12197
916.146	12155
916.259	12201
916.371	12167
916.483	12175
916.595	12144
916.708	12155
916.82	12178
916.932	12144
917.044	12087
917.156	12140
917.268	11965
917.38	11988
917.491	11950
917.603	11882
917.715	12140
917.826	12026
917.938	11931
918.049	11813
918.161	11912
918.272	12015
918.384	12133
918.495	11961
918.606	11798
918.717	11783
918.828	11748
918.939	11874
919.05	11592
919.161	11767
919.272	11600
919.383	11619
919.494	11843
919.604	12068
919.715	11729
919.826	11748
919.936	11779
920.047	11897
920.157	11794
920.267	11996
920.378	11756
920.488	11737
920.598	11946
920.708	12049
920.818	11931
920.928	11916
921.038	12019
921.148	11999
921.258	11737
921.368	11615
921.477	11627
921.587	11592
921.697	11482
921.806	11627
921.916	11459
922.025	11231
922.134	11269
922.244	11159
922.353	11258
922.462	11159
922.571	11128
922.68	10919
922.789	10873
922.898	10942
923.007	10885
923.116	10961
923.224	10877
923.333	10968
923.442	10904
923.55	10702
923.659	10679
923.767	10866
923.876	10691
923.984	10839
924.092	10683
924.201	10771
924.309	10687
924.417	10805
924.525	10725
924.633	10736
924.741	11653
924.849	10516
924.956	10637
925.064	10527
925.172	10421
925.279	10493
925.387	10580
925.494	10409
925.602	10630
925.709	10531
925.816	10470
925.924	10478
926.031	10558
926.138	10493
926.245	10512
926.352	10375
926.459	10516
926.566	10523
926.673	10398
926.779	10337
926.886	10261
926.993	10219
927.099	10188
927.206	10128
927.312	10063
927.419	10246
927.525	10166
927.631	10295
927.737	10124
927.843	10097
927.95	9865
928.056	10013
928.162	9991
928.267	10128
928.373	10626
928.479	10124
928.585	9903
928.69	10040
928.796	10002
928.901	9922
929.007	9861
929.112	9956
929.218	9926
929.323	9785
929.428	9823
929.533	9945
929.638	9766
929.743	9770
929.848	9854
929.953	9679
930.058	9663
930.163	9580
930.267	9633
930.372	9713
930.477	9523
930.581	9690
930.685	9682
930.79	9408
930.894	9519
930.998	9450
931.103	9675
931.207	9253
931.311	9138
931.415	9058
931.519	8944
931.623	8937
