Data from test_V78500241_2327.txt Node
Date: Fri Mar 25 14:49:54 CST 2022
User: usil
Spectrometer: V785-0024
Trigger mode: 0
Integration Time (sec): 4.000000E-1
Scans to average: 1
Nonlinearity correction enabled: false
Boxcar width: 0
Storing dark spectrum: false
XAxis mode: Wavelengths
Number of Pixels in Spectrum: 1024
>>>>>Begin Spectral Data<<<<<
801.071	22337
801.214	22086
801.356	21766
801.499	21781
801.641	21572
801.783	21549
801.926	21587
802.068	21519
802.211	21477
802.353	21329
802.496	21218
802.638	21131
802.78	20952
802.923	20849
803.065	20872
803.208	20815
803.35	20781
803.492	20960
803.635	20933
803.777	20830
803.919	21028
804.061	21321
804.204	21001
804.346	20899
804.488	20731
804.63	20910
804.773	20724
804.915	20765
805.057	20921
805.199	20754
805.341	20902
805.483	20834
805.626	20906
805.768	20807
805.91	20842
806.052	20929
806.194	20773
806.336	20933
806.478	20804
806.62	20640
806.762	20895
806.904	21108
807.046	21264
807.188	21066
807.33	21173
807.472	21226
807.614	21005
807.756	21230
807.898	20838
808.04	20887
808.182	20842
808.324	20944
808.465	20910
808.607	21085
808.749	21203
808.891	21336
809.033	21435
809.174	21344
809.316	21138
809.458	21249
809.6	21116
809.741	21195
809.883	21252
810.025	21317
810.166	21325
810.308	21207
810.45	21226
810.591	21237
810.733	21020
810.875	20979
811.016	20796
811.158	20944
811.299	20941
811.441	21154
811.582	21058
811.724	20952
811.865	20975
812.007	20895
812.148	20921
812.29	21108
812.431	21127
812.573	21397
812.714	21355
812.855	21443
812.997	21656
813.138	21648
813.279	21454
813.421	21542
813.562	21408
813.703	21344
813.845	21112
813.986	20781
814.127	20701
814.268	20606
814.41	20530
814.551	20568
814.692	20552
814.833	20427
814.974	20366
815.115	20503
815.256	20404
815.397	20259
815.539	20294
815.68	20259
815.821	20225
815.962	20278
816.103	20225
816.244	20111
816.385	20050
816.526	19887
816.666	19715
816.807	19635
816.948	19727
817.089	19765
817.23	19712
817.371	19563
817.512	19696
817.653	19620
817.793	19609
817.934	19552
818.075	19544
818.216	19628
818.356	19563
818.497	19495
818.638	19274
818.778	19320
818.919	19175
819.06	19263
819.2	19430
819.341	19468
819.481	19514
819.622	19761
819.762	19811
819.903	19708
820.043	19681
820.184	19601
820.324	19544
820.465	19715
820.605	19594
820.746	19613
820.886	19438
821.026	19518
821.167	19643
821.307	19666
821.447	19499
821.588	19457
821.728	19285
821.868	19213
822.008	19023
822.149	18958
822.289	18943
822.429	18757
822.569	18840
822.709	18669
822.849	18429
822.99	18555
823.13	18452
823.27	18376
823.41	18216
823.55	18258
823.69	18243
823.83	18311
823.97	18190
824.11	18091
824.25	17980
824.389	17939
824.529	18224
824.669	18087
824.809	18125
824.949	18095
825.089	18011
825.228	18026
825.368	17965
825.508	17832
825.648	17821
825.787	17904
825.927	17866
826.067	17855
826.206	17737
826.346	17783
826.485	17939
826.625	17866
826.765	17946
826.904	17885
827.044	17611
827.183	17589
827.323	17478
827.462	17623
827.601	17570
827.741	17573
827.88	17535
828.02	17402
828.159	17493
828.298	17592
828.437	17649
828.577	17497
828.716	17661
828.855	17493
828.994	17292
829.134	17421
829.273	17292
829.412	17261
829.551	17296
829.69	17258
829.829	17322
829.968	17440
830.107	17277
830.246	17326
830.385	17204
830.524	17178
830.663	17056
830.802	17056
830.941	16972
831.08	16896
831.219	17071
831.357	17056
831.496	17185
831.635	16911
831.774	16793
831.913	16831
832.051	16759
832.19	16710
832.329	16748
832.467	16675
832.606	16489
832.744	16637
832.883	16519
833.022	16637
833.16	16634
833.299	16679
833.437	16607
833.576	16622
833.714	16672
833.852	16706
833.991	16599
834.129	16713
834.267	16683
834.406	16596
834.544	16607
834.682	16641
834.821	16675
834.959	16782
835.097	16634
835.235	16786
835.373	16672
835.511	16660
835.65	16500
835.788	16622
835.926	16428
836.064	16344
836.202	16360
836.34	16588
836.478	16698
836.615	16550
836.753	16546
836.891	16672
837.029	16668
837.167	16497
837.305	16474
837.443	16337
837.58	16333
837.718	16447
837.856	16394
837.993	16344
838.131	16462
838.269	16474
838.406	16382
838.544	16299
838.681	16105
838.819	16071
838.956	15953
839.094	15945
839.231	16044
839.369	16097
839.506	16394
839.643	16219
839.781	16021
839.918	15918
840.055	16048
840.193	15934
840.33	15895
840.467	15907
840.604	16006
840.742	16207
840.879	15770
841.016	15907
841.153	15785
841.29	16044
841.427	15918
841.564	16071
841.701	16021
841.838	15884
841.975	15857
842.112	15869
842.249	15743
842.385	15682
842.522	15888
842.659	15751
842.796	15641
842.933	15667
843.069	15739
843.206	15682
843.343	15724
843.479	15747
843.616	15800
843.752	15618
843.889	15412
844.025	15656
844.162	15488
844.298	15644
844.435	15545
844.571	15450
844.708	15473
844.844	15656
844.98	15660
845.117	15648
845.253	15504
845.389	15397
845.525	15435
845.661	15405
845.798	15306
845.934	15359
846.07	15336
846.206	15367
846.342	15443
846.478	15306
846.614	15081
846.75	14937
846.886	15119
847.022	15062
847.158	15135
847.294	15119
847.429	15222
847.565	15051
847.701	15279
847.837	14849
847.972	14735
848.108	14910
848.244	14914
848.379	14777
848.515	14648
848.65	14674
848.786	14693
848.921	14674
849.057	14743
849.192	14724
849.328	14659
849.463	14651
849.598	14693
849.734	14533
849.869	14575
850.004	14499
850.14	14415
850.275	14495
850.41	14343
850.545	14396
850.68	14400
850.815	14423
850.95	14454
851.085	14568
851.22	14484
851.355	14480
851.49	14412
851.625	14419
851.76	14514
851.895	14374
852.03	14355
852.165	14377
852.299	14427
852.434	14499
852.569	14431
852.703	14518
852.838	14598
852.973	14530
853.107	14640
853.242	14400
853.376	14332
853.511	14214
853.645	14351
853.78	14469
853.914	14355
854.048	14317
854.183	14206
854.317	14347
854.451	14476
854.585	14248
854.72	14282
854.854	14499
854.988	14278
855.122	14301
855.256	14157
855.39	14305
855.524	14351
855.658	14389
855.792	14381
855.926	14309
856.06	14374
856.194	14438
856.327	14412
856.461	14244
856.595	14214
856.729	14263
856.862	14469
856.996	14336
857.13	14374
857.263	14446
857.397	14507
857.53	14374
857.664	14431
857.797	14404
857.931	14438
858.064	14419
858.197	14366
858.331	14309
858.464	14278
858.597	14221
858.731	14305
858.864	14282
858.997	14393
859.13	14336
859.263	14317
859.396	14423
859.529	14309
859.662	14294
859.795	14328
859.928	14419
860.061	14484
860.194	14393
860.327	14328
860.46	14301
860.592	14317
860.725	14434
860.858	14473
860.99	14305
861.123	14271
861.256	14267
861.388	14370
861.521	14929
861.653	14164
861.786	14180
861.918	14164
862.05	14214
862.183	14248
862.315	14290
862.447	14355
862.58	14263
862.712	13989
862.844	13940
862.976	14187
863.108	14168
863.24	14389
863.372	13940
863.504	14138
863.636	14100
863.768	14096
863.9	14062
864.032	14069
864.164	14054
864.296	14218
864.428	14252
864.559	14161
864.691	14157
864.823	14092
864.954	14119
865.086	14058
865.217	14084
865.349	13940
865.48	14134
865.612	14100
865.743	14244
865.875	14058
866.006	14115
866.137	14035
866.269	14043
866.4	14084
866.531	14058
866.662	14062
866.793	14092
866.924	14031
867.055	14031
867.186	14001
867.317	14088
867.448	13967
867.579	14111
867.71	13986
867.841	13978
867.972	13986
868.103	14020
868.233	14031
868.364	14084
868.495	14100
868.625	14336
868.756	14423
868.886	14221
869.017	14256
869.147	14336
869.278	14347
869.408	14366
869.539	14229
869.669	14366
869.799	14396
869.929	14454
870.06	14492
870.19	14613
870.32	14724
870.45	14693
870.58	14724
870.71	14765
870.84	14937
870.97	14785
871.1	14743
871.23	14868
871.36	14952
871.489	14727
871.619	14944
871.749	14918
871.879	14952
872.008	15036
872.138	14880
872.267	14891
872.397	14762
872.526	14640
872.656	14720
872.785	14785
872.915	14891
873.044	15001
873.173	14891
873.303	15017
873.432	15047
873.561	14990
873.69	14925
873.819	14918
873.948	14937
874.077	14998
874.206	15005
874.335	14933
874.464	15127
874.593	15180
874.722	15211
874.851	15317
874.979	15313
875.108	15310
875.237	15230
875.365	15237
875.494	15241
875.623	15332
875.751	15241
875.88	15302
876.008	15443
876.136	15420
876.265	15827
876.393	15819
876.521	15827
876.65	15823
876.778	15614
876.906	15660
877.034	15679
877.162	15656
877.29	15618
877.418	15625
877.546	15759
877.674	15614
877.802	15762
877.93	15713
878.058	15652
878.185	15599
878.313	15652
878.441	15728
878.568	15599
878.696	15633
878.824	15766
878.951	15701
879.079	15797
879.206	15949
879.333	15819
879.461	15774
879.588	15835
879.715	15861
879.842	16029
879.97	15698
880.097	15511
880.224	15481
880.351	15530
880.478	15530
880.605	15511
880.732	15485
880.859	15656
880.986	15496
881.112	15530
881.239	15568
881.366	15249
881.493	15207
881.619	15249
881.746	15249
881.872	15249
881.999	15222
882.125	15058
882.252	15169
882.378	15207
882.505	15275
882.631	15108
882.757	14933
882.883	14971
883.01	15062
883.136	14918
883.262	14796
883.388	14815
883.514	15005
883.64	15093
883.766	14960
883.892	14796
884.018	14849
884.143	15005
884.269	15051
884.395	14735
884.52	14659
884.646	14659
884.772	14644
884.897	14590
885.023	14682
885.148	14800
885.274	14834
885.399	14845
885.524	14746
885.65	14701
885.775	14769
885.9	14644
886.025	14815
886.15	14746
886.275	14705
886.4	14640
886.525	14746
886.65	14693
886.775	14632
886.9	14765
887.025	14979
887.149	14765
887.274	14575
887.399	14514
887.523	14484
887.648	14400
887.773	14343
887.897	14621
888.021	14648
888.146	14522
888.27	14621
888.395	14678
888.519	14659
888.643	14575
888.767	14556
888.891	14427
889.015	14374
889.139	14454
889.263	14362
889.387	14541
889.511	14514
889.635	14461
889.759	14412
889.883	14343
890.006	14434
890.13	14488
890.254	14290
890.377	14404
890.501	14168
890.624	14191
890.748	14214
890.871	14195
890.995	14069
891.118	14012
891.241	14077
891.364	14153
891.488	14164
891.611	14027
891.734	14088
891.857	14172
891.98	14202
892.103	14149
892.226	14256
892.349	14084
892.471	13917
892.594	14062
892.717	14073
892.839	14065
892.962	14164
893.085	14123
893.207	14069
893.33	13890
893.452	14046
893.575	14077
893.697	14111
893.819	14195
893.941	14282
894.064	14149
894.186	14069
894.308	14008
894.43	14301
894.552	14328
894.674	14259
894.796	14027
894.918	14138
895.04	14168
895.161	14267
895.283	14199
895.405	14248
895.526	14149
895.648	14317
895.769	14183
895.891	14320
896.012	14278
896.134	14309
896.255	14282
896.376	14301
896.498	14225
896.619	14328
896.74	14259
896.861	14313
896.982	14667
897.103	14830
897.224	14625
897.345	14560
897.466	14434
897.587	14560
897.708	14686
897.828	14514
897.949	14492
898.07	14366
898.19	14545
898.311	14655
898.431	14522
898.552	14545
898.672	14693
898.792	14632
898.913	14746
899.033	14571
899.153	14461
899.273	14412
899.393	14419
899.513	14492
899.633	14522
899.753	14526
899.873	14438
899.993	14560
900.113	14541
900.232	14564
900.352	14518
900.472	14400
900.591	14423
900.711	14408
900.83	14290
900.95	14476
901.069	14488
901.189	14320
901.308	14123
901.427	13978
901.546	14005
901.665	14054
901.784	14115
901.904	13940
902.023	13807
902.141	13666
902.26	13586
902.379	13594
902.498	13616
902.617	13628
902.735	13620
902.854	13639
902.973	13464
903.091	13327
903.21	13304
903.328	13339
903.446	13255
903.565	13164
903.683	13209
903.801	13000
903.919	13061
904.038	13175
904.156	12993
904.274	13065
904.392	12951
904.51	12966
904.627	12935
904.745	13103
904.863	12981
904.981	12833
905.098	12677
905.216	12738
905.334	12673
905.451	12620
905.569	12658
905.686	12738
905.803	12707
905.921	12536
906.038	12555
906.155	12563
906.272	12410
906.389	12429
906.506	12289
906.623	12304
906.74	12175
906.857	12068
906.974	12216
907.091	12357
907.208	12285
907.324	12266
907.441	12098
907.557	12053
907.674	11961
907.79	11954
907.907	11992
908.023	12026
908.139	11946
908.256	11946
908.372	11931
908.488	11912
908.604	11779
908.72	11703
908.836	11786
908.952	11668
909.068	11794
909.184	11855
909.3	11836
909.415	11790
909.531	11764
909.647	11512
909.762	11474
909.878	11490
909.993	11524
910.108	11512
910.224	11459
910.339	11474
910.454	11356
910.57	11452
910.685	11330
910.8	11630
910.915	11543
911.03	11433
911.145	11258
911.259	11254
911.374	11208
911.489	11140
911.604	11140
911.718	10984
911.833	11010
911.947	10877
912.062	10828
912.176	10980
912.291	10927
912.405	11025
912.519	11166
912.633	11250
912.748	11098
912.862	10946
912.976	10972
913.09	10752
913.204	10824
913.318	10957
913.431	10930
913.545	10965
913.659	11045
913.772	10866
913.886	10774
914	10702
914.113	10816
914.226	10858
914.34	10793
914.453	10660
914.566	10812
914.68	10797
914.793	10649
914.906	10538
915.019	10432
915.132	10428
915.245	10512
915.358	10470
915.47	10523
915.583	10504
915.696	10584
915.809	10607
915.921	10714
916.034	10489
916.146	10337
916.259	10382
916.371	10542
916.483	10516
916.595	10367
916.708	10508
916.82	10451
916.932	10440
917.044	10424
917.156	10398
917.268	10291
917.38	10280
917.491	10303
917.603	10386
917.715	10394
917.826	10405
917.938	10310
918.049	10147
918.161	10348
918.272	10447
918.384	10447
918.495	10310
918.606	10200
918.717	10150
918.828	10207
918.939	10223
919.05	10131
919.161	10112
919.272	9861
919.383	10051
919.494	10257
919.604	10409
919.715	10299
919.826	10147
919.936	10181
920.047	10333
920.157	10303
920.267	10375
920.378	10253
920.488	10242
920.598	10402
920.708	10538
920.818	10310
920.928	10440
921.038	10653
921.148	10516
921.258	10249
921.368	10105
921.477	10162
921.587	10101
921.697	9937
921.806	10048
921.916	9960
922.025	9781
922.134	9694
922.244	9709
922.353	9766
922.462	9709
922.571	9610
922.68	9492
922.789	9431
922.898	9511
923.007	9397
923.116	9549
923.224	9466
923.333	9428
923.442	9310
923.55	9291
923.659	9370
923.767	9507
923.876	9287
923.984	9405
924.092	9283
924.201	9313
924.309	9401
924.417	9329
924.525	9313
924.633	9264
924.741	10078
924.849	9123
924.956	9256
925.064	9123
925.172	9005
925.279	9085
925.387	9131
925.494	9089
925.602	9192
925.709	9237
925.816	9116
925.924	9074
926.031	9241
926.138	9180
926.245	9226
926.352	8921
926.459	9237
926.566	9272
926.673	9108
926.779	8994
926.886	8921
926.993	8838
927.099	8811
927.206	8785
927.312	8781
927.419	8933
927.525	8853
927.631	8902
927.737	8720
927.843	8727
927.95	8598
928.056	8727
928.162	8731
928.267	8762
928.373	9488
928.479	8766
928.585	8541
928.69	8720
928.796	8796
928.901	8674
929.007	8503
929.112	8693
929.218	8682
929.323	8590
929.428	8545
929.533	8667
929.638	8427
929.743	8476
929.848	8579
929.953	8564
930.058	8434
930.163	8415
930.267	8248
930.372	8499
930.477	8332
930.581	8552
930.685	8431
930.79	8263
930.894	8298
930.998	8233
931.103	8431
931.207	8016
931.311	8005
931.415	7909
931.519	7746
931.623	7761
