Data from test_V78500241_1919.txt Node
Date: Fri Mar 25 14:47:04 CST 2022
User: usil
Spectrometer: V785-0024
Trigger mode: 0
Integration Time (sec): 4.000000E-1
Scans to average: 1
Nonlinearity correction enabled: false
Boxcar width: 0
Storing dark spectrum: false
XAxis mode: Wavelengths
Number of Pixels in Spectrum: 1024
>>>>>Begin Spectral Data<<<<<
801.071	22120
801.214	21987
801.356	21717
801.499	21751
801.641	21469
801.783	21576
801.926	21408
802.068	21450
802.211	21332
802.353	21256
802.496	21043
802.638	20921
802.78	20921
802.923	20777
803.065	20842
803.208	20743
803.35	20743
803.492	20902
803.635	20975
803.777	20765
803.919	20861
804.061	21157
804.204	20788
804.346	20686
804.488	20606
804.63	20648
804.773	20571
804.915	20735
805.057	20807
805.199	20621
805.341	20792
805.483	20788
805.626	20724
805.768	20644
805.91	20743
806.052	20651
806.194	20613
806.336	20735
806.478	20606
806.62	20708
806.762	20785
806.904	20895
807.046	21131
807.188	21070
807.33	20975
807.472	21043
807.614	21013
807.756	20895
807.898	20716
808.04	20743
808.182	20785
808.324	20769
808.465	20838
808.607	20960
808.749	21127
808.891	21256
809.033	21241
809.174	21272
809.316	21074
809.458	21081
809.6	21047
809.741	21089
809.883	21260
810.025	21180
810.166	21317
810.308	21233
810.45	21203
810.591	21066
810.733	20914
810.875	20826
811.016	20765
811.158	20792
811.299	20880
811.441	21043
811.582	21013
811.724	20838
811.865	20815
812.007	20724
812.148	20883
812.29	20864
812.431	21055
812.573	21135
812.714	21207
812.855	21325
812.997	21317
813.138	21572
813.279	21492
813.421	21287
813.562	21252
813.703	21207
813.845	20948
813.986	20743
814.127	20526
814.268	20552
814.41	20533
814.551	20423
814.692	20587
814.833	20313
814.974	20351
815.115	20366
815.256	20317
815.397	20229
815.539	20180
815.68	20153
815.821	20115
815.962	20149
816.103	20062
816.244	20005
816.385	19776
816.526	19852
816.666	19761
816.807	19578
816.948	19537
817.089	19655
817.23	19582
817.371	19552
817.512	19548
817.653	19487
817.793	19438
817.934	19506
818.075	19571
818.216	19441
818.356	19514
818.497	19331
818.638	19289
818.778	19141
818.919	19274
819.06	19365
819.2	19225
819.341	19392
819.481	19316
819.622	19571
819.762	19738
819.903	19609
820.043	19609
820.184	19518
820.324	19476
820.465	19597
820.605	19491
820.746	19495
820.886	19316
821.026	19487
821.167	19438
821.307	19495
821.447	19491
821.588	19301
821.728	19217
821.868	19183
822.008	18890
822.149	18970
822.289	18924
822.429	18658
822.569	18597
822.709	18502
822.849	18429
822.99	18448
823.13	18384
823.27	18410
823.41	18235
823.55	18072
823.69	18311
823.83	18247
823.97	18140
824.11	17965
824.25	17889
824.389	17939
824.529	18011
824.669	17847
824.809	18121
824.949	18049
825.089	17988
825.228	18095
825.368	17695
825.508	17783
825.648	17798
825.787	17748
825.927	17771
826.067	17752
826.206	17771
826.346	17809
826.485	17764
826.625	17813
826.765	17832
826.904	17904
827.044	17608
827.183	17611
827.323	17402
827.462	17528
827.601	17379
827.741	17436
827.88	17524
828.02	17368
828.159	17436
828.298	17467
828.437	17547
828.577	17417
828.716	17615
828.855	17444
828.994	17220
829.134	17204
829.273	17273
829.412	17227
829.551	17197
829.69	17189
829.829	17246
829.968	17334
830.107	17296
830.246	17345
830.385	17299
830.524	17166
830.663	16995
830.802	16965
830.941	16873
831.08	16752
831.219	16881
831.357	16862
831.496	17136
831.635	16828
831.774	16698
831.913	16713
832.051	16660
832.19	16664
832.329	16675
832.467	16546
832.606	16459
832.744	16561
832.883	16577
833.022	16538
833.16	16538
833.299	16660
833.437	16550
833.576	16565
833.714	16630
833.852	16763
833.991	16675
834.129	16630
834.267	16634
834.406	16580
834.544	16607
834.682	16542
834.821	16637
834.959	16759
835.097	16546
835.235	16683
835.373	16641
835.511	16611
835.65	16447
835.788	16500
835.926	16363
836.064	16310
836.202	16314
836.34	16561
836.478	16622
836.615	16424
836.753	16603
836.891	16656
837.029	16443
837.167	16451
837.305	16386
837.443	16287
837.58	16337
837.718	16459
837.856	16367
837.993	16295
838.131	16523
838.269	16268
838.406	16360
838.544	16318
838.681	16067
838.819	16090
838.956	15972
839.094	15907
839.231	15949
839.369	16063
839.506	16382
839.643	16158
839.781	16010
839.918	15899
840.055	15949
840.193	15800
840.33	15892
840.467	15907
840.604	15960
840.742	16188
840.879	15724
841.016	15831
841.153	15831
841.29	16071
841.427	15934
841.564	15987
841.701	15915
841.838	15895
841.975	15762
842.112	15945
842.249	15717
842.385	15785
842.522	15907
842.659	15690
842.796	15652
842.933	15736
843.069	15690
843.206	15679
843.343	15755
843.479	15747
843.616	15812
843.752	15530
843.889	15557
844.025	15724
844.162	15519
844.298	15568
844.435	15549
844.571	15443
844.708	15671
844.844	15595
844.98	15724
845.117	15606
845.253	15454
845.389	15473
845.525	15469
845.661	15466
845.798	15310
845.934	15332
846.07	15291
846.206	15287
846.342	15397
846.478	15351
846.614	15150
846.75	14994
846.886	15138
847.022	15100
847.158	15047
847.294	15146
847.429	15165
847.565	15081
847.701	15214
847.837	14720
847.972	14845
848.108	14921
848.244	14902
848.379	14823
848.515	14663
848.65	14697
848.786	14648
848.921	14705
849.057	14758
849.192	14777
849.328	14701
849.463	14727
849.598	14583
849.734	14670
849.869	14526
850.004	14556
850.14	14526
850.275	14499
850.41	14324
850.545	14339
850.68	14419
850.815	14343
850.95	14492
851.085	14678
851.22	14541
851.355	14438
851.49	14434
851.625	14480
851.76	14370
851.895	14389
852.03	14324
852.165	14492
852.299	14473
852.434	14568
852.569	14514
852.703	14530
852.838	14549
852.973	14670
853.107	14533
853.242	14374
853.376	14362
853.511	14225
853.645	14290
853.78	14431
853.914	14442
854.048	14309
854.183	14305
854.317	14343
854.451	14507
854.585	14370
854.72	14313
854.854	14290
854.988	14191
855.122	14317
855.256	14145
855.39	14271
855.524	14298
855.658	14328
855.792	14415
855.926	14317
856.06	14431
856.194	14454
856.327	14278
856.461	14240
856.595	14305
856.729	14309
856.862	14526
856.996	14358
857.13	14400
857.263	14450
857.397	14408
857.53	14374
857.664	14347
857.797	14480
857.931	14507
858.064	14377
858.197	14537
858.331	14267
858.464	14221
858.597	14233
858.731	14313
858.864	14237
858.997	14343
859.13	14336
859.263	14313
859.396	14412
859.529	14351
859.662	14332
859.795	14298
859.928	14317
860.061	14469
860.194	14522
860.327	14385
860.46	14301
860.592	14503
860.725	14415
860.858	14469
860.99	14381
861.123	14138
861.256	14240
861.388	14381
861.521	15062
861.653	14172
861.786	14043
861.918	14134
862.05	14191
862.183	14355
862.315	14385
862.447	14404
862.58	14244
862.712	14088
862.844	14103
862.976	14103
863.108	14130
863.24	14412
863.372	14138
863.504	14100
863.636	14111
863.768	14164
863.9	14115
864.032	13978
864.164	13963
864.296	14138
864.428	14168
864.559	14233
864.691	14103
864.823	14233
864.954	14168
865.086	14130
865.217	14077
865.349	14020
865.48	14149
865.612	14081
865.743	14221
865.875	14115
866.006	14092
866.137	14134
866.269	14191
866.4	14073
866.531	14077
866.662	14039
866.793	14031
866.924	14046
867.055	14073
867.186	14161
867.317	14088
867.448	13917
867.579	14088
867.71	14046
867.841	14001
867.972	14149
868.103	14081
868.233	14096
868.364	14088
868.495	14180
868.625	14317
868.756	14278
868.886	14168
869.017	14305
869.147	14412
869.278	14393
869.408	14351
869.539	14351
869.669	14438
869.799	14320
869.929	14404
870.06	14412
870.19	14705
870.32	14655
870.45	14629
870.58	14826
870.71	14864
870.84	14861
870.97	14804
871.1	14739
871.23	14834
871.36	14902
871.489	14826
871.619	14842
871.749	14929
871.879	14918
872.008	15001
872.138	14895
872.267	14979
872.397	14891
872.526	14781
872.656	14705
872.785	14720
872.915	14941
873.044	15070
873.173	14948
873.303	15070
873.432	15066
873.561	15051
873.69	14967
873.819	15039
873.948	15085
874.077	14948
874.206	14910
874.335	15142
874.464	15150
874.593	15218
874.722	15199
874.851	15344
874.979	15313
875.108	15329
875.237	15256
875.365	15222
875.494	15249
875.623	15462
875.751	15291
875.88	15302
876.008	15477
876.136	15572
876.265	15736
876.393	15789
876.521	15835
876.65	15701
876.778	15812
876.906	15739
877.034	15641
877.162	15690
877.29	15686
877.418	15747
877.546	15751
877.674	15625
877.802	15679
877.93	15770
878.058	15610
878.185	15648
878.313	15751
878.441	15724
878.568	15603
878.696	15622
878.824	15762
878.951	15789
879.079	15873
879.206	15975
879.333	15865
879.461	15663
879.588	15778
879.715	15987
879.842	16112
879.97	15823
880.097	15606
880.224	15477
880.351	15663
880.478	15633
880.605	15500
880.732	15496
880.859	15698
880.986	15564
881.112	15545
881.239	15348
881.366	15355
881.493	15192
881.619	15146
881.746	15123
881.872	15127
881.999	15062
882.125	15165
882.252	15325
882.378	15249
882.505	15351
882.631	15108
882.757	15020
882.883	15066
883.01	15112
883.136	14960
883.262	14845
883.388	14944
883.514	15020
883.64	15074
883.766	14944
883.892	14887
884.018	15001
884.143	15009
884.269	15150
884.395	14842
884.52	14667
884.646	14720
884.772	14689
884.897	14625
885.023	14743
885.148	14815
885.274	14921
885.399	14842
885.524	14796
885.65	14769
885.775	14872
885.9	14773
886.025	14876
886.15	14819
886.275	14720
886.4	14629
886.525	14727
886.65	14625
886.775	14701
886.9	14918
887.025	14986
887.149	14697
887.274	14549
887.399	14602
887.523	14587
887.648	14461
887.773	14469
887.897	14640
888.021	14594
888.146	14473
888.27	14598
888.395	14762
888.519	14568
888.643	14708
888.767	14697
888.891	14476
889.015	14450
889.139	14507
889.263	14313
889.387	14522
889.511	14606
889.635	14533
889.759	14358
889.883	14332
890.006	14385
890.13	14533
890.254	14389
890.377	14377
890.501	14286
890.624	14206
890.748	14229
890.871	14168
890.995	14046
891.118	13997
891.241	14130
891.364	14153
891.488	14210
891.611	14134
891.734	14278
891.857	14244
891.98	14195
892.103	14244
892.226	14218
892.349	14191
892.471	14016
892.594	14043
892.717	14119
892.839	14149
892.962	14119
893.085	14134
893.207	14103
893.33	14195
893.452	14081
893.575	14199
893.697	14142
893.819	14320
893.941	14328
894.064	14275
894.186	14054
894.308	14046
894.43	14263
894.552	14370
894.674	14244
894.796	14168
894.918	14195
895.04	14187
895.161	14161
895.283	14317
895.405	14187
895.526	14229
895.648	14282
895.769	14149
895.891	14259
896.012	14358
896.134	14313
896.255	14240
896.376	14244
896.498	14298
896.619	14404
896.74	14328
896.861	14404
896.982	14731
897.103	14773
897.224	14610
897.345	14610
897.466	14571
897.587	14476
897.708	14678
897.828	14602
897.949	14587
898.07	14533
898.19	14495
898.311	14781
898.431	14587
898.552	14617
898.672	14750
898.792	14777
898.913	14655
899.033	14545
899.153	14484
899.273	14415
899.393	14385
899.513	14495
899.633	14495
899.753	14530
899.873	14511
899.993	14507
900.113	14415
900.232	14514
900.352	14526
900.472	14404
900.591	14202
900.711	14336
900.83	14294
900.95	14488
901.069	14484
901.189	14294
901.308	14031
901.427	13997
901.546	13955
901.665	14123
901.784	14046
901.904	13986
902.023	13750
902.141	13616
902.26	13563
902.379	13624
902.498	13586
902.617	13552
902.735	13643
902.854	13578
902.973	13655
903.091	13350
903.21	13316
903.328	13400
903.446	13285
903.565	13107
903.683	13206
903.801	13088
903.919	13156
904.038	13114
904.156	13015
904.274	13065
904.392	13061
904.51	12977
904.627	13023
904.745	13034
904.863	12996
904.981	12768
905.098	12589
905.216	12585
905.334	12639
905.451	12734
905.569	12707
905.686	12734
905.803	12719
905.921	12555
906.038	12589
906.155	12547
906.272	12407
906.389	12422
906.506	12254
906.623	12251
906.74	12315
906.857	12175
906.974	12277
907.091	12342
907.208	12426
907.324	12372
907.441	12235
907.557	11984
907.674	12026
907.79	11950
907.907	11977
908.023	12083
908.139	12026
908.256	12022
908.372	11920
908.488	11946
908.604	11832
908.72	11779
908.836	11920
908.952	11775
909.068	11783
909.184	11916
909.3	11767
909.415	11813
909.531	11851
909.647	11566
909.762	11528
909.878	11573
909.993	11623
910.108	11581
910.224	11547
910.339	11516
910.454	11493
910.57	11444
910.685	11326
910.8	11615
910.915	11600
911.03	11433
911.145	11318
911.259	11307
911.374	11292
911.489	11136
911.604	11185
911.718	11079
911.833	11086
911.947	10877
912.062	10850
912.176	11090
912.291	11029
912.405	11067
912.519	11231
912.633	11189
912.748	11189
912.862	11067
912.976	10927
913.09	10828
913.204	10915
913.318	10892
913.431	11045
913.545	10999
913.659	11048
913.772	10900
913.886	10793
914	10801
914.113	10911
914.226	10938
914.34	10908
914.453	10660
914.566	10801
914.68	10740
914.793	10809
914.906	10596
915.019	10588
915.132	10466
915.245	10497
915.358	10584
915.47	10500
915.583	10573
915.696	10615
915.809	10767
915.921	10790
916.034	10565
916.146	10550
916.259	10523
916.371	10615
916.483	10558
916.595	10466
916.708	10493
916.82	10481
916.932	10417
917.044	10390
917.156	10478
917.268	10390
917.38	10398
917.491	10276
917.603	10363
917.715	10474
917.826	10538
917.938	10356
918.049	10257
918.161	10348
918.272	10535
918.384	10546
918.495	10390
918.606	10299
918.717	10192
918.828	10299
918.939	10272
919.05	10128
919.161	10154
919.272	10090
919.383	10109
919.494	10382
919.604	10478
919.715	10257
919.826	10204
919.936	10306
920.047	10291
920.157	10242
920.267	10455
920.378	10333
920.488	10257
920.598	10527
920.708	10687
920.818	10455
920.928	10489
921.038	10504
921.148	10546
921.258	10360
921.368	10223
921.477	10177
921.587	10181
921.697	10067
921.806	10223
921.916	10021
922.025	9854
922.134	9850
922.244	9797
922.353	9888
922.462	9751
922.571	9663
922.68	9534
922.789	9584
922.898	9492
923.007	9492
923.116	9587
923.224	9584
923.333	9500
923.442	9447
923.55	9424
923.659	9462
923.767	9561
923.876	9405
923.984	9477
924.092	9321
924.201	9389
924.309	9408
924.417	9416
924.525	9351
924.633	9336
924.741	10299
924.849	9180
924.956	9329
925.064	9127
925.172	9066
925.279	9173
925.387	9211
925.494	9218
925.602	9272
925.709	9226
925.816	9142
925.924	9211
926.031	9279
926.138	9176
926.245	9264
926.352	9097
926.459	9214
926.566	9253
926.673	9116
926.779	9043
926.886	8994
926.993	8925
927.099	8902
927.206	8872
927.312	8853
927.419	8960
927.525	8834
927.631	8937
927.737	8773
927.843	8731
927.95	8686
928.056	8716
928.162	8807
928.267	8792
928.373	9397
928.479	8815
928.585	8651
928.69	8708
928.796	8826
928.901	8689
929.007	8537
929.112	8792
929.218	8701
929.323	8632
929.428	8613
929.533	8663
929.638	8530
929.743	8552
929.848	8640
929.953	8610
930.058	8583
930.163	8454
930.267	8408
930.372	8480
930.477	8377
930.581	8549
930.685	8434
930.79	8370
930.894	8351
930.998	8282
931.103	8480
931.207	8035
931.311	8092
931.415	7928
931.519	7868
931.623	7849
