Data from test_V78500241_3474.txt Node
Date: Fri Mar 25 14:57:54 CST 2022
User: usil
Spectrometer: V785-0024
Trigger mode: 0
Integration Time (sec): 4.000000E-1
Scans to average: 1
Nonlinearity correction enabled: false
Boxcar width: 0
Storing dark spectrum: false
XAxis mode: Wavelengths
Number of Pixels in Spectrum: 1024
>>>>>Begin Spectral Data<<<<<
801.071	21953
801.214	21705
801.356	21637
801.499	21526
801.641	21306
801.783	21298
801.926	21386
802.068	21237
802.211	21127
802.353	21093
802.496	20796
802.638	20731
802.78	20750
802.923	20545
803.065	20602
803.208	20473
803.35	20651
803.492	20598
803.635	20705
803.777	20587
803.919	20640
804.061	20941
804.204	20552
804.346	20442
804.488	20461
804.63	20587
804.773	20431
804.915	20575
805.057	20530
805.199	20366
805.341	20632
805.483	20514
805.626	20609
805.768	20541
805.91	20541
806.052	20473
806.194	20415
806.336	20743
806.478	20431
806.62	20400
806.762	20530
806.904	20678
807.046	20853
807.188	20804
807.33	20891
807.472	20796
807.614	20697
807.756	20743
807.898	20568
808.04	20644
808.182	20606
808.324	20655
808.465	20564
808.607	20819
808.749	20853
808.891	21028
809.033	21081
809.174	20906
809.316	20716
809.458	20724
809.6	20788
809.741	20887
809.883	21017
810.025	20971
810.166	20956
810.308	20975
810.45	20899
810.591	20914
810.733	20609
810.875	20659
811.016	20579
811.158	20461
811.299	20644
811.441	20697
811.582	20758
811.724	20568
811.865	20602
812.007	20659
812.148	20629
812.29	20621
812.431	20659
812.573	21009
812.714	20952
812.855	21112
812.997	21184
813.138	21348
813.279	21146
813.421	21085
813.562	20883
813.703	20933
813.845	20838
813.986	20446
814.127	20233
814.268	20294
814.41	20214
814.551	20168
814.692	20195
814.833	20107
814.974	20054
815.115	20001
815.256	20043
815.397	20027
815.539	20012
815.68	19811
815.821	19833
815.962	19864
816.103	19826
816.244	19628
816.385	19647
816.526	19639
816.666	19426
816.807	19354
816.948	19335
817.089	19422
817.23	19308
817.371	19228
817.512	19293
817.653	19343
817.793	19156
817.934	19346
818.075	19247
818.216	19312
818.356	19175
818.497	19019
818.638	18928
818.778	18886
818.919	19034
819.06	18977
819.2	19099
819.341	19091
819.481	19225
819.622	19415
819.762	19499
819.903	19384
820.043	19384
820.184	19266
820.324	19289
820.465	19388
820.605	19244
820.746	19179
820.886	18985
821.026	19225
821.167	19240
821.307	19278
821.447	19194
821.588	19050
821.728	18924
821.868	18783
822.008	18661
822.149	18620
822.289	18673
822.429	18467
822.569	18376
822.709	18315
822.849	18190
822.99	18178
823.13	18144
823.27	18117
823.41	18159
823.55	17866
823.69	18091
823.83	17980
823.97	17927
824.11	17771
824.25	17786
824.389	17847
824.529	17866
824.669	17718
824.809	17832
824.949	17756
825.089	17809
825.228	17760
825.368	17558
825.508	17512
825.648	17467
825.787	17543
825.927	17604
826.067	17444
826.206	17486
826.346	17611
826.485	17509
826.625	17486
826.765	17630
826.904	17493
827.044	17288
827.183	17277
827.323	17288
827.462	17311
827.601	17204
827.741	17132
827.88	17227
828.02	17090
828.159	17265
828.298	17231
828.437	17204
828.577	17235
828.716	17444
828.855	17200
828.994	17003
829.134	16934
829.273	17010
829.412	16995
829.551	16915
829.69	16896
829.829	16968
829.968	17033
830.107	16995
830.246	16965
830.385	16991
830.524	16904
830.663	16858
830.802	16725
830.941	16584
831.08	16523
831.219	16706
831.357	16565
831.496	16946
831.635	16550
831.774	16561
831.913	16436
832.051	16459
832.19	16382
832.329	16462
832.467	16394
832.606	16287
832.744	16303
832.883	16318
833.022	16318
833.16	16272
833.299	16306
833.437	16322
833.576	16360
833.714	16413
833.852	16310
833.991	16386
834.129	16375
834.267	16451
834.406	16421
834.544	16470
834.682	16268
834.821	16287
834.959	16569
835.097	16432
835.235	16436
835.373	16421
835.511	16394
835.65	16314
835.788	16322
835.926	16181
836.064	16090
836.202	16158
836.34	16409
836.478	16398
836.615	16143
836.753	16284
836.891	16371
837.029	16333
837.167	16200
837.305	16280
837.443	16139
837.58	16173
837.718	16219
837.856	16200
837.993	16128
838.131	16169
838.269	16154
838.406	16051
838.544	16006
838.681	15907
838.819	15888
838.956	15739
839.094	15713
839.231	15739
839.369	15816
839.506	16063
839.643	15934
839.781	15800
839.918	15690
840.055	15732
840.193	15709
840.33	15686
840.467	15728
840.604	15808
840.742	15998
840.879	15682
841.016	15633
841.153	15698
841.29	15698
841.427	15911
841.564	15838
841.701	15682
841.838	15629
841.975	15606
842.112	15667
842.249	15553
842.385	15515
842.522	15709
842.659	15576
842.796	15511
842.933	15557
843.069	15580
843.206	15397
843.343	15591
843.479	15538
843.616	15496
843.752	15272
843.889	15260
844.025	15435
844.162	15226
844.298	15443
844.435	15291
844.571	15260
844.708	15294
844.844	15408
844.98	15485
845.117	15466
845.253	15233
845.389	15169
845.525	15230
845.661	15161
845.798	15112
845.934	15195
846.07	15036
846.206	15195
846.342	15176
846.478	14986
846.614	14895
846.75	14902
846.886	14811
847.022	14952
847.158	14781
847.294	14853
847.429	14876
847.565	14868
847.701	15051
847.837	14556
847.972	14613
848.108	14667
848.244	14644
848.379	14545
848.515	14533
848.65	14358
848.786	14473
848.921	14465
849.057	14587
849.192	14640
849.328	14530
849.463	14499
849.598	14503
849.734	14393
849.869	14332
850.004	14290
850.14	14317
850.275	14309
850.41	14210
850.545	14168
850.68	14183
850.815	14313
850.95	14278
851.085	14469
851.22	14324
851.355	14358
851.49	14271
851.625	14202
851.76	14183
851.895	14107
852.03	14210
852.165	14233
852.299	14256
852.434	14244
852.569	14320
852.703	14362
852.838	14271
852.973	14423
853.107	14484
853.242	14138
853.376	14130
853.511	13959
853.645	14100
853.78	14221
853.914	14100
854.048	14103
854.183	14107
854.317	14115
854.451	14282
854.585	14161
854.72	14073
854.854	14161
854.988	14081
855.122	14149
855.256	13936
855.39	14035
855.524	14240
855.658	14263
855.792	14134
855.926	14130
856.06	14195
856.194	14313
856.327	14176
856.461	14126
856.595	13970
856.729	14012
856.862	14225
856.996	14130
857.13	14191
857.263	14282
857.397	14271
857.53	14107
857.664	14256
857.797	14210
857.931	14278
858.064	14100
858.197	14233
858.331	14119
858.464	14119
858.597	14008
858.731	14130
858.864	14050
858.997	14043
859.13	14157
859.263	14214
859.396	14263
859.529	14088
859.662	14073
859.795	14092
859.928	14149
860.061	14199
860.194	14332
860.327	14176
860.46	14115
860.592	14084
860.725	14252
860.858	14195
860.99	14050
861.123	14035
861.256	14020
861.388	14005
861.521	14815
861.653	13947
861.786	14058
861.918	13967
862.05	14016
862.183	14103
862.315	13993
862.447	14183
862.58	14039
862.712	13814
862.844	13780
862.976	14008
863.108	14012
863.24	14332
863.372	13769
863.504	13925
863.636	13864
863.768	13879
863.9	13913
864.032	13909
864.164	13833
864.296	13917
864.428	14001
864.559	14020
864.691	14039
864.823	13989
864.954	13982
865.086	13982
865.217	13822
865.349	13845
865.48	13909
865.612	13864
865.743	13959
865.875	13871
866.006	13791
866.137	13799
866.269	13860
866.4	13750
866.531	13822
866.662	13791
866.793	13860
866.924	13852
867.055	13967
867.186	13868
867.317	13826
867.448	13757
867.579	13879
867.71	13826
867.841	13833
867.972	13921
868.103	13925
868.233	13875
868.364	13936
868.495	13917
868.625	14134
868.756	14256
868.886	14077
869.017	14130
869.147	14256
869.278	14180
869.408	14191
869.539	14199
869.669	14214
869.799	14149
869.929	14328
870.06	14267
870.19	14541
870.32	14374
870.45	14454
870.58	14545
870.71	14667
870.84	14678
870.97	14564
871.1	14556
871.23	14724
871.36	14743
871.489	14689
871.619	14735
871.749	14712
871.879	14834
872.008	14933
872.138	14746
872.267	14724
872.397	14648
872.526	14545
872.656	14465
872.785	14625
872.915	14773
873.044	14800
873.173	14819
873.303	14864
873.432	14830
873.561	14899
873.69	14785
873.819	14750
873.948	14967
874.077	14762
874.206	14678
874.335	14819
874.464	14982
874.593	15074
874.722	15017
874.851	15043
874.979	15116
875.108	15146
875.237	15062
875.365	15039
875.494	15051
875.623	15199
875.751	15089
875.88	15165
876.008	15268
876.136	15287
876.265	15606
876.393	15652
876.521	15629
876.65	15637
876.778	15538
876.906	15492
877.034	15344
877.162	15477
877.29	15450
877.418	15389
877.546	15557
877.674	15511
877.802	15496
877.93	15564
878.058	15428
878.185	15332
878.313	15466
878.441	15485
878.568	15408
878.696	15500
878.824	15625
878.951	15660
879.079	15663
879.206	15903
879.333	15755
879.461	15523
879.588	15656
879.715	15705
879.842	15686
879.97	15618
880.097	15431
880.224	15492
880.351	15397
880.478	15408
880.605	15348
880.732	15340
880.859	15519
880.986	15401
881.112	15473
881.239	15241
881.366	15195
881.493	15081
881.619	14990
881.746	15081
881.872	15066
881.999	14998
882.125	14960
882.252	15009
882.378	15062
882.505	15150
882.631	15062
882.757	14849
882.883	14982
883.01	14807
883.136	14762
883.262	14724
883.388	14705
883.514	14864
883.64	14872
883.766	14819
883.892	14708
884.018	14724
884.143	14785
884.269	14944
884.395	14636
884.52	14526
884.646	14564
884.772	14465
884.897	14461
885.023	14583
885.148	14621
885.274	14792
885.399	14686
885.524	14488
885.65	14560
885.775	14617
885.9	14564
886.025	14644
886.15	14575
886.275	14537
886.4	14438
886.525	14526
886.65	14423
886.775	14507
886.9	14689
887.025	14754
887.149	14610
887.274	14465
887.399	14351
887.523	14328
887.648	14362
887.773	14351
887.897	14465
888.021	14454
888.146	14351
888.27	14545
888.395	14434
888.519	14415
888.643	14446
888.767	14484
888.891	14374
889.015	14199
889.139	14252
889.263	14263
889.387	14381
889.511	14549
889.635	14370
889.759	14157
889.883	14218
890.006	14385
890.13	14385
890.254	14130
890.377	14221
890.501	14142
890.624	14031
890.748	14142
890.871	14039
890.995	13925
891.118	13887
891.241	13982
891.364	14024
891.488	14077
891.611	13967
891.734	13917
891.857	14077
891.98	14043
892.103	14115
892.226	14001
892.349	14016
892.471	13856
892.594	13849
892.717	13974
892.839	13970
892.962	13955
893.085	14001
893.207	13978
893.33	13913
893.452	13871
893.575	14012
893.697	14012
893.819	14058
893.941	14130
894.064	14191
894.186	13917
894.308	13944
894.43	14100
894.552	14176
894.674	14111
894.796	14024
894.918	14119
895.04	13974
895.161	14103
895.283	14130
895.405	13967
895.526	14073
895.648	13986
895.769	14073
895.891	14111
896.012	14168
896.134	14153
896.255	14134
896.376	14107
896.498	14126
896.619	14134
896.74	14088
896.861	14248
896.982	14480
897.103	14648
897.224	14400
897.345	14396
897.466	14381
897.587	14408
897.708	14594
897.828	14442
897.949	14362
898.07	14180
898.19	14400
898.311	14579
898.431	14423
898.552	14419
898.672	14530
898.792	14594
898.913	14442
899.033	14526
899.153	14396
899.273	14271
899.393	14240
899.513	14275
899.633	14473
899.753	14320
899.873	14237
899.993	14408
900.113	14374
900.232	14294
900.352	14366
900.472	14317
900.591	14210
900.711	14218
900.83	14107
900.95	14275
901.069	14381
901.189	14126
901.308	13947
901.427	13868
901.546	13852
901.665	13944
901.784	13909
901.904	13784
902.023	13765
902.141	13441
902.26	13419
902.379	13434
902.498	13476
902.617	13350
902.735	13434
902.854	13468
902.973	13373
903.091	13312
903.21	13141
903.328	13168
903.446	13126
903.565	13053
903.683	13137
903.801	12878
903.919	13038
904.038	13046
904.156	12837
904.274	12920
904.392	12810
904.51	12798
904.627	12821
904.745	12951
904.863	12810
904.981	12730
905.098	12597
905.216	12521
905.334	12521
905.451	12563
905.569	12528
905.686	12566
905.803	12532
905.921	12338
906.038	12422
906.155	12407
906.272	12247
906.389	12270
906.506	12072
906.623	12087
906.74	12133
906.857	11973
906.974	12038
907.091	12117
907.208	12232
907.324	12171
907.441	12057
907.557	11920
907.674	11805
907.79	11874
907.907	11828
908.023	11973
908.139	11832
908.256	11851
908.372	11798
908.488	11855
908.604	11661
908.72	11589
908.836	11630
908.952	11615
909.068	11688
909.184	11798
909.3	11729
909.415	11657
909.531	11642
909.647	11474
909.762	11493
909.878	11356
909.993	11452
910.108	11433
910.224	11341
910.339	11421
910.454	11349
910.57	11277
910.685	11178
910.8	11478
910.915	11440
911.03	11216
911.145	11128
911.259	11143
911.374	11113
911.489	11064
911.604	10896
911.718	10927
911.833	10862
911.947	10778
912.062	10725
912.176	10900
912.291	10889
912.405	10885
912.519	11041
912.633	11102
912.748	10949
912.862	10812
912.976	10717
913.09	10565
913.204	10725
913.318	10790
913.431	10847
913.545	10812
913.659	10919
913.772	10725
913.886	10588
914	10637
914.113	10733
914.226	10790
914.34	10702
914.453	10679
914.566	10672
914.68	10615
914.793	10577
914.906	10417
915.019	10287
915.132	10257
915.245	10341
915.358	10440
915.47	10424
915.583	10489
915.696	10493
915.809	10599
915.921	10531
916.034	10299
916.146	10314
916.259	10382
916.371	10428
916.483	10398
916.595	10280
916.708	10344
916.82	10382
916.932	10242
917.044	10272
917.156	10318
917.268	10249
917.38	10192
917.491	10200
917.603	10261
917.715	10360
917.826	10310
917.938	10169
918.049	10090
918.161	10249
918.272	10382
918.384	10394
918.495	10306
918.606	10128
918.717	9991
918.828	10120
918.939	10101
919.05	9941
919.161	10017
919.272	9857
919.383	9930
919.494	10150
919.604	10333
919.715	10116
919.826	10086
919.936	10147
920.047	10177
920.157	10173
920.267	10325
920.378	10177
920.488	10131
920.598	10344
920.708	10459
920.818	10322
920.928	10325
921.038	10516
921.148	10478
921.258	10200
921.368	10017
921.477	10017
921.587	9949
921.697	9812
921.806	10071
921.916	9876
922.025	9728
922.134	9679
922.244	9705
922.353	9720
922.462	9553
922.571	9534
922.68	9370
922.789	9340
922.898	9397
923.007	9310
923.116	9367
923.224	9336
923.333	9458
923.442	9211
923.55	9310
923.659	9298
923.767	9313
923.876	9218
923.984	9275
924.092	9176
924.201	9249
924.309	9203
924.417	9264
924.525	9249
924.633	9203
924.741	10082
924.849	8986
924.956	9108
925.064	8963
925.172	8963
925.279	8952
925.387	9077
925.494	9089
925.602	9207
925.709	9142
925.816	8956
925.924	8994
926.031	9116
926.138	9017
926.245	9157
926.352	9020
926.459	9116
926.566	9138
926.673	8975
926.779	8914
926.886	8887
926.993	8796
927.099	8678
927.206	8708
927.312	8712
927.419	8773
927.525	8769
927.631	8792
927.737	8670
927.843	8590
927.95	8583
928.056	8670
928.162	8686
928.267	8659
928.373	9313
928.479	8743
928.585	8541
928.69	8632
928.796	8663
928.901	8636
929.007	8408
929.112	8594
929.218	8556
929.323	8461
929.428	8457
929.533	8533
929.638	8457
929.743	8473
929.848	8587
929.953	8476
930.058	8324
930.163	8275
930.267	8240
930.372	8370
930.477	8256
930.581	8415
930.685	8290
930.79	8142
930.894	8210
930.998	8199
931.103	8358
931.207	8024
931.311	7898
931.415	7864
931.519	7700
931.623	7666
