Data from test_V78500241_1539.txt Node
Date: Fri Mar 25 14:44:25 CST 2022
User: usil
Spectrometer: V785-0024
Trigger mode: 0
Integration Time (sec): 4.000000E-1
Scans to average: 1
Nonlinearity correction enabled: false
Boxcar width: 0
Storing dark spectrum: false
XAxis mode: Wavelengths
Number of Pixels in Spectrum: 1024
>>>>>Begin Spectral Data<<<<<
801.071	22398
801.214	22363
801.356	22021
801.499	21953
801.641	21835
801.783	21789
801.926	21682
802.068	21675
802.211	21599
802.353	21504
802.496	21397
802.638	21302
802.78	21142
802.923	21218
803.065	21096
803.208	20933
803.35	21150
803.492	21176
803.635	21211
803.777	21123
803.919	21112
804.061	21481
804.204	21226
804.346	21009
804.488	20906
804.63	21161
804.773	20941
804.915	21047
805.057	21108
805.199	21093
805.341	21135
805.483	21089
805.626	21070
805.768	20960
805.91	20990
806.052	21089
806.194	20967
806.336	21173
806.478	21017
806.62	21039
806.762	21055
806.904	21100
807.046	21469
807.188	21317
807.33	21363
807.472	21416
807.614	21386
807.756	21279
807.898	21226
808.04	21165
808.182	21157
808.324	21226
808.465	21325
808.607	21401
808.749	21538
808.891	21652
809.033	21717
809.174	21618
809.316	21625
809.458	21534
809.6	21420
809.741	21572
809.883	21504
810.025	21698
810.166	21667
810.308	21599
810.45	21477
810.591	21515
810.733	21405
810.875	21222
811.016	21070
811.158	21116
811.299	21313
811.441	21325
811.582	21252
811.724	21367
811.865	21252
812.007	21264
812.148	21195
812.29	21093
812.431	21302
812.573	21500
812.714	21701
812.855	21747
812.997	21804
813.138	21895
813.279	21892
813.421	21797
813.562	21781
813.703	21496
813.845	21359
813.986	21230
814.127	20956
814.268	20872
814.41	20868
814.551	20739
814.692	20731
814.833	20720
814.974	20762
815.115	20762
815.256	20533
815.397	20689
815.539	20594
815.68	20590
815.821	20362
815.962	20412
816.103	20461
816.244	20309
816.385	20286
816.526	20298
816.666	20103
816.807	20020
816.948	20012
817.089	20088
817.23	19986
817.371	19845
817.512	19875
817.653	19818
817.793	19978
817.934	19947
818.075	19890
818.216	19909
818.356	19917
818.497	19772
818.638	19556
818.778	19597
818.919	19567
819.06	19643
819.2	19700
819.341	19807
819.481	19719
819.622	19890
819.762	20073
819.903	20069
820.043	19963
820.184	19887
820.324	19879
820.465	19932
820.605	19898
820.746	19932
820.886	19738
821.026	19830
821.167	19906
821.307	19898
821.447	19765
821.588	19674
821.728	19635
821.868	19453
822.008	19339
822.149	19324
822.289	19308
822.429	19053
822.569	18852
822.709	18985
822.849	18669
822.99	18757
823.13	18806
823.27	18791
823.41	18532
823.55	18422
823.69	18684
823.83	18661
823.97	18612
824.11	18342
824.25	18429
824.389	18311
824.529	18433
824.669	18384
824.809	18517
824.949	18407
825.089	18376
825.228	18380
825.368	18186
825.508	18129
825.648	18102
825.787	18201
825.927	18216
826.067	18129
826.206	18079
826.346	18083
826.485	18186
826.625	18007
826.765	18163
826.904	18209
827.044	17912
827.183	17729
827.323	17775
827.462	17798
827.601	17821
827.741	17748
827.88	17756
828.02	17630
828.159	17786
828.298	17863
828.437	17954
828.577	17779
828.716	17923
828.855	17802
828.994	17581
829.134	17573
829.273	17699
829.412	17604
829.551	17482
829.69	17436
829.829	17528
829.968	17627
830.107	17551
830.246	17623
830.385	17539
830.524	17341
830.663	17364
830.802	17261
830.941	17296
831.08	17185
831.219	17212
831.357	17193
831.496	17452
831.635	17071
831.774	17109
831.913	17128
832.051	16881
832.19	16965
832.329	17079
832.467	16949
832.606	16774
832.744	16835
832.883	16736
833.022	16812
833.16	16881
833.299	16976
833.437	16911
833.576	16877
833.714	16816
833.852	16995
833.991	16904
834.129	16972
834.267	17029
834.406	16858
834.544	16976
834.682	16949
834.821	16850
834.959	16927
835.097	16889
835.235	16961
835.373	16953
835.511	16831
835.65	16839
835.788	16812
835.926	16713
836.064	16618
836.202	16645
836.34	16771
836.478	16862
836.615	16809
836.753	16752
836.891	17003
837.029	16991
837.167	16771
837.305	16759
837.443	16664
837.58	16687
837.718	16733
837.856	16736
837.993	16634
838.131	16713
838.269	16523
838.406	16508
838.544	16550
838.681	16440
838.819	16356
838.956	16177
839.094	16246
839.231	16253
839.369	16310
839.506	16554
839.643	16344
839.781	16177
839.918	16181
840.055	16219
840.193	16139
840.33	16036
840.467	16200
840.604	16242
840.742	16409
840.879	16139
841.016	16063
841.153	16181
841.29	16363
841.427	16226
841.564	16150
841.701	16143
841.838	16215
841.975	16105
842.112	16078
842.249	15953
842.385	15968
842.522	16109
842.659	16013
842.796	15869
842.933	16025
843.069	15899
843.206	15968
843.343	15998
843.479	16025
843.616	16006
843.752	15857
843.889	15705
844.025	15854
844.162	15603
844.298	15892
844.435	15728
844.571	15819
844.708	15751
844.844	15800
844.98	15888
845.117	15861
845.253	15686
845.389	15625
845.525	15755
845.661	15759
845.798	15667
845.934	15774
846.07	15888
846.206	15831
846.342	15854
846.478	15667
846.614	15420
846.75	15367
846.886	15214
847.022	15492
847.158	15424
847.294	15351
847.429	15321
847.565	15245
847.701	15534
847.837	15005
847.972	15020
848.108	15142
848.244	15116
848.379	15039
848.515	14918
848.65	14823
848.786	14967
848.921	15009
849.057	15077
849.192	15009
849.328	14998
849.463	14967
849.598	14842
849.734	14857
849.869	14727
850.004	14689
850.14	14765
850.275	14720
850.41	14594
850.545	14625
850.68	14716
850.815	14689
850.95	14560
851.085	14811
851.22	14815
851.355	14720
851.49	14701
851.625	14564
851.76	14629
851.895	14530
852.03	14629
852.165	14594
852.299	14686
852.434	14724
852.569	14663
852.703	14838
852.838	14758
852.973	14883
853.107	14838
853.242	14686
853.376	14537
853.511	14507
853.645	14480
853.78	14648
853.914	14587
854.048	14503
854.183	14590
854.317	14625
854.451	14632
854.585	14568
854.72	14503
854.854	14655
854.988	14518
855.122	14499
855.256	14358
855.39	14454
855.524	14632
855.658	14602
855.792	14606
855.926	14602
856.06	14602
856.194	14716
856.327	14610
856.461	14541
856.595	14549
856.729	14461
856.862	14708
856.996	14598
857.13	14571
857.263	14621
857.397	14648
857.53	14571
857.664	14743
857.797	14648
857.931	14651
858.064	14552
858.197	14648
858.331	14507
858.464	14484
858.597	14450
858.731	14606
858.864	14564
858.997	14526
859.13	14495
859.263	14621
859.396	14503
859.529	14537
859.662	14473
859.795	14530
859.928	14632
860.061	14765
860.194	14629
860.327	14560
860.46	14568
860.592	14746
860.725	14758
860.858	14697
860.99	14545
861.123	14450
861.256	14419
861.388	14492
861.521	15157
861.653	14514
861.786	14320
861.918	14469
862.05	14583
862.183	14533
862.315	14571
862.447	14564
862.58	14461
862.712	14404
862.844	14172
862.976	14355
863.108	14282
863.24	14804
863.372	14313
863.504	14351
863.636	14317
863.768	14317
863.9	14313
864.032	14248
864.164	14313
864.296	14278
864.428	14533
864.559	14446
864.691	14427
864.823	14431
864.954	14396
865.086	14347
865.217	14332
865.349	14248
865.48	14256
865.612	14374
865.743	14400
865.875	14339
866.006	14347
866.137	14396
866.269	14282
866.4	14355
866.531	14256
866.662	14275
866.793	14305
866.924	14202
867.055	14278
867.186	14244
867.317	14278
867.448	14233
867.579	14237
867.71	14259
867.841	14164
867.972	14290
868.103	14366
868.233	14393
868.364	14294
868.495	14427
868.625	14415
868.756	14636
868.886	14549
869.017	14541
869.147	14674
869.278	14594
869.408	14590
869.539	14488
869.669	14590
869.799	14602
869.929	14583
870.06	14621
870.19	14872
870.32	14716
870.45	14842
870.58	14891
870.71	15009
870.84	15055
870.97	14956
871.1	14864
871.23	15192
871.36	15249
871.489	15089
871.619	15024
871.749	15146
871.879	15058
872.008	15233
872.138	15150
872.267	15157
872.397	14944
872.526	15013
872.656	15104
872.785	14990
872.915	15112
873.044	15222
873.173	15116
873.303	15199
873.432	15241
873.561	15230
873.69	15116
873.819	15131
873.948	15283
874.077	15176
874.206	15127
874.335	15252
874.464	15424
874.593	15557
874.722	15340
874.851	15561
874.979	15564
875.108	15473
875.237	15523
875.365	15428
875.494	15454
875.623	15466
875.751	15447
875.88	15564
876.008	15747
876.136	15778
876.265	15892
876.393	16105
876.521	16017
876.65	15922
876.778	15854
876.906	15899
877.034	15876
877.162	15983
877.29	15854
877.418	15911
877.546	15911
877.674	15956
877.802	15945
877.93	15915
878.058	15831
878.185	15793
878.313	15911
878.441	15915
878.568	15778
878.696	15945
878.824	15983
878.951	15983
879.079	16105
879.206	16139
879.333	16185
879.461	15956
879.588	16135
879.715	16120
879.842	16356
879.97	15930
880.097	15705
880.224	15766
880.351	15895
880.478	15835
880.605	15816
880.732	15739
880.859	15979
880.986	15728
881.112	15838
881.239	15663
881.366	15587
881.493	15534
881.619	15428
881.746	15515
881.872	15469
881.999	15424
882.125	15370
882.252	15412
882.378	15576
882.505	15515
882.631	15306
882.757	15195
882.883	15325
883.01	15268
883.136	15252
883.262	15138
883.388	15085
883.514	15382
883.64	15302
883.766	15230
883.892	15108
884.018	15104
884.143	15275
884.269	15306
884.395	15081
884.52	14914
884.646	14982
884.772	14914
884.897	14857
885.023	14967
885.148	15047
885.274	15017
885.399	15085
885.524	14941
885.65	14975
885.775	14914
885.9	14853
886.025	15039
886.15	15123
886.275	14895
886.4	14948
886.525	14937
886.65	14948
886.775	14910
886.9	15039
887.025	15104
887.149	14941
887.274	14765
887.399	14773
887.523	14735
887.648	14750
887.773	14659
887.897	14819
888.021	14842
888.146	14697
888.27	14971
888.395	14918
888.519	14952
888.643	14952
888.767	14887
888.891	14655
889.015	14583
889.139	14648
889.263	14560
889.387	14644
889.511	14739
889.635	14716
889.759	14636
889.883	14587
890.006	14682
890.13	14765
890.254	14507
890.377	14655
890.501	14484
890.624	14461
890.748	14488
890.871	14419
890.995	14202
891.118	14263
891.241	14301
891.364	14393
891.488	14396
891.611	14290
891.734	14294
891.857	14347
891.98	14355
892.103	14404
892.226	14328
892.349	14282
892.471	14271
892.594	14199
892.717	14278
892.839	14309
892.962	14309
893.085	14366
893.207	14244
893.33	14180
893.452	14103
893.575	14366
893.697	14358
893.819	14461
893.941	14495
894.064	14469
894.186	14332
894.308	14176
894.43	14533
894.552	14533
894.674	14385
894.796	14229
894.918	14343
895.04	14332
895.161	14438
895.283	14495
895.405	14313
895.526	14309
895.648	14404
895.769	14480
895.891	14533
896.012	14495
896.134	14442
896.255	14549
896.376	14427
896.498	14564
896.619	14423
896.74	14533
896.861	14537
896.982	14712
897.103	14876
897.224	14883
897.345	14845
897.466	14724
897.587	14773
897.708	14906
897.828	14773
897.949	14811
898.07	14594
898.19	14773
898.311	14781
898.431	14773
898.552	14929
898.672	14883
898.792	14826
898.913	14796
899.033	14758
899.153	14743
899.273	14606
899.393	14632
899.513	14701
899.633	14663
899.753	14815
899.873	14636
899.993	14769
900.113	14697
900.232	14746
900.352	14674
900.472	14545
900.591	14552
900.711	14533
900.83	14533
900.95	14720
901.069	14705
901.189	14465
901.308	14191
901.427	14240
901.546	14286
901.665	14176
901.784	14157
901.904	14153
902.023	14027
902.141	13879
902.26	13849
902.379	13833
902.498	13788
902.617	13791
902.735	13761
902.854	13807
902.973	13655
903.091	13548
903.21	13590
903.328	13514
903.446	13449
903.565	13354
903.683	13358
903.801	13278
903.919	13331
904.038	13335
904.156	13213
904.274	13282
904.392	13091
904.51	13141
904.627	13198
904.745	13202
904.863	13209
904.981	12875
905.098	12814
905.216	12859
905.334	12886
905.451	12909
905.569	12947
905.686	12859
905.803	12814
905.921	12677
906.038	12684
906.155	12681
906.272	12574
906.389	12544
906.506	12380
906.623	12498
906.74	12414
906.857	12361
906.974	12350
907.091	12525
907.208	12563
907.324	12467
907.441	12441
907.557	12228
907.674	12175
907.79	12060
907.907	12076
908.023	12182
908.139	12167
908.256	12125
908.372	12026
908.488	12083
908.604	11958
908.72	11847
908.836	11984
908.952	11931
909.068	11859
909.184	12102
909.3	11935
909.415	11999
909.531	11832
909.647	11745
909.762	11623
909.878	11703
909.993	11729
910.108	11680
910.224	11676
910.339	11661
910.454	11623
910.57	11627
910.685	11551
910.8	11771
910.915	11718
911.03	11543
911.145	11383
911.259	11425
911.374	11364
911.489	11372
911.604	11372
911.718	11102
911.833	11132
911.947	11056
912.062	10942
912.176	11105
912.291	11151
912.405	11128
912.519	11296
912.633	11383
912.748	11258
912.862	11185
912.976	10999
913.09	10908
913.204	10984
913.318	11018
913.431	11162
913.545	11178
913.659	11102
913.772	11045
913.886	10946
914	10877
914.113	11060
914.226	11010
914.34	11003
914.453	10869
914.566	10938
914.68	10816
914.793	10831
914.906	10729
915.019	10618
915.132	10474
915.245	10615
915.358	10706
915.47	10656
915.583	10611
915.696	10672
915.809	10740
915.921	10763
916.034	10721
916.146	10584
916.259	10580
916.371	10683
916.483	10771
916.595	10512
916.708	10611
916.82	10538
916.932	10523
917.044	10558
917.156	10546
917.268	10443
917.38	10531
917.491	10417
917.603	10474
917.715	10527
917.826	10523
917.938	10402
918.049	10371
918.161	10493
918.272	10611
918.384	10630
918.495	10466
918.606	10303
918.717	10215
918.828	10352
918.939	10333
919.05	10276
919.161	10379
919.272	10135
919.383	10257
919.494	10405
919.604	10596
919.715	10344
919.826	10394
919.936	10329
920.047	10363
920.157	10398
920.267	10592
920.378	10436
920.488	10356
920.598	10675
920.708	10748
920.818	10592
920.928	10592
921.038	10725
921.148	10714
921.258	10394
921.368	10314
921.477	10337
921.587	10192
921.697	10120
921.806	10215
921.916	10150
922.025	10044
922.134	9964
922.244	9835
922.353	10025
922.462	9857
922.571	9740
922.68	9629
922.789	9671
922.898	9648
923.007	9641
923.116	9770
923.224	9660
923.333	9671
923.442	9515
923.55	9485
923.659	9599
923.767	9625
923.876	9492
923.984	9614
924.092	9450
924.201	9549
924.309	9534
924.417	9507
924.525	9416
924.633	9454
924.741	10367
924.849	9249
924.956	9439
925.064	9230
925.172	9161
925.279	9241
925.387	9329
925.494	9310
925.602	9412
925.709	9500
925.816	9237
925.924	9310
926.031	9439
926.138	9313
926.245	9279
926.352	9230
926.459	9313
926.566	9412
926.673	9195
926.779	9211
926.886	9104
926.993	9039
927.099	8994
927.206	8941
927.312	8971
927.419	9005
927.525	9028
927.631	9020
927.737	8960
927.843	8849
927.95	8727
928.056	8891
928.162	8933
928.267	9058
928.373	9466
928.479	9028
928.585	8754
928.69	8880
928.796	8963
928.901	8754
929.007	8686
929.112	8857
929.218	8834
929.323	8693
929.428	8746
929.533	8845
929.638	8590
929.743	8670
929.848	8750
929.953	8697
930.058	8571
930.163	8488
930.267	8514
930.372	8598
930.477	8473
930.581	8727
930.685	8583
930.79	8412
930.894	8423
930.998	8412
931.103	8571
931.207	8214
931.311	8199
931.415	8046
931.519	7928
931.623	7909
