Data from test_V78500241_740.txt Node
Date: Fri Mar 25 14:38:52 CST 2022
User: usil
Spectrometer: V785-0024
Trigger mode: 0
Integration Time (sec): 4.000000E-1
Scans to average: 1
Nonlinearity correction enabled: false
Boxcar width: 0
Storing dark spectrum: false
XAxis mode: Wavelengths
Number of Pixels in Spectrum: 1024
>>>>>Begin Spectral Data<<<<<
801.071	27325
801.214	27150
801.356	26948
801.499	26811
801.641	26621
801.783	26678
801.926	26644
802.068	26644
802.211	26317
802.353	26381
802.496	26130
802.638	26138
802.78	26081
802.923	26016
803.065	26096
803.208	25982
803.35	26088
803.492	26145
803.635	26385
803.777	26065
803.919	26347
804.061	26473
804.204	26298
804.346	26271
804.488	26248
804.63	26377
804.773	26259
804.915	26476
805.057	26537
805.199	26545
805.341	26636
805.483	26845
805.626	26800
805.768	26861
805.91	27047
806.052	27135
806.194	27074
806.336	27564
806.478	27629
806.62	27888
806.762	28143
806.904	28588
807.046	29102
807.188	29395
807.33	29840
807.472	30456
807.614	31019
807.756	31947
807.898	33119
808.04	34786
808.182	36783
808.324	39553
808.465	42779
808.607	46135
808.749	49270
808.891	51028
809.033	51298
809.174	49620
809.316	46573
809.458	43000
809.6	39298
809.741	36399
809.883	34147
810.025	32686
810.166	31552
810.308	30722
810.45	29908
810.591	29436
810.733	28976
810.875	28443
811.016	27994
811.158	27823
811.299	27698
811.441	27705
811.582	27606
811.724	27313
811.865	27230
812.007	27150
812.148	27028
812.29	26899
812.431	27005
812.573	27138
812.714	27230
812.855	27298
812.997	27077
813.138	27329
813.279	27256
813.421	27150
813.562	26994
813.703	26800
813.845	26469
813.986	26138
814.127	25993
814.268	25947
814.41	25849
814.551	25696
814.692	25887
814.833	25731
814.974	25647
815.115	25803
815.256	25518
815.397	25491
815.539	25396
815.68	25407
815.821	25392
815.962	25381
816.103	25156
816.244	25179
816.385	25088
816.526	24962
816.666	24825
816.807	24635
816.948	24677
817.089	24829
817.23	24578
817.371	24593
817.512	24475
817.653	24631
817.793	24509
817.934	24505
818.075	24604
818.216	24464
818.356	24494
818.497	24281
818.638	24251
818.778	24239
818.919	24174
819.06	24197
819.2	24372
819.341	24407
819.481	24323
819.622	24445
819.762	24574
819.903	24589
820.043	24479
820.184	24536
820.324	24418
820.465	24433
820.605	24460
820.746	24209
820.886	24239
821.026	24190
821.167	24209
821.307	24399
821.447	24216
821.588	23984
821.728	23973
821.868	23699
822.008	23642
822.149	23497
822.289	23467
822.429	23379
822.569	23372
822.709	23193
822.849	23029
822.99	22987
823.13	23064
823.27	23056
823.41	22885
823.55	22748
823.69	22869
823.83	22828
823.97	22721
824.11	22538
824.25	22523
824.389	22561
824.529	22645
824.669	22584
824.809	22683
824.949	22660
825.089	22729
825.228	22706
825.368	22394
825.508	22371
825.648	22344
825.787	22436
825.927	22474
826.067	22432
826.206	22341
826.346	22489
826.485	22390
826.625	22379
826.765	22409
826.904	22398
827.044	22196
827.183	22139
827.323	22006
827.462	22078
827.601	21968
827.741	22059
827.88	21899
828.02	21964
828.159	21953
828.298	22093
828.437	22059
828.577	21975
828.716	22116
828.855	21964
828.994	21709
829.134	21774
829.273	21720
829.412	21633
829.551	21663
829.69	21610
829.829	21724
829.968	21759
830.107	21667
830.246	21671
830.385	21641
830.524	21599
830.663	21447
830.802	21382
830.941	21408
831.08	21310
831.219	21405
831.357	21462
831.496	21606
831.635	21279
831.774	21275
831.913	21291
832.051	21249
832.19	21199
832.329	21203
832.467	21055
832.606	21112
832.744	21131
832.883	21211
833.022	21241
833.16	21412
833.299	21587
833.437	21583
833.576	21785
833.714	21861
833.852	22173
833.991	22219
834.129	22363
834.267	22386
834.406	22299
834.544	22207
834.682	22036
834.821	21926
834.959	21983
835.097	21629
835.235	21641
835.373	21450
835.511	21466
835.65	21260
835.788	21180
835.926	20963
836.064	20838
836.202	20864
836.34	20899
836.478	21051
836.615	20727
836.753	20842
836.891	20956
837.029	20849
837.167	20861
837.305	20659
837.443	20735
837.58	20663
837.718	20689
837.856	20659
837.993	20625
838.131	20625
838.269	20499
838.406	20598
838.544	20355
838.681	20305
838.819	20275
838.956	20145
839.094	20115
839.231	20191
839.369	20210
839.506	20473
839.643	20332
839.781	20084
839.918	20138
840.055	20107
840.193	20073
840.33	20069
840.467	20096
840.604	20005
840.742	20267
840.879	19822
841.016	19909
841.153	19879
841.29	20081
841.427	20065
841.564	20111
841.701	20001
841.838	19940
841.975	19925
842.112	19784
842.249	19845
842.385	19757
842.522	20122
842.659	19955
842.796	19830
842.933	19879
843.069	19772
843.206	19932
843.343	20027
843.479	19947
843.616	20043
843.752	19947
843.889	19864
844.025	20126
844.162	19887
844.298	20218
844.435	20389
844.571	20552
844.708	20857
844.844	21405
844.98	21762
845.117	22428
845.253	23474
845.389	25552
845.525	29208
845.661	35486
845.798	42403
845.934	47729
846.07	49693
846.206	48220
846.342	43217
846.478	35965
846.614	29927
846.75	25833
846.886	23691
847.022	22116
847.158	21264
847.294	20705
847.429	20442
847.565	19974
847.701	20046
847.837	19365
847.972	19335
848.108	19304
848.244	19335
848.379	19057
848.515	18966
848.65	18894
848.786	18875
848.921	18935
849.057	19050
849.192	18935
849.328	18730
849.463	18730
849.598	18719
849.734	18650
849.869	18681
850.004	18620
850.14	18460
850.275	18578
850.41	18361
850.545	18475
850.68	18456
850.815	18608
850.95	18410
851.085	18563
851.22	18578
851.355	18357
851.49	18509
851.625	18384
851.76	18479
851.895	18486
852.03	18350
852.165	18509
852.299	18585
852.434	18593
852.569	18536
852.703	18528
852.838	18673
852.973	18639
853.107	18779
853.242	18616
853.376	18536
853.511	18323
853.645	18456
853.78	18722
853.914	18711
854.048	18646
854.183	18635
854.317	18863
854.451	18867
854.585	18768
854.72	18726
854.854	18787
854.988	18669
855.122	18677
855.256	18448
855.39	18532
855.524	18612
855.658	18578
855.792	18410
855.926	18452
856.06	18334
856.194	18525
856.327	18437
856.461	18289
856.595	18224
856.729	18319
856.862	18475
856.996	18384
857.13	18330
857.263	18460
857.397	18407
857.53	18239
857.664	18357
857.797	18410
857.931	18426
858.064	18152
858.197	18304
858.331	18133
858.464	18190
858.597	18068
858.731	18209
858.864	18102
858.997	18095
859.13	18110
859.263	18216
859.396	18232
859.529	18091
859.662	18087
859.795	18171
859.928	18125
860.061	18361
860.194	18292
860.327	18133
860.46	18087
860.592	18178
860.725	18296
860.858	18213
860.99	18106
861.123	18053
861.256	18129
861.388	17992
861.521	18814
861.653	17946
861.786	17901
861.918	18034
862.05	18045
862.183	18140
862.315	18102
862.447	18121
862.58	18068
862.712	17771
862.844	17752
862.976	17859
863.108	17847
863.24	18228
863.372	17733
863.504	17916
863.636	17779
863.768	17843
863.9	17794
864.032	17710
864.164	17786
864.296	17855
864.428	17843
864.559	17836
864.691	17863
864.823	17764
864.954	17843
865.086	17733
865.217	17786
865.349	17676
865.48	17615
865.612	17707
865.743	17863
865.875	17756
866.006	17680
866.137	17779
866.269	17672
866.4	17767
866.531	17798
866.662	17649
866.793	17695
866.924	17661
867.055	17729
867.186	17703
867.317	17684
867.448	17600
867.579	17634
867.71	17748
867.841	17608
867.972	17604
868.103	17642
868.233	17726
868.364	17687
868.495	17802
868.625	17878
868.756	17977
868.886	17969
869.017	17847
869.147	18049
869.278	17901
869.408	17863
869.539	17988
869.669	18083
869.799	17977
869.929	18102
870.06	18140
870.19	18277
870.32	18350
870.45	18285
870.58	18407
870.71	18502
870.84	18528
870.97	18327
871.1	18403
871.23	18635
871.36	18608
871.489	18506
871.619	18593
871.749	18726
871.879	18783
872.008	18741
872.138	18711
872.267	18642
872.397	18604
872.526	18608
872.656	18582
872.785	18646
872.915	18791
873.044	18916
873.173	18909
873.303	18970
873.432	18897
873.561	19084
873.69	18970
873.819	18985
873.948	19110
874.077	19038
874.206	19000
874.335	19057
874.464	19099
874.593	19343
874.722	19343
874.851	19472
874.979	19422
875.108	19548
875.237	19533
875.365	19460
875.494	19582
875.623	19791
875.751	19700
875.88	19757
876.008	19753
876.136	20111
876.265	20339
876.393	20503
876.521	20533
876.65	20583
876.778	20541
876.906	20461
877.034	20575
877.162	20644
877.29	20697
877.418	20842
877.546	20990
877.674	21195
877.802	21165
877.93	21336
878.058	21549
878.185	21679
878.313	21918
878.441	22413
878.568	22634
878.696	23292
878.824	24228
878.951	25403
879.079	27013
879.206	29159
879.333	31168
879.461	32998
879.588	34093
879.715	34207
879.842	33302
879.97	31381
880.097	29018
880.224	27401
880.351	26240
880.478	25266
880.605	24532
880.732	24209
880.859	24243
880.986	23779
881.112	23695
881.239	23528
881.366	23364
881.493	23261
881.619	23143
881.746	23273
881.872	23364
881.999	23288
882.125	23520
882.252	23444
882.378	23505
882.505	23497
882.631	23471
882.757	23204
882.883	23330
883.01	23277
883.136	23269
883.262	23265
883.388	23117
883.514	23288
883.64	23334
883.766	23265
883.892	23052
884.018	23029
884.143	23124
884.269	23368
884.395	23098
884.52	23060
884.646	23037
884.772	22957
884.897	22953
885.023	23083
885.148	22976
885.274	22984
885.399	23022
885.524	22744
885.65	22782
885.775	22634
885.9	22322
886.025	22276
886.15	22147
886.275	21915
886.4	21705
886.525	21583
886.65	21454
886.775	21245
886.9	21367
887.025	21317
887.149	21062
887.274	20842
887.399	20777
887.523	20556
887.648	20423
887.773	20355
887.897	20347
888.021	20339
888.146	20187
888.27	20252
888.395	20145
888.519	20092
888.643	19917
888.767	19989
888.891	19753
889.015	19731
889.139	19613
889.263	19556
889.387	19624
889.511	19632
889.635	19628
889.759	19270
889.883	19365
890.006	19491
890.13	19525
890.254	19270
890.377	19221
890.501	19122
890.624	19012
890.748	18958
890.871	18798
890.995	18844
891.118	18726
891.241	18749
891.364	18753
891.488	18711
891.611	18646
891.734	18540
891.857	18612
891.98	18506
892.103	18513
892.226	18357
892.349	18540
892.471	18285
892.594	18350
892.717	18273
892.839	18289
892.962	18266
893.085	18254
893.207	18311
893.33	18053
893.452	18072
893.575	18117
893.697	18140
893.819	18076
893.941	18304
894.064	18117
894.186	18003
894.308	17961
894.43	17973
894.552	18140
894.674	18057
894.796	17969
894.918	17878
895.04	17843
895.161	17939
895.283	17920
895.405	17958
895.526	17870
895.648	17828
895.769	17912
895.891	17843
896.012	17794
896.134	17901
896.255	17866
896.376	17851
896.498	17843
896.619	17836
896.74	17802
896.861	17863
896.982	17950
897.103	18239
897.224	18091
897.345	17980
897.466	17897
897.587	17889
897.708	17999
897.828	18083
897.949	17828
898.07	17836
898.19	17885
898.311	18019
898.431	17946
898.552	17965
898.672	18053
898.792	17946
898.913	17969
899.033	17779
899.153	17737
899.273	17627
899.393	17748
899.513	17794
899.633	17813
899.753	17733
899.873	17676
899.993	17786
900.113	17703
900.232	17707
900.352	17710
900.472	17619
900.591	17547
900.711	17592
900.83	17353
900.95	17581
901.069	17623
901.189	17474
901.308	17121
901.427	17086
901.546	17166
901.665	17151
901.784	17109
901.904	16972
902.023	16847
902.141	16626
902.26	16596
902.379	16607
902.498	16569
902.617	16558
902.735	16577
902.854	16443
902.973	16447
903.091	16242
903.21	16284
903.328	16223
903.446	16124
903.565	16112
903.683	15968
903.801	15846
903.919	16013
904.038	15888
904.156	15660
904.274	15960
904.392	15846
904.51	15690
904.627	15701
904.745	15751
904.863	15774
904.981	15496
905.098	15492
905.216	15428
905.334	15401
905.451	15325
905.569	15386
905.686	15214
905.803	15310
905.921	15154
906.038	15241
906.155	15131
906.272	15036
906.389	15089
906.506	14891
906.623	14941
906.74	14815
906.857	14746
906.974	14861
907.091	14857
907.208	14910
907.324	14887
907.441	14731
907.557	14682
907.674	14541
907.79	14533
907.907	14560
908.023	14648
908.139	14621
908.256	14564
908.372	14480
908.488	14492
908.604	14412
908.72	14336
908.836	14427
908.952	14202
909.068	14347
909.184	14404
909.3	14305
909.415	14427
909.531	14328
909.647	14100
909.762	14081
909.878	14031
909.993	14134
910.108	13978
910.224	14069
910.339	14005
910.454	13894
910.57	13913
910.685	13890
910.8	14119
910.915	14065
911.03	13902
911.145	13742
911.259	13636
911.374	13769
911.489	13582
911.604	13601
911.718	13430
911.833	13510
911.947	13331
912.062	13274
912.176	13445
912.291	13449
912.405	13331
912.519	13578
912.633	13727
912.748	13453
912.862	13388
912.976	13304
913.09	13149
913.204	13278
913.318	13160
913.431	13396
913.545	13354
913.659	13358
913.772	13266
913.886	13206
914	13107
914.113	13225
914.226	13221
914.34	13293
914.453	13034
914.566	13274
914.68	13080
914.793	13164
914.906	12920
915.019	12764
915.132	12802
915.245	12798
915.358	12844
915.47	12875
915.583	12817
915.696	12916
915.809	13004
915.921	13050
916.034	12802
916.146	12810
916.259	12848
916.371	12932
916.483	12909
916.595	12726
916.708	12867
916.82	12833
916.932	12703
917.044	12810
917.156	12753
917.268	12665
917.38	12669
917.491	12532
917.603	12703
917.715	12616
917.826	12726
917.938	12566
918.049	12414
918.161	12464
918.272	12707
918.384	12722
918.495	12471
918.606	12445
918.717	12319
918.828	12475
918.939	12452
919.05	12273
919.161	12308
919.272	12175
919.383	12235
919.494	12399
919.604	12532
919.715	12330
919.826	12224
919.936	12334
920.047	12422
920.157	12395
920.267	12551
920.378	12391
920.488	12319
920.598	12441
920.708	12654
920.818	12483
920.928	12433
921.038	12658
921.148	12593
921.258	12403
921.368	12201
921.477	12194
921.587	12057
921.697	11935
921.806	12167
921.916	12011
922.025	11836
922.134	11741
922.244	11775
922.353	11828
922.462	11600
922.571	11630
922.68	11512
922.789	11429
922.898	11501
923.007	11425
923.116	11524
923.224	11448
923.333	11436
923.442	11292
923.55	11254
923.659	11299
923.767	11402
923.876	11277
923.984	11345
924.092	11113
924.201	11250
924.309	11265
924.417	11273
924.525	11162
924.633	11162
924.741	11855
924.849	10995
924.956	11113
925.064	11037
925.172	10934
925.279	10980
925.387	11037
925.494	11029
925.602	11151
925.709	10991
925.816	10866
925.924	10934
926.031	11071
926.138	10976
926.245	11025
926.352	10820
926.459	10987
926.566	10965
926.673	10991
926.779	10793
926.886	10782
926.993	10672
927.099	10634
927.206	10558
927.312	10485
927.419	10634
927.525	10561
927.631	10630
927.737	10554
927.843	10481
927.95	10428
928.056	10432
928.162	10417
928.267	10523
928.373	11162
928.479	10569
928.585	10280
928.69	10466
928.796	10394
928.901	10440
929.007	10261
929.112	10424
929.218	10363
929.323	10268
929.428	10234
929.533	10386
929.638	10158
929.743	10227
929.848	10284
929.953	10204
930.058	10154
930.163	10051
930.267	10036
930.372	10059
930.477	9972
930.581	10166
930.685	10006
930.79	9937
930.894	9926
930.998	9895
931.103	9972
931.207	9633
931.311	9580
931.415	9595
931.519	9355
931.623	9332
