Data from test_V78500241_676.txt Node
Date: Fri Mar 25 14:38:25 CST 2022
User: usil
Spectrometer: V785-0024
Trigger mode: 0
Integration Time (sec): 4.000000E-1
Scans to average: 1
Nonlinearity correction enabled: false
Boxcar width: 0
Storing dark spectrum: false
XAxis mode: Wavelengths
Number of Pixels in Spectrum: 1024
>>>>>Begin Spectral Data<<<<<
801.071	28268
801.214	28093
801.356	27895
801.499	27629
801.641	27717
801.783	27469
801.926	27576
802.068	27317
802.211	27226
802.353	27279
802.496	27058
802.638	26952
802.78	26967
802.923	27051
803.065	27047
803.208	26948
803.35	26960
803.492	27039
803.635	27195
803.777	27154
803.919	27298
804.061	27534
804.204	27298
804.346	27294
804.488	27268
804.63	27245
804.773	27188
804.915	27431
805.057	27462
805.199	27523
805.341	27583
805.483	27876
805.626	27918
805.768	27717
805.91	27930
806.052	28120
806.194	28105
806.336	28527
806.478	28554
806.62	28759
806.762	28934
806.904	29360
807.046	29904
807.188	30159
807.33	30681
807.472	31160
807.614	31925
807.756	32838
807.898	33907
808.04	35356
808.182	37510
808.324	40112
808.465	42913
808.607	46169
808.749	49278
808.891	51081
809.033	50940
809.174	49502
809.316	46546
809.458	43369
809.6	39701
809.741	36802
809.883	34873
810.025	33435
810.166	32202
810.308	31354
810.45	30859
810.591	30277
810.733	29748
810.875	29296
811.016	29124
811.158	28946
811.299	28873
811.441	28733
811.582	28577
811.724	28322
811.865	28128
812.007	28196
812.148	28207
812.29	28078
812.431	27960
812.573	28169
812.714	28150
812.855	28204
812.997	28185
813.138	28280
813.279	28223
813.421	28067
813.562	27880
813.703	27660
813.845	27652
813.986	27161
814.127	27089
814.268	26910
814.41	26899
814.551	26849
814.692	26853
814.833	26678
814.974	26720
815.115	26564
815.256	26560
815.397	26598
815.539	26583
815.68	26495
815.821	26301
815.962	26377
816.103	26263
816.244	26138
816.385	26020
816.526	25947
816.666	25795
816.807	25685
816.948	25818
817.089	25807
817.23	25727
817.371	25750
817.512	25578
817.653	25624
817.793	25552
817.934	25521
818.075	25586
818.216	25464
818.356	25479
818.497	25441
818.638	25228
818.778	25312
818.919	25331
819.06	25179
819.2	25419
819.341	25331
819.481	25445
819.622	25658
819.762	25761
819.903	25677
820.043	25578
820.184	25590
820.324	25457
820.465	25540
820.605	25453
820.746	25266
820.886	25324
821.026	25346
821.167	25282
821.307	25339
821.447	25179
821.588	25065
821.728	24897
821.868	24768
822.008	24623
822.149	24604
822.289	24665
822.429	24262
822.569	24296
822.709	24281
822.849	24155
822.99	24194
823.13	24038
823.27	23999
823.41	23741
823.55	23790
823.69	23821
823.83	23813
823.97	23805
824.11	23653
824.25	23630
824.389	23539
824.529	23672
824.669	23634
824.809	23703
824.949	23528
825.089	23676
825.228	23710
825.368	23509
825.508	23611
825.648	23543
825.787	23455
825.927	23543
826.067	23455
826.206	23349
826.346	23410
826.485	23353
826.625	23433
826.765	23543
826.904	23349
827.044	23151
827.183	23052
827.323	22968
827.462	23102
827.601	23075
827.741	23094
827.88	23086
828.02	22881
828.159	22953
828.298	23147
828.437	22953
828.577	22923
828.716	23273
828.855	23022
828.994	22782
829.134	22873
829.273	22831
829.412	22596
829.551	22675
829.69	22717
829.829	22713
829.968	22862
830.107	22752
830.246	22611
830.385	22550
830.524	22603
830.663	22542
830.802	22436
830.941	22356
831.08	22238
831.219	22405
831.357	22356
831.496	22512
831.635	22405
831.774	22333
831.913	22226
832.051	22284
832.19	22211
832.329	22272
832.467	22082
832.606	22051
832.744	22284
832.883	22329
833.022	22230
833.16	22402
833.299	22573
833.437	22721
833.576	22812
833.714	22927
833.852	23098
833.991	23250
834.129	23372
834.267	23212
834.406	23254
834.544	23265
834.682	23128
834.821	22976
834.959	22816
835.097	22793
835.235	22542
835.373	22504
835.511	22363
835.65	22166
835.788	22143
835.926	22017
836.064	21907
836.202	21857
836.34	21797
836.478	22070
836.615	21869
836.753	21835
836.891	21876
837.029	21911
837.167	21873
837.305	21720
837.443	21698
837.58	21656
837.718	21675
837.856	21599
837.993	21591
838.131	21713
838.269	21591
838.406	21618
838.544	21382
838.681	21279
838.819	21302
838.956	21119
839.094	21123
839.231	21203
839.369	21195
839.506	21367
839.643	21374
839.781	21001
839.918	21036
840.055	21009
840.193	20994
840.33	20937
840.467	21051
840.604	21043
840.742	21203
840.879	20872
841.016	20994
841.153	20845
841.29	21173
841.427	20960
841.564	20998
841.701	21032
841.838	20937
841.975	20948
842.112	20929
842.249	20758
842.385	20758
842.522	20895
842.659	20914
842.796	20834
842.933	20788
843.069	20708
843.206	20967
843.343	21051
843.479	20975
843.616	20921
843.752	20792
843.889	20819
844.025	21032
844.162	20948
844.298	21169
844.435	21321
844.571	21496
844.708	21694
844.844	22207
844.98	22637
845.117	23227
845.253	24251
845.389	25986
845.525	29695
845.661	35592
845.798	42380
845.934	47486
846.07	49331
846.206	47939
846.342	43240
846.478	36266
846.614	30467
846.75	26537
846.886	24365
847.022	22919
847.158	22063
847.294	21549
847.429	21154
847.565	20948
847.701	20998
847.837	20351
847.972	20320
848.108	20332
848.244	20206
848.379	19944
848.515	19921
848.65	19841
848.786	19795
848.921	19765
849.057	19852
849.192	19830
849.328	19826
849.463	19738
849.598	19655
849.734	19624
849.869	19582
850.004	19411
850.14	19453
850.275	19297
850.41	19449
850.545	19324
850.68	19419
850.815	19441
850.95	19491
851.085	19651
851.22	19499
851.355	19525
851.49	19384
851.625	19324
851.76	19362
851.895	19202
852.03	19282
852.165	19346
852.299	19396
852.434	19613
852.569	19445
852.703	19556
852.838	19571
852.973	19552
853.107	19719
853.242	19480
853.376	19327
853.511	19362
853.645	19506
853.78	19590
853.914	19567
854.048	19472
854.183	19685
854.317	19651
854.451	19822
854.585	19613
854.72	19613
854.854	19609
854.988	19499
855.122	19483
855.256	19285
855.39	19457
855.524	19510
855.658	19449
855.792	19339
855.926	19354
856.06	19365
856.194	19343
856.327	19240
856.461	19175
856.595	19240
856.729	19213
856.862	19320
856.996	19122
857.13	19263
857.263	19312
857.397	19358
857.53	19160
857.664	19206
857.797	19194
857.931	19148
858.064	19213
858.197	19228
858.331	19183
858.464	19095
858.597	19019
858.731	18996
858.864	19038
858.997	19023
859.13	19042
859.263	19057
859.396	19263
859.529	19088
859.662	18973
859.795	19031
859.928	19076
860.061	19164
860.194	19088
860.327	19126
860.46	19012
860.592	19095
860.725	19118
860.858	19004
860.99	19012
861.123	18897
861.256	18928
861.388	18985
861.521	19674
861.653	18947
861.786	18973
861.918	18882
862.05	18951
862.183	18928
862.315	19046
862.447	19053
862.58	19000
862.712	18848
862.844	18696
862.976	18772
863.108	18779
863.24	19110
863.372	18616
863.504	18673
863.636	18623
863.768	18833
863.9	18677
864.032	18677
864.164	18639
864.296	18646
864.428	18722
864.559	18719
864.691	18711
864.823	18711
864.954	18669
865.086	18684
865.217	18551
865.349	18517
865.48	18646
865.612	18555
865.743	18779
865.875	18654
866.006	18452
866.137	18570
866.269	18532
866.4	18589
866.531	18464
866.662	18460
866.793	18551
866.924	18574
867.055	18582
867.186	18551
867.317	18494
867.448	18479
867.579	18506
867.71	18429
867.841	18528
867.972	18665
868.103	18604
868.233	18612
868.364	18540
868.495	18597
868.625	18829
868.756	18928
868.886	18661
869.017	18821
869.147	18943
869.278	18894
869.408	18844
869.539	18787
869.669	18970
869.799	18806
869.929	19042
870.06	18859
870.19	19145
870.32	19156
870.45	19129
870.58	19293
870.71	19384
870.84	19362
870.97	19244
871.1	19316
871.23	19559
871.36	19453
871.489	19419
871.619	19552
871.749	19578
871.879	19556
872.008	19765
872.138	19575
872.267	19556
872.397	19518
872.526	19594
872.656	19346
872.785	19472
872.915	19685
873.044	19856
873.173	19696
873.303	19712
873.432	19753
873.561	19822
873.69	19753
873.819	19932
873.948	19890
874.077	19936
874.206	19776
874.335	19936
874.464	20100
874.593	20290
874.722	20187
874.851	20229
874.979	20278
875.108	20328
875.237	20328
875.365	20248
875.494	20396
875.623	20514
875.751	20507
875.88	20629
876.008	20800
876.136	20849
876.265	21119
876.393	21260
876.521	21264
876.65	21256
876.778	21302
876.906	21332
877.034	21447
877.162	21530
877.29	21542
877.418	21564
877.546	21793
877.674	21743
877.802	21968
877.93	22017
878.058	22219
878.185	22272
878.313	22755
878.441	22995
878.568	23303
878.696	23882
878.824	24890
878.951	25818
879.079	27530
879.206	29459
879.333	31540
879.461	33256
879.588	34485
879.715	34337
879.842	33507
879.97	31639
880.097	29482
880.224	27907
880.351	26621
880.478	25852
880.605	25187
880.732	24856
880.859	24817
880.986	24467
881.112	24311
881.239	24182
881.366	24041
881.493	23977
881.619	23939
881.746	23908
881.872	23980
881.999	23802
882.125	23904
882.252	24076
882.378	24121
882.505	24209
882.631	24022
882.757	23992
882.883	24140
883.01	24011
883.136	23973
883.262	23817
883.388	23798
883.514	23824
883.64	23939
883.766	23843
883.892	23615
884.018	23642
884.143	23737
884.269	23897
884.395	23646
884.52	23566
884.646	23646
884.772	23630
884.897	23455
885.023	23657
885.148	23665
885.274	23592
885.399	23509
885.524	23299
885.65	23326
885.775	23242
885.9	22930
886.025	22869
886.15	22786
886.275	22618
886.4	22333
886.525	22352
886.65	22090
886.775	22040
886.9	21975
887.025	22097
887.149	21766
887.274	21583
887.399	21435
887.523	21393
887.648	21108
887.773	21058
887.897	21207
888.021	20868
888.146	20861
888.27	20899
888.395	20845
888.519	20804
888.643	20750
888.767	20750
888.891	20609
889.015	20347
889.139	20396
889.263	20248
889.387	20419
889.511	20404
889.635	20339
889.759	20027
889.883	20168
890.006	20145
890.13	20164
890.254	19890
890.377	19974
890.501	19807
890.624	19776
890.748	19708
890.871	19696
890.995	19441
891.118	19407
891.241	19514
891.364	19434
891.488	19438
891.611	19339
891.734	19320
891.857	19407
891.98	19236
892.103	19362
892.226	19126
892.349	19168
892.471	18932
892.594	19042
892.717	19057
892.839	18989
892.962	18958
893.085	19057
893.207	19069
893.33	18810
893.452	18837
893.575	18894
893.697	18738
893.819	18989
893.941	18894
894.064	18932
894.186	18707
894.308	18563
894.43	18715
894.552	18924
894.674	18783
894.796	18563
894.918	18604
895.04	18597
895.161	18658
895.283	18703
895.405	18384
895.526	18620
895.648	18559
895.769	18551
895.891	18536
896.012	18585
896.134	18528
896.255	18452
896.376	18506
896.498	18525
896.619	18498
896.74	18353
896.861	18563
896.982	18741
897.103	18958
897.224	18707
897.345	18684
897.466	18513
897.587	18623
897.708	18654
897.828	18639
897.949	18498
898.07	18410
898.19	18601
898.311	18669
898.431	18635
898.552	18677
898.672	18711
898.792	18681
898.913	18593
899.033	18483
899.153	18403
899.273	18384
899.393	18506
899.513	18346
899.633	18433
899.753	18334
899.873	18353
899.993	18452
900.113	18414
900.232	18342
900.352	18224
900.472	18110
900.591	18148
900.711	18197
900.83	18163
900.95	18300
901.069	18258
901.189	18034
901.308	17885
901.427	17794
901.546	17828
901.665	17741
901.784	17718
901.904	17642
902.023	17414
902.141	17220
902.26	17208
902.379	17220
902.498	17174
902.617	17090
902.735	17124
902.854	17170
902.973	17098
903.091	16938
903.21	16869
903.328	16850
903.446	16774
903.565	16668
903.683	16637
903.801	16573
903.919	16527
904.038	16702
904.156	16462
904.274	16379
904.392	16295
904.51	16356
904.627	16390
904.745	16314
904.863	16417
904.981	16112
905.098	16040
905.216	15987
905.334	16063
905.451	15998
905.569	15972
905.686	15991
905.803	15911
905.921	15831
906.038	15766
906.155	15808
906.272	15622
906.389	15633
906.506	15519
906.623	15542
906.74	15500
906.857	15306
906.974	15431
907.091	15519
907.208	15633
907.324	15488
907.441	15488
907.557	15291
907.674	15184
907.79	15203
907.907	15203
908.023	15203
908.139	15260
908.256	15108
908.372	15039
908.488	15081
908.604	14834
908.72	14975
908.836	14826
908.952	14861
909.068	14921
909.184	14963
909.3	14891
909.415	14948
909.531	14910
909.647	14712
909.762	14686
909.878	14613
909.993	14621
910.108	14606
910.224	14632
910.339	14640
910.454	14560
910.57	14423
910.685	14480
910.8	14594
910.915	14568
911.03	14514
911.145	14317
911.259	14328
911.374	14343
911.489	14294
911.604	14054
911.718	13955
911.833	14016
911.947	13993
912.062	13807
912.176	13967
912.291	14054
912.405	13944
912.519	14134
912.633	14256
912.748	14062
912.862	13936
912.976	13856
913.09	13791
913.204	13734
913.318	13875
913.431	13917
913.545	13959
913.659	13917
913.772	13833
913.886	13742
914	13666
914.113	13795
914.226	13875
914.34	13841
914.453	13578
914.566	13772
914.68	13559
914.793	13605
914.906	13430
915.019	13335
915.132	13324
915.245	13213
915.358	13373
915.47	13422
915.583	13362
915.696	13407
915.809	13506
915.921	13460
916.034	13324
916.146	13304
916.259	13373
916.371	13403
916.483	13354
916.595	13354
916.708	13384
916.82	13373
916.932	13297
917.044	13225
917.156	13270
917.268	13179
917.38	13194
917.491	13126
917.603	13137
917.715	13152
917.826	13190
917.938	13107
918.049	12989
918.161	13050
918.272	13095
918.384	13171
918.495	13038
918.606	12878
918.717	12821
918.828	12894
918.939	12890
919.05	12791
919.161	12897
919.272	12612
919.383	12677
919.494	12856
919.604	13023
919.715	12863
919.826	12730
919.936	12776
920.047	12909
920.157	12821
920.267	13160
920.378	12833
920.488	12882
920.598	13031
920.708	13126
920.818	12913
920.928	12970
921.038	13175
921.148	13053
921.258	12768
921.368	12715
921.477	12616
921.587	12589
921.697	12494
921.806	12559
921.916	12441
922.025	12315
922.134	12205
922.244	12163
922.353	12258
922.462	12102
922.571	12057
922.68	11908
922.789	11942
922.898	11916
923.007	11855
923.116	11965
923.224	11882
923.333	11790
923.442	11729
923.55	11714
923.659	11764
923.767	11847
923.876	11684
923.984	11722
924.092	11661
924.201	11722
924.309	11676
924.417	11688
924.525	11657
924.633	11600
924.741	12544
924.849	11440
924.956	11592
925.064	11398
925.172	11299
925.279	11360
925.387	11414
925.494	11414
925.602	11516
925.709	11452
925.816	11326
925.924	11425
926.031	11429
926.138	11368
926.245	11353
926.352	11292
926.459	11429
926.566	11486
926.673	11261
926.779	11178
926.886	11098
926.993	11025
927.099	11037
927.206	10995
927.312	10953
927.419	11090
927.525	11033
927.631	10972
927.737	10908
927.843	10839
927.95	10793
928.056	10862
928.162	10927
928.267	10889
928.373	11410
928.479	10942
928.585	10725
928.69	10850
928.796	10930
928.901	10649
929.007	10660
929.112	10740
929.218	10790
929.323	10702
929.428	10573
929.533	10801
929.638	10637
929.743	10561
929.848	10668
929.953	10584
930.058	10535
930.163	10367
930.267	10344
930.372	10546
930.477	10314
930.581	10615
930.685	10466
930.79	10268
930.894	10268
930.998	10242
931.103	10382
931.207	10082
931.311	9937
931.415	9880
931.519	9660
931.623	9610
