Data from test_V78500241_374.txt Node
Date: Fri Mar 25 14:36:19 CST 2022
User: usil
Spectrometer: V785-0024
Trigger mode: 0
Integration Time (sec): 4.000000E-1
Scans to average: 1
Nonlinearity correction enabled: false
Boxcar width: 0
Storing dark spectrum: false
XAxis mode: Wavelengths
Number of Pixels in Spectrum: 1024
>>>>>Begin Spectral Data<<<<<
801.071	26788
801.214	26716
801.356	26461
801.499	26278
801.641	26134
801.783	26298
801.926	26271
802.068	26134
802.211	26153
802.353	26115
802.496	25852
802.638	25841
802.78	25799
802.923	25715
803.065	25765
803.208	25753
803.35	25788
803.492	25909
803.635	25887
803.777	25841
803.919	25868
804.061	26161
804.204	25833
804.346	25685
804.488	25727
804.63	25700
804.773	25674
804.915	25601
805.057	25689
805.199	25841
805.341	25738
805.483	25826
805.626	25833
805.768	25784
805.91	25727
806.052	25830
806.194	25677
806.336	26012
806.478	25685
806.62	25818
806.762	25868
806.904	26016
807.046	26149
807.188	26164
807.33	26183
807.472	26225
807.614	25989
807.756	26065
807.898	26039
808.04	25955
808.182	25997
808.324	25966
808.465	26100
808.607	26073
808.749	26298
808.891	26484
809.033	26396
809.174	26347
809.316	26180
809.458	26351
809.6	26191
809.741	26339
809.883	26347
810.025	26530
810.166	26374
810.308	26370
810.45	26339
810.591	26347
810.733	26218
810.875	26229
811.016	25982
811.158	25997
811.299	26282
811.441	26195
811.582	26176
811.724	26012
811.865	26206
812.007	26172
812.148	26142
812.29	26218
812.431	26191
812.573	26511
812.714	26492
812.855	26571
812.997	26720
813.138	26834
813.279	26731
813.421	26446
813.562	26594
813.703	26434
813.845	26252
813.986	26054
814.127	25849
814.268	25761
814.41	25742
814.551	25651
814.692	25632
814.833	25643
814.974	25696
815.115	25666
815.256	25502
815.397	25472
815.539	25544
815.68	25460
815.821	25407
815.962	25373
816.103	25270
816.244	25327
816.385	25038
816.526	25171
816.666	24905
816.807	24958
816.948	24745
817.089	24928
817.23	24844
817.371	24856
817.512	24692
817.653	24764
817.793	24665
817.934	24867
818.075	24741
818.216	24802
818.356	24719
818.497	24551
818.638	24475
818.778	24532
818.919	24616
819.06	24513
819.2	24715
819.341	24540
819.481	24692
819.622	24806
819.762	25072
819.903	24989
820.043	24882
820.184	24837
820.324	24821
820.465	24856
820.605	24817
820.746	24890
820.886	24650
821.026	24681
821.167	24741
821.307	24787
821.447	24768
821.588	24635
821.728	24509
821.868	24220
822.008	24163
822.149	24194
822.289	24098
822.429	23859
822.569	23851
822.709	23843
822.849	23672
822.99	23608
823.13	23558
823.27	23531
823.41	23376
823.55	23303
823.69	23490
823.83	23356
823.97	23269
824.11	23060
824.25	23102
824.389	23075
824.529	23212
824.669	23143
824.809	23147
824.949	23204
825.089	23174
825.228	23280
825.368	23086
825.508	23006
825.648	22881
825.787	22957
825.927	23060
826.067	22847
826.206	22938
826.346	23018
826.485	23041
826.625	23018
826.765	23067
826.904	22968
827.044	22630
827.183	22637
827.323	22706
827.462	22679
827.601	22626
827.741	22618
827.88	22649
828.02	22466
828.159	22516
828.298	22596
828.437	22637
828.577	22599
828.716	22778
828.855	22451
828.994	22291
829.134	22367
829.273	22398
829.412	22379
829.551	22173
829.69	22287
829.829	22299
829.968	22257
830.107	22390
830.246	22322
830.385	22223
830.524	22150
830.663	22078
830.802	21926
830.941	21888
831.08	21781
831.219	21926
831.357	21911
831.496	22124
831.635	21816
831.774	21739
831.913	21652
832.051	21614
832.19	21534
832.329	21675
832.467	21572
832.606	21561
832.744	21553
832.883	21511
833.022	21473
833.16	21595
833.299	21302
833.437	21492
833.576	21568
833.714	21545
833.852	21477
833.991	21599
834.129	21633
834.267	21656
834.406	21549
834.544	21614
834.682	21583
834.821	21496
834.959	21709
835.097	21481
835.235	21538
835.373	21458
835.511	21458
835.65	21321
835.788	21359
835.926	21245
836.064	21154
836.202	21157
836.34	21408
836.478	21405
836.615	21298
836.753	21405
836.891	21382
837.029	21458
837.167	21374
837.305	21306
837.443	21119
837.58	21222
837.718	21192
837.856	21336
837.993	21180
838.131	21230
838.269	21226
838.406	21157
838.544	21024
838.681	20986
838.819	20895
838.956	20686
839.094	20804
839.231	20606
839.369	20807
839.506	21051
839.643	20921
839.781	20530
839.918	20598
840.055	20590
840.193	20606
840.33	20575
840.467	20594
840.604	20617
840.742	20804
840.879	20541
841.016	20511
841.153	20533
841.29	20636
841.427	20594
841.564	20625
841.701	20560
841.838	20579
841.975	20461
842.112	20450
842.249	20298
842.385	20233
842.522	20492
842.659	20419
842.796	20183
842.933	20233
843.069	20191
843.206	20332
843.343	20404
843.479	20351
843.616	20267
843.752	20081
843.889	20096
844.025	20187
844.162	19993
844.298	20073
844.435	20069
844.571	19993
844.708	20115
844.844	20210
844.98	20077
845.117	20134
845.253	20100
845.389	19875
845.525	20012
845.661	19982
845.798	19879
845.934	19932
846.07	19845
846.206	19883
846.342	20005
846.478	19830
846.614	19674
846.75	19476
846.886	19586
847.022	19632
847.158	19624
847.294	19575
847.429	19616
847.565	19445
847.701	19788
847.837	19343
847.972	19118
848.108	19377
848.244	19388
848.379	19103
848.515	19069
848.65	19072
848.786	19072
848.921	19145
849.057	19297
849.192	19202
849.328	19148
849.463	19000
849.598	18943
849.734	19126
849.869	19000
850.004	18871
850.14	18833
850.275	18825
850.41	18669
850.545	18821
850.68	18760
850.815	18859
850.95	18772
851.085	18920
851.22	18977
851.355	18810
851.49	18829
851.625	18776
851.76	18753
851.895	18734
852.03	18703
852.165	18795
852.299	18806
852.434	18890
852.569	18802
852.703	18867
852.838	18890
852.973	18966
853.107	18924
853.242	18760
853.376	18631
853.511	18513
853.645	18574
853.78	18760
853.914	18757
854.048	18650
854.183	18620
854.317	18563
854.451	18802
854.585	18677
854.72	18639
854.854	18856
854.988	18536
855.122	18570
855.256	18464
855.39	18616
855.524	18677
855.658	18661
855.792	18677
855.926	18768
856.06	18650
856.194	18623
856.327	18555
856.461	18547
856.595	18547
856.729	18673
856.862	18681
856.996	18658
857.13	18642
857.263	18627
857.397	18608
857.53	18604
857.664	18639
857.797	18711
857.931	18814
858.064	18703
858.197	18760
858.331	18551
858.464	18467
858.597	18483
858.731	18551
858.864	18608
858.997	18635
859.13	18563
859.263	18654
859.396	18551
859.529	18646
859.662	18547
859.795	18448
859.928	18593
860.061	18741
860.194	18722
860.327	18563
860.46	18445
860.592	18650
860.725	18688
860.858	18483
860.99	18467
861.123	18547
861.256	18483
861.388	18494
861.521	19247
861.653	18384
861.786	18311
861.918	18422
862.05	18452
862.183	18570
862.315	18677
862.447	18760
862.58	18502
862.712	18350
862.844	18273
862.976	18467
863.108	18399
863.24	18772
863.372	18201
863.504	18319
863.636	18304
863.768	18365
863.9	18323
864.032	18201
864.164	18232
864.296	18353
864.428	18403
864.559	18311
864.691	18281
864.823	18323
864.954	18209
865.086	18239
865.217	18167
865.349	18079
865.48	18163
865.612	18251
865.743	18258
865.875	18106
866.006	18117
866.137	18315
866.269	18155
866.4	18140
866.531	18064
866.662	18110
866.793	18072
866.924	18152
867.055	18148
867.186	18197
867.317	18106
867.448	17969
867.579	18182
867.71	18041
867.841	18068
867.972	18155
868.103	18102
868.233	18182
868.364	18060
868.495	18232
868.625	18315
868.756	18445
868.886	18224
869.017	18346
869.147	18464
869.278	18403
869.408	18448
869.539	18296
869.669	18403
869.799	18452
869.929	18452
870.06	18422
870.19	18627
870.32	18665
870.45	18745
870.58	18760
870.71	18829
870.84	18871
870.97	18757
871.1	18787
871.23	18867
871.36	18951
871.489	18958
871.619	18897
871.749	19015
871.879	18935
872.008	19175
872.138	19027
872.267	18935
872.397	18913
872.526	18772
872.656	18787
872.785	18722
872.915	18981
873.044	19008
873.173	18947
873.303	19091
873.432	18981
873.561	19027
873.69	18996
873.819	18943
873.948	19038
874.077	19038
874.206	19023
874.335	19053
874.464	19023
874.593	19240
874.722	19282
874.851	19225
874.979	19255
875.108	19289
875.237	19145
875.365	19263
875.494	19270
875.623	19263
875.751	19217
875.88	19335
876.008	19472
876.136	19480
876.265	19708
876.393	19803
876.521	19727
876.65	19696
876.778	19712
876.906	19674
877.034	19601
877.162	19750
877.29	19575
877.418	19643
877.546	19655
877.674	19647
877.802	19662
877.93	19544
878.058	19609
878.185	19651
878.313	19658
878.441	19632
878.568	19552
878.696	19632
878.824	19651
878.951	19830
879.079	19849
879.206	20100
879.333	19841
879.461	19670
879.588	19788
879.715	19849
879.842	19997
879.97	19681
880.097	19544
880.224	19533
880.351	19586
880.478	19514
880.605	19510
880.732	19419
880.859	19795
880.986	19460
881.112	19510
881.239	19495
881.366	19259
881.493	19194
881.619	19133
881.746	19145
881.872	19133
881.999	19190
882.125	19114
882.252	19137
882.378	19110
882.505	19187
882.631	19057
882.757	18878
882.883	18943
883.01	19008
883.136	18779
883.262	18623
883.388	18726
883.514	18913
883.64	18837
883.766	18749
883.892	18616
884.018	18734
884.143	18692
884.269	18901
884.395	18642
884.52	18494
884.646	18582
884.772	18547
884.897	18456
885.023	18544
885.148	18654
885.274	18722
885.399	18570
885.524	18574
885.65	18623
885.775	18585
885.9	18540
886.025	18707
886.15	18566
886.275	18563
886.4	18403
886.525	18490
886.65	18422
886.775	18517
886.9	18582
887.025	18738
887.149	18627
887.274	18289
887.399	18319
887.523	18391
887.648	18289
887.773	18270
887.897	18342
888.021	18369
888.146	18342
888.27	18361
888.395	18445
888.519	18285
888.643	18300
888.767	18277
888.891	18159
889.015	18148
889.139	18091
889.263	18155
889.387	18285
889.511	18251
889.635	18197
889.759	18057
889.883	17988
890.006	18083
890.13	18262
890.254	18003
890.377	18019
890.501	17916
890.624	17954
890.748	18034
890.871	17786
890.995	17779
891.118	17714
891.241	17615
891.364	17805
891.488	17893
891.611	17672
891.734	17802
891.857	17764
891.98	17836
892.103	17843
892.226	17779
892.349	17714
892.471	17512
892.594	17756
892.717	17657
892.839	17638
892.962	17695
893.085	17836
893.207	17714
893.33	17581
893.452	17718
893.575	17843
893.697	17600
893.819	17745
893.941	17885
894.064	17843
894.186	17630
894.308	17611
894.43	17779
894.552	17741
894.674	17843
894.796	17543
894.918	17657
895.04	17585
895.161	17828
895.283	17748
895.405	17634
895.526	17756
895.648	17649
895.769	17745
895.891	17638
896.012	17908
896.134	17817
896.255	17729
896.376	17707
896.498	17733
896.619	17828
896.74	17805
896.861	17828
896.982	18110
897.103	18262
897.224	18072
897.345	18110
897.466	17954
897.587	17996
897.708	18060
897.828	18053
897.949	17901
898.07	17863
898.19	18072
898.311	18117
898.431	17973
898.552	18038
898.672	17965
898.792	18015
898.913	17950
899.033	17851
899.153	17775
899.273	17737
899.393	17748
899.513	17741
899.633	17718
899.753	17809
899.873	17760
899.993	17748
900.113	17729
900.232	17767
900.352	17786
900.472	17638
900.591	17596
900.711	17672
900.83	17566
900.95	17767
901.069	17779
901.189	17509
901.308	17231
901.427	17212
901.546	17223
901.665	17197
901.784	17220
901.904	17022
902.023	16995
902.141	16892
902.26	16809
902.379	16854
902.498	16793
902.617	16713
902.735	16824
902.854	16630
902.973	16668
903.091	16455
903.21	16348
903.328	16432
903.446	16303
903.565	16234
903.683	16268
903.801	16192
903.919	16333
904.038	16150
904.156	16101
904.274	16173
904.392	16051
904.51	16006
904.627	16051
904.745	15953
904.863	16071
904.981	15915
905.098	15812
905.216	15739
905.334	15705
905.451	15701
905.569	15709
905.686	15686
905.803	15644
905.921	15466
906.038	15652
906.155	15530
906.272	15370
906.389	15340
906.506	15279
906.623	15214
906.74	15195
906.857	15055
906.974	15119
907.091	15283
907.208	15283
907.324	15389
907.441	15222
907.557	14921
907.674	14979
907.79	14998
907.907	14864
908.023	14975
908.139	14937
908.256	14868
908.372	14834
908.488	14842
908.604	14655
908.72	14644
908.836	14659
908.952	14533
909.068	14625
909.184	14758
909.3	14564
909.415	14689
909.531	14629
909.647	14442
909.762	14320
909.878	14358
909.993	14381
910.108	14317
910.224	14278
910.339	14412
910.454	14252
910.57	14195
910.685	14092
910.8	14412
910.915	14355
911.03	14275
911.145	13993
911.259	13993
911.374	13947
911.489	13883
911.604	13959
911.718	13742
911.833	13784
911.947	13624
912.062	13575
912.176	13685
912.291	13712
912.405	13765
912.519	13909
912.633	13909
912.748	13757
912.862	13666
912.976	13548
913.09	13476
913.204	13578
913.318	13544
913.431	13693
913.545	13681
913.659	13666
913.772	13559
913.886	13400
914	13373
914.113	13506
914.226	13480
914.34	13476
914.453	13339
914.566	13559
914.68	13327
914.793	13320
914.906	13206
915.019	13088
915.132	13088
915.245	13103
915.358	13133
915.47	13088
915.583	13190
915.696	13091
915.809	13183
915.921	13270
916.034	13027
916.146	13061
916.259	12981
916.371	13084
916.483	13053
916.595	12951
916.708	12993
916.82	12977
916.932	13023
917.044	12848
917.156	12909
917.268	12817
917.38	12875
917.491	12726
917.603	12768
917.715	12962
917.826	12867
917.938	12783
918.049	12635
918.161	12791
918.272	12913
918.384	12863
918.495	12875
918.606	12677
918.717	12574
918.828	12623
918.939	12696
919.05	12536
919.161	12673
919.272	12471
919.383	12467
919.494	12570
919.604	12787
919.715	12532
919.826	12433
919.936	12555
920.047	12589
920.157	12597
920.267	12749
920.378	12608
920.488	12544
920.598	12772
920.708	12852
920.818	12730
920.928	12734
921.038	12802
921.148	12814
921.258	12578
921.368	12429
921.477	12315
921.587	12350
921.697	12277
921.806	12388
921.916	12186
922.025	12072
922.134	12019
922.244	11920
922.353	12049
922.462	11927
922.571	11836
922.68	11718
922.789	11649
922.898	11646
923.007	11710
923.116	11722
923.224	11672
923.333	11688
923.442	11520
923.55	11532
923.659	11497
923.767	11585
923.876	11497
923.984	11551
924.092	11433
924.201	11528
924.309	11463
924.417	11493
924.525	11414
924.633	11379
924.741	12300
924.849	11231
924.956	11410
925.064	11277
925.172	11166
925.279	11143
925.387	11284
925.494	11132
925.602	11334
925.709	11368
925.816	11071
925.924	11178
926.031	11231
926.138	11185
926.245	11223
926.352	11075
926.459	11265
926.566	11315
926.673	11105
926.779	11003
926.886	10961
926.993	10835
927.099	10820
927.206	10729
927.312	10828
927.419	10850
927.525	10847
927.631	10896
927.737	10698
927.843	10725
927.95	10641
928.056	10675
928.162	10729
928.267	10729
928.373	11315
928.479	10793
928.585	10485
928.69	10615
928.796	10702
928.901	10603
929.007	10360
929.112	10531
929.218	10527
929.323	10508
929.428	10447
929.533	10481
929.638	10363
929.743	10459
929.848	10527
929.953	10272
930.058	10303
930.163	10078
930.267	10143
930.372	10329
930.477	10067
930.581	10318
930.685	10204
930.79	10044
930.894	10082
930.998	10074
931.103	10150
931.207	9781
931.311	9728
931.415	9618
931.519	9477
931.623	9428
