Data from test_V78500241_567.txt Node
Date: Fri Mar 25 14:37:40 CST 2022
User: usil
Spectrometer: V785-0024
Trigger mode: 0
Integration Time (sec): 4.000000E-1
Scans to average: 1
Nonlinearity correction enabled: false
Boxcar width: 0
Storing dark spectrum: false
XAxis mode: Wavelengths
Number of Pixels in Spectrum: 1024
>>>>>Begin Spectral Data<<<<<
801.071	27922
801.214	27808
801.356	27496
801.499	27283
801.641	27302
801.783	27302
801.926	27252
802.068	27062
802.211	26963
802.353	26906
802.496	26686
802.638	26716
802.78	26663
802.923	26636
803.065	26583
803.208	26495
803.35	26598
803.492	26769
803.635	26861
803.777	26533
803.919	26765
804.061	27013
804.204	26769
804.346	26651
804.488	26811
804.63	26735
804.773	26617
804.915	26940
805.057	26902
805.199	26842
805.341	27074
805.483	26967
805.626	27180
805.768	27180
805.91	27070
806.052	27100
806.194	27131
806.336	27511
806.478	27485
806.62	27420
806.762	27675
806.904	28032
807.046	28478
807.188	28569
807.33	28634
807.472	29162
807.614	29299
807.756	29980
807.898	30388
808.04	31202
808.182	32385
808.324	33698
808.465	35402
808.607	37137
808.749	38621
808.891	39622
809.033	39720
809.174	38446
809.316	37015
809.458	35071
809.6	33344
809.741	31978
809.883	31004
810.025	30232
810.166	29615
810.308	29216
810.45	28949
810.591	28630
810.733	28257
810.875	28090
811.016	27762
811.158	27892
811.299	27622
811.441	27766
811.582	27568
811.724	27435
811.865	27340
812.007	27530
812.148	27340
812.29	27302
812.431	27351
812.573	27427
812.714	27724
812.855	27652
812.997	27728
813.138	27876
813.279	27667
813.421	27534
813.562	27389
813.703	27302
813.845	27230
813.986	26769
814.127	26697
814.268	26533
814.41	26533
814.551	26617
814.692	26579
814.833	26278
814.974	26389
815.115	26389
815.256	26214
815.397	26317
815.539	26229
815.68	26161
815.821	26027
815.962	26172
816.103	26008
816.244	25814
816.385	25898
816.526	25841
816.666	25616
816.807	25540
816.948	25453
817.089	25441
817.23	25487
817.371	25453
817.512	25400
817.653	25297
817.793	25411
817.934	25392
818.075	25483
818.216	25472
818.356	25187
818.497	25122
818.638	25069
818.778	25103
818.919	25160
819.06	25050
819.2	25126
819.341	25251
819.481	25247
819.622	25510
819.762	25601
819.903	25529
820.043	25426
820.184	25476
820.324	25377
820.465	25396
820.605	25255
820.746	25445
820.886	25004
821.026	25308
821.167	25118
821.307	25122
821.447	25270
821.588	25164
821.728	24875
821.868	24612
822.008	24795
822.149	24623
822.289	24456
822.429	24319
822.569	24277
822.709	24220
822.849	24106
822.99	24068
823.13	24022
823.27	23961
823.41	23798
823.55	23809
823.69	23889
823.83	23870
823.97	23745
824.11	23528
824.25	23592
824.389	23558
824.529	23699
824.669	23512
824.809	23657
824.949	23676
825.089	23657
825.228	23478
825.368	23303
825.508	23315
825.648	23452
825.787	23421
825.927	23246
826.067	23242
826.206	23337
826.346	23364
826.485	23349
826.625	23284
826.765	23417
826.904	23410
827.044	23197
827.183	23041
827.323	23117
827.462	23071
827.601	23037
827.741	22919
827.88	23064
828.02	22812
828.159	23121
828.298	22862
828.437	22991
828.577	22908
828.716	23132
828.855	22801
828.994	22687
829.134	22641
829.273	22668
829.412	22630
829.551	22561
829.69	22744
829.829	22748
829.968	22752
830.107	22668
830.246	22797
830.385	22653
830.524	22535
830.663	22394
830.802	22299
830.941	22204
831.08	22150
831.219	22318
831.357	22329
831.496	22421
831.635	22253
831.774	22215
831.913	22139
832.051	22067
832.19	22109
832.329	22055
832.467	21987
832.606	22032
832.744	22006
832.883	22101
833.022	22090
833.16	22177
833.299	22299
833.437	22356
833.576	22276
833.714	22462
833.852	22523
833.991	22481
834.129	22691
834.267	22615
834.406	22660
834.544	22504
834.682	22344
834.821	22352
834.959	22478
835.097	22348
835.235	22284
835.373	22116
835.511	22070
835.65	21949
835.788	21857
835.926	21812
836.064	21709
836.202	21701
836.34	21854
836.478	21808
836.615	21736
836.753	21713
836.891	21759
837.029	21770
837.167	21610
837.305	21587
837.443	21629
837.58	21625
837.718	21652
837.856	21679
837.993	21447
838.131	21641
838.269	21336
838.406	21428
838.544	21393
838.681	21203
838.819	21283
838.956	21032
839.094	21100
839.231	21119
839.369	21119
839.506	21348
839.643	21195
839.781	21070
839.918	20975
840.055	20948
840.193	20891
840.33	20834
840.467	20967
840.604	20925
840.742	21222
840.879	20785
841.016	20826
841.153	20967
841.29	21100
841.427	20982
841.564	20990
841.701	20921
841.838	20750
841.975	20773
842.112	20883
842.249	20845
842.385	20659
842.522	20887
842.659	20762
842.796	20617
842.933	20636
843.069	20686
843.206	20663
843.343	20800
843.479	20743
843.616	20796
843.752	20598
843.889	20560
844.025	20678
844.162	20651
844.298	20727
844.435	20807
844.571	20724
844.708	20963
844.844	21302
844.98	21534
845.117	21865
845.253	22291
845.389	23223
845.525	24882
845.661	27865
845.798	31407
845.934	34238
846.07	35406
846.206	34831
846.342	32412
846.478	28923
846.614	25685
846.75	23493
846.886	22272
847.022	21667
847.158	21020
847.294	20804
847.429	20423
847.565	20336
847.701	20469
847.837	19970
847.972	19890
848.108	19974
848.244	19967
848.379	19696
848.515	19655
848.65	19578
848.786	19594
848.921	19594
849.057	19693
849.192	19708
849.328	19632
849.463	19521
849.598	19487
849.734	19491
849.869	19343
850.004	19308
850.14	19354
850.275	19266
850.41	19122
850.545	19217
850.68	19301
850.815	19240
850.95	19160
851.085	19327
851.22	19438
851.355	19110
851.49	19228
851.625	19228
851.76	19190
851.895	19114
852.03	19038
852.165	19266
852.299	19190
852.434	19228
852.569	19293
852.703	19209
852.838	19168
852.973	19430
853.107	19324
853.242	19126
853.376	19137
853.511	19107
853.645	19190
853.78	19255
853.914	19148
854.048	19126
854.183	19221
854.317	19297
854.451	19320
854.585	19183
854.72	19156
854.854	19244
854.988	19076
855.122	19194
855.256	19042
855.39	19137
855.524	19179
855.658	19160
855.792	19095
855.926	19110
856.06	19103
856.194	19148
856.327	19015
856.461	18920
856.595	18973
856.729	18932
856.862	19107
856.996	19042
857.13	19061
857.263	19156
857.397	19069
857.53	18993
857.664	19050
857.797	19072
857.931	19148
858.064	19061
858.197	19042
858.331	18951
858.464	18928
858.597	18821
858.731	18905
858.864	18871
858.997	19034
859.13	18924
859.263	19023
859.396	19023
859.529	18909
859.662	18772
859.795	18817
859.928	19019
860.061	19107
860.194	19053
860.327	18951
860.46	18901
860.592	18958
860.725	18981
860.858	19031
860.99	18795
861.123	18802
861.256	18875
861.388	18897
861.521	19571
861.653	18627
861.786	18559
861.918	18840
862.05	18856
862.183	18882
862.315	18924
862.447	19034
862.58	18875
862.712	18677
862.844	18582
862.976	18734
863.108	18669
863.24	18916
863.372	18620
863.504	18627
863.636	18589
863.768	18719
863.9	18661
864.032	18521
864.164	18532
864.296	18597
864.428	18627
864.559	18665
864.691	18620
864.823	18601
864.954	18646
865.086	18513
865.217	18506
865.349	18483
865.48	18566
865.612	18627
865.743	18612
865.875	18563
866.006	18486
866.137	18395
866.269	18536
866.4	18460
866.531	18475
866.662	18388
866.793	18445
866.924	18414
867.055	18551
867.186	18456
867.317	18426
867.448	18369
867.579	18433
867.71	18452
867.841	18289
867.972	18502
868.103	18513
868.233	18380
868.364	18429
868.495	18639
868.625	18677
868.756	18741
868.886	18650
869.017	18658
869.147	18825
869.278	18821
869.408	18753
869.539	18627
869.669	18840
869.799	18753
869.929	18821
870.06	18897
870.19	19084
870.32	19034
870.45	19114
870.58	19232
870.71	19225
870.84	19171
870.97	19160
871.1	19027
871.23	19285
871.36	19362
871.489	19168
871.619	19369
871.749	19419
871.879	19434
872.008	19441
872.138	19358
872.267	19430
872.397	19354
872.526	19152
872.656	19217
872.785	19346
872.915	19533
873.044	19480
873.173	19381
873.303	19613
873.432	19502
873.561	19552
873.69	19567
873.819	19567
873.948	19628
874.077	19605
874.206	19502
874.335	19605
874.464	19609
874.593	19860
874.722	19731
874.851	19913
874.979	20031
875.108	19944
875.237	19856
875.365	19750
875.494	19978
875.623	20073
875.751	19970
875.88	20088
876.008	20149
876.136	20404
876.265	20488
876.393	20739
876.521	20621
876.65	20697
876.778	20693
876.906	20598
877.034	20693
877.162	20678
877.29	20804
877.418	20762
877.546	20929
877.674	20906
877.802	20796
877.93	21039
878.058	21024
878.185	21119
878.313	21272
878.441	21511
878.568	21675
878.696	22067
878.824	22459
878.951	23064
879.079	23912
879.206	25023
879.333	26111
879.461	27043
879.588	27713
879.715	27694
879.842	27340
879.97	26187
880.097	24916
880.224	24178
880.351	23478
880.478	22930
880.605	22683
880.732	22382
880.859	22538
880.986	22238
881.112	22166
881.239	21998
881.366	21857
881.493	21819
881.619	21720
881.746	21728
881.872	21698
881.999	21720
882.125	21599
882.252	21865
882.378	21876
882.505	22025
882.631	21728
882.757	21705
882.883	21629
883.01	21583
883.136	21534
883.262	21439
883.388	21329
883.514	21557
883.64	21572
883.766	21572
883.892	21424
884.018	21523
884.143	21519
884.269	21656
884.395	21500
884.52	21207
884.646	21355
884.772	21203
884.897	21222
885.023	21306
885.148	21359
885.274	21412
885.399	21325
885.524	21116
885.65	21047
885.775	21096
885.9	20982
886.025	20834
886.15	20864
886.275	20594
886.4	20518
886.525	20609
886.65	20499
886.775	20412
886.9	20492
887.025	20579
887.149	20237
887.274	20039
887.399	20103
887.523	19970
887.648	19708
887.773	19734
887.897	19894
888.021	19803
888.146	19689
888.27	19814
888.395	19807
888.519	19734
888.643	19738
888.767	19818
888.891	19578
889.015	19373
889.139	19457
889.263	19453
889.387	19540
889.511	19491
889.635	19521
889.759	19354
889.883	19282
890.006	19282
890.13	19335
890.254	19095
890.377	19084
890.501	18958
890.624	19019
890.748	19004
890.871	18928
890.995	18738
891.118	18696
891.241	18719
891.364	18802
891.488	18791
891.611	18787
891.734	18604
891.857	18833
891.98	18563
892.103	18741
892.226	18646
892.349	18646
892.471	18418
892.594	18540
892.717	18517
892.839	18464
892.962	18509
893.085	18513
893.207	18464
893.33	18220
893.452	18346
893.575	18490
893.697	18369
893.819	18483
893.941	18536
894.064	18410
894.186	18357
894.308	18133
894.43	18388
894.552	18479
894.674	18350
894.796	18300
894.918	18296
895.04	18273
895.161	18235
895.283	18334
895.405	18201
895.526	18258
895.648	18228
895.769	18213
895.891	18251
896.012	18346
896.134	18311
896.255	18311
896.376	18197
896.498	18262
896.619	18403
896.74	18323
896.861	18357
896.982	18593
897.103	18738
897.224	18601
897.345	18566
897.466	18506
897.587	18380
897.708	18486
897.828	18601
897.949	18460
898.07	18273
898.19	18338
898.311	18437
898.431	18437
898.552	18410
898.672	18445
898.792	18616
898.913	18544
899.033	18357
899.153	18273
899.273	18155
899.393	18125
899.513	18186
899.633	18353
899.753	18148
899.873	18133
899.993	18235
900.113	18148
900.232	18228
900.352	18133
900.472	17965
900.591	17901
900.711	18098
900.83	18015
900.95	18079
901.069	18072
901.189	17889
901.308	17771
901.427	17710
901.546	17722
901.665	17600
901.784	17680
901.904	17391
902.023	17478
902.141	17292
902.26	17166
902.379	17121
902.498	17181
902.617	16976
902.735	17067
902.854	17048
902.973	17003
903.091	16812
903.21	16596
903.328	16805
903.446	16694
903.565	16668
903.683	16577
903.801	16535
903.919	16497
904.038	16462
904.156	16360
904.274	16428
904.392	16371
904.51	16188
904.627	16314
904.745	16352
904.863	16306
904.981	16032
905.098	15994
905.216	15934
905.334	15911
905.451	15945
905.569	15903
905.686	16010
905.803	15994
905.921	15778
906.038	15835
906.155	15781
906.272	15648
906.389	15724
906.506	15530
906.623	15507
906.74	15523
906.857	15363
906.974	15275
907.091	15485
907.208	15576
907.324	15454
907.441	15401
907.557	15302
907.674	15245
907.79	15032
907.907	15146
908.023	15199
908.139	15226
908.256	15081
908.372	15077
908.488	15009
908.604	14891
908.72	14826
908.836	15062
908.952	14883
909.068	14845
909.184	14952
909.3	14861
909.415	14963
909.531	14830
909.647	14629
909.762	14575
909.878	14575
909.993	14636
910.108	14560
910.224	14587
910.339	14552
910.454	14450
910.57	14434
910.685	14286
910.8	14632
910.915	14476
911.03	14476
911.145	14290
911.259	14214
911.374	14229
911.489	14202
911.604	14043
911.718	14024
911.833	14001
911.947	13826
912.062	13757
912.176	13944
912.291	13925
912.405	13902
912.519	14145
912.633	14077
912.748	13959
912.862	13947
912.976	13811
913.09	13658
913.204	13704
913.318	13841
913.431	13864
913.545	13818
913.659	13944
913.772	13845
913.886	13712
914	13616
914.113	13784
914.226	13791
914.34	13746
914.453	13597
914.566	13681
914.68	13544
914.793	13559
914.906	13365
915.019	13259
915.132	13198
915.245	13278
915.358	13343
915.47	13354
915.583	13331
915.696	13343
915.809	13381
915.921	13525
916.034	13266
916.146	13304
916.259	13213
916.371	13411
916.483	13343
916.595	13240
916.708	13206
916.82	13225
916.932	13133
917.044	13209
917.156	13080
917.268	12973
917.38	13050
917.491	13103
917.603	13149
917.715	13168
917.826	13072
917.938	12928
918.049	12939
918.161	12935
918.272	13179
918.384	13160
918.495	13000
918.606	12886
918.717	12741
918.828	12787
918.939	12856
919.05	12715
919.161	12749
919.272	12559
919.383	12566
919.494	12817
919.604	13038
919.715	12684
919.826	12703
919.936	12810
920.047	12753
920.157	12798
920.267	12882
920.378	12772
920.488	12711
920.598	12962
920.708	13065
920.818	12901
920.928	12878
921.038	13050
921.148	12993
921.258	12753
921.368	12555
921.477	12528
921.587	12506
921.697	12448
921.806	12563
921.916	12380
922.025	12304
922.134	12171
922.244	12159
922.353	12285
922.462	12034
922.571	12091
922.68	11912
922.789	11802
922.898	11878
923.007	11802
923.116	11870
923.224	11798
923.333	11851
923.442	11722
923.55	11653
923.659	11718
923.767	11802
923.876	11665
923.984	11726
924.092	11570
924.201	11638
924.309	11589
924.417	11649
924.525	11589
924.633	11604
924.741	12289
924.849	11364
924.956	11566
925.064	11398
925.172	11318
925.279	11345
925.387	11356
925.494	11356
925.602	11444
925.709	11440
925.816	11277
925.924	11349
926.031	11372
926.138	11345
926.245	11364
926.352	11220
926.459	11395
926.566	11474
926.673	11284
926.779	11193
926.886	11147
926.993	10987
927.099	10999
927.206	10949
927.312	10942
927.419	10991
927.525	10934
927.631	10984
927.737	10915
927.843	10801
927.95	10759
928.056	10786
928.162	10850
928.267	10919
928.373	11429
928.479	10835
928.585	10748
928.69	10805
928.796	10820
928.901	10733
929.007	10554
929.112	10755
929.218	10622
929.323	10584
929.428	10500
929.533	10725
929.638	10531
929.743	10531
929.848	10599
929.953	10542
930.058	10523
930.163	10348
930.267	10318
930.372	10459
930.477	10242
930.581	10504
930.685	10409
930.79	10238
930.894	10227
930.998	10257
931.103	10356
931.207	9975
931.311	9975
931.415	9842
931.519	9595
931.623	9698
