Data from test_V78500241_211.txt Node
Date: Fri Mar 25 14:35:11 CST 2022
User: usil
Spectrometer: V785-0024
Trigger mode: 0
Integration Time (sec): 4.000000E-1
Scans to average: 1
Nonlinearity correction enabled: false
Boxcar width: 0
Storing dark spectrum: false
XAxis mode: Wavelengths
Number of Pixels in Spectrum: 1024
>>>>>Begin Spectral Data<<<<<
801.071	27994
801.214	27914
801.356	27523
801.499	27603
801.641	27382
801.783	27424
801.926	27477
802.068	27382
802.211	27260
802.353	27127
802.496	27017
802.638	26994
802.78	26864
802.923	26712
803.065	26823
803.208	26773
803.35	26815
803.492	27001
803.635	27047
803.777	26861
803.919	27074
804.061	27302
804.204	26921
804.346	26910
804.488	26819
804.63	26838
804.773	26648
804.915	26838
805.057	26925
805.199	26670
805.341	26914
805.483	27032
805.626	26891
805.768	26876
805.91	26906
806.052	26880
806.194	26853
806.336	27188
806.478	26960
806.62	26971
806.762	27154
806.904	27062
807.046	27439
807.188	27454
807.33	27401
807.472	27416
807.614	27306
807.756	27412
807.898	27192
808.04	27233
808.182	27310
808.324	27462
808.465	27458
808.607	27759
808.749	27930
808.891	28093
809.033	28158
809.174	28097
809.316	27987
809.458	27816
809.6	27629
809.741	27755
809.883	27663
810.025	27892
810.166	27751
810.308	27671
810.45	27686
810.591	27606
810.733	27435
810.875	27397
811.016	27218
811.158	27298
811.299	27325
811.441	27408
811.582	27397
811.724	27226
811.865	27367
812.007	27188
812.148	27348
812.29	27374
812.431	27519
812.573	27568
812.714	27599
812.855	27686
812.997	27899
813.138	27884
813.279	27861
813.421	27808
813.562	27667
813.703	27485
813.845	27374
813.986	27093
814.127	26861
814.268	26952
814.41	26960
814.551	26769
814.692	26838
814.833	26765
814.974	26811
815.115	26906
815.256	26568
815.397	26758
815.539	26522
815.68	26632
815.821	26419
815.962	26621
816.103	26495
816.244	26358
816.385	26164
816.526	26237
816.666	26020
816.807	25986
816.948	25963
817.089	26153
817.23	26084
817.371	26043
817.512	25982
817.653	25871
817.793	25856
817.934	25928
818.075	25986
818.216	25913
818.356	25925
818.497	25696
818.638	25624
818.778	25670
818.919	25635
819.06	25750
819.2	25803
819.341	25750
819.481	25833
819.622	25909
819.762	26138
819.903	26050
820.043	25932
820.184	25959
820.324	25772
820.465	25883
820.605	25826
820.746	25928
820.886	25635
821.026	25761
821.167	25830
821.307	25837
821.447	25841
821.588	25788
821.728	25537
821.868	25396
822.008	25236
822.149	25282
822.289	25259
822.429	24894
822.569	24848
822.709	24901
822.849	24703
822.99	24776
823.13	24745
823.27	24623
823.41	24460
823.55	24483
823.69	24654
823.83	24498
823.97	24380
824.11	24330
824.25	24285
824.389	24182
824.529	24388
824.669	24285
824.809	24426
824.949	24350
825.089	24448
825.228	24361
825.368	24003
825.508	24277
825.648	24072
825.787	24277
825.927	24194
826.067	23950
826.206	23973
826.346	24148
826.485	24205
826.625	23996
826.765	24148
826.904	23931
827.044	23870
827.183	23889
827.323	23649
827.462	23790
827.601	23805
827.741	23661
827.88	23699
828.02	23604
828.159	23653
828.298	23809
828.437	23786
828.577	23726
828.716	23847
828.855	23585
828.994	23387
829.134	23482
829.273	23486
829.412	23410
829.551	23269
829.69	23429
829.829	23501
829.968	23391
830.107	23425
830.246	23303
830.385	23463
830.524	23387
830.663	23250
830.802	23071
830.941	23033
831.08	22968
831.219	23060
831.357	22987
831.496	23189
831.635	22881
831.774	22748
831.913	22869
832.051	22729
832.19	22740
832.329	22748
832.467	22626
832.606	22634
832.744	22637
832.883	22599
833.022	22588
833.16	22660
833.299	22713
833.437	22603
833.576	22626
833.714	22675
833.852	22634
833.991	22748
834.129	22656
834.267	22630
834.406	22744
834.544	22679
834.682	22702
834.821	22497
834.959	22828
835.097	22432
835.235	22641
835.373	22660
835.511	22615
835.65	22451
835.788	22451
835.926	22257
836.064	22112
836.202	22352
836.34	22474
836.478	22504
836.615	22318
836.753	22470
836.891	22363
837.029	22466
837.167	22382
837.305	22276
837.443	22223
837.58	22169
837.718	22367
837.856	22276
837.993	22303
838.131	22162
838.269	22166
838.406	22253
838.544	22105
838.681	21895
838.819	21739
838.956	21682
839.094	21736
839.231	21797
839.369	21846
839.506	22032
839.643	21926
839.781	21701
839.918	21538
840.055	21724
840.193	21705
840.33	21473
840.467	21637
840.604	21534
840.742	21827
840.879	21428
841.016	21500
841.153	21511
841.29	21545
841.427	21504
841.564	21553
841.701	21603
841.838	21519
841.975	21332
842.112	21348
842.249	21439
842.385	21348
842.522	21466
842.659	21359
842.796	21291
842.933	21302
843.069	21146
843.206	21241
843.343	21367
843.479	21382
843.616	21325
843.752	21135
843.889	21108
844.025	21165
844.162	20975
844.298	21077
844.435	21074
844.571	20990
844.708	21077
844.844	21230
844.98	21169
845.117	21180
845.253	21001
845.389	21055
845.525	21108
845.661	21344
845.798	21488
845.934	21519
846.07	21504
846.206	21542
846.342	21492
846.478	21199
846.614	20826
846.75	20674
846.886	20670
847.022	20617
847.158	20549
847.294	20518
847.429	20507
847.565	20522
847.701	20663
847.837	20183
847.972	20267
848.108	20275
848.244	20305
848.379	20096
848.515	20046
848.65	20096
848.786	20100
848.921	20069
849.057	20096
849.192	20115
849.328	20050
849.463	20050
849.598	19944
849.734	19993
849.869	19902
850.004	19704
850.14	19826
850.275	19757
850.41	19753
850.545	19776
850.68	19776
850.815	19757
850.95	19776
851.085	19845
851.22	19887
851.355	19826
851.49	19742
851.625	19708
851.76	19620
851.895	19708
852.03	19643
852.165	19761
852.299	19818
852.434	19913
852.569	19887
852.703	19757
852.838	19841
852.973	19947
853.107	19852
853.242	19689
853.376	19544
853.511	19468
853.645	19556
853.78	19643
853.914	19666
854.048	19563
854.183	19571
854.317	19601
854.451	19704
854.585	19464
854.72	19601
854.854	19609
854.988	19480
855.122	19506
855.256	19457
855.39	19521
855.524	19639
855.658	19677
855.792	19616
855.926	19571
856.06	19499
856.194	19655
856.327	19483
856.461	19453
856.595	19487
856.729	19419
856.862	19586
856.996	19476
857.13	19529
857.263	19761
857.397	19734
857.53	19506
857.664	19537
857.797	19544
857.931	19681
858.064	19430
858.197	19685
858.331	19487
858.464	19502
858.597	19400
858.731	19457
858.864	19464
858.997	19422
859.13	19487
859.263	19510
859.396	19590
859.529	19441
859.662	19468
859.795	19453
859.928	19540
860.061	19518
860.194	19742
860.327	19403
860.46	19381
860.592	19575
860.725	19559
860.858	19582
860.99	19407
861.123	19365
861.256	19282
861.388	19449
861.521	20024
861.653	19335
861.786	19285
861.918	19278
862.05	19415
862.183	19430
862.315	19556
862.447	19765
862.58	19434
862.712	19327
862.844	19091
862.976	19278
863.108	19266
863.24	19655
863.372	19225
863.504	19164
863.636	19114
863.768	19293
863.9	19160
864.032	19118
864.164	19160
864.296	19206
864.428	19270
864.559	19289
864.691	19228
864.823	19297
864.954	19209
865.086	19183
865.217	19168
865.349	19057
865.48	19148
865.612	19114
865.743	19247
865.875	19152
866.006	19095
866.137	19137
866.269	18996
866.4	19091
866.531	19031
866.662	19027
866.793	19031
866.924	19019
867.055	19076
867.186	18981
867.317	19012
867.448	19069
867.579	18966
867.71	18996
867.841	19057
867.972	19141
868.103	19088
868.233	19034
868.364	19034
868.495	19206
868.625	19316
868.756	19320
868.886	19187
869.017	19274
869.147	19324
869.278	19358
869.408	19316
869.539	19320
869.669	19308
869.799	19244
869.929	19400
870.06	19304
870.19	19430
870.32	19537
870.45	19693
870.58	19689
870.71	19841
870.84	19723
870.97	19685
871.1	19651
871.23	19852
871.36	19772
871.489	19712
871.619	19868
871.749	19967
871.879	19822
872.008	19940
872.138	19967
872.267	19883
872.397	19727
872.526	19704
872.656	19712
872.785	19742
872.915	19940
873.044	19913
873.173	19856
873.303	19925
873.432	20065
873.561	19993
873.69	19955
873.819	19826
873.948	19959
874.077	19963
874.206	19860
874.335	19955
874.464	20054
874.593	20157
874.722	20081
874.851	20096
874.979	20187
875.108	20290
875.237	20130
875.365	20107
875.494	20115
875.623	20252
875.751	20153
875.88	20229
876.008	20317
876.136	20267
876.265	20602
876.393	20693
876.521	20556
876.65	20564
876.778	20629
876.906	20431
877.034	20484
877.162	20629
877.29	20541
877.418	20476
877.546	20568
877.674	20454
877.802	20514
877.93	20499
878.058	20492
878.185	20613
878.313	20484
878.441	20613
878.568	20488
878.696	20556
878.824	20663
878.951	20731
879.079	20773
879.206	21127
879.333	21047
879.461	20743
879.588	21017
879.715	20990
879.842	21192
879.97	20941
880.097	20613
880.224	20636
880.351	20636
880.478	20575
880.605	20408
880.732	20575
880.859	20682
880.986	20549
881.112	20655
881.239	20355
881.366	20298
881.493	20081
881.619	20126
881.746	19963
881.872	20096
881.999	20058
882.125	19974
882.252	20161
882.378	20172
882.505	20225
882.631	19970
882.757	19928
882.883	19871
883.01	19833
883.136	19712
883.262	19708
883.388	19628
883.514	19955
883.64	19871
883.766	19734
883.892	19635
884.018	19597
884.143	19807
884.269	19936
884.395	19616
884.52	19582
884.646	19533
884.772	19388
884.897	19453
885.023	19552
885.148	19639
885.274	19655
885.399	19529
885.524	19491
885.65	19464
885.775	19567
885.9	19400
886.025	19681
886.15	19514
886.275	19476
886.4	19285
886.525	19362
886.65	19327
886.775	19422
886.9	19464
887.025	19601
887.149	19392
887.274	19213
887.399	19198
887.523	19103
887.648	19129
887.773	19099
887.897	19236
888.021	19179
888.146	19137
888.27	19320
888.395	19358
888.519	19168
888.643	19308
888.767	19175
888.891	18989
889.015	18951
889.139	18962
889.263	19031
889.387	18958
889.511	19168
889.635	19160
889.759	18989
889.883	18951
890.006	18970
890.13	18985
890.254	18924
890.377	18943
890.501	18772
890.624	18620
890.748	18757
890.871	18696
890.995	18631
891.118	18429
891.241	18547
891.364	18536
891.488	18669
891.611	18642
891.734	18623
891.857	18616
891.98	18475
892.103	18589
892.226	18540
892.349	18547
892.471	18433
892.594	18414
892.717	18437
892.839	18460
892.962	18498
893.085	18547
893.207	18437
893.33	18498
893.452	18407
893.575	18471
893.697	18429
893.819	18627
893.941	18555
894.064	18627
894.186	18475
894.308	18361
894.43	18551
894.552	18528
894.674	18582
894.796	18372
894.918	18407
895.04	18456
895.161	18517
895.283	18616
895.405	18376
895.526	18479
895.648	18570
895.769	18471
895.891	18692
896.012	18566
896.134	18570
896.255	18559
896.376	18464
896.498	18585
896.619	18593
896.74	18536
896.861	18639
896.982	18905
897.103	19095
897.224	18894
897.345	18757
897.466	18707
897.587	18658
897.708	18958
897.828	18837
897.949	18764
898.07	18692
898.19	18711
898.311	18798
898.431	18692
898.552	18916
898.672	18783
898.792	18875
898.913	18894
899.033	18753
899.153	18506
899.273	18437
899.393	18563
899.513	18696
899.633	18536
899.753	18475
899.873	18475
899.993	18639
900.113	18532
900.232	18563
900.352	18517
900.472	18414
900.591	18209
900.711	18376
900.83	18350
900.95	18486
901.069	18525
901.189	18338
901.308	18045
901.427	18064
901.546	17973
901.665	18106
901.784	18022
901.904	17847
902.023	17767
902.141	17638
902.26	17471
902.379	17653
902.498	17493
902.617	17535
902.735	17627
902.854	17543
902.973	17292
903.091	17124
903.21	17124
903.328	17094
903.446	17018
903.565	16942
903.683	16839
903.801	16820
903.919	16911
904.038	16900
904.156	16824
904.274	16774
904.392	16763
904.51	16664
904.627	16721
904.745	16710
904.863	16755
904.981	16561
905.098	16421
905.216	16352
905.334	16413
905.451	16367
905.569	16360
905.686	16284
905.803	16432
905.921	16116
906.038	16204
906.155	16188
906.272	16063
906.389	16112
906.506	15998
906.623	15884
906.74	15895
906.857	15774
906.974	15892
907.091	15937
907.208	16002
907.324	15903
907.441	15812
907.557	15618
907.674	15538
907.79	15572
907.907	15614
908.023	15652
908.139	15652
908.256	15450
908.372	15466
908.488	15492
908.604	15336
908.72	15332
908.836	15340
908.952	15302
909.068	15344
909.184	15332
909.3	15298
909.415	15329
909.531	15161
909.647	14918
909.762	14929
909.878	15009
909.993	14982
910.108	14887
910.224	14891
910.339	15055
910.454	14933
910.57	14906
910.685	14796
910.8	15020
910.915	14921
911.03	14762
911.145	14735
911.259	14533
911.374	14568
911.489	14480
911.604	14480
911.718	14351
911.833	14389
911.947	14294
912.062	14180
912.176	14427
912.291	14423
912.405	14328
912.519	14518
912.633	14499
912.748	14370
912.862	14298
912.976	14233
913.09	13928
913.204	14164
913.318	14294
913.431	14168
913.545	14313
913.659	14229
913.772	14058
913.886	13951
914	14035
914.113	14084
914.226	14065
914.34	14088
914.453	13974
914.566	14073
914.68	13955
914.793	13883
914.906	13738
915.019	13651
915.132	13666
915.245	13647
915.358	13651
915.47	13670
915.583	13655
915.696	13693
915.809	13750
915.921	13784
916.034	13529
916.146	13620
916.259	13518
916.371	13563
916.483	13681
916.595	13571
916.708	13510
916.82	13514
916.932	13441
917.044	13434
917.156	13491
917.268	13392
917.38	13384
917.491	13415
917.603	13301
917.715	13472
917.826	13460
917.938	13312
918.049	13232
918.161	13335
918.272	13453
918.384	13331
918.495	13365
918.606	13202
918.717	13133
918.828	13171
918.939	13232
919.05	13038
919.161	13156
919.272	12871
919.383	12996
919.494	13175
919.604	13331
919.715	13107
919.826	13019
919.936	13031
920.047	13187
920.157	13145
920.267	13308
920.378	13065
920.488	13027
920.598	13358
920.708	13453
920.818	13129
920.928	13118
921.038	13373
921.148	13339
921.258	13129
921.368	12970
921.477	12768
921.587	12837
921.697	12734
921.806	12757
921.916	12772
922.025	12540
922.134	12509
922.244	12460
922.353	12566
922.462	12399
922.571	12346
922.68	12201
922.789	12083
922.898	12163
923.007	12129
923.116	12232
923.224	12155
923.333	12098
923.442	11988
923.55	12064
923.659	12011
923.767	12057
923.876	11927
923.984	12091
924.092	11946
924.201	11969
924.309	11901
924.417	11980
924.525	11790
924.633	11954
924.741	12878
924.849	11741
924.956	11832
925.064	11695
925.172	11619
925.279	11710
925.387	11649
925.494	11577
925.602	11836
925.709	11699
925.816	11554
925.924	11649
926.031	11767
926.138	11600
926.245	11764
926.352	11497
926.459	11642
926.566	11672
926.673	11554
926.779	11459
926.886	11433
926.993	11273
927.099	11220
927.206	11216
927.312	11315
927.419	11292
927.525	11250
927.631	11265
927.737	11181
927.843	11064
927.95	11037
928.056	11178
928.162	11140
928.267	11162
928.373	11695
928.479	11189
928.585	10904
928.69	11033
928.796	11102
928.901	11018
929.007	10858
929.112	10976
929.218	10968
929.323	10904
929.428	10889
929.533	10995
929.638	10892
929.743	10812
929.848	10896
929.953	10793
930.058	10710
930.163	10573
930.267	10489
930.372	10691
930.477	10497
930.581	10710
930.685	10683
930.79	10402
930.894	10565
930.998	10417
931.103	10489
931.207	10246
931.311	10234
931.415	10109
931.519	9884
931.623	9884
