Data from test_V78500241_3618.txt Node
Date: Fri Mar 25 14:58:54 CST 2022
User: usil
Spectrometer: V785-0024
Trigger mode: 0
Integration Time (sec): 4.000000E-1
Scans to average: 1
Nonlinearity correction enabled: false
Boxcar width: 0
Storing dark spectrum: false
XAxis mode: Wavelengths
Number of Pixels in Spectrum: 1024
>>>>>Begin Spectral Data<<<<<
801.071	22002
801.214	21873
801.356	21587
801.499	21519
801.641	21321
801.783	21214
801.926	21291
802.068	21294
802.211	20971
802.353	21127
802.496	20899
802.638	20830
802.78	20792
802.923	20644
803.065	20674
803.208	20503
803.35	20602
803.492	20644
803.635	20670
803.777	20655
803.919	20667
804.061	21089
804.204	20640
804.346	20514
804.488	20408
804.63	20636
804.773	20415
804.915	20495
805.057	20545
805.199	20457
805.341	20655
805.483	20560
805.626	20575
805.768	20549
805.91	20602
806.052	20556
806.194	20434
806.336	20712
806.478	20461
806.62	20488
806.762	20682
806.904	20724
807.046	20781
807.188	20849
807.33	20769
807.472	20868
807.614	20815
807.756	20830
807.898	20667
808.04	20514
808.182	20484
808.324	20648
808.465	20590
808.607	20750
808.749	20861
808.891	20910
809.033	20998
809.174	20944
809.316	20804
809.458	20823
809.6	20727
809.741	20872
809.883	20887
810.025	20952
810.166	20979
810.308	21020
810.45	20914
810.591	20883
810.733	20754
810.875	20746
811.016	20522
811.158	20636
811.299	20659
811.441	20693
811.582	20689
811.724	20598
811.865	20522
812.007	20655
812.148	20526
812.29	20712
812.431	20743
812.573	21032
812.714	21055
812.855	21268
812.997	21157
813.138	21378
813.279	21260
813.421	21173
813.562	21017
813.703	20956
813.845	20651
813.986	20381
814.127	20408
814.268	20275
814.41	20290
814.551	20259
814.692	20256
814.833	20130
814.974	20100
815.115	20157
815.256	20050
815.397	19989
815.539	20054
815.68	19765
815.821	19769
815.962	19932
816.103	19761
816.244	19734
816.385	19563
816.526	19605
816.666	19388
816.807	19297
816.948	19373
817.089	19403
817.23	19396
817.371	19278
817.512	19362
817.653	19327
817.793	19221
817.934	19308
818.075	19362
818.216	19187
818.356	19247
818.497	19088
818.638	19000
818.778	19012
818.919	18977
819.06	18996
819.2	19061
819.341	19168
819.481	19156
819.622	19278
819.762	19502
819.903	19434
820.043	19263
820.184	19206
820.324	19308
820.465	19438
820.605	19266
820.746	19266
820.886	19084
821.026	19301
821.167	19160
821.307	19247
821.447	19190
821.588	19107
821.728	19004
821.868	18821
822.008	18719
822.149	18684
822.289	18703
822.429	18437
822.569	18418
822.709	18410
822.849	18194
822.99	18129
823.13	18163
823.27	18102
823.41	17969
823.55	17878
823.69	18041
823.83	17927
823.97	17859
824.11	17684
824.25	17786
824.389	17722
824.529	17996
824.669	17748
824.809	17748
824.949	17828
825.089	17794
825.228	17802
825.368	17619
825.508	17543
825.648	17642
825.787	17680
825.927	17619
826.067	17554
826.206	17562
826.346	17596
826.485	17558
826.625	17543
826.765	17646
826.904	17577
827.044	17280
827.183	17280
827.323	17162
827.462	17360
827.601	17246
827.741	17200
827.88	17254
828.02	17197
828.159	17284
828.298	17356
828.437	17379
828.577	17273
828.716	17414
828.855	17239
828.994	17071
829.134	17041
829.273	17147
829.412	16911
829.551	16938
829.69	16942
829.829	17052
829.968	17086
830.107	17098
830.246	17033
830.385	16927
830.524	16908
830.663	16797
830.802	16706
830.941	16656
831.08	16615
831.219	16622
831.357	16786
831.496	16881
831.635	16626
831.774	16497
831.913	16573
832.051	16493
832.19	16497
832.329	16440
832.467	16363
832.606	16234
832.744	16276
832.883	16253
833.022	16363
833.16	16356
833.299	16390
833.437	16363
833.576	16337
833.714	16337
833.852	16344
833.991	16352
834.129	16394
834.267	16428
834.406	16382
834.544	16493
834.682	16367
834.821	16451
834.959	16523
835.097	16405
835.235	16413
835.373	16329
835.511	16352
835.65	16253
835.788	16318
835.926	16139
836.064	16173
836.202	16112
836.34	16287
836.478	16344
836.615	16272
836.753	16318
836.891	16360
837.029	16333
837.167	16249
837.305	16196
837.443	16188
837.58	16128
837.718	16295
837.856	16242
837.993	16154
838.131	16139
838.269	16150
838.406	16120
838.544	15998
838.681	15876
838.819	15930
838.956	15656
839.094	15785
839.231	15804
839.369	15937
839.506	16090
839.643	16021
839.781	15774
839.918	15857
840.055	15800
840.193	15778
840.33	15709
840.467	15785
840.604	15724
840.742	16010
840.879	15629
841.016	15701
841.153	15709
841.29	15857
841.427	15789
841.564	15698
841.701	15778
841.838	15648
841.975	15618
842.112	15622
842.249	15538
842.385	15504
842.522	15751
842.659	15534
842.796	15504
842.933	15473
843.069	15519
843.206	15469
843.343	15538
843.479	15561
843.616	15538
843.752	15462
843.889	15306
844.025	15462
844.162	15237
844.298	15416
844.435	15378
844.571	15367
844.708	15382
844.844	15424
844.98	15511
845.117	15393
845.253	15260
845.389	15104
845.525	15230
845.661	15218
845.798	15032
845.934	15070
846.07	15127
846.206	15146
846.342	15256
846.478	15036
846.614	14868
846.75	14842
846.886	14868
847.022	14937
847.158	14948
847.294	14979
847.429	14887
847.565	15013
847.701	15138
847.837	14568
847.972	14617
848.108	14746
848.244	14769
848.379	14587
848.515	14465
848.65	14495
848.786	14484
848.921	14442
849.057	14568
849.192	14606
849.328	14522
849.463	14492
849.598	14507
849.734	14400
849.869	14473
850.004	14286
850.14	14294
850.275	14267
850.41	14119
850.545	14221
850.68	14084
850.815	14336
850.95	14218
851.085	14499
851.22	14351
851.355	14191
851.49	14164
851.625	14183
851.76	14210
851.895	14107
852.03	14202
852.165	14263
852.299	14324
852.434	14324
852.569	14267
852.703	14294
852.838	14309
852.973	14400
853.107	14362
853.242	14214
853.376	14138
853.511	14054
853.645	14100
853.78	14195
853.914	14145
854.048	14138
854.183	14069
854.317	14126
854.451	14221
854.585	14119
854.72	14123
854.854	14134
854.988	14016
855.122	14168
855.256	14027
855.39	14115
855.524	14237
855.658	14157
855.792	14142
855.926	14176
856.06	14134
856.194	14202
856.327	14138
856.461	14046
856.595	14031
856.729	14092
856.862	14218
856.996	14183
857.13	14157
857.263	14149
857.397	14282
857.53	14035
857.664	14126
857.797	14172
857.931	14195
858.064	14134
858.197	14301
858.331	14123
858.464	14008
858.597	14077
858.731	14024
858.864	14077
858.997	14016
859.13	14096
859.263	14157
859.396	14263
859.529	14058
859.662	14073
859.795	13963
859.928	14157
860.061	14305
860.194	14324
860.327	14199
860.46	14073
860.592	14301
860.725	14225
860.858	14332
860.99	14107
861.123	14024
861.256	14058
861.388	14126
861.521	14948
861.653	14024
861.786	13963
861.918	13944
862.05	13955
862.183	14081
862.315	14157
862.447	14062
862.58	14024
862.712	13868
862.844	13860
862.976	13906
863.108	13982
863.24	14252
863.372	13852
863.504	13864
863.636	13955
863.768	14027
863.9	13917
864.032	13879
864.164	13822
864.296	13925
864.428	14058
864.559	14005
864.691	14020
864.823	13868
864.954	13959
865.086	13993
865.217	13909
865.349	13852
865.48	13940
865.612	13909
865.743	14012
865.875	13898
866.006	13925
866.137	13864
866.269	13959
866.4	13875
866.531	13837
866.662	13849
866.793	13791
866.924	13887
867.055	13936
867.186	13868
867.317	13795
867.448	13772
867.579	13974
867.71	13761
867.841	13791
867.972	13864
868.103	13963
868.233	14001
868.364	13822
868.495	13970
868.625	14145
868.756	14221
868.886	14016
869.017	14039
869.147	14187
869.278	14233
869.408	14180
869.539	14111
869.669	14233
869.799	14149
869.929	14256
870.06	14259
870.19	14518
870.32	14450
870.45	14454
870.58	14492
870.71	14590
870.84	14602
870.97	14583
871.1	14579
871.23	14708
871.36	14758
871.489	14606
871.619	14724
871.749	14823
871.879	14765
872.008	14834
872.138	14731
872.267	14788
872.397	14568
872.526	14556
872.656	14484
872.785	14613
872.915	14678
873.044	14807
873.173	14811
873.303	14781
873.432	14792
873.561	14845
873.69	14785
873.819	14815
873.948	14914
874.077	14781
874.206	14769
874.335	14819
874.464	14994
874.593	15085
874.722	15051
874.851	15123
874.979	15119
875.108	15218
875.237	15077
875.365	15001
875.494	15020
875.623	15222
875.751	15047
875.88	15184
876.008	15310
876.136	15291
876.265	15447
876.393	15576
876.521	15663
876.65	15599
876.778	15519
876.906	15557
877.034	15416
877.162	15485
877.29	15435
877.418	15542
877.546	15496
877.674	15469
877.802	15553
877.93	15492
878.058	15405
878.185	15412
878.313	15500
878.441	15603
878.568	15313
878.696	15507
878.824	15576
878.951	15614
879.079	15743
879.206	15800
879.333	15660
879.461	15675
879.588	15663
879.715	15686
879.842	15736
879.97	15652
880.097	15302
880.224	15332
880.351	15382
880.478	15332
880.605	15386
880.732	15348
880.859	15622
880.986	15374
881.112	15496
881.239	15306
881.366	15097
881.493	15066
881.619	15093
881.746	15043
881.872	15112
881.999	14982
882.125	14963
882.252	15077
882.378	15043
882.505	15157
882.631	14990
882.757	14830
882.883	14792
883.01	15005
883.136	14777
883.262	14670
883.388	14796
883.514	14868
883.64	14895
883.766	14739
883.892	14583
884.018	14659
884.143	14819
884.269	15047
884.395	14568
884.52	14594
884.646	14541
884.772	14499
884.897	14423
885.023	14640
885.148	14629
885.274	14754
885.399	14743
885.524	14571
885.65	14514
885.775	14632
885.9	14613
886.025	14720
886.15	14606
886.275	14518
886.4	14381
886.525	14495
886.65	14454
886.775	14438
886.9	14625
887.025	14720
887.149	14617
887.274	14408
887.399	14404
887.523	14362
887.648	14362
887.773	14313
887.897	14454
888.021	14488
888.146	14347
888.27	14450
888.395	14499
888.519	14457
888.643	14454
888.767	14415
888.891	14484
889.015	14202
889.139	14259
889.263	14301
889.387	14374
889.511	14511
889.635	14320
889.759	14290
889.883	14305
890.006	14301
890.13	14317
890.254	14210
890.377	14183
890.501	14149
890.624	13959
890.748	14134
890.871	14077
890.995	13841
891.118	13833
891.241	13909
891.364	14012
891.488	14043
891.611	13898
891.734	14008
891.857	13997
891.98	13902
892.103	13959
892.226	13947
892.349	14001
892.471	13803
892.594	13963
892.717	13982
892.839	13963
892.962	13978
893.085	14024
893.207	13909
893.33	13772
893.452	13902
893.575	14043
893.697	13986
893.819	14084
893.941	14191
894.064	14107
894.186	13963
894.308	13970
894.43	14103
894.552	14145
894.674	14073
894.796	13890
894.918	14084
895.04	14031
895.161	14073
895.283	14035
895.405	13970
895.526	14096
895.648	14069
895.769	14138
895.891	14191
896.012	14153
896.134	14081
896.255	14126
896.376	14100
896.498	14123
896.619	14191
896.74	14077
896.861	14161
896.982	14518
897.103	14606
897.224	14438
897.345	14347
897.466	14358
897.587	14374
897.708	14358
897.828	14263
897.949	14305
898.07	14225
898.19	14328
898.311	14560
898.431	14480
898.552	14476
898.672	14499
898.792	14598
898.913	14583
899.033	14412
899.153	14282
899.273	14313
899.393	14393
899.513	14400
899.633	14355
899.753	14419
899.873	14282
899.993	14393
900.113	14336
900.232	14381
900.352	14298
900.472	14332
900.591	14164
900.711	14229
900.83	14092
900.95	14290
901.069	14313
901.189	14111
901.308	13947
901.427	13856
901.546	13970
901.665	13795
901.784	13928
901.904	13818
902.023	13666
902.141	13457
902.26	13464
902.379	13563
902.498	13415
902.617	13422
902.735	13495
902.854	13457
902.973	13430
903.091	13122
903.21	13198
903.328	13228
903.446	13107
903.565	12996
903.683	13027
903.801	12977
903.919	13107
904.038	13012
904.156	12852
904.274	12928
904.392	12810
904.51	12825
904.627	12867
904.745	12924
904.863	12905
904.981	12616
905.098	12460
905.216	12498
905.334	12574
905.451	12566
905.569	12521
905.686	12517
905.803	12509
905.921	12338
906.038	12437
906.155	12353
906.272	12243
906.389	12205
906.506	12171
906.623	12136
906.74	12163
906.857	11980
906.974	12011
907.091	12148
907.208	12235
907.324	12117
907.441	12053
907.557	11859
907.674	11870
907.79	11752
907.907	11786
908.023	11935
908.139	11935
908.256	11813
908.372	11798
908.488	11851
908.604	11688
908.72	11627
908.836	11653
908.952	11638
909.068	11566
909.184	11760
909.3	11634
909.415	11718
909.531	11676
909.647	11493
909.762	11505
909.878	11315
909.993	11459
910.108	11471
910.224	11349
910.339	11402
910.454	11277
910.57	11235
910.685	11216
910.8	11490
910.915	11368
911.03	11337
911.145	11109
911.259	11083
911.374	11067
911.489	10999
911.604	10999
911.718	10854
911.833	10919
911.947	10733
912.062	10759
912.176	10850
912.291	10885
912.405	10904
912.519	11025
912.633	11010
912.748	10892
912.862	10896
912.976	10786
913.09	10580
913.204	10767
913.318	10778
913.431	10816
913.545	10881
913.659	10889
913.772	10736
913.886	10679
914	10649
914.113	10733
914.226	10759
914.34	10748
914.453	10527
914.566	10755
914.68	10603
914.793	10596
914.906	10356
915.019	10299
915.132	10363
915.245	10344
915.358	10379
915.47	10375
915.583	10428
915.696	10424
915.809	10538
915.921	10500
916.034	10386
916.146	10310
916.259	10417
916.371	10398
916.483	10363
916.595	10417
916.708	10325
916.82	10356
916.932	10329
917.044	10272
917.156	10318
917.268	10188
917.38	10234
917.491	10181
917.603	10215
917.715	10257
917.826	10325
917.938	10169
918.049	10036
918.161	10223
918.272	10291
918.384	10291
918.495	10291
918.606	10067
918.717	10036
918.828	10071
918.939	10185
919.05	10090
919.161	10040
919.272	9903
919.383	10025
919.494	10093
919.604	10314
919.715	10147
919.826	10082
919.936	10097
920.047	10177
920.157	10135
920.267	10382
920.378	10105
920.488	10040
920.598	10299
920.708	10398
920.818	10318
920.928	10280
921.038	10462
921.148	10470
921.258	10135
921.368	10135
921.477	9987
921.587	9918
921.697	9888
921.806	10002
921.916	9876
922.025	9747
922.134	9724
922.244	9671
922.353	9747
922.462	9584
922.571	9488
922.68	9485
922.789	9359
922.898	9408
923.007	9310
923.116	9420
923.224	9317
923.333	9363
923.442	9233
923.55	9226
923.659	9260
923.767	9348
923.876	9226
923.984	9287
924.092	9146
924.201	9260
924.309	9214
924.417	9226
924.525	9154
924.633	9199
924.741	9964
924.849	9009
924.956	9150
925.064	9009
925.172	8944
925.279	9017
925.387	9058
925.494	9009
925.602	9169
925.709	9104
925.816	8921
925.924	9028
926.031	9043
926.138	9013
926.245	9089
926.352	8925
926.459	9093
926.566	9138
926.673	9013
926.779	8910
926.886	8883
926.993	8777
927.099	8689
927.206	8689
927.312	8701
927.419	8769
927.525	8788
927.631	8788
927.737	8621
927.843	8632
927.95	8621
928.056	8697
928.162	8655
928.267	8678
928.373	9173
928.479	8773
928.585	8457
928.69	8613
928.796	8716
928.901	8530
929.007	8446
929.112	8545
929.218	8511
929.323	8492
929.428	8442
929.533	8602
929.638	8427
929.743	8366
929.848	8450
929.953	8450
930.058	8336
930.163	8195
930.267	8290
930.372	8324
930.477	8233
930.581	8476
930.685	8301
930.79	8210
930.894	8233
930.998	8202
931.103	8279
931.207	7967
931.311	7944
931.415	7803
931.519	7738
931.623	7700
