Data from test_V78500241_1816.txt Node
Date: Fri Mar 25 14:46:21 CST 2022
User: usil
Spectrometer: V785-0024
Trigger mode: 0
Integration Time (sec): 4.000000E-1
Scans to average: 1
Nonlinearity correction enabled: false
Boxcar width: 0
Storing dark spectrum: false
XAxis mode: Wavelengths
Number of Pixels in Spectrum: 1024
>>>>>Begin Spectral Data<<<<<
801.071	22211
801.214	22074
801.356	21865
801.499	21667
801.641	21610
801.783	21466
801.926	21542
802.068	21466
802.211	21287
802.353	21256
802.496	21089
802.638	21043
802.78	20963
802.923	21051
803.065	20864
803.208	20864
803.35	20876
803.492	20948
803.635	21005
803.777	20952
803.919	20929
804.061	21207
804.204	21005
804.346	20804
804.488	20773
804.63	20872
804.773	20705
804.915	20739
805.057	20838
805.199	20788
805.341	20750
805.483	20887
805.626	20864
805.768	20765
805.91	20765
806.052	20750
806.194	20651
806.336	21123
806.478	20792
806.62	20727
806.762	20659
806.904	21020
807.046	21230
807.188	21104
807.33	20986
807.472	21112
807.614	21039
807.756	20918
807.898	20876
808.04	20857
808.182	20769
808.324	20887
808.465	20937
808.607	21017
808.749	21184
808.891	21332
809.033	21363
809.174	21256
809.316	21127
809.458	21192
809.6	21085
809.741	21150
809.883	21233
810.025	21332
810.166	21310
810.308	21173
810.45	21363
810.591	21108
810.733	21013
810.875	21032
811.016	20880
811.158	20796
811.299	20952
811.441	20967
811.582	21039
811.724	20963
811.865	20891
812.007	20902
812.148	21009
812.29	20944
812.431	21135
812.573	21291
812.714	21351
812.855	21389
812.997	21557
813.138	21804
813.279	21431
813.421	21469
813.562	21355
813.703	21203
813.845	21184
813.986	20895
814.127	20579
814.268	20598
814.41	20648
814.551	20457
814.692	20484
814.833	20320
814.974	20427
815.115	20583
815.256	20347
815.397	20309
815.539	20294
815.68	20206
815.821	20077
815.962	20309
816.103	20183
816.244	20103
816.385	19898
816.526	19883
816.666	19898
816.807	19670
816.948	19704
817.089	19753
817.23	19643
817.371	19544
817.512	19689
817.653	19685
817.793	19480
817.934	19643
818.075	19620
818.216	19639
818.356	19575
818.497	19381
818.638	19285
818.778	19247
818.919	19259
819.06	19301
819.2	19415
819.341	19358
819.481	19518
819.622	19582
819.762	19742
819.903	19734
820.043	19677
820.184	19567
820.324	19533
820.465	19571
820.605	19624
820.746	19525
820.886	19415
821.026	19556
821.167	19613
821.307	19647
821.447	19578
821.588	19422
821.728	19369
821.868	19110
822.008	18981
822.149	19015
822.289	18951
822.429	18760
822.569	18658
822.709	18608
822.849	18658
822.99	18502
823.13	18471
823.27	18490
823.41	18342
823.55	18220
823.69	18273
823.83	18452
823.97	18277
824.11	18121
824.25	17923
824.389	18057
824.529	18155
824.669	18022
824.809	18197
824.949	18083
825.089	18155
825.228	18072
825.368	17859
825.508	17904
825.648	17828
825.787	17961
825.927	17969
826.067	17961
826.206	17889
826.346	17923
826.485	17950
826.625	17969
826.765	17950
826.904	17847
827.044	17558
827.183	17634
827.323	17554
827.462	17623
827.601	17649
827.741	17493
827.88	17592
828.02	17486
828.159	17543
828.298	17642
828.437	17714
828.577	17528
828.716	17665
828.855	17596
828.994	17387
829.134	17368
829.273	17387
829.412	17391
829.551	17356
829.69	17334
829.829	17318
829.968	17486
830.107	17429
830.246	17345
830.385	17307
830.524	17318
830.663	17064
830.802	17067
830.941	16972
831.08	16919
831.219	17006
831.357	16923
831.496	17204
831.635	16957
831.774	16949
831.913	16831
832.051	16752
832.19	16763
832.329	16698
832.467	16637
832.606	16592
832.744	16664
832.883	16641
833.022	16664
833.16	16694
833.299	16664
833.437	16645
833.576	16744
833.714	16755
833.852	16812
833.991	16736
834.129	16816
834.267	16736
834.406	16706
834.544	16774
834.682	16656
834.821	16736
834.959	16869
835.097	16771
835.235	16839
835.373	16778
835.511	16755
835.65	16603
835.788	16649
835.926	16550
836.064	16462
836.202	16485
836.34	16653
836.478	16733
836.615	16554
836.753	16634
836.891	16702
837.029	16596
837.167	16474
837.305	16542
837.443	16519
837.58	16497
837.718	16470
837.856	16508
837.993	16428
838.131	16588
838.269	16280
838.406	16470
838.544	16306
838.681	16116
838.819	16211
838.956	15998
839.094	16029
839.231	15991
839.369	16226
839.506	16394
839.643	16272
839.781	16078
839.918	15926
840.055	16025
840.193	15987
840.33	15998
840.467	16086
840.604	16013
840.742	16219
840.879	15903
841.016	15861
841.153	15869
841.29	16116
841.427	16025
841.564	16067
841.701	16032
841.838	15930
841.975	15861
842.112	15937
842.249	15823
842.385	15766
842.522	16021
842.659	15770
842.796	15873
842.933	15789
843.069	15831
843.206	15797
843.343	15899
843.479	15778
843.616	15728
843.752	15591
843.889	15538
844.025	15759
844.162	15614
844.298	15739
844.435	15534
844.571	15492
844.708	15679
844.844	15812
844.98	15854
845.117	15736
845.253	15595
845.389	15561
845.525	15496
845.661	15519
845.798	15443
845.934	15367
846.07	15431
846.206	15481
846.342	15447
846.478	15416
846.614	15283
846.75	15138
846.886	15142
847.022	15260
847.158	15085
847.294	15218
847.429	15157
847.565	15169
847.701	15321
847.837	14887
847.972	14838
848.108	14998
848.244	14960
848.379	14796
848.515	14708
848.65	14804
848.786	14777
848.921	14727
849.057	14823
849.192	14788
849.328	14807
849.463	14807
849.598	14762
849.734	14648
849.869	14560
850.004	14556
850.14	14526
850.275	14568
850.41	14396
850.545	14530
850.68	14514
850.815	14564
850.95	14495
851.085	14750
851.22	14613
851.355	14556
851.49	14465
851.625	14545
851.76	14473
851.895	14412
852.03	14393
852.165	14434
852.299	14488
852.434	14545
852.569	14587
852.703	14632
852.838	14564
852.973	14598
853.107	14659
853.242	14552
853.376	14507
853.511	14267
853.645	14324
853.78	14522
853.914	14450
854.048	14366
854.183	14412
854.317	14366
854.451	14587
854.585	14328
854.72	14370
854.854	14450
854.988	14358
855.122	14339
855.256	14161
855.39	14396
855.524	14381
855.658	14404
855.792	14492
855.926	14412
856.06	14473
856.194	14564
856.327	14514
856.461	14374
856.595	14282
856.729	14404
856.862	14522
856.996	14431
857.13	14427
857.263	14461
857.397	14492
857.53	14427
857.664	14503
857.797	14454
857.931	14617
858.064	14457
858.197	14541
858.331	14450
858.464	14377
858.597	14286
858.731	14514
858.864	14351
858.997	14355
859.13	14454
859.263	14442
859.396	14427
859.529	14366
859.662	14415
859.795	14324
859.928	14332
860.061	14583
860.194	14545
860.327	14495
860.46	14480
860.592	14492
860.725	14537
860.858	14484
860.99	14351
861.123	14396
861.256	14275
861.388	14332
861.521	14975
861.653	14275
861.786	14244
861.918	14271
862.05	14286
862.183	14343
862.315	14423
862.447	14377
862.58	14412
862.712	14100
862.844	14111
862.976	14107
863.108	14130
863.24	14507
863.372	14149
863.504	14168
863.636	14221
863.768	14142
863.9	14168
864.032	14134
864.164	14153
864.296	14214
864.428	14240
864.559	14309
864.691	14218
864.823	14187
864.954	14164
865.086	14199
865.217	14111
865.349	14043
865.48	14115
865.612	14134
865.743	14370
865.875	14092
866.006	14134
866.137	14206
866.269	14096
866.4	14145
866.531	14096
866.662	14161
866.793	14214
866.924	14058
867.055	14214
867.186	14084
867.317	14180
867.448	14016
867.579	14092
867.71	14103
867.841	13989
867.972	14126
868.103	14130
868.233	14119
868.364	14214
868.495	14214
868.625	14309
868.756	14492
868.886	14317
869.017	14370
869.147	14450
869.278	14495
869.408	14404
869.539	14442
869.669	14469
869.799	14556
869.929	14556
870.06	14495
870.19	14667
870.32	14781
870.45	14804
870.58	14876
870.71	14952
870.84	14902
870.97	14857
871.1	14651
871.23	14857
871.36	14982
871.489	14811
871.619	15032
871.749	15001
871.879	15066
872.008	15150
872.138	15020
872.267	15009
872.397	14777
872.526	14887
872.656	14899
872.785	14857
872.915	14906
873.044	15108
873.173	14929
873.303	14937
873.432	15077
873.561	15142
873.69	15093
873.819	15089
873.948	15142
874.077	15017
874.206	14914
874.335	15157
874.464	15104
874.593	15310
874.722	15268
874.851	15424
874.979	15359
875.108	15412
875.237	15351
875.365	15302
875.494	15363
875.623	15408
875.751	15313
875.88	15477
876.008	15477
876.136	15530
876.265	15846
876.393	15949
876.521	15911
876.65	15899
876.778	15892
876.906	15671
877.034	15766
877.162	15785
877.29	15682
877.418	15838
877.546	15705
877.674	15770
877.802	15690
877.93	15789
878.058	15724
878.185	15755
878.313	15637
878.441	15736
878.568	15557
878.696	15888
878.824	15835
878.951	15922
879.079	15926
879.206	15968
879.333	15922
879.461	15804
879.588	15945
879.715	15987
879.842	16090
879.97	15789
880.097	15682
880.224	15515
880.351	15644
880.478	15667
880.605	15557
880.732	15652
880.859	15800
880.986	15553
881.112	15682
881.239	15481
881.366	15466
881.493	15313
881.619	15241
881.746	15310
881.872	15294
881.999	15207
882.125	15294
882.252	15355
882.378	15306
882.505	15397
882.631	15260
882.757	15097
882.883	15119
883.01	15062
883.136	15009
883.262	15024
883.388	14960
883.514	15146
883.64	15150
883.766	15066
883.892	14845
884.018	14781
884.143	14971
884.269	15116
884.395	14891
884.52	14758
884.646	14743
884.772	14743
884.897	14663
885.023	14876
885.148	14921
885.274	14986
885.399	14872
885.524	14804
885.65	14842
885.775	14834
885.9	14724
886.025	14880
886.15	14800
886.275	14807
886.4	14720
886.525	14792
886.65	14781
886.775	14712
886.9	14933
887.025	15093
887.149	14773
887.274	14556
887.399	14602
887.523	14613
887.648	14530
887.773	14560
887.897	14667
888.021	14648
888.146	14556
888.27	14697
888.395	14758
888.519	14629
888.643	14701
888.767	14632
888.891	14480
889.015	14438
889.139	14514
889.263	14446
889.387	14587
889.511	14625
889.635	14610
889.759	14575
889.883	14514
890.006	14480
890.13	14545
890.254	14423
890.377	14465
890.501	14324
890.624	14263
890.748	14355
890.871	14202
890.995	14126
891.118	14100
891.241	14225
891.364	14229
891.488	14218
891.611	14168
891.734	14210
891.857	14248
891.98	14237
892.103	14214
892.226	14149
892.349	14187
892.471	14088
892.594	14126
892.717	14149
892.839	14115
892.962	14126
893.085	14362
893.207	14100
893.33	14081
893.452	14134
893.575	14210
893.697	14195
893.819	14347
893.941	14328
894.064	14248
894.186	14191
894.308	14115
894.43	14248
894.552	14495
894.674	14309
894.796	14142
894.918	14210
895.04	14172
895.161	14343
895.283	14328
895.405	14157
895.526	14282
895.648	14305
895.769	14366
895.891	14256
896.012	14374
896.134	14339
896.255	14362
896.376	14309
896.498	14252
896.619	14454
896.74	14271
896.861	14396
896.982	14708
897.103	14937
897.224	14621
897.345	14598
897.466	14549
897.587	14560
897.708	14655
897.828	14632
897.949	14533
898.07	14488
898.19	14568
898.311	14712
898.431	14602
898.552	14701
898.672	14815
898.792	14746
898.913	14655
899.033	14587
899.153	14484
899.273	14450
899.393	14568
899.513	14579
899.633	14549
899.753	14598
899.873	14541
899.993	14701
900.113	14549
900.232	14674
900.352	14587
900.472	14423
900.591	14396
900.711	14400
900.83	14351
900.95	14480
901.069	14568
901.189	14328
901.308	14123
901.427	14183
901.546	14024
901.665	14172
901.784	14096
901.904	13997
902.023	13837
902.141	13685
902.26	13647
902.379	13731
902.498	13586
902.617	13582
902.735	13780
902.854	13601
902.973	13601
903.091	13369
903.21	13407
903.328	13369
903.446	13324
903.565	13221
903.683	13240
903.801	13118
903.919	13244
904.038	13168
904.156	13160
904.274	13149
904.392	13023
904.51	13031
904.627	13019
904.745	13126
904.863	13152
904.981	12776
905.098	12726
905.216	12760
905.334	12928
905.451	12787
905.569	12734
905.686	12722
905.803	12726
905.921	12570
906.038	12642
906.155	12612
906.272	12391
906.389	12513
906.506	12285
906.623	12289
906.74	12330
906.857	12201
906.974	12232
907.091	12429
907.208	12372
907.324	12327
907.441	12209
907.557	12136
907.674	12091
907.79	12091
907.907	11961
908.023	12106
908.139	12045
908.256	11996
908.372	11965
908.488	12003
908.604	11870
908.72	11840
908.836	11783
908.952	11783
909.068	11859
909.184	11973
909.3	11786
909.415	11897
909.531	11882
909.647	11585
909.762	11532
909.878	11566
909.993	11619
910.108	11558
910.224	11611
910.339	11562
910.454	11535
910.57	11455
910.685	11277
910.8	11630
910.915	11615
911.03	11516
911.145	11383
911.259	11296
911.374	11292
911.489	11212
911.604	11155
911.718	11109
911.833	11067
911.947	11067
912.062	10881
912.176	10976
912.291	11029
912.405	11033
912.519	11140
912.633	11246
912.748	11117
912.862	11033
912.976	10904
913.09	10858
913.204	10805
913.318	10995
913.431	11067
913.545	10984
913.659	11147
913.772	10896
913.886	10816
914	10729
914.113	10869
914.226	10953
914.34	10934
914.453	10786
914.566	10862
914.68	10763
914.793	10710
914.906	10584
915.019	10599
915.132	10531
915.245	10542
915.358	10599
915.47	10615
915.583	10622
915.696	10664
915.809	10717
915.921	10793
916.034	10493
916.146	10615
916.259	10402
916.371	10489
916.483	10459
916.595	10489
916.708	10455
916.82	10459
916.932	10561
917.044	10413
917.156	10466
917.268	10424
917.38	10390
917.491	10394
917.603	10367
917.715	10481
917.826	10478
917.938	10402
918.049	10242
918.161	10303
918.272	10512
918.384	10516
918.495	10325
918.606	10276
918.717	10124
918.828	10314
918.939	10249
919.05	10185
919.161	10299
919.272	10063
919.383	10169
919.494	10295
919.604	10417
919.715	10405
919.826	10143
919.936	10204
920.047	10367
920.157	10329
920.267	10485
920.378	10261
920.488	10246
920.598	10470
920.708	10577
920.818	10493
920.928	10451
921.038	10618
921.148	10611
921.258	10375
921.368	10200
921.477	10143
921.587	10124
921.697	9987
921.806	10116
921.916	9994
922.025	9895
922.134	9781
922.244	9808
922.353	9835
922.462	9694
922.571	9652
922.68	9473
922.789	9435
922.898	9561
923.007	9454
923.116	9618
923.224	9545
923.333	9526
923.442	9450
923.55	9447
923.659	9443
923.767	9435
923.876	9374
923.984	9447
924.092	9386
924.201	9428
924.309	9412
924.417	9408
924.525	9310
924.633	9325
924.741	10280
924.849	9093
924.956	9367
925.064	9157
925.172	9058
925.279	9138
925.387	9268
925.494	9146
925.602	9336
925.709	9321
925.816	9131
925.924	9233
926.031	9275
926.138	9165
926.245	9192
926.352	9119
926.459	9241
926.566	9211
926.673	9146
926.779	8971
926.886	9017
926.993	8826
927.099	8895
927.206	8773
927.312	8880
927.419	8952
927.525	8952
927.631	8979
927.737	8792
927.843	8815
927.95	8701
928.056	8785
928.162	8807
928.267	8834
928.373	9462
928.479	8902
928.585	8689
928.69	8785
928.796	8845
928.901	8762
929.007	8579
929.112	8667
929.218	8705
929.323	8625
929.428	8564
929.533	8769
929.638	8579
929.743	8583
929.848	8598
929.953	8602
930.058	8488
930.163	8339
930.267	8381
930.372	8533
930.477	8374
930.581	8594
930.685	8415
930.79	8381
930.894	8332
930.998	8305
931.103	8438
931.207	8096
931.311	8031
931.415	7997
931.519	7860
931.623	7833
