Data from test_V78500241_2741.txt Node
Date: Fri Mar 25 14:52:48 CST 2022
User: usil
Spectrometer: V785-0024
Trigger mode: 0
Integration Time (sec): 4.000000E-1
Scans to average: 1
Nonlinearity correction enabled: false
Boxcar width: 0
Storing dark spectrum: false
XAxis mode: Wavelengths
Number of Pixels in Spectrum: 1024
>>>>>Begin Spectral Data<<<<<
801.071	22025
801.214	21922
801.356	21751
801.499	21553
801.641	21507
801.783	21348
801.926	21317
802.068	21367
802.211	21340
802.353	21214
802.496	20929
802.638	21017
802.78	20838
802.923	20830
803.065	20720
803.208	20659
803.35	20682
803.492	20891
803.635	20861
803.777	20781
803.919	20758
804.061	21062
804.204	20906
804.346	20720
804.488	20598
804.63	20697
804.773	20625
804.915	20632
805.057	20769
805.199	20636
805.341	20670
805.483	20758
805.626	20689
805.768	20629
805.91	20606
806.052	20678
806.194	20503
806.336	20792
806.478	20632
806.62	20560
806.762	20769
806.904	20868
807.046	21039
807.188	20960
807.33	21116
807.472	20971
807.614	20880
807.756	20921
807.898	20670
808.04	20762
808.182	20754
808.324	20777
808.465	20762
808.607	21036
808.749	21043
808.891	21119
809.033	21116
809.174	21093
809.316	20975
809.458	20979
809.6	20982
809.741	21074
809.883	21070
810.025	21249
810.166	21161
810.308	21233
810.45	21028
810.591	20948
810.733	20864
810.875	20724
811.016	20785
811.158	20769
811.299	20887
811.441	20990
811.582	20834
811.724	20735
811.865	20777
812.007	20743
812.148	20861
812.29	20861
812.431	20914
812.573	21047
812.714	21165
812.855	21203
812.997	21401
813.138	21504
813.279	21351
813.421	21127
813.562	21074
813.703	20963
813.845	20823
813.986	20503
814.127	20598
814.268	20423
814.41	20366
814.551	20278
814.692	20301
814.833	20282
814.974	20328
815.115	20370
815.256	20172
815.397	20225
815.539	20199
815.68	20134
815.821	19963
815.962	20202
816.103	20035
816.244	19780
816.385	19776
816.526	19727
816.666	19662
816.807	19381
816.948	19582
817.089	19544
817.23	19518
817.371	19514
817.512	19453
817.653	19476
817.793	19343
817.934	19491
818.075	19457
818.216	19544
818.356	19445
818.497	19301
818.638	19175
818.778	19118
818.919	19179
819.06	19034
819.2	19179
819.341	19365
819.481	19327
819.622	19521
819.762	19677
819.903	19563
820.043	19381
820.184	19422
820.324	19304
820.465	19491
820.605	19499
820.746	19426
820.886	19190
821.026	19476
821.167	19354
821.307	19480
821.447	19346
821.588	19247
821.728	19091
821.868	18913
822.008	18798
822.149	18833
822.289	18837
822.429	18547
822.569	18589
822.709	18601
822.849	18410
822.99	18311
823.13	18315
823.27	18228
823.41	18148
823.55	18060
823.69	18155
823.83	18186
823.97	18114
824.11	17901
824.25	17764
824.389	17920
824.529	17992
824.669	17855
824.809	18015
824.949	18049
825.089	17999
825.228	17916
825.368	17710
825.508	17695
825.648	17897
825.787	17767
825.927	17649
826.067	17642
826.206	17611
826.346	17672
826.485	17710
826.625	17661
826.765	17707
826.904	17783
827.044	17516
827.183	17414
827.323	17349
827.462	17444
827.601	17402
827.741	17349
827.88	17455
828.02	17216
828.159	17414
828.298	17463
828.437	17440
828.577	17395
828.716	17535
828.855	17337
828.994	17109
829.134	17102
829.273	17292
829.412	17124
829.551	17025
829.69	17041
829.829	17185
829.968	17216
830.107	17193
830.246	17071
830.385	17143
830.524	17079
830.663	17025
830.802	16816
830.941	16706
831.08	16740
831.219	16828
831.357	16801
831.496	16915
831.635	16744
831.774	16649
831.913	16672
832.051	16542
832.19	16500
832.329	16584
832.467	16512
832.606	16428
832.744	16542
832.883	16516
833.022	16481
833.16	16405
833.299	16462
833.437	16447
833.576	16508
833.714	16558
833.852	16489
833.991	16565
834.129	16569
834.267	16573
834.406	16512
834.544	16569
834.682	16474
834.821	16508
834.959	16626
835.097	16497
835.235	16538
835.373	16584
835.511	16421
835.65	16417
835.788	16402
835.926	16299
836.064	16226
836.202	16303
836.34	16363
836.478	16489
836.615	16379
836.753	16451
836.891	16481
837.029	16489
837.167	16451
837.305	16325
837.443	16253
837.58	16276
837.718	16375
837.856	16341
837.993	16272
838.131	16268
838.269	16246
838.406	16261
838.544	16147
838.681	15964
838.819	16025
838.956	15808
839.094	15774
839.231	15941
839.369	15949
839.506	16242
839.643	16059
839.781	15937
839.918	15827
840.055	15880
840.193	15819
840.33	15789
840.467	15835
840.604	15895
840.742	16105
840.879	15781
841.016	15850
841.153	15682
841.29	15934
841.427	15895
841.564	15861
841.701	15975
841.838	15873
841.975	15827
842.112	15682
842.249	15622
842.385	15576
842.522	15800
842.659	15663
842.796	15549
842.933	15766
843.069	15504
843.206	15538
843.343	15637
843.479	15656
843.616	15675
843.752	15424
843.889	15462
844.025	15671
844.162	15359
844.298	15462
844.435	15428
844.571	15393
844.708	15378
844.844	15603
844.98	15591
845.117	15462
845.253	15374
845.389	15298
845.525	15374
845.661	15287
845.798	15237
845.934	15214
846.07	15241
846.206	15264
846.342	15351
846.478	15150
846.614	15055
846.75	15017
846.886	14929
847.022	15104
847.158	14948
847.294	14918
847.429	15024
847.565	15032
847.701	15272
847.837	14716
847.972	14781
848.108	14807
848.244	14849
848.379	14556
848.515	14537
848.65	14556
848.786	14537
848.921	14613
849.057	14606
849.192	14686
849.328	14621
849.463	14442
849.598	14533
849.734	14507
849.869	14469
850.004	14286
850.14	14374
850.275	14374
850.41	14313
850.545	14290
850.68	14377
850.815	14320
850.95	14286
851.085	14556
851.22	14419
851.355	14377
851.49	14336
851.625	14332
851.76	14271
851.895	14206
852.03	14195
852.165	14309
852.299	14396
852.434	14469
852.569	14431
852.703	14362
852.838	14415
852.973	14602
853.107	14499
853.242	14252
853.376	14336
853.511	14164
853.645	14202
853.78	14240
853.914	14164
854.048	14199
854.183	14221
854.317	14199
854.451	14446
854.585	14278
854.72	14225
854.854	14244
854.988	14119
855.122	14172
855.256	14138
855.39	14229
855.524	14256
855.658	14225
855.792	14225
855.926	14145
856.06	14267
856.194	14381
856.327	14187
856.461	14119
856.595	14096
856.729	14240
856.862	14271
856.996	14301
857.13	14320
857.263	14328
857.397	14374
857.53	14317
857.664	14278
857.797	14286
857.931	14301
858.064	14294
858.197	14393
858.331	14176
858.464	14199
858.597	14050
858.731	14218
858.864	14218
858.997	14263
859.13	14282
859.263	14225
859.396	14294
859.529	14199
859.662	14237
859.795	14199
859.928	14183
860.061	14404
860.194	14381
860.327	14138
860.46	14271
860.592	14358
860.725	14374
860.858	14473
860.99	14263
861.123	14092
861.256	14157
861.388	14263
861.521	14880
861.653	14134
861.786	14005
861.918	14077
862.05	14134
862.183	14183
862.315	14229
862.447	14309
862.58	14153
862.712	14020
862.844	13906
862.976	14107
863.108	14073
863.24	14495
863.372	14046
863.504	13906
863.636	14001
863.768	14100
863.9	13986
864.032	13944
864.164	13909
864.296	14050
864.428	14077
864.559	14130
864.691	14134
864.823	14115
864.954	14065
865.086	14077
865.217	13936
865.349	13963
865.48	14008
865.612	13963
865.743	14168
865.875	14001
866.006	13959
866.137	13993
866.269	13947
866.4	14077
866.531	13997
866.662	13932
866.793	13909
866.924	13921
867.055	14050
867.186	13947
867.317	14039
867.448	13868
867.579	13906
867.71	13906
867.841	13944
867.972	13982
868.103	13970
868.233	13902
868.364	13989
868.495	14092
868.625	14183
868.756	14339
868.886	14111
869.017	14206
869.147	14294
869.278	14385
869.408	14130
869.539	14275
869.669	14347
869.799	14362
869.929	14347
870.06	14320
870.19	14541
870.32	14522
870.45	14640
870.58	14590
870.71	14689
870.84	14682
870.97	14667
871.1	14648
871.23	14826
871.36	14899
871.489	14796
871.619	14765
871.749	14838
871.879	14838
872.008	14910
872.138	14830
872.267	14727
872.397	14727
872.526	14651
872.656	14648
872.785	14678
872.915	14777
873.044	14944
873.173	14902
873.303	14910
873.432	14971
873.561	14979
873.69	14857
873.819	14963
873.948	14960
874.077	15001
874.206	14864
874.335	14925
874.464	15028
874.593	15207
874.722	15135
874.851	15226
874.979	15245
875.108	15233
875.237	15108
875.365	15097
875.494	15256
875.623	15249
875.751	15203
875.88	15245
876.008	15317
876.136	15435
876.265	15663
876.393	15785
876.521	15743
876.65	15713
876.778	15622
876.906	15526
877.034	15523
877.162	15595
877.29	15500
877.418	15732
877.546	15614
877.674	15610
877.802	15576
877.93	15633
878.058	15553
878.185	15576
878.313	15682
878.441	15572
878.568	15405
878.696	15603
878.824	15675
878.951	15694
879.079	15808
879.206	15918
879.333	15873
879.461	15629
879.588	15660
879.715	15736
879.842	15884
879.97	15705
880.097	15496
880.224	15416
880.351	15576
880.478	15542
880.605	15469
880.732	15477
880.859	15633
880.986	15466
881.112	15572
881.239	15306
881.366	15138
881.493	15211
881.619	15074
881.746	15150
881.872	15135
881.999	15070
882.125	15093
882.252	15211
882.378	15135
882.505	15222
882.631	15150
882.757	14956
882.883	15051
883.01	14960
883.136	14956
883.262	14807
883.388	14845
883.514	14937
883.64	14990
883.766	14891
883.892	14754
884.018	14861
884.143	14967
884.269	15009
884.395	14708
884.52	14743
884.646	14739
884.772	14560
884.897	14579
885.023	14640
885.148	14705
885.274	14769
885.399	14811
885.524	14735
885.65	14712
885.775	14610
885.9	14636
886.025	14735
886.15	14708
886.275	14610
886.4	14564
886.525	14610
886.65	14552
886.775	14610
886.9	14815
887.025	14933
887.149	14663
887.274	14507
887.399	14476
887.523	14419
887.648	14339
887.773	14358
887.897	14522
888.021	14537
888.146	14446
888.27	14560
888.395	14598
888.519	14533
888.643	14545
888.767	14579
888.891	14450
889.015	14298
889.139	14396
889.263	14278
889.387	14412
889.511	14526
889.635	14518
889.759	14320
889.883	14290
890.006	14408
890.13	14499
890.254	14305
890.377	14400
890.501	14187
890.624	14123
890.748	14176
890.871	14088
890.995	13959
891.118	13997
891.241	14031
891.364	14138
891.488	14111
891.611	14073
891.734	14020
891.857	14256
891.98	14126
892.103	14153
892.226	14187
892.349	13936
892.471	13921
892.594	14024
892.717	14062
892.839	14005
892.962	14065
893.085	14195
893.207	14088
893.33	13921
893.452	14046
893.575	14145
893.697	14046
893.819	14176
893.941	14328
894.064	14138
894.186	14100
894.308	14054
894.43	14149
894.552	14290
894.674	14191
894.796	14058
894.918	14092
895.04	14046
895.161	14218
895.283	14142
895.405	14065
895.526	14187
895.648	14256
895.769	14240
895.891	14180
896.012	14233
896.134	14240
896.255	14164
896.376	14176
896.498	14199
896.619	14244
896.74	14180
896.861	14282
896.982	14526
897.103	14632
897.224	14625
897.345	14522
897.466	14336
897.587	14541
897.708	14625
897.828	14476
897.949	14461
898.07	14332
898.19	14427
898.311	14689
898.431	14415
898.552	14568
898.672	14693
898.792	14613
898.913	14651
899.033	14469
899.153	14366
899.273	14332
899.393	14484
899.513	14533
899.633	14381
899.753	14434
899.873	14381
899.993	14457
900.113	14396
900.232	14454
900.352	14374
900.472	14317
900.591	14317
900.711	14328
900.83	14180
900.95	14339
901.069	14324
901.189	14259
901.308	14005
901.427	13894
901.546	14046
901.665	14054
901.784	14024
901.904	13856
902.023	13845
902.141	13582
902.26	13464
902.379	13643
902.498	13487
902.617	13506
902.735	13582
902.854	13597
902.973	13544
903.091	13289
903.21	13228
903.328	13312
903.446	13232
903.565	13099
903.683	13141
903.801	13038
903.919	13107
904.038	13099
904.156	12981
904.274	12913
904.392	12901
904.51	12928
904.627	12928
904.745	13004
904.863	12928
904.981	12768
905.098	12669
905.216	12582
905.334	12741
905.451	12620
905.569	12544
905.686	12616
905.803	12521
905.921	12475
906.038	12532
906.155	12513
906.272	12350
906.389	12319
906.506	12171
906.623	12213
906.74	12228
906.857	12110
906.974	12148
907.091	12323
907.208	12300
907.324	12277
907.441	12102
907.557	11942
907.674	11988
907.79	11935
907.907	11912
908.023	11973
908.139	11950
908.256	12015
908.372	11958
908.488	11885
908.604	11767
908.72	11733
908.836	11737
908.952	11665
909.068	11783
909.184	11863
909.3	11733
909.415	11752
909.531	11707
909.647	11474
909.762	11551
909.878	11452
909.993	11532
910.108	11440
910.224	11493
910.339	11539
910.454	11391
910.57	11368
910.685	11258
910.8	11547
910.915	11551
911.03	11383
911.145	11178
911.259	11155
911.374	11189
911.489	11128
911.604	11071
911.718	10991
911.833	10946
911.947	10900
912.062	10744
912.176	10942
912.291	10934
912.405	10885
912.519	11170
912.633	11105
912.748	10980
912.862	11010
912.976	10828
913.09	10748
913.204	10759
913.318	10858
913.431	10934
913.545	10938
913.659	10976
913.772	10877
913.886	10767
914	10752
914.113	10755
914.226	10839
914.34	10790
914.453	10596
914.566	10771
914.68	10694
914.793	10580
914.906	10497
915.019	10432
915.132	10394
915.245	10462
915.358	10474
915.47	10500
915.583	10497
915.696	10535
915.809	10664
915.921	10622
916.034	10436
916.146	10428
916.259	10390
916.371	10550
916.483	10421
916.595	10348
916.708	10314
916.82	10398
916.932	10337
917.044	10413
917.156	10413
917.268	10204
917.38	10382
917.491	10219
917.603	10276
917.715	10322
917.826	10424
917.938	10276
918.049	10105
918.161	10276
918.272	10436
918.384	10398
918.495	10386
918.606	10131
918.717	10086
918.828	10238
918.939	10135
919.05	10101
919.161	10215
919.272	9956
919.383	10029
919.494	10227
919.604	10333
919.715	10162
919.826	10109
919.936	10101
920.047	10207
920.157	10268
920.267	10379
920.378	10196
920.488	10143
920.598	10382
920.708	10573
920.818	10421
920.928	10337
921.038	10512
921.148	10519
921.258	10185
921.368	10086
921.477	10067
921.587	10010
921.697	9979
921.806	10044
921.916	9930
922.025	9766
922.134	9743
922.244	9743
922.353	9827
922.462	9572
922.571	9587
922.68	9488
922.789	9367
922.898	9538
923.007	9420
923.116	9485
923.224	9408
923.333	9458
923.442	9382
923.55	9195
923.659	9348
923.767	9454
923.876	9332
923.984	9329
924.092	9287
924.201	9279
924.309	9306
924.417	9351
924.525	9317
924.633	9279
924.741	10029
924.849	9138
924.956	9237
925.064	9028
925.172	9009
925.279	9039
925.387	9024
925.494	9074
925.602	9272
925.709	9138
925.816	9112
925.924	9112
926.031	9161
926.138	9043
926.245	9100
926.352	9077
926.459	9180
926.566	9150
926.673	9047
926.779	8998
926.886	8971
926.993	8864
927.099	8834
927.206	8750
927.312	8823
927.419	8796
927.525	8739
927.631	8857
927.737	8754
927.843	8735
927.95	8686
928.056	8651
928.162	8716
928.267	8796
928.373	9469
928.479	8868
928.585	8629
928.69	8670
928.796	8727
928.901	8610
929.007	8495
929.112	8598
929.218	8545
929.323	8568
929.428	8465
929.533	8663
929.638	8473
929.743	8492
929.848	8579
929.953	8583
930.058	8423
930.163	8290
930.267	8271
930.372	8461
930.477	8301
930.581	8564
930.685	8370
930.79	8233
930.894	8202
930.998	8229
931.103	8328
931.207	8020
931.311	7978
931.415	7875
931.519	7734
931.623	7780
