Data from test_V78500241_384.txt Node
Date: Fri Mar 25 14:36:23 CST 2022
User: usil
Spectrometer: V785-0024
Trigger mode: 0
Integration Time (sec): 4.000000E-1
Scans to average: 1
Nonlinearity correction enabled: false
Boxcar width: 0
Storing dark spectrum: false
XAxis mode: Wavelengths
Number of Pixels in Spectrum: 1024
>>>>>Begin Spectral Data<<<<<
801.071	26705
801.214	26724
801.356	26457
801.499	26305
801.641	26168
801.783	26168
801.926	26286
802.068	26073
802.211	26103
802.353	26027
802.496	25822
802.638	25769
802.78	25723
802.923	25712
803.065	25479
803.208	25662
803.35	25655
803.492	25982
803.635	25795
803.777	25769
803.919	25917
804.061	26115
804.204	25807
804.346	25597
804.488	25594
804.63	25472
804.773	25632
804.915	25753
805.057	25837
805.199	25696
805.341	25704
805.483	25879
805.626	25723
805.768	25780
805.91	25746
806.052	25761
806.194	25613
806.336	25879
806.478	25704
806.62	25685
806.762	25784
806.904	26092
807.046	26157
807.188	26020
807.33	26103
807.472	26183
807.614	26183
807.756	26103
807.898	25898
808.04	25826
808.182	25864
808.324	25894
808.465	25837
808.607	26111
808.749	26195
808.891	26385
809.033	26347
809.174	26343
809.316	26240
809.458	26088
809.6	26332
809.741	26271
809.883	26324
810.025	26495
810.166	26336
810.308	26229
810.45	26419
810.591	26252
810.733	26126
810.875	26149
811.016	26073
811.158	25978
811.299	26020
811.441	26229
811.582	26180
811.724	26069
811.865	25963
812.007	26050
812.148	26103
812.29	26115
812.431	26233
812.573	26362
812.714	26301
812.855	26469
812.997	26659
813.138	26842
813.279	26807
813.421	26514
813.562	26400
813.703	26313
813.845	26271
813.986	25871
814.127	25757
814.268	25772
814.41	25742
814.551	25655
814.692	25776
814.833	25529
814.974	25571
815.115	25552
815.256	25457
815.397	25548
815.539	25403
815.68	25438
815.821	25407
815.962	25491
816.103	25422
816.244	25274
816.385	25179
816.526	25057
816.666	24814
816.807	24783
816.948	24852
817.089	24768
817.23	24700
817.371	24700
817.512	24787
817.653	24703
817.793	24688
817.934	24806
818.075	24764
818.216	24726
818.356	24631
818.497	24612
818.638	24414
818.778	24407
818.919	24334
819.06	24513
819.2	24650
819.341	24681
819.481	24654
819.622	24707
819.762	24966
819.903	24817
820.043	24837
820.184	24825
820.324	24669
820.465	24783
820.605	24749
820.746	24566
820.886	24483
821.026	24494
821.167	24566
821.307	24601
821.447	24719
821.588	24635
821.728	24361
821.868	24125
822.008	24064
822.149	24167
822.289	24079
822.429	23904
822.569	23904
822.709	23779
822.849	23547
822.99	23562
823.13	23592
823.27	23379
823.41	23493
823.55	23204
823.69	23261
823.83	23273
823.97	23360
824.11	23140
824.25	23052
824.389	23155
824.529	23223
824.669	23098
824.809	23220
824.949	23220
825.089	23185
825.228	23288
825.368	22854
825.508	22987
825.648	22938
825.787	23109
825.927	22930
826.067	22896
826.206	22980
826.346	22873
826.485	22820
826.625	22904
826.765	22999
826.904	22919
827.044	22649
827.183	22660
827.323	22550
827.462	22523
827.601	22592
827.741	22436
827.88	22607
828.02	22611
828.159	22565
828.298	22569
828.437	22630
828.577	22478
828.716	22698
828.855	22577
828.994	22333
829.134	22265
829.273	22211
829.412	22299
829.551	22253
829.69	22169
829.829	22291
829.968	22325
830.107	22333
830.246	22284
830.385	22147
830.524	22272
830.663	22185
830.802	22006
830.941	21869
831.08	21759
831.219	21926
831.357	21922
831.496	22166
831.635	21869
831.774	21747
831.913	21720
832.051	21580
832.19	21553
832.329	21553
832.467	21526
832.606	21405
832.744	21526
832.883	21580
833.022	21477
833.16	21408
833.299	21599
833.437	21466
833.576	21553
833.714	21504
833.852	21545
833.991	21671
834.129	21644
834.267	21561
834.406	21458
834.544	21603
834.682	21507
834.821	21526
834.959	21606
835.097	21424
835.235	21496
835.373	21553
835.511	21507
835.65	21351
835.788	21348
835.926	21226
836.064	21218
836.202	21169
836.34	21374
836.478	21492
836.615	21393
836.753	21264
836.891	21428
837.029	21500
837.167	21389
837.305	21283
837.443	21093
837.58	21165
837.718	21336
837.856	21161
837.993	21051
838.131	21157
838.269	21135
838.406	21207
838.544	21039
838.681	20937
838.819	20796
838.956	20682
839.094	20667
839.231	20785
839.369	20891
839.506	21032
839.643	20872
839.781	20617
839.918	20556
840.055	20693
840.193	20640
840.33	20507
840.467	20549
840.604	20598
840.742	20819
840.879	20434
841.016	20366
841.153	20446
841.29	20598
841.427	20579
841.564	20621
841.701	20621
841.838	20575
841.975	20336
842.112	20396
842.249	20476
842.385	20206
842.522	20446
842.659	20377
842.796	20221
842.933	20385
843.069	20214
843.206	20256
843.343	20377
843.479	20362
843.616	20282
843.752	20031
843.889	20020
844.025	20126
844.162	19970
844.298	20180
844.435	19932
844.571	19909
844.708	20107
844.844	20221
844.98	20183
845.117	20092
845.253	20054
845.389	19932
845.525	19845
845.661	19871
845.798	19715
845.934	19959
846.07	19799
846.206	19841
846.342	20001
846.478	19822
846.614	19655
846.75	19571
846.886	19487
847.022	19556
847.158	19597
847.294	19521
847.429	19590
847.565	19499
847.701	19780
847.837	19221
847.972	19194
848.108	19381
848.244	19346
848.379	19023
848.515	19190
848.65	19179
848.786	19015
848.921	19061
849.057	19179
849.192	19103
849.328	19065
849.463	19015
849.598	19019
849.734	18977
849.869	18973
850.004	18772
850.14	18772
850.275	18798
850.41	18669
850.545	18787
850.68	18760
850.815	18882
850.95	18757
851.085	18954
851.22	18875
851.355	18734
851.49	18878
851.625	18757
851.76	18673
851.895	18795
852.03	18604
852.165	18783
852.299	18867
852.434	18833
852.569	18825
852.703	18806
852.838	18909
852.973	18916
853.107	18848
853.242	18764
853.376	18673
853.511	18570
853.645	18517
853.78	18661
853.914	18582
854.048	18612
854.183	18627
854.317	18593
854.451	18791
854.585	18616
854.72	18475
854.854	18631
854.988	18597
855.122	18639
855.256	18369
855.39	18536
855.524	18692
855.658	18589
855.792	18578
855.926	18601
856.06	18620
856.194	18719
856.327	18661
856.461	18547
856.595	18483
856.729	18563
856.862	18692
856.996	18513
857.13	18658
857.263	18665
857.397	18620
857.53	18589
857.664	18570
857.797	18620
857.931	18650
858.064	18559
858.197	18658
858.331	18525
858.464	18585
858.597	18418
858.731	18635
858.864	18521
858.997	18479
859.13	18551
859.263	18513
859.396	18559
859.529	18502
859.662	18502
859.795	18513
859.928	18509
860.061	18707
860.194	18802
860.327	18627
860.46	18513
860.592	18623
860.725	18677
860.858	18700
860.99	18517
861.123	18361
861.256	18506
861.388	18471
861.521	19384
861.653	18361
861.786	18441
861.918	18460
862.05	18555
862.183	18608
862.315	18517
862.447	18631
862.58	18631
862.712	18315
862.844	18285
862.976	18418
863.108	18437
863.24	18620
863.372	18277
863.504	18315
863.636	18292
863.768	18334
863.9	18239
864.032	18053
864.164	18186
864.296	18304
864.428	18346
864.559	18334
864.691	18285
864.823	18330
864.954	18285
865.086	18281
865.217	18182
865.349	18007
865.48	18209
865.612	18205
865.743	18285
865.875	18300
866.006	18125
866.137	18262
866.269	18228
866.4	18129
866.531	18022
866.662	18114
866.793	18232
866.924	18136
867.055	18129
867.186	18140
867.317	18144
867.448	18038
867.579	18133
867.71	17969
867.841	18064
867.972	18098
868.103	18133
868.233	18197
868.364	18159
868.495	18296
868.625	18372
868.756	18483
868.886	18334
869.017	18395
869.147	18620
869.278	18483
869.408	18433
869.539	18281
869.669	18456
869.799	18502
869.929	18448
870.06	18452
870.19	18711
870.32	18707
870.45	18734
870.58	18734
870.71	18848
870.84	18829
870.97	18661
871.1	18829
871.23	18878
871.36	19008
871.489	18943
871.619	18909
871.749	18894
871.879	18916
872.008	19038
872.138	18897
872.267	18905
872.397	18795
872.526	18677
872.656	18806
872.785	18749
872.915	19034
873.044	18977
873.173	18985
873.303	19057
873.432	18913
873.561	19050
873.69	19008
873.819	18977
873.948	19057
874.077	19015
874.206	18951
874.335	19012
874.464	19114
874.593	19065
874.722	19137
874.851	19312
874.979	19343
875.108	19312
875.237	19160
875.365	19183
875.494	19183
875.623	19331
875.751	19179
875.88	19308
876.008	19297
876.136	19556
876.265	19761
876.393	19830
876.521	19814
876.65	19727
876.778	19670
876.906	19563
877.034	19533
877.162	19742
877.29	19567
877.418	19597
877.546	19628
877.674	19563
877.802	19628
877.93	19632
878.058	19666
878.185	19434
878.313	19753
878.441	19670
878.568	19605
878.696	19609
878.824	19799
878.951	19723
879.079	19696
879.206	19951
879.333	19845
879.461	19734
879.588	19925
879.715	19795
879.842	19856
879.97	19742
880.097	19502
880.224	19411
880.351	19453
880.478	19578
880.605	19476
880.732	19445
880.859	19696
880.986	19537
881.112	19464
881.239	19468
881.366	19308
881.493	19175
881.619	19103
881.746	19091
881.872	19118
881.999	19129
882.125	19008
882.252	19137
882.378	19099
882.505	19259
882.631	18962
882.757	18844
882.883	18977
883.01	18894
883.136	18829
883.262	18768
883.388	18684
883.514	18924
883.64	18928
883.766	18833
883.892	18616
884.018	18722
884.143	18928
884.269	18897
884.395	18559
884.52	18536
884.646	18623
884.772	18467
884.897	18433
885.023	18547
885.148	18642
885.274	18692
885.399	18749
885.524	18334
885.65	18490
885.775	18593
885.9	18502
886.025	18604
886.15	18582
886.275	18479
886.4	18353
886.525	18521
886.65	18441
886.775	18395
886.9	18661
887.025	18639
887.149	18422
887.274	18258
887.399	18224
887.523	18338
887.648	18235
887.773	18266
887.897	18357
888.021	18323
888.146	18209
888.27	18391
888.395	18285
888.519	18308
888.643	18334
888.767	18346
888.891	18182
889.015	18110
889.139	18213
889.263	18114
889.387	18239
889.511	18372
889.635	18228
889.759	18144
889.883	17992
890.006	18136
890.13	18144
890.254	18068
890.377	17950
890.501	17851
890.624	17882
890.748	17958
890.871	17737
890.995	17710
891.118	17680
891.241	17657
891.364	17608
891.488	17874
891.611	17672
891.734	17722
891.857	17775
891.98	17805
892.103	17745
892.226	17748
892.349	17687
892.471	17589
892.594	17684
892.717	17638
892.839	17634
892.962	17741
893.085	17687
893.207	17642
893.33	17509
893.452	17592
893.575	17729
893.697	17733
893.819	17859
893.941	17992
894.064	17783
894.186	17623
894.308	17630
894.43	17733
894.552	17748
894.674	17817
894.796	17638
894.918	17718
895.04	17585
895.161	17737
895.283	17684
895.405	17623
895.526	17718
895.648	17714
895.769	17775
895.891	17695
896.012	17840
896.134	17672
896.255	17752
896.376	17596
896.498	17707
896.619	17756
896.74	17836
896.861	17874
896.982	18190
897.103	18243
897.224	18030
897.345	18007
897.466	17885
897.587	18015
897.708	18060
897.828	18053
897.949	17927
898.07	17889
898.19	17882
898.311	18026
898.431	17931
898.552	18076
898.672	18022
898.792	18098
898.913	18019
899.033	17874
899.153	17790
899.273	17718
899.393	17748
899.513	17760
899.633	17729
899.753	17726
899.873	17733
899.993	17760
900.113	17805
900.232	17752
900.352	17608
900.472	17714
900.591	17505
900.711	17646
900.83	17486
900.95	17687
901.069	17665
901.189	17471
901.308	17227
901.427	17280
901.546	17246
901.665	17227
901.784	17185
901.904	17121
902.023	16915
902.141	16873
902.26	16725
902.379	16759
902.498	16706
902.617	16618
902.735	16831
902.854	16725
902.973	16649
903.091	16360
903.21	16421
903.328	16394
903.446	16143
903.565	16238
903.683	16211
903.801	16215
903.919	16169
904.038	16185
904.156	15991
904.274	16044
904.392	15987
904.51	15983
904.627	15907
904.745	15983
904.863	16086
904.981	15800
905.098	15648
905.216	15728
905.334	15778
905.451	15751
905.569	15603
905.686	15660
905.803	15701
905.921	15488
906.038	15633
906.155	15496
906.272	15321
906.389	15405
906.506	15275
906.623	15245
906.74	15161
906.857	15058
906.974	15112
907.091	15203
907.208	15382
907.324	15135
907.441	15157
907.557	15005
907.674	15028
907.79	14811
907.907	14880
908.023	14933
908.139	15062
908.256	14861
908.372	14842
908.488	14918
908.604	14610
908.72	14659
908.836	14659
908.952	14617
909.068	14598
909.184	14796
909.3	14640
909.415	14636
909.531	14526
909.647	14347
909.762	14355
909.878	14313
909.993	14324
910.108	14385
910.224	14225
910.339	14332
910.454	14206
910.57	14157
910.685	14206
910.8	14461
910.915	14347
911.03	14172
911.145	13989
911.259	13982
911.374	14020
911.489	13902
911.604	13875
911.718	13757
911.833	13803
911.947	13571
912.062	13616
912.176	13712
912.291	13655
912.405	13723
912.519	13913
912.633	13837
912.748	13807
912.862	13662
912.976	13578
913.09	13441
913.204	13571
913.318	13609
913.431	13727
913.545	13601
913.659	13651
913.772	13537
913.886	13377
914	13285
914.113	13514
914.226	13556
914.34	13441
914.453	13289
914.566	13460
914.68	13190
914.793	13301
914.906	13126
915.019	13072
915.132	13027
915.245	13057
915.358	13046
915.47	13084
915.583	13110
915.696	13126
915.809	13209
915.921	13110
916.034	13088
916.146	13046
916.259	12985
916.371	13031
916.483	12993
916.595	12901
916.708	12973
916.82	13000
916.932	12901
917.044	12924
917.156	12901
917.268	12749
917.38	12798
917.491	12848
917.603	12817
917.715	12875
917.826	12878
917.938	12772
918.049	12639
918.161	12677
918.272	12894
918.384	12932
918.495	12734
918.606	12646
918.717	12654
918.828	12650
918.939	12616
919.05	12528
919.161	12654
919.272	12445
919.383	12361
919.494	12612
919.604	12806
919.715	12555
919.826	12452
919.936	12620
920.047	12536
920.157	12525
920.267	12749
920.378	12506
920.488	12486
920.598	12646
920.708	12890
920.818	12696
920.928	12650
921.038	12829
921.148	12734
921.258	12544
921.368	12399
921.477	12350
921.587	12365
921.697	12235
921.806	12292
921.916	12213
922.025	12114
922.134	12022
922.244	11969
922.353	12102
922.462	11904
922.571	11748
922.68	11699
922.789	11688
922.898	11642
923.007	11589
923.116	11661
923.224	11566
923.333	11680
923.442	11520
923.55	11429
923.659	11528
923.767	11543
923.876	11463
923.984	11577
924.092	11440
924.201	11509
924.309	11486
924.417	11459
924.525	11376
924.633	11516
924.741	12327
924.849	11170
924.956	11337
925.064	11181
925.172	11098
925.279	11140
925.387	11231
925.494	11201
925.602	11311
925.709	11265
925.816	11128
925.924	11140
926.031	11250
926.138	11170
926.245	11189
926.352	11071
926.459	11132
926.566	11174
926.673	11060
926.779	10923
926.886	10976
926.993	10908
927.099	10774
927.206	10793
927.312	10805
927.419	10809
927.525	10839
927.631	10896
927.737	10752
927.843	10668
927.95	10577
928.056	10622
928.162	10691
928.267	10721
928.373	11337
928.479	10683
928.585	10485
928.69	10656
928.796	10714
928.901	10558
929.007	10405
929.112	10508
929.218	10538
929.323	10405
929.428	10478
929.533	10550
929.638	10272
929.743	10478
929.848	10417
929.953	10371
930.058	10291
930.163	10219
930.267	10284
930.372	10287
930.477	10032
930.581	10333
930.685	10215
930.79	10063
930.894	10112
930.998	10032
931.103	10166
931.207	9766
931.311	9682
931.415	9720
931.519	9469
931.623	9439
