Data from test_V78500241_386.txt Node
Date: Fri Mar 25 14:36:24 CST 2022
User: usil
Spectrometer: V785-0024
Trigger mode: 0
Integration Time (sec): 4.000000E-1
Scans to average: 1
Nonlinearity correction enabled: false
Boxcar width: 0
Storing dark spectrum: false
XAxis mode: Wavelengths
Number of Pixels in Spectrum: 1024
>>>>>Begin Spectral Data<<<<<
801.071	26804
801.214	26727
801.356	26450
801.499	26385
801.641	26100
801.783	26138
801.926	26214
802.068	26062
802.211	26046
802.353	25936
802.496	25852
802.638	25784
802.78	25791
802.923	25677
803.065	25559
803.208	25696
803.35	25727
803.492	25890
803.635	25944
803.777	25639
803.919	25761
804.061	26134
804.204	25807
804.346	25723
804.488	25628
804.63	25628
804.773	25639
804.915	25689
805.057	25864
805.199	25658
805.341	25852
805.483	25712
805.626	25788
805.768	25715
805.91	25757
806.052	25708
806.194	25704
806.336	25993
806.478	25772
806.62	25597
806.762	25940
806.904	26039
807.046	26187
807.188	26275
807.33	26016
807.472	26214
807.614	26008
807.756	26073
807.898	26012
808.04	25841
808.182	25841
808.324	25966
808.465	25769
808.607	25978
808.749	26320
808.891	26355
809.033	26434
809.174	26263
809.316	26256
809.458	26206
809.6	26081
809.741	26301
809.883	26256
810.025	26381
810.166	26556
810.308	26347
810.45	26370
810.591	26366
810.733	26187
810.875	26164
811.016	25944
811.158	25963
811.299	26172
811.441	26225
811.582	26206
811.724	26107
811.865	26122
812.007	26111
812.148	26115
812.29	26100
812.431	26187
812.573	26400
812.714	26339
812.855	26571
812.997	26746
813.138	26773
813.279	26659
813.421	26560
813.562	26545
813.703	26298
813.845	26355
813.986	25966
814.127	25727
814.268	25666
814.41	25696
814.551	25719
814.692	25662
814.833	25609
814.974	25544
815.115	25655
815.256	25449
815.397	25597
815.539	25590
815.68	25358
815.821	25312
815.962	25400
816.103	25514
816.244	25335
816.385	25198
816.526	25065
816.666	25023
816.807	24970
816.948	24795
817.089	24913
817.23	24867
817.371	24821
817.512	24795
817.653	24776
817.793	24738
817.934	24776
818.075	24684
818.216	24684
818.356	24703
818.497	24547
818.638	24433
818.778	24407
818.919	24441
819.06	24490
819.2	24582
819.341	24658
819.481	24540
819.622	24661
819.762	25050
819.903	24890
820.043	24783
820.184	24829
820.324	24848
820.465	24802
820.605	24635
820.746	24734
820.886	24532
821.026	24814
821.167	24620
821.307	24787
821.447	24665
821.588	24475
821.728	24536
821.868	24239
822.008	24038
822.149	23992
822.289	23901
822.429	23771
822.569	23866
822.709	23657
822.849	23608
822.99	23630
823.13	23440
823.27	23497
823.41	23353
823.55	23216
823.69	23303
823.83	23402
823.97	23208
824.11	23227
824.25	23136
824.389	23071
824.529	23121
824.669	23261
824.809	23178
824.949	23189
825.089	23086
825.228	23113
825.368	22911
825.508	22828
825.648	22911
825.787	22847
825.927	23102
826.067	22999
826.206	22904
826.346	22946
826.485	22976
826.625	22805
826.765	22938
826.904	22862
827.044	22679
827.183	22679
827.323	22516
827.462	22687
827.601	22508
827.741	22527
827.88	22584
828.02	22489
828.159	22603
828.298	22542
828.437	22618
828.577	22466
828.716	22596
828.855	22611
828.994	22230
829.134	22337
829.273	22386
829.412	22257
829.551	22109
829.69	22185
829.829	22249
829.968	22230
830.107	22287
830.246	22272
830.385	22032
830.524	22169
830.663	22177
830.802	21907
830.941	21869
831.08	21701
831.219	21979
831.357	21808
831.496	22169
831.635	21835
831.774	21724
831.913	21709
832.051	21637
832.19	21500
832.329	21751
832.467	21591
832.606	21481
832.744	21466
832.883	21538
833.022	21526
833.16	21618
833.299	21466
833.437	21363
833.576	21374
833.714	21511
833.852	21500
833.991	21561
834.129	21519
834.267	21507
834.406	21507
834.544	21431
834.682	21485
834.821	21382
834.959	21701
835.097	21450
835.235	21511
835.373	21389
835.511	21397
835.65	21420
835.788	21412
835.926	21199
836.064	21188
836.202	21100
836.34	21336
836.478	21519
836.615	21313
836.753	21359
836.891	21378
837.029	21382
837.167	21332
837.305	21211
837.443	21192
837.58	21188
837.718	21294
837.856	21176
837.993	21089
838.131	21157
838.269	21165
838.406	21180
838.544	20914
838.681	20872
838.819	20739
838.956	20659
839.094	20678
839.231	20644
839.369	20777
839.506	21043
839.643	20823
839.781	20556
839.918	20568
840.055	20575
840.193	20602
840.33	20594
840.467	20560
840.604	20587
840.742	20785
840.879	20355
841.016	20526
841.153	20457
841.29	20625
841.427	20530
841.564	20636
841.701	20564
841.838	20431
841.975	20396
842.112	20396
842.249	20221
842.385	20282
842.522	20503
842.659	20434
842.796	20191
842.933	20309
843.069	20229
843.206	20092
843.343	20252
843.479	20119
843.616	20161
843.752	20107
843.889	20119
844.025	20252
844.162	20065
844.298	20130
844.435	20062
844.571	20058
844.708	20145
844.844	20214
844.98	20172
845.117	20081
845.253	19955
845.389	19898
845.525	20012
845.661	19902
845.798	19864
845.934	19871
846.07	19875
846.206	19856
846.342	20031
846.478	19765
846.614	19624
846.75	19514
846.886	19468
847.022	19559
847.158	19605
847.294	19491
847.429	19537
847.565	19407
847.701	19700
847.837	19282
847.972	19088
848.108	19316
848.244	19274
848.379	19076
848.515	18947
848.65	18993
848.786	18951
848.921	19171
849.057	19118
849.192	19050
849.328	19061
849.463	19069
849.598	19076
849.734	18909
849.869	18890
850.004	18989
850.14	18905
850.275	18749
850.41	18726
850.545	18749
850.68	18726
850.815	18837
850.95	18768
851.085	18920
851.22	18810
851.355	18779
851.49	18673
851.625	18738
851.76	18700
851.895	18692
852.03	18741
852.165	18772
852.299	18692
852.434	18943
852.569	18688
852.703	18829
852.838	18798
852.973	18886
853.107	18776
853.242	18768
853.376	18623
853.511	18540
853.645	18540
853.78	18681
853.914	18574
854.048	18597
854.183	18608
854.317	18635
854.451	18665
854.585	18593
854.72	18517
854.854	18696
854.988	18555
855.122	18506
855.256	18441
855.39	18551
855.524	18608
855.658	18688
855.792	18642
855.926	18620
856.06	18627
856.194	18635
856.327	18528
856.461	18597
856.595	18452
856.729	18525
856.862	18677
856.996	18604
857.13	18646
857.263	18696
857.397	18623
857.53	18540
857.664	18681
857.797	18631
857.931	18646
858.064	18696
858.197	18696
858.331	18654
858.464	18506
858.597	18315
858.731	18616
858.864	18483
858.997	18494
859.13	18559
859.263	18570
859.396	18616
859.529	18486
859.662	18544
859.795	18391
859.928	18525
860.061	18684
860.194	18623
860.327	18578
860.46	18509
860.592	18646
860.725	18650
860.858	18620
860.99	18498
861.123	18407
861.256	18448
861.388	18559
861.521	19247
861.653	18410
861.786	18384
861.918	18399
862.05	18441
862.183	18460
862.315	18521
862.447	18578
862.58	18521
862.712	18334
862.844	18148
862.976	18369
863.108	18323
863.24	18730
863.372	18273
863.504	18235
863.636	18254
863.768	18304
863.9	18361
864.032	18064
864.164	18289
864.296	18311
864.428	18384
864.559	18308
864.691	18258
864.823	18174
864.954	18209
865.086	18133
865.217	18178
865.349	18114
865.48	18095
865.612	18144
865.743	18300
865.875	18125
866.006	18186
866.137	18235
866.269	18038
866.4	18106
866.531	17961
866.662	17954
866.793	18159
866.924	18159
867.055	17999
867.186	18110
867.317	18034
867.448	18015
867.579	18095
867.71	18015
867.841	18133
867.972	18136
868.103	18087
868.233	18007
868.364	18136
868.495	18155
868.625	18342
868.756	18395
868.886	18403
869.017	18342
869.147	18441
869.278	18513
869.408	18330
869.539	18258
869.669	18486
869.799	18407
869.929	18490
870.06	18437
870.19	18585
870.32	18563
870.45	18692
870.58	18665
870.71	18913
870.84	18783
870.97	18779
871.1	18715
871.23	18897
871.36	19023
871.489	18783
871.619	18837
871.749	18863
871.879	18840
872.008	19012
872.138	18924
872.267	19046
872.397	18783
872.526	18795
872.656	18806
872.785	18753
872.915	18973
873.044	19000
873.173	18970
873.303	18962
873.432	18913
873.561	19027
873.69	18977
873.819	19031
873.948	19042
874.077	18977
874.206	18981
874.335	19004
874.464	19050
874.593	19232
874.722	19187
874.851	19301
874.979	19278
875.108	19259
875.237	19213
875.365	19145
875.494	19308
875.623	19282
875.751	19141
875.88	19282
876.008	19373
876.136	19510
876.265	19700
876.393	19868
876.521	19670
876.65	19746
876.778	19544
876.906	19658
877.034	19514
877.162	19662
877.29	19567
877.418	19647
877.546	19609
877.674	19632
877.802	19609
877.93	19643
878.058	19575
878.185	19495
878.313	19521
878.441	19662
878.568	19502
878.696	19552
878.824	19609
878.951	19769
879.079	19868
879.206	20024
879.333	19811
879.461	19723
879.588	19822
879.715	19883
879.842	19940
879.97	19826
880.097	19422
880.224	19411
880.351	19563
880.478	19445
880.605	19464
880.732	19377
880.859	19803
880.986	19457
881.112	19537
881.239	19350
881.366	19202
881.493	19122
881.619	19107
881.746	19091
881.872	19046
881.999	19126
882.125	19012
882.252	19110
882.378	19057
882.505	19133
882.631	19072
882.757	18802
882.883	18806
883.01	18928
883.136	18890
883.262	18719
883.388	18623
883.514	18958
883.64	18886
883.766	18810
883.892	18646
884.018	18658
884.143	18909
884.269	18894
884.395	18601
884.52	18486
884.646	18601
884.772	18509
884.897	18391
885.023	18486
885.148	18639
885.274	18711
885.399	18616
885.524	18521
885.65	18566
885.775	18509
885.9	18555
886.025	18726
886.15	18639
886.275	18452
886.4	18418
886.525	18471
886.65	18483
886.775	18547
886.9	18654
887.025	18616
887.149	18475
887.274	18319
887.399	18155
887.523	18277
887.648	18285
887.773	18216
887.897	18311
888.021	18372
888.146	18224
888.27	18346
888.395	18399
888.519	18338
888.643	18201
888.767	18384
888.891	18152
889.015	18110
889.139	18125
889.263	18045
889.387	18251
889.511	18334
889.635	18266
889.759	17988
889.883	18030
890.006	18262
890.13	18205
890.254	18034
890.377	18019
890.501	17863
890.624	17764
890.748	17942
890.871	17920
890.995	17832
891.118	17611
891.241	17634
891.364	17775
891.488	17840
891.611	17687
891.734	17634
891.857	17760
891.98	17646
892.103	17745
892.226	17745
892.349	17657
892.471	17509
892.594	17668
892.717	17615
892.839	17570
892.962	17570
893.085	17710
893.207	17722
893.33	17505
893.452	17573
893.575	17672
893.697	17714
893.819	17836
893.941	17866
894.064	17741
894.186	17547
894.308	17554
894.43	17729
894.552	17779
894.674	17646
894.796	17543
894.918	17638
895.04	17653
895.161	17718
895.283	17748
895.405	17570
895.526	17638
895.648	17642
895.769	17657
895.891	17790
896.012	17767
896.134	17832
896.255	17771
896.376	17745
896.498	17707
896.619	17802
896.74	17745
896.861	17885
896.982	18034
897.103	18178
897.224	18083
897.345	17916
897.466	17847
897.587	18022
897.708	18076
897.828	17969
897.949	18026
898.07	17954
898.19	17870
898.311	18072
898.431	17969
898.552	18026
898.672	18076
898.792	18026
898.913	17954
899.033	17904
899.153	17878
899.273	17668
899.393	17771
899.513	17889
899.633	17676
899.753	17760
899.873	17710
899.993	17726
900.113	17661
900.232	17642
900.352	17786
900.472	17611
900.591	17558
900.711	17604
900.83	17501
900.95	17748
901.069	17699
901.189	17478
901.308	17303
901.427	17109
901.546	17212
901.665	17181
901.784	17151
901.904	17067
902.023	16938
902.141	16755
902.26	16611
902.379	16862
902.498	16687
902.617	16668
902.735	16767
902.854	16687
902.973	16550
903.091	16462
903.21	16371
903.328	16417
903.446	16318
903.565	16188
903.683	16177
903.801	16173
903.919	16226
904.038	16253
904.156	16044
904.274	16067
904.392	15979
904.51	15968
904.627	16017
904.745	16086
904.863	16074
904.981	15808
905.098	15682
905.216	15660
905.334	15660
905.451	15720
905.569	15698
905.686	15709
905.803	15667
905.921	15519
906.038	15481
906.155	15393
906.272	15408
906.389	15389
906.506	15233
906.623	15192
906.74	15112
906.857	15093
906.974	15123
907.091	15370
907.208	15348
907.324	15142
907.441	15100
907.557	14952
907.674	14929
907.79	14861
907.907	14967
908.023	14963
908.139	14887
908.256	14830
908.372	14876
908.488	14792
908.604	14686
908.72	14735
908.836	14651
908.952	14522
909.068	14746
909.184	14693
909.3	14571
909.415	14689
909.531	14632
909.647	14313
909.762	14400
909.878	14309
909.993	14339
910.108	14324
910.224	14244
910.339	14305
910.454	14240
910.57	14168
910.685	14164
910.8	14400
910.915	14275
911.03	14081
911.145	14043
911.259	13940
911.374	13974
911.489	13883
911.604	13982
911.718	13738
911.833	13753
911.947	13666
912.062	13552
912.176	13742
912.291	13803
912.405	13636
912.519	13993
912.633	13917
912.748	13731
912.862	13677
912.976	13563
913.09	13476
913.204	13468
913.318	13460
913.431	13632
913.545	13556
913.659	13685
913.772	13434
913.886	13487
914	13384
914.113	13411
914.226	13468
914.34	13495
914.453	13327
914.566	13460
914.68	13346
914.793	13339
914.906	13145
915.019	13038
915.132	13008
915.245	13110
915.358	13031
915.47	13031
915.583	13015
915.696	12989
915.809	13320
915.921	13217
916.034	13008
916.146	13023
916.259	12989
916.371	13061
916.483	12985
916.595	12848
916.708	12916
916.82	12962
916.932	12916
917.044	12928
917.156	12871
917.268	12817
917.38	12745
917.491	12719
917.603	12806
917.715	12741
917.826	12840
917.938	12741
918.049	12635
918.161	12688
918.272	12852
918.384	12890
918.495	12722
918.606	12566
918.717	12528
918.828	12650
918.939	12631
919.05	12490
919.161	12597
919.272	12365
919.383	12300
919.494	12582
919.604	12768
919.715	12582
919.826	12467
919.936	12566
920.047	12654
920.157	12547
920.267	12738
920.378	12551
920.488	12593
920.598	12760
920.708	12852
920.818	12623
920.928	12681
921.038	12825
921.148	12825
921.258	12551
921.368	12422
921.477	12327
921.587	12369
921.697	12243
921.806	12365
921.916	12133
922.025	11988
922.134	11992
922.244	11969
922.353	12049
922.462	11923
922.571	11805
922.68	11653
922.789	11627
922.898	11684
923.007	11634
923.116	11821
923.224	11558
923.333	11649
923.442	11570
923.55	11490
923.659	11524
923.767	11554
923.876	11558
923.984	11486
924.092	11376
924.201	11532
924.309	11532
924.417	11520
924.525	11436
924.633	11493
924.741	12426
924.849	11254
924.956	11368
925.064	11185
925.172	11155
925.279	11193
925.387	11265
925.494	11170
925.602	11406
925.709	11318
925.816	11121
925.924	11136
926.031	11341
926.138	11193
926.245	11208
926.352	11086
926.459	11269
926.566	11258
926.673	11181
926.779	10976
926.886	10984
926.993	10896
927.099	10828
927.206	10831
927.312	10839
927.419	10995
927.525	10885
927.631	10923
927.737	10729
927.843	10694
927.95	10592
928.056	10691
928.162	10736
928.267	10797
928.373	11318
928.479	10793
928.585	10577
928.69	10615
928.796	10710
928.901	10554
929.007	10558
929.112	10565
929.218	10550
929.323	10527
929.428	10443
929.533	10523
929.638	10443
929.743	10402
929.848	10485
929.953	10382
930.058	10344
930.163	10173
930.267	10253
930.372	10348
930.477	10185
930.581	10386
930.685	10219
930.79	10055
930.894	10120
930.998	9991
931.103	10188
931.207	9880
931.311	9755
931.415	9694
931.519	9519
931.623	9496
