Data from test_V78500241_3539.txt Node
Date: Fri Mar 25 14:58:21 CST 2022
User: usil
Spectrometer: V785-0024
Trigger mode: 0
Integration Time (sec): 4.000000E-1
Scans to average: 1
Nonlinearity correction enabled: false
Boxcar width: 0
Storing dark spectrum: false
XAxis mode: Wavelengths
Number of Pixels in Spectrum: 1024
>>>>>Begin Spectral Data<<<<<
801.071	21892
801.214	21755
801.356	21629
801.499	21504
801.641	21355
801.783	21294
801.926	21367
802.068	21260
802.211	21192
802.353	21169
802.496	20899
802.638	20792
802.78	20750
802.923	20651
803.065	20560
803.208	20533
803.35	20648
803.492	20781
803.635	20720
803.777	20674
803.919	20674
804.061	20838
804.204	20670
804.346	20518
804.488	20495
804.63	20545
804.773	20518
804.915	20431
805.057	20514
805.199	20579
805.341	20606
805.483	20594
805.626	20629
805.768	20480
805.91	20537
806.052	20663
806.194	20377
806.336	20617
806.478	20507
806.62	20495
806.762	20583
806.904	20648
807.046	20944
807.188	20937
807.33	20842
807.472	20895
807.614	20720
807.756	20819
807.898	20648
808.04	20530
808.182	20629
808.324	20579
808.465	20484
808.607	20731
808.749	20933
808.891	20998
809.033	21039
809.174	20986
809.316	20918
809.458	20857
809.6	20785
809.741	20876
809.883	20952
810.025	21089
810.166	21036
810.308	20937
810.45	20963
810.591	20838
810.733	20720
810.875	20640
811.016	20629
811.158	20514
811.299	20644
811.441	20830
811.582	20765
811.724	20648
811.865	20598
812.007	20564
812.148	20594
812.29	20708
812.431	20826
812.573	20933
812.714	21043
812.855	21142
812.997	21230
813.138	21447
813.279	21131
813.421	21108
813.562	20971
813.703	20861
813.845	20864
813.986	20613
814.127	20313
814.268	20199
814.41	20206
814.551	20176
814.692	20153
814.833	20077
814.974	20130
815.115	20233
815.256	19986
815.397	20050
815.539	20176
815.68	19917
815.821	19837
815.962	19967
816.103	19852
816.244	19757
816.385	19677
816.526	19681
816.666	19460
816.807	19335
816.948	19388
817.089	19430
817.23	19388
817.371	19369
817.512	19282
817.653	19453
817.793	19240
817.934	19388
818.075	19350
818.216	19343
818.356	19327
818.497	19004
818.638	18901
818.778	19004
818.919	18985
819.06	18989
819.2	19126
819.341	19202
819.481	19236
819.622	19320
819.762	19476
819.903	19457
820.043	19358
820.184	19339
820.324	19430
820.465	19400
820.605	19354
820.746	19308
820.886	19244
821.026	19278
821.167	19175
821.307	19190
821.447	19209
821.588	19091
821.728	19019
821.868	18890
822.008	18757
822.149	18798
822.289	18650
822.429	18445
822.569	18353
822.709	18437
822.849	18068
822.99	18224
823.13	18239
823.27	18125
823.41	18114
823.55	17984
823.69	18121
823.83	17969
823.97	18003
824.11	17680
824.25	17710
824.389	17821
824.529	17863
824.669	17737
824.809	17821
824.949	17874
825.089	17764
825.228	17764
825.368	17570
825.508	17589
825.648	17596
825.787	17585
825.927	17592
826.067	17490
826.206	17585
826.346	17642
826.485	17573
826.625	17524
826.765	17668
826.904	17547
827.044	17315
827.183	17288
827.323	17178
827.462	17284
827.601	17159
827.741	17185
827.88	17181
828.02	17140
828.159	17178
828.298	17242
828.437	17261
828.577	17220
828.716	17429
828.855	17090
828.994	17094
829.134	16953
829.273	17075
829.412	16919
829.551	16866
829.69	17003
829.829	16938
829.968	17041
830.107	17006
830.246	17029
830.385	16927
830.524	16885
830.663	16885
830.802	16752
830.941	16592
831.08	16630
831.219	16683
831.357	16675
831.496	16904
831.635	16637
831.774	16478
831.913	16497
832.051	16417
832.19	16485
832.329	16443
832.467	16394
832.606	16242
832.744	16405
832.883	16314
833.022	16318
833.16	16409
833.299	16409
833.437	16284
833.576	16375
833.714	16356
833.852	16310
833.991	16405
834.129	16470
834.267	16440
834.406	16360
834.544	16436
834.682	16428
834.821	16348
834.959	16440
835.097	16303
835.235	16573
835.373	16363
835.511	16417
835.65	16314
835.788	16253
835.926	16074
836.064	16219
836.202	16188
836.34	16371
836.478	16497
836.615	16322
836.753	16367
836.891	16344
837.029	16215
837.167	16276
837.305	16192
837.443	16128
837.58	16074
837.718	16204
837.856	16177
837.993	16162
838.131	16299
838.269	16173
838.406	16055
838.544	15983
838.681	15854
838.819	15804
838.956	15739
839.094	15728
839.231	15781
839.369	15903
839.506	16124
839.643	15953
839.781	15713
839.918	15732
840.055	15743
840.193	15739
840.33	15713
840.467	15774
840.604	15713
840.742	16044
840.879	15625
841.016	15523
841.153	15660
841.29	15873
841.427	15739
841.564	15751
841.701	15713
841.838	15720
841.975	15751
842.112	15694
842.249	15454
842.385	15542
842.522	15747
842.659	15542
842.796	15477
842.933	15538
843.069	15454
843.206	15469
843.343	15603
843.479	15435
843.616	15523
843.752	15348
843.889	15317
844.025	15492
844.162	15329
844.298	15325
844.435	15226
844.571	15241
844.708	15382
844.844	15488
844.98	15473
845.117	15431
845.253	15283
845.389	15249
845.525	15325
845.661	15146
845.798	14990
845.934	15203
846.07	15005
846.206	15150
846.342	15256
846.478	15135
846.614	14830
846.75	14853
846.886	14853
847.022	14937
847.158	14929
847.294	14887
847.429	14899
847.565	14921
847.701	15119
847.837	14640
847.972	14590
848.108	14625
848.244	14648
848.379	14522
848.515	14503
848.65	14465
848.786	14484
848.921	14442
849.057	14644
849.192	14579
849.328	14571
849.463	14434
849.598	14484
849.734	14427
849.869	14305
850.004	14271
850.14	14324
850.275	14336
850.41	14244
850.545	14237
850.68	14180
850.815	14267
850.95	14206
851.085	14438
851.22	14320
851.355	14301
851.49	14240
851.625	14123
851.76	14172
851.895	14142
852.03	14103
852.165	14225
852.299	14202
852.434	14278
852.569	14233
852.703	14320
852.838	14294
852.973	14400
853.107	14347
853.242	14123
853.376	14134
853.511	13951
853.645	14008
853.78	14134
853.914	14065
854.048	14035
854.183	14069
854.317	14168
854.451	14305
854.585	14065
854.72	13997
854.854	14130
854.988	13997
855.122	14096
855.256	13883
855.39	14138
855.524	14153
855.658	14221
855.792	14107
855.926	14191
856.06	14202
856.194	14275
856.327	14126
856.461	14073
856.595	14077
856.729	14046
856.862	14347
856.996	14240
857.13	14180
857.263	14252
857.397	14142
857.53	14084
857.664	14233
857.797	14180
857.931	14248
858.064	14100
858.197	14176
858.331	14031
858.464	14039
858.597	14119
858.731	14096
858.864	14092
858.997	14195
859.13	14157
859.263	14142
859.396	14172
859.529	14058
859.662	14126
859.795	14081
859.928	14138
860.061	14233
860.194	14290
860.327	14183
860.46	13982
860.592	14248
860.725	14244
860.858	14278
860.99	14024
861.123	13993
861.256	14096
861.388	14092
861.521	14998
861.653	13982
861.786	13883
861.918	13967
862.05	13970
862.183	14123
862.315	14142
862.447	14123
862.58	14115
862.712	13974
862.844	13814
862.976	14016
863.108	13982
863.24	14221
863.372	13860
863.504	13921
863.636	13883
863.768	13982
863.9	13944
864.032	13860
864.164	13791
864.296	13868
864.428	14020
864.559	13932
864.691	13932
864.823	13925
864.954	13906
865.086	14001
865.217	13963
865.349	13791
865.48	13868
865.612	13875
865.743	14054
865.875	13955
866.006	13803
866.137	13906
866.269	13803
866.4	13830
866.531	13864
866.662	13822
866.793	13864
866.924	13925
867.055	13906
867.186	13894
867.317	13902
867.448	13719
867.579	13769
867.71	13871
867.841	13894
867.972	13833
868.103	13898
868.233	13879
868.364	13883
868.495	13951
868.625	14062
868.756	14187
868.886	14084
869.017	14130
869.147	14259
869.278	14221
869.408	14168
869.539	14145
869.669	14164
869.799	14126
869.929	14233
870.06	14298
870.19	14358
870.32	14457
870.45	14377
870.58	14526
870.71	14727
870.84	14644
870.97	14537
871.1	14457
871.23	14636
871.36	14754
871.489	14674
871.619	14693
871.749	14735
871.879	14811
872.008	14792
872.138	14773
872.267	14750
872.397	14587
872.526	14537
872.656	14602
872.785	14541
872.915	14864
873.044	14842
873.173	14830
873.303	14845
873.432	14815
873.561	14899
873.69	14735
873.819	14800
873.948	14868
874.077	14857
874.206	14697
874.335	14735
874.464	14975
874.593	15089
874.722	14971
874.851	15047
874.979	15161
875.108	15237
875.237	15100
875.365	15036
875.494	15081
875.623	15127
875.751	15127
875.88	15150
876.008	15218
876.136	15428
876.265	15564
876.393	15694
876.521	15614
876.65	15652
876.778	15549
876.906	15648
877.034	15428
877.162	15545
877.29	15412
877.418	15625
877.546	15599
877.674	15496
877.802	15580
877.93	15450
878.058	15485
878.185	15435
878.313	15568
878.441	15496
878.568	15275
878.696	15481
878.824	15549
878.951	15595
879.079	15679
879.206	15789
879.333	15747
879.461	15656
879.588	15557
879.715	15774
879.842	15854
879.97	15591
880.097	15351
880.224	15310
880.351	15469
880.478	15405
880.605	15359
880.732	15378
880.859	15667
880.986	15485
881.112	15405
881.239	15348
881.366	15119
881.493	15043
881.619	14963
881.746	15013
881.872	15043
881.999	15036
882.125	14990
882.252	15146
882.378	15036
882.505	15184
882.631	14941
882.757	14788
882.883	14845
883.01	14758
883.136	14815
883.262	14727
883.388	14785
883.514	14925
883.64	14918
883.766	14830
883.892	14651
884.018	14750
884.143	14872
884.269	14906
884.395	14697
884.52	14564
884.646	14575
884.772	14583
884.897	14549
885.023	14579
885.148	14670
885.274	14758
885.399	14682
885.524	14499
885.65	14549
885.775	14659
885.9	14488
886.025	14697
886.15	14674
886.275	14549
886.4	14412
886.525	14590
886.65	14590
886.775	14533
886.9	14727
887.025	14811
887.149	14583
887.274	14404
887.399	14309
887.523	14355
887.648	14412
887.773	14355
887.897	14412
888.021	14434
888.146	14347
888.27	14564
888.395	14499
888.519	14511
888.643	14442
888.767	14446
888.891	14347
889.015	14218
889.139	14263
889.263	14199
889.387	14336
889.511	14530
889.635	14317
889.759	14244
889.883	14282
890.006	14237
890.13	14492
890.254	14225
890.377	14199
890.501	14043
890.624	14035
890.748	14092
890.871	13955
890.995	13951
891.118	13849
891.241	14001
891.364	13902
891.488	14153
891.611	13959
891.734	14012
891.857	14027
891.98	13894
892.103	14115
892.226	14035
892.349	13940
892.471	13791
892.594	14008
892.717	14024
892.839	13814
892.962	13879
893.085	13982
893.207	14020
893.33	13814
893.452	13864
893.575	14008
893.697	14020
893.819	14111
893.941	14164
894.064	14065
894.186	13925
894.308	13917
894.43	14126
894.552	14248
894.674	14058
894.796	14016
894.918	13944
895.04	14065
895.161	14153
895.283	14111
895.405	14039
895.526	14073
895.648	14077
895.769	14100
895.891	14210
896.012	14092
896.134	14221
896.255	14210
896.376	14027
896.498	14180
896.619	14161
896.74	14103
896.861	14164
896.982	14423
897.103	14667
897.224	14473
897.345	14358
897.466	14328
897.587	14362
897.708	14480
897.828	14545
897.949	14358
898.07	14256
898.19	14317
898.311	14568
898.431	14362
898.552	14545
898.672	14598
898.792	14701
898.913	14598
899.033	14389
899.153	14286
899.273	14202
899.393	14377
899.513	14328
899.633	14400
899.753	14370
899.873	14278
899.993	14370
900.113	14336
900.232	14362
900.352	14290
900.472	14259
900.591	14176
900.711	14130
900.83	14202
900.95	14343
901.069	14286
901.189	14206
901.308	13868
901.427	13814
901.546	13833
901.665	13879
901.784	13955
901.904	13757
902.023	13693
902.141	13537
902.26	13362
902.379	13590
902.498	13449
902.617	13434
902.735	13620
902.854	13540
902.973	13426
903.091	13168
903.21	13141
903.328	13221
903.446	13084
903.565	12985
903.683	13057
903.801	13027
903.919	12981
904.038	13095
904.156	12863
904.274	12943
904.392	12779
904.51	12890
904.627	12871
904.745	12924
904.863	12973
904.981	12631
905.098	12483
905.216	12566
905.334	12604
905.451	12502
905.569	12429
905.686	12631
905.803	12544
905.921	12399
906.038	12452
906.155	12338
906.272	12247
906.389	12262
906.506	12098
906.623	12152
906.74	12155
906.857	12049
906.974	12057
907.091	12163
907.208	12190
907.324	12163
907.441	12053
907.557	11882
907.674	11901
907.79	11843
907.907	11912
908.023	11946
908.139	11942
908.256	11790
908.372	11779
908.488	11847
908.604	11661
908.72	11577
908.836	11752
908.952	11634
909.068	11608
909.184	11817
909.3	11600
909.415	11748
909.531	11649
909.647	11395
909.762	11463
909.878	11429
909.993	11474
910.108	11414
910.224	11402
910.339	11341
910.454	11395
910.57	11337
910.685	11208
910.8	11509
910.915	11471
911.03	11231
911.145	11102
911.259	11109
911.374	11170
911.489	11014
911.604	11098
911.718	10908
911.833	10892
911.947	10725
912.062	10759
912.176	10740
912.291	10881
912.405	10873
912.519	11045
912.633	11143
912.748	10934
912.862	10938
912.976	10717
913.09	10584
913.204	10683
913.318	10790
913.431	10873
913.545	10793
913.659	10923
913.772	10805
913.886	10615
914	10596
914.113	10656
914.226	10740
914.34	10740
914.453	10569
914.566	10706
914.68	10717
914.793	10596
914.906	10360
915.019	10390
915.132	10314
915.245	10394
915.358	10375
915.47	10447
915.583	10428
915.696	10500
915.809	10512
915.921	10554
916.034	10329
916.146	10306
916.259	10253
916.371	10447
916.483	10363
916.595	10272
916.708	10314
916.82	10325
916.932	10310
917.044	10291
917.156	10291
917.268	10234
917.38	10295
917.491	10234
917.603	10181
917.715	10276
917.826	10322
917.938	10158
918.049	10063
918.161	10196
918.272	10382
918.384	10379
918.495	10325
918.606	10013
918.717	9994
918.828	10139
918.939	10185
919.05	9994
919.161	10131
919.272	9907
919.383	9979
919.494	10158
919.604	10379
919.715	10120
919.826	10013
919.936	10036
920.047	10192
920.157	10109
920.267	10325
920.378	10169
920.488	10135
920.598	10280
920.708	10478
920.818	10360
920.928	10249
921.038	10474
921.148	10508
921.258	10131
921.368	10082
921.477	10010
921.587	9968
921.697	9861
921.806	9998
921.916	9846
922.025	9736
922.134	9637
922.244	9610
922.353	9709
922.462	9671
922.571	9496
922.68	9424
922.789	9291
922.898	9397
923.007	9386
923.116	9530
923.224	9386
923.333	9313
923.442	9188
923.55	9245
923.659	9306
923.767	9389
923.876	9249
923.984	9321
924.092	9199
924.201	9245
924.309	9237
924.417	9298
924.525	9184
924.633	9218
924.741	9956
924.849	9097
924.956	9150
925.064	9051
925.172	8975
925.279	9043
925.387	9058
925.494	9039
925.602	9165
925.709	9146
925.816	8979
925.924	8998
926.031	9131
926.138	9028
926.245	9123
926.352	8937
926.459	9104
926.566	9108
926.673	9047
926.779	8895
926.886	8872
926.993	8819
927.099	8788
927.206	8758
927.312	8720
927.419	8766
927.525	8781
927.631	8830
927.737	8682
927.843	8648
927.95	8537
928.056	8674
928.162	8716
928.267	8705
928.373	9332
928.479	8746
928.585	8526
928.69	8651
928.796	8686
928.901	8537
929.007	8404
929.112	8564
929.218	8526
929.323	8495
929.428	8507
929.533	8606
929.638	8393
929.743	8484
929.848	8549
929.953	8473
930.058	8351
930.163	8187
930.267	8256
930.372	8473
930.477	8267
930.581	8473
930.685	8366
930.79	8153
930.894	8199
930.998	8199
931.103	8328
931.207	7963
931.311	7955
931.415	7894
931.519	7677
931.623	7750
