Data from test_V78500241_681.txt Node
Date: Fri Mar 25 14:38:27 CST 2022
User: usil
Spectrometer: V785-0024
Trigger mode: 0
Integration Time (sec): 4.000000E-1
Scans to average: 1
Nonlinearity correction enabled: false
Boxcar width: 0
Storing dark spectrum: false
XAxis mode: Wavelengths
Number of Pixels in Spectrum: 1024
>>>>>Begin Spectral Data<<<<<
801.071	28185
801.214	28025
801.356	27736
801.499	27629
801.641	27378
801.783	27576
801.926	27447
802.068	27454
802.211	27370
802.353	27252
802.496	27070
802.638	27100
802.78	27039
802.923	26910
803.065	26963
803.208	26963
803.35	27013
803.492	27051
803.635	27260
803.777	27135
803.919	27214
804.061	27462
804.204	27325
804.346	27108
804.488	27218
804.63	27275
804.773	27211
804.915	27393
805.057	27572
805.199	27500
805.341	27675
805.483	27770
805.626	27705
805.768	27739
805.91	28074
806.052	28051
806.194	28070
806.336	28424
806.478	28512
806.62	28577
806.762	29018
806.904	29330
807.046	29912
807.188	30117
807.33	30749
807.472	31320
807.614	32035
807.756	32880
807.898	33895
808.04	35471
808.182	37400
808.324	40219
808.465	43255
808.607	46508
808.749	49350
808.891	51218
809.033	51545
809.174	49700
809.316	46771
809.458	43274
809.6	39793
809.741	37065
809.883	34923
810.025	33561
810.166	32294
810.308	31556
810.45	30696
810.591	30281
810.733	29775
810.875	29410
811.016	29033
811.158	28862
811.299	28896
811.441	28763
811.582	28557
811.724	28284
811.865	28185
812.007	28154
812.148	28074
812.29	27945
812.431	27907
812.573	28082
812.714	28067
812.855	28261
812.997	28162
813.138	28303
813.279	28333
813.421	28010
813.562	27926
813.703	27823
813.845	27587
813.986	27184
814.127	27077
814.268	27005
814.41	26952
814.551	26785
814.692	26975
814.833	26648
814.974	26674
815.115	26800
815.256	26564
815.397	26598
815.539	26431
815.68	26366
815.821	26259
815.962	26313
816.103	26233
816.244	26088
816.385	25986
816.526	25925
816.666	25970
816.807	25609
816.948	25715
817.089	25742
817.23	25799
817.371	25624
817.512	25643
817.653	25392
817.793	25438
817.934	25403
818.075	25571
818.216	25533
818.356	25613
818.497	25373
818.638	25164
818.778	25232
818.919	25304
819.06	25403
819.2	25434
819.341	25430
819.481	25464
819.622	25753
819.762	25681
819.903	25582
820.043	25464
820.184	25510
820.324	25419
820.465	25495
820.605	25453
820.746	25396
820.886	25213
821.026	25331
821.167	25320
821.307	25392
821.447	25327
821.588	25084
821.728	24897
821.868	24825
822.008	24722
822.149	24509
822.289	24639
822.429	24346
822.569	24346
822.709	24308
822.849	24060
822.99	23980
823.13	24136
823.27	23931
823.41	23843
823.55	23805
823.69	23878
823.83	23916
823.97	23828
824.11	23676
824.25	23752
824.389	23676
824.529	23623
824.669	23615
824.809	23798
824.949	23794
825.089	23695
825.228	23748
825.368	23429
825.508	23436
825.648	23433
825.787	23524
825.927	23657
826.067	23402
826.206	23395
826.346	23471
826.485	23345
826.625	23288
826.765	23520
826.904	23307
827.044	23235
827.183	23128
827.323	23014
827.462	23117
827.601	23075
827.741	23075
827.88	22957
828.02	22824
828.159	23029
828.298	23037
828.437	23128
828.577	23033
828.716	23109
828.855	22949
828.994	22717
829.134	22691
829.273	22858
829.412	22622
829.551	22634
829.69	22702
829.829	22740
829.968	22786
830.107	22767
830.246	22733
830.385	22778
830.524	22603
830.663	22542
830.802	22443
830.941	22459
831.08	22402
831.219	22413
831.357	22337
831.496	22504
831.635	22352
831.774	22409
831.913	22207
832.051	22234
832.19	22074
832.329	22310
832.467	22078
832.606	22044
832.744	22306
832.883	22257
833.022	22356
833.16	22386
833.299	22561
833.437	22683
833.576	23006
833.714	23037
833.852	23220
833.991	23292
834.129	23322
834.267	23379
834.406	23269
834.544	23216
834.682	23048
834.821	22942
834.959	23193
835.097	22630
835.235	22653
835.373	22417
835.511	22474
835.65	22276
835.788	22204
835.926	22029
836.064	21869
836.202	21869
836.34	21956
836.478	22044
836.615	21930
836.753	22025
836.891	21941
837.029	21823
837.167	21762
837.305	21728
837.443	21694
837.58	21781
837.718	21759
837.856	21641
837.993	21549
838.131	21595
838.269	21561
838.406	21549
838.544	21466
838.681	21389
838.819	21359
838.956	21203
839.094	21089
839.231	21123
839.369	21256
839.506	21477
839.643	21283
839.781	21119
839.918	20990
840.055	21066
840.193	20902
840.33	20971
840.467	21077
840.604	20971
840.742	21287
840.879	20906
841.016	20895
841.153	21001
841.29	21195
841.427	21020
841.564	21024
841.701	21123
841.838	20967
841.975	20944
842.112	20975
842.249	20785
842.385	20819
842.522	21070
842.659	20948
842.796	20895
842.933	20899
843.069	20849
843.206	20895
843.343	20998
843.479	21085
843.616	21001
843.752	20861
843.889	20899
844.025	21112
844.162	20975
844.298	21260
844.435	21359
844.571	21519
844.708	21762
844.844	22295
844.98	22717
845.117	23330
845.253	24350
845.389	26069
845.525	29828
845.661	35920
845.798	42734
845.934	47855
846.07	49898
846.206	48353
846.342	43247
846.478	36433
846.614	30475
846.75	26735
846.886	24422
847.022	22980
847.158	22219
847.294	21580
847.429	21165
847.565	20998
847.701	21017
847.837	20339
847.972	20244
848.108	20332
848.244	20332
848.379	20020
848.515	19837
848.65	19849
848.786	19894
848.921	19765
849.057	19864
849.192	19993
849.328	19860
849.463	19738
849.598	19616
849.734	19662
849.869	19597
850.004	19521
850.14	19518
850.275	19419
850.41	19396
850.545	19472
850.68	19468
850.815	19419
850.95	19274
851.085	19635
851.22	19529
851.355	19533
851.49	19449
851.625	19415
851.76	19350
851.895	19362
852.03	19350
852.165	19358
852.299	19449
852.434	19449
852.569	19533
852.703	19525
852.838	19556
852.973	19662
853.107	19556
853.242	19655
853.376	19476
853.511	19373
853.645	19449
853.78	19658
853.914	19704
854.048	19533
854.183	19563
854.317	19559
854.451	19833
854.585	19704
854.72	19704
854.854	19647
854.988	19506
855.122	19537
855.256	19304
855.39	19350
855.524	19468
855.658	19525
855.792	19339
855.926	19365
856.06	19354
856.194	19373
856.327	19255
856.461	19244
856.595	19221
856.729	19236
856.862	19285
856.996	19202
857.13	19384
857.263	19411
857.397	19327
857.53	19282
857.664	19206
857.797	19346
857.931	19251
858.064	19160
858.197	19266
858.331	19247
858.464	19091
858.597	19004
858.731	19152
858.864	19050
858.997	19031
859.13	19156
859.263	19194
859.396	19194
859.529	19084
859.662	19137
859.795	19031
859.928	19004
860.061	19202
860.194	19232
860.327	19110
860.46	19057
860.592	19148
860.725	19156
860.858	19122
860.99	19038
861.123	18951
861.256	18993
861.388	19042
861.521	19757
861.653	18928
861.786	18852
861.918	18871
862.05	18924
862.183	18996
862.315	19027
862.447	19114
862.58	18951
862.712	18821
862.844	18585
862.976	18825
863.108	18825
863.24	19000
863.372	18722
863.504	18616
863.636	18764
863.768	18677
863.9	18665
864.032	18692
864.164	18707
864.296	18749
864.428	18707
864.559	18745
864.691	18707
864.823	18688
864.954	18623
865.086	18753
865.217	18593
865.349	18513
865.48	18612
865.612	18639
865.743	18696
865.875	18650
866.006	18532
866.137	18684
866.269	18582
866.4	18658
866.531	18566
866.662	18612
866.793	18486
866.924	18448
867.055	18631
867.186	18551
867.317	18578
867.448	18490
867.579	18494
867.71	18513
867.841	18448
867.972	18601
868.103	18570
868.233	18547
868.364	18582
868.495	18673
868.625	18776
868.756	18977
868.886	18692
869.017	18700
869.147	19034
869.278	18962
869.408	18905
869.539	18863
869.669	18989
869.799	18878
869.929	18943
870.06	19034
870.19	19225
870.32	19088
870.45	19320
870.58	19259
870.71	19384
870.84	19312
870.97	19240
871.1	19285
871.23	19457
871.36	19537
871.489	19400
871.619	19594
871.749	19537
871.879	19601
872.008	19643
872.138	19582
872.267	19552
872.397	19567
872.526	19396
872.656	19403
872.785	19491
872.915	19677
873.044	19765
873.173	19849
873.303	19696
873.432	19784
873.561	19936
873.69	19849
873.819	19696
873.948	19917
874.077	19944
874.206	19940
874.335	19906
874.464	20183
874.593	20233
874.722	20206
874.851	20290
874.979	20415
875.108	20412
875.237	20450
875.365	20320
875.494	20476
875.623	20507
875.751	20499
875.88	20606
876.008	20705
876.136	20868
876.265	21165
876.393	21279
876.521	21382
876.65	21245
876.778	21424
876.906	21382
877.034	21431
877.162	21420
877.29	21595
877.418	21652
877.546	21713
877.674	21743
877.802	21823
877.93	22059
878.058	22341
878.185	22325
878.313	22664
878.441	23102
878.568	23387
878.696	23920
878.824	24783
878.951	25970
879.079	27564
879.206	29627
879.333	31727
879.461	33393
879.588	34561
879.715	34778
879.842	33641
879.97	31746
880.097	29691
880.224	28048
880.351	26891
880.478	26058
880.605	25343
880.732	24890
880.859	24791
880.986	24505
881.112	24357
881.239	24114
881.366	24110
881.493	24053
881.619	23836
881.746	24079
881.872	23832
881.999	24015
882.125	23893
882.252	24262
882.378	24277
882.505	24353
882.631	24041
882.757	23958
882.883	24064
883.01	24026
883.136	23916
883.262	23889
883.388	23878
883.514	23942
883.64	23927
883.766	23836
883.892	23543
884.018	23752
884.143	23893
884.269	24015
884.395	23752
884.52	23653
884.646	23543
884.772	23691
884.897	23562
885.023	23710
885.148	23695
885.274	23680
885.399	23562
885.524	23391
885.65	23242
885.775	23174
885.9	23083
886.025	23041
886.15	22675
886.275	22618
886.4	22451
886.525	22291
886.65	22120
886.775	22093
886.9	22036
887.025	22029
887.149	21667
887.274	21393
887.399	21401
887.523	21272
887.648	21180
887.773	21036
887.897	21146
888.021	21081
888.146	20815
888.27	20963
888.395	20914
888.519	20785
888.643	20746
888.767	20804
888.891	20537
889.015	20396
889.139	20427
889.263	20339
889.387	20267
889.511	20415
889.635	20233
889.759	20187
889.883	20050
890.006	20119
890.13	20134
890.254	19944
890.377	20027
890.501	19852
890.624	19727
890.748	19738
890.871	19609
890.995	19586
891.118	19422
891.241	19472
891.364	19358
891.488	19514
891.611	19403
891.734	19377
891.857	19381
891.98	19263
892.103	19274
892.226	19263
892.349	19202
892.471	18935
892.594	19080
892.717	19164
892.839	18996
892.962	18996
893.085	19053
893.207	18943
893.33	18791
893.452	18837
893.575	18909
893.697	18871
893.819	18859
893.941	18958
894.064	18920
894.186	18608
894.308	18703
894.43	18749
894.552	18848
894.674	18806
894.796	18479
894.918	18631
895.04	18509
895.161	18692
895.283	18589
895.405	18547
895.526	18517
895.648	18506
895.769	18681
895.891	18494
896.012	18616
896.134	18623
896.255	18452
896.376	18433
896.498	18429
896.619	18380
896.74	18559
896.861	18639
896.982	18726
897.103	18913
897.224	18730
897.345	18589
897.466	18601
897.587	18661
897.708	18749
897.828	18661
897.949	18574
898.07	18494
898.19	18566
898.311	18696
898.431	18536
898.552	18673
898.672	18696
898.792	18707
898.913	18604
899.033	18585
899.153	18483
899.273	18304
899.393	18388
899.513	18388
899.633	18471
899.753	18498
899.873	18467
899.993	18418
900.113	18334
900.232	18304
900.352	18186
900.472	18220
900.591	18110
900.711	18243
900.83	18247
900.95	18186
901.069	18243
901.189	18038
901.308	17908
901.427	17680
901.546	17901
901.665	17802
901.784	17798
901.904	17665
902.023	17520
902.141	17250
902.26	17208
902.379	17337
902.498	17147
902.617	17151
902.735	17189
902.854	16995
902.973	17025
903.091	16797
903.21	16835
903.328	16771
903.446	16713
903.565	16653
903.683	16698
903.801	16466
903.919	16577
904.038	16599
904.156	16382
904.274	16497
904.392	16341
904.51	16310
904.627	16394
904.745	16367
904.863	16382
904.981	16071
905.098	16010
905.216	15991
905.334	16040
905.451	16097
905.569	15972
905.686	15937
905.803	15987
905.921	15804
906.038	15964
906.155	15804
906.272	15694
906.389	15728
906.506	15580
906.623	15485
906.74	15584
906.857	15397
906.974	15397
907.091	15523
907.208	15614
907.324	15610
907.441	15435
907.557	15272
907.674	15256
907.79	15180
907.907	15157
908.023	15176
908.139	15272
908.256	15222
908.372	15123
908.488	15100
908.604	14982
908.72	14963
908.836	14914
908.952	15032
909.068	14948
909.184	15005
909.3	14986
909.415	14941
909.531	14880
909.647	14693
909.762	14602
909.878	14564
909.993	14712
910.108	14579
910.224	14564
910.339	14636
910.454	14492
910.57	14560
910.685	14431
910.8	14727
910.915	14651
911.03	14541
911.145	14336
911.259	14244
911.374	14309
911.489	14244
911.604	14153
911.718	14103
911.833	14081
911.947	14024
912.062	13864
912.176	13947
912.291	14069
912.405	14062
912.519	14206
912.633	14218
912.748	14073
912.862	13936
912.976	13883
913.09	13833
913.204	13864
913.318	13814
913.431	13978
913.545	13947
913.659	13963
913.772	13849
913.886	13712
914	13727
914.113	13845
914.226	13871
914.34	13704
914.453	13590
914.566	13780
914.68	13651
914.793	13674
914.906	13483
915.019	13438
915.132	13392
915.245	13324
915.358	13381
915.47	13445
915.583	13407
915.696	13445
915.809	13540
915.921	13563
916.034	13419
916.146	13358
916.259	13365
916.371	13453
916.483	13453
916.595	13362
916.708	13327
916.82	13403
916.932	13278
917.044	13324
917.156	13308
917.268	13240
917.38	13160
917.491	13042
917.603	13175
917.715	13187
917.826	13301
917.938	13076
918.049	13031
918.161	13175
918.272	13335
918.384	13099
918.495	13053
918.606	12951
918.717	12852
918.828	12962
918.939	12894
919.05	12707
919.161	12741
919.272	12700
919.383	12722
919.494	12909
919.604	13053
919.715	12882
919.826	12772
919.936	12764
920.047	12901
920.157	12943
920.267	12973
920.378	12897
920.488	12757
920.598	13004
920.708	13164
920.818	12966
920.928	12993
921.038	13183
921.148	13061
921.258	12821
921.368	12726
921.477	12490
921.587	12612
921.697	12471
921.806	12684
921.916	12494
922.025	12323
922.134	12190
922.244	12205
922.353	12323
922.462	12201
922.571	12095
922.68	12034
922.789	11908
922.898	11920
923.007	11901
923.116	11939
923.224	11961
923.333	11836
923.442	11817
923.55	11688
923.659	11729
923.767	11859
923.876	11684
923.984	11745
924.092	11547
924.201	11733
924.309	11767
924.417	11729
924.525	11642
924.633	11608
924.741	12490
924.849	11463
924.956	11535
925.064	11459
925.172	11433
925.279	11391
925.387	11490
925.494	11387
925.602	11604
925.709	11440
925.816	11417
925.924	11421
926.031	11509
926.138	11406
926.245	11455
926.352	11360
926.459	11486
926.566	11433
926.673	11345
926.779	11250
926.886	11155
926.993	11181
927.099	10980
927.206	10949
927.312	10961
927.419	11064
927.525	11045
927.631	11029
927.737	10911
927.843	10919
927.95	10850
928.056	10896
928.162	10927
928.267	11010
928.373	11433
928.479	11071
928.585	10706
928.69	10911
928.796	10942
928.901	10752
929.007	10683
929.112	10820
929.218	10740
929.323	10679
929.428	10691
929.533	10801
929.638	10554
929.743	10603
929.848	10630
929.953	10679
930.058	10558
930.163	10314
930.267	10409
930.372	10531
930.477	10348
930.581	10508
930.685	10455
930.79	10306
930.894	10390
930.998	10303
931.103	10394
931.207	10013
931.311	10025
931.415	9838
931.519	9774
931.623	9751
