Data from test_V78500241_847.txt Node
Date: Fri Mar 25 14:39:36 CST 2022
User: usil
Spectrometer: V785-0024
Trigger mode: 0
Integration Time (sec): 4.000000E-1
Scans to average: 1
Nonlinearity correction enabled: false
Boxcar width: 0
Storing dark spectrum: false
XAxis mode: Wavelengths
Number of Pixels in Spectrum: 1024
>>>>>Begin Spectral Data<<<<<
801.071	25921
801.214	25913
801.356	25601
801.499	25483
801.641	25354
801.783	25099
801.926	25183
802.068	25126
802.211	24962
802.353	24951
802.496	24905
802.638	24821
802.78	24749
802.923	24734
803.065	24635
803.208	24646
803.35	24677
803.492	24738
803.635	24753
803.777	24810
803.919	24882
804.061	25031
804.204	24871
804.346	24681
804.488	24829
804.63	24821
804.773	24783
804.915	24951
805.057	25061
805.199	25008
805.341	24992
805.483	25225
805.626	25034
805.768	25069
805.91	25148
806.052	25187
806.194	25282
806.336	25693
806.478	25483
806.62	25491
806.762	25845
806.904	26100
807.046	26549
807.188	26545
807.33	26811
807.472	27313
807.614	27511
807.756	28086
807.898	28675
808.04	29356
808.182	30661
808.324	31913
808.465	33443
808.607	35501
808.749	36958
808.891	37940
809.033	38096
809.174	36992
809.316	35490
809.458	33591
809.6	31776
809.741	30391
809.883	29090
810.025	28409
810.166	27800
810.308	27313
810.45	26891
810.591	26758
810.733	26263
810.875	26134
811.016	25814
811.158	25693
811.299	25803
811.441	25750
811.582	25590
811.724	25479
811.865	25358
812.007	25396
812.148	25217
812.29	25335
812.431	25400
812.573	25620
812.714	25597
812.855	25803
812.997	25674
813.138	25989
813.279	25655
813.421	25643
813.562	25499
813.703	25441
813.845	25187
813.986	24776
814.127	24711
814.268	24585
814.41	24707
814.551	24448
814.692	24620
814.833	24334
814.974	24456
815.115	24467
815.256	24205
815.397	24209
815.539	24220
815.68	24235
815.821	24003
815.962	24273
816.103	23999
816.244	24068
816.385	23927
816.526	23874
816.666	23668
816.807	23509
816.948	23467
817.089	23661
817.23	23436
817.371	23493
817.512	23528
817.653	23482
817.793	23296
817.934	23497
818.075	23452
818.216	23486
818.356	23398
818.497	23395
818.638	23094
818.778	23132
818.919	23117
819.06	23166
819.2	23166
819.341	23349
819.481	23341
819.622	23429
819.762	23623
819.903	23471
820.043	23486
820.184	23334
820.324	23296
820.465	23307
820.605	23433
820.746	23239
820.886	23220
821.026	23322
821.167	23155
821.307	23356
821.447	23273
821.588	23086
821.728	22934
821.868	22687
822.008	22478
822.149	22733
822.289	22580
822.429	22337
822.569	22268
822.709	22219
822.849	22135
822.99	22006
823.13	21979
823.27	22086
823.41	21762
823.55	21854
823.69	21831
823.83	21751
823.97	21743
824.11	21736
824.25	21564
824.389	21580
824.529	21728
824.669	21557
824.809	21800
824.949	21660
825.089	21743
825.228	21606
825.368	21492
825.508	21370
825.648	21473
825.787	21564
825.927	21310
826.067	21359
826.206	21325
826.346	21393
826.485	21397
826.625	21382
826.765	21504
826.904	21386
827.044	21135
827.183	21135
827.323	21039
827.462	21226
827.601	21104
827.741	21188
827.88	21112
828.02	20944
828.159	21043
828.298	20994
828.437	20967
828.577	20918
828.716	21161
828.855	20982
828.994	20792
829.134	20796
829.273	20788
829.412	20705
829.551	20697
829.69	20876
829.829	20792
829.968	20864
830.107	20838
830.246	20716
830.385	20606
830.524	20686
830.663	20484
830.802	20480
830.941	20317
831.08	20309
831.219	20320
831.357	20332
831.496	20412
831.635	20374
831.774	20252
831.913	20244
832.051	20180
832.19	20107
832.329	20206
832.467	20130
832.606	20024
832.744	20153
832.883	20142
833.022	20176
833.16	20191
833.299	20393
833.437	20313
833.576	20499
833.714	20530
833.852	20693
833.991	20686
834.129	20720
834.267	20781
834.406	20659
834.544	20724
834.682	20530
834.821	20537
834.959	20537
835.097	20343
835.235	20290
835.373	20305
835.511	20161
835.65	19982
835.788	19982
835.926	19909
836.064	19689
836.202	19685
836.34	19997
836.478	19833
836.615	19909
836.753	19856
836.891	19852
837.029	19799
837.167	19845
837.305	19772
837.443	19833
837.58	19712
837.718	19738
837.856	19776
837.993	19708
838.131	19708
838.269	19499
838.406	19658
838.544	19594
838.681	19377
838.819	19343
838.956	19103
839.094	19023
839.231	19179
839.369	19213
839.506	19499
839.643	19430
839.781	19095
839.918	19171
840.055	19114
840.193	19088
840.33	19061
840.467	19069
840.604	19088
840.742	19362
840.879	18943
841.016	18981
841.153	19023
841.29	19209
841.427	19137
841.564	19244
841.701	19084
841.838	18996
841.975	19008
842.112	19008
842.249	18973
842.385	18916
842.522	18954
842.659	18973
842.796	18859
842.933	18954
843.069	18894
843.206	18757
843.343	18897
843.479	18993
843.616	19034
843.752	18814
843.889	18848
844.025	18875
844.162	18829
844.298	18981
844.435	18951
844.571	19110
844.708	19343
844.844	19567
844.98	19811
845.117	20149
845.253	20492
845.389	21382
845.525	23159
845.661	26313
845.798	29828
845.934	32944
846.07	34120
846.206	33443
846.342	31183
846.478	27492
846.614	24152
846.75	21903
846.886	20697
847.022	19830
847.158	19320
847.294	18951
847.429	18783
847.565	18627
847.701	18787
847.837	18380
847.972	18152
848.108	18174
848.244	18205
848.379	17946
848.515	17832
848.65	17859
848.786	17942
848.921	17874
849.057	17920
849.192	17920
849.328	17836
849.463	17821
849.598	17615
849.734	17672
849.869	17710
850.004	17562
850.14	17630
850.275	17592
850.41	17516
850.545	17524
850.68	17482
850.815	17482
850.95	17433
851.085	17649
851.22	17512
851.355	17459
851.49	17459
851.625	17512
851.76	17535
851.895	17444
852.03	17356
852.165	17467
852.299	17562
852.434	17665
852.569	17547
852.703	17512
852.838	17577
852.973	17722
853.107	17649
853.242	17543
853.376	17429
853.511	17349
853.645	17429
853.78	17657
853.914	17543
854.048	17562
854.183	17444
854.317	17532
854.451	17726
854.585	17547
854.72	17501
854.854	17562
854.988	17493
855.122	17471
855.256	17288
855.39	17318
855.524	17436
855.658	17562
855.792	17524
855.926	17471
856.06	17444
856.194	17467
856.327	17417
856.461	17273
856.595	17227
856.729	17334
856.862	17395
856.996	17360
857.13	17345
857.263	17429
857.397	17368
857.53	17277
857.664	17299
857.797	17379
857.931	17486
858.064	17349
858.197	17455
858.331	17242
858.464	17147
858.597	17216
858.731	17261
858.864	17242
858.997	17250
859.13	17406
859.263	17212
859.396	17417
859.529	17223
859.662	17140
859.795	17307
859.928	17345
860.061	17448
860.194	17444
860.327	17242
860.46	17231
860.592	17334
860.725	17349
860.858	17216
860.99	17250
861.123	17208
861.256	17064
861.388	17170
861.521	17942
861.653	17170
861.786	17090
861.918	17109
862.05	17220
862.183	17132
862.315	17162
862.447	17223
862.58	17170
862.712	17029
862.844	17014
862.976	17102
863.108	17006
863.24	17334
863.372	16854
863.504	16885
863.636	16908
863.768	16866
863.9	16923
864.032	16854
864.164	16820
864.296	16949
864.428	17029
864.559	16976
864.691	17060
864.823	16949
864.954	16904
865.086	17006
865.217	16976
865.349	16774
865.48	16919
865.612	16847
865.743	16949
865.875	16797
866.006	16824
866.137	16934
866.269	16793
866.4	16953
866.531	16854
866.662	16812
866.793	16835
866.924	16721
867.055	16843
867.186	16847
867.317	16843
867.448	16729
867.579	16835
867.71	16729
867.841	16740
867.972	16976
868.103	16904
868.233	16938
868.364	16820
868.495	16995
868.625	17166
868.756	17151
868.886	17045
869.017	17029
869.147	17208
869.278	17208
869.408	17075
869.539	17166
869.669	17261
869.799	17151
869.929	17227
870.06	17330
870.19	17433
870.32	17490
870.45	17482
870.58	17505
870.71	17672
870.84	17729
870.97	17554
871.1	17543
871.23	17779
871.36	17745
871.489	17634
871.619	17737
871.749	17726
871.879	17634
872.008	17878
872.138	17691
872.267	17703
872.397	17752
872.526	17615
872.656	17570
872.785	17707
872.915	17885
873.044	17984
873.173	17912
873.303	17912
873.432	17893
873.561	18019
873.69	17961
873.819	17946
873.948	18053
874.077	18011
874.206	17977
874.335	18053
874.464	18087
874.593	18178
874.722	18152
874.851	18277
874.979	18448
875.108	18452
875.237	18308
875.365	18384
875.494	18311
875.623	18544
875.751	18319
875.88	18429
876.008	18528
876.136	18745
876.265	18920
876.393	19091
876.521	19099
876.65	19072
876.778	19050
876.906	19050
877.034	19023
877.162	19015
877.29	19179
877.418	19206
877.546	19213
877.674	19411
877.802	19331
877.93	19441
878.058	19457
878.185	19674
878.313	19681
878.441	20050
878.568	20065
878.696	20476
878.824	21017
878.951	21564
879.079	22512
879.206	23741
879.333	24783
879.461	25681
879.588	26195
879.715	26324
879.842	25898
879.97	24814
880.097	23395
880.224	22459
880.351	21888
880.478	21370
880.605	21009
880.732	20811
880.859	21005
880.986	20678
881.112	20670
881.239	20442
881.366	20366
881.493	20290
881.619	20180
881.746	20290
881.872	20298
881.999	20290
882.125	20134
882.252	20450
882.378	20362
882.505	20488
882.631	20214
882.757	20176
882.883	20225
883.01	20164
883.136	20077
883.262	20130
883.388	20077
883.514	20115
883.64	20138
883.766	20020
883.892	19978
884.018	19932
884.143	20161
884.269	20233
884.395	19757
884.52	19803
884.646	19871
884.772	19734
884.897	19780
885.023	19837
885.148	19925
885.274	19986
885.399	19959
885.524	19628
885.65	19605
885.775	19575
885.9	19491
886.025	19415
886.15	19403
886.275	19164
886.4	19129
886.525	19080
886.65	19019
886.775	18981
886.9	19042
887.025	19110
887.149	18821
887.274	18631
887.399	18456
887.523	18566
887.648	18414
887.773	18300
887.897	18498
888.021	18319
888.146	18216
888.27	18342
888.395	18395
888.519	18277
888.643	18087
888.767	18213
888.891	18110
889.015	17908
889.139	17889
889.263	17954
889.387	18060
889.511	18190
889.635	18019
889.759	17863
889.883	17832
890.006	17802
890.13	17973
890.254	17710
890.377	17741
890.501	17501
890.624	17592
890.748	17672
890.871	17512
890.995	17303
891.118	17334
891.241	17360
891.364	17368
891.488	17360
891.611	17250
891.734	17216
891.857	17360
891.98	17292
892.103	17246
892.226	17227
892.349	17105
892.471	16881
892.594	17189
892.717	17079
892.839	17071
892.962	17090
893.085	17105
893.207	17109
893.33	16824
893.452	16862
893.575	17075
893.697	17029
893.819	17140
893.941	17098
894.064	17094
894.186	16965
894.308	16923
894.43	17018
894.552	16980
894.674	16927
894.796	16816
894.918	16972
895.04	16847
895.161	16942
895.283	16987
895.405	16809
895.526	16786
895.648	16869
895.769	16976
895.891	16896
896.012	16892
896.134	16881
896.255	16957
896.376	16831
896.498	16919
896.619	16915
896.74	16892
896.861	16900
896.982	17231
897.103	17307
897.224	17227
897.345	17022
897.466	17003
897.587	17098
897.708	17265
897.828	17117
897.949	17083
898.07	16881
898.19	16976
898.311	17189
898.431	17079
898.552	17193
898.672	17288
898.792	17159
898.913	17185
899.033	16995
899.153	16953
899.273	16850
899.393	16881
899.513	17014
899.633	16919
899.753	17029
899.873	16869
899.993	17025
900.113	16831
900.232	16938
900.352	16809
900.472	16854
900.591	16660
900.711	16767
900.83	16710
900.95	16869
901.069	16839
901.189	16721
901.308	16470
901.427	16360
901.546	16352
901.665	16390
901.784	16394
901.904	16185
902.023	16139
902.141	16044
902.26	15953
902.379	16013
902.498	15804
902.617	15831
902.735	15880
902.854	15911
902.973	15819
903.091	15576
903.21	15542
903.328	15526
903.446	15439
903.565	15272
903.683	15359
903.801	15298
903.919	15351
904.038	15348
904.156	15119
904.274	15256
904.392	15097
904.51	15146
904.627	15150
904.745	15119
904.863	15214
904.981	14914
905.098	14773
905.216	14819
905.334	14800
905.451	14773
905.569	14804
905.686	14853
905.803	14689
905.921	14507
906.038	14594
906.155	14488
906.272	14484
906.389	14522
906.506	14400
906.623	14336
906.74	14286
906.857	14218
906.974	14206
907.091	14431
907.208	14450
907.324	14438
907.441	14130
907.557	14016
907.674	14050
907.79	14020
907.907	13917
908.023	13967
908.139	13997
908.256	13940
908.372	13830
908.488	13928
908.604	13742
908.72	13723
908.836	13708
908.952	13666
909.068	13689
909.184	13666
909.3	13833
909.415	13769
909.531	13765
909.647	13594
909.762	13426
909.878	13525
909.993	13552
910.108	13422
910.224	13415
910.339	13400
910.454	13476
910.57	13285
910.685	13282
910.8	13483
910.915	13449
911.03	13225
911.145	13183
911.259	13084
911.374	13149
911.489	13072
911.604	12966
911.718	12837
911.833	12894
911.947	12688
912.062	12677
912.176	12829
912.291	12886
912.405	12875
912.519	13080
912.633	13057
912.748	12878
912.862	12745
912.976	12753
913.09	12616
913.204	12631
913.318	12760
913.431	12787
913.545	12722
913.659	12795
913.772	12726
913.886	12601
914	12555
914.113	12612
914.226	12692
914.34	12650
914.453	12486
914.566	12654
914.68	12471
914.793	12486
914.906	12437
915.019	12258
915.132	12235
915.245	12258
915.358	12247
915.47	12235
915.583	12327
915.696	12403
915.809	12395
915.921	12437
916.034	12155
916.146	12281
916.259	12239
916.371	12289
916.483	12369
916.595	12133
916.708	12251
916.82	12277
916.932	12209
917.044	12213
917.156	12072
917.268	12011
917.38	12072
917.491	12083
917.603	12022
917.715	12114
917.826	12155
917.938	11984
918.049	11950
918.161	11999
918.272	12106
918.384	12125
918.495	11992
918.606	11851
918.717	11745
918.828	11836
918.939	11847
919.05	11809
919.161	11794
919.272	11619
919.383	11661
919.494	11847
919.604	12117
919.715	11908
919.826	11756
919.936	11786
920.047	11893
920.157	11882
920.267	12026
920.378	11847
920.488	11859
920.598	12064
920.708	12133
920.818	12019
920.928	11988
921.038	12136
921.148	12125
921.258	11878
921.368	11661
921.477	11676
921.587	11676
921.697	11440
921.806	11733
921.916	11528
922.025	11364
922.134	11318
922.244	11265
922.353	11337
922.462	11109
922.571	11147
922.68	10987
922.789	10980
922.898	11045
923.007	10919
923.116	10980
923.224	10896
923.333	10911
923.442	10748
923.55	10793
923.659	10869
923.767	10957
923.876	10862
923.984	10911
924.092	10759
924.201	10866
924.309	10725
924.417	10831
924.525	10744
924.633	10763
924.741	11596
924.849	10550
924.956	10668
925.064	10592
925.172	10462
925.279	10474
925.387	10569
925.494	10519
925.602	10675
925.709	10653
925.816	10379
925.924	10558
926.031	10546
926.138	10550
926.245	10584
926.352	10481
926.459	10580
926.566	10554
926.673	10428
926.779	10352
926.886	10318
926.993	10249
927.099	10166
927.206	10166
927.312	10135
927.419	10211
927.525	10223
927.631	10268
927.737	10120
927.843	10074
927.95	9949
928.056	9979
928.162	10093
928.267	10101
928.373	10717
928.479	10219
928.585	9975
928.69	10059
928.796	10093
928.901	9949
929.007	9869
929.112	9983
929.218	9991
929.323	9857
929.428	9922
929.533	9979
929.638	9876
929.743	9762
929.848	9846
929.953	9827
930.058	9679
930.163	9637
930.267	9587
930.372	9736
930.477	9564
930.581	9823
930.685	9675
930.79	9545
930.894	9523
930.998	9469
931.103	9644
931.207	9275
931.311	9222
931.415	9116
931.519	8998
931.623	8918
