Data from test_V78500241_536.txt Node
Date: Fri Mar 25 14:37:27 CST 2022
User: usil
Spectrometer: V785-0024
Trigger mode: 0
Integration Time (sec): 4.000000E-1
Scans to average: 1
Nonlinearity correction enabled: false
Boxcar width: 0
Storing dark spectrum: false
XAxis mode: Wavelengths
Number of Pixels in Spectrum: 1024
>>>>>Begin Spectral Data<<<<<
801.071	27374
801.214	27203
801.356	26880
801.499	26975
801.641	26743
801.783	26777
801.926	26788
802.068	26613
802.211	26473
802.353	26362
802.496	26396
802.638	26191
802.78	26244
802.923	26134
803.065	26065
803.208	26176
803.35	26183
803.492	26290
803.635	26336
803.777	26180
803.919	26442
804.061	26564
804.204	26286
804.346	26252
804.488	26298
804.63	26282
804.773	26191
804.915	26248
805.057	26461
805.199	26278
805.341	26457
805.483	26377
805.626	26488
805.768	26412
805.91	26438
806.052	26423
806.194	26476
806.336	26834
806.478	26785
806.62	26743
806.762	27096
806.904	27138
807.046	27454
807.188	27481
807.33	27576
807.472	27846
807.614	28048
807.756	28200
807.898	28352
808.04	28976
808.182	29665
808.324	30483
808.465	31343
808.607	32689
808.749	33523
808.891	34154
809.033	34044
809.174	33450
809.316	32393
809.458	31316
809.6	30410
809.741	29600
809.883	28809
810.025	28535
810.166	28333
810.308	28078
810.45	27873
810.591	27652
810.733	27355
810.875	27199
811.016	26925
811.158	26979
811.299	27104
811.441	26994
811.582	27116
811.724	26830
811.865	26667
812.007	26826
812.148	26701
812.29	26746
812.431	26842
812.573	27093
812.714	27028
812.855	27096
812.997	27138
813.138	27195
813.279	27264
813.421	27043
813.562	27013
813.703	26815
813.845	26708
813.986	26275
814.127	26256
814.268	26218
814.41	26008
814.551	26081
814.692	26248
814.833	26035
814.974	25963
815.115	25951
815.256	25841
815.397	25898
815.539	25883
815.68	25784
815.821	25731
815.962	25715
816.103	25624
816.244	25521
816.385	25563
816.526	25453
816.666	25240
816.807	25122
816.948	25156
817.089	25240
817.23	25095
817.371	25126
817.512	25015
817.653	25015
817.793	25069
817.934	25069
818.075	25065
818.216	24977
818.356	25008
818.497	24962
818.638	24661
818.778	24711
818.919	24783
819.06	24783
819.2	24730
819.341	24962
819.481	24886
819.622	25046
819.762	25240
819.903	25301
820.043	25080
820.184	25091
820.324	25042
820.465	25228
820.605	24954
820.746	24875
820.886	24901
821.026	24970
821.167	25023
821.307	24928
821.447	24779
821.588	24722
821.728	24486
821.868	24376
822.008	24330
822.149	24205
822.289	24098
822.429	23980
822.569	23878
822.709	23927
822.849	23893
822.99	23805
823.13	23668
823.27	23657
823.41	23577
823.55	23395
823.69	23528
823.83	23570
823.97	23474
824.11	23136
824.25	23212
824.389	23265
824.529	23284
824.669	23250
824.809	23322
824.949	23296
825.089	23280
825.228	23482
825.368	23128
825.508	23121
825.648	23113
825.787	23128
825.927	23056
826.067	22953
826.206	23037
826.346	23189
826.485	23048
826.625	22892
826.765	23143
826.904	23193
827.044	22892
827.183	22710
827.323	22675
827.462	22828
827.601	22744
827.741	22755
827.88	22752
828.02	22550
828.159	22584
828.298	22687
828.437	22645
828.577	22573
828.716	22763
828.855	22649
828.994	22485
829.134	22481
829.273	22390
829.412	22405
829.551	22344
829.69	22306
829.829	22440
829.968	22580
830.107	22405
830.246	22451
830.385	22371
830.524	22265
830.663	22112
830.802	22150
830.941	22029
831.08	21918
831.219	22109
831.357	22002
831.496	22253
831.635	22116
831.774	21850
831.913	21945
832.051	21781
832.19	21770
832.329	21827
832.467	21800
832.606	21736
832.744	21797
832.883	21808
833.022	21641
833.16	21751
833.299	21789
833.437	21823
833.576	21903
833.714	21945
833.852	21956
833.991	22013
834.129	22143
834.267	22048
834.406	22090
834.544	22143
834.682	22010
834.821	21907
834.959	21949
835.097	21644
835.235	21762
835.373	21774
835.511	21671
835.65	21622
835.788	21618
835.926	21359
836.064	21302
836.202	21291
836.34	21591
836.478	21485
836.615	21420
836.753	21466
836.891	21648
837.029	21477
837.167	21359
837.305	21386
837.443	21329
837.58	21294
837.718	21378
837.856	21344
837.993	21336
838.131	21287
838.269	21310
838.406	21264
838.544	21195
838.681	20975
838.819	21036
838.956	20815
839.094	20682
839.231	20773
839.369	20902
839.506	21089
839.643	21081
839.781	20682
839.918	20777
840.055	20773
840.193	20674
840.33	20765
840.467	20644
840.604	20705
840.742	20948
840.879	20564
841.016	20651
841.153	20480
841.29	20617
841.427	20739
841.564	20663
841.701	20636
841.838	20712
841.975	20560
842.112	20674
842.249	20488
842.385	20370
842.522	20674
842.659	20571
842.796	20347
842.933	20358
843.069	20347
843.206	20412
843.343	20431
843.479	20454
843.616	20446
843.752	20393
843.889	20206
844.025	20446
844.162	20180
844.298	20469
844.435	20336
844.571	20298
844.708	20533
844.844	20754
844.98	20830
845.117	21066
845.253	21226
845.389	21682
845.525	22782
845.661	24308
845.798	26423
845.934	28207
846.07	28968
846.206	28687
846.342	27313
846.478	25145
846.614	23067
846.75	21797
846.886	21024
847.022	20708
847.158	20290
847.294	20138
847.429	20065
847.565	19993
847.701	20096
847.837	19605
847.972	19487
848.108	19510
848.244	19605
848.379	19297
848.515	19320
848.65	19343
848.786	19183
848.921	19266
849.057	19312
849.192	19419
849.328	19308
849.463	19209
849.598	19152
849.734	19171
849.869	18989
850.004	19057
850.14	19004
850.275	19034
850.41	18859
850.545	18776
850.68	18924
850.815	19080
850.95	18943
851.085	19145
851.22	19034
851.355	18932
851.49	18875
851.625	18924
851.76	18947
851.895	18787
852.03	18700
852.165	18966
852.299	18897
852.434	19031
852.569	18977
852.703	18886
852.838	18932
852.973	19156
853.107	19103
853.242	18837
853.376	18810
853.511	18700
853.645	18768
853.78	18886
853.914	18924
854.048	18913
854.183	18768
854.317	18878
854.451	19046
854.585	18901
854.72	18859
854.854	18844
854.988	18703
855.122	18825
855.256	18817
855.39	18779
855.524	18837
855.658	18810
855.792	18757
855.926	18798
856.06	18741
856.194	18859
856.327	18722
856.461	18665
856.595	18730
856.729	18608
856.862	18859
856.996	18764
857.13	18787
857.263	18802
857.397	18757
857.53	18722
857.664	18787
857.797	18916
857.931	18802
858.064	18772
858.197	18878
858.331	18665
858.464	18547
858.597	18509
858.731	18665
858.864	18715
858.997	18688
859.13	18681
859.263	18688
859.396	18700
859.529	18616
859.662	18673
859.795	18642
859.928	18669
860.061	18802
860.194	18806
860.327	18681
860.46	18658
860.592	18703
860.725	18844
860.858	18795
860.99	18620
861.123	18460
861.256	18635
861.388	18650
861.521	19381
861.653	18498
861.786	18551
861.918	18608
862.05	18601
862.183	18646
862.315	18669
862.447	18738
862.58	18631
862.712	18426
862.844	18365
862.976	18494
863.108	18525
863.24	18791
863.372	18357
863.504	18399
863.636	18243
863.768	18353
863.9	18369
864.032	18369
864.164	18399
864.296	18330
864.428	18460
864.559	18502
864.691	18422
864.823	18410
864.954	18361
865.086	18403
865.217	18247
865.349	18201
865.48	18342
865.612	18319
865.743	18460
865.875	18171
866.006	18304
866.137	18388
866.269	18262
866.4	18304
866.531	18098
866.662	18133
866.793	18228
866.924	18235
867.055	18232
867.186	18273
867.317	18148
867.448	18133
867.579	18224
867.71	18102
867.841	18049
867.972	18216
868.103	18311
868.233	18289
868.364	18292
868.495	18281
868.625	18410
868.756	18563
868.886	18422
869.017	18441
869.147	18578
869.278	18540
869.408	18441
869.539	18399
869.669	18544
869.799	18547
869.929	18635
870.06	18631
870.19	18821
870.32	18623
870.45	18779
870.58	18829
870.71	19019
870.84	18985
870.97	18798
871.1	18840
871.23	19053
871.36	19004
871.489	18875
871.619	19057
871.749	19126
871.879	19129
872.008	19137
872.138	19031
872.267	19114
872.397	19076
872.526	18909
872.656	18970
872.785	18905
872.915	19076
873.044	19266
873.173	19187
873.303	19251
873.432	19236
873.561	19282
873.69	19304
873.819	19232
873.948	19304
874.077	19232
874.206	19251
874.335	19301
874.464	19426
874.593	19487
874.722	19552
874.851	19472
874.979	19552
875.108	19651
875.237	19537
875.365	19472
875.494	19605
875.623	19651
875.751	19540
875.88	19670
876.008	19913
876.136	19887
876.265	20012
876.393	20271
876.521	20229
876.65	20199
876.778	20126
876.906	20103
877.034	20092
877.162	20199
877.29	20145
877.418	20256
877.546	20457
877.674	20233
877.802	20317
877.93	20434
878.058	20385
878.185	20415
878.313	20461
878.441	20720
878.568	20655
878.696	20952
878.824	21211
878.951	21614
879.079	22143
879.206	22892
879.333	23562
879.461	24068
879.588	24456
879.715	24429
879.842	24319
879.97	23471
880.097	22546
880.224	22082
880.351	21736
880.478	21447
880.605	21272
880.732	21211
880.859	21222
880.986	20921
881.112	21055
881.239	20899
881.366	20651
881.493	20644
881.619	20488
881.746	20583
881.872	20659
881.999	20629
882.125	20587
882.252	20640
882.378	20655
882.505	20762
882.631	20579
882.757	20362
882.883	20549
883.01	20434
883.136	20317
883.262	20256
883.388	20263
883.514	20415
883.64	20438
883.766	20370
883.892	20111
884.018	20214
884.143	20309
884.269	20537
884.395	20069
884.52	20020
884.646	20077
884.772	19997
884.897	20039
885.023	20142
885.148	20180
885.274	20263
885.399	20145
885.524	20039
885.65	19936
885.775	19936
885.9	19890
886.025	20005
886.15	19871
886.275	19662
886.4	19628
886.525	19655
886.65	19495
886.775	19525
886.9	19647
887.025	19799
887.149	19510
887.274	19346
887.399	19240
887.523	19221
887.648	19148
887.773	19099
887.897	19236
888.021	19050
888.146	19046
888.27	19168
888.395	19209
888.519	19133
888.643	19072
888.767	18981
888.891	18935
889.015	18894
889.139	18844
889.263	18726
889.387	18901
889.511	18962
889.635	18859
889.759	18772
889.883	18791
890.006	18715
890.13	18791
890.254	18665
890.377	18566
890.501	18407
890.624	18399
890.748	18593
890.871	18270
890.995	18262
891.118	18239
891.241	18292
891.364	18232
891.488	18342
891.611	18194
891.734	18186
891.857	18304
891.98	18197
892.103	18372
892.226	18163
892.349	18045
892.471	18011
892.594	18079
892.717	18209
892.839	18038
892.962	18045
893.085	18136
893.207	18144
893.33	17980
893.452	17904
893.575	18019
893.697	18034
893.819	18182
893.941	18205
894.064	18201
894.186	17920
894.308	17935
894.43	18045
894.552	18129
894.674	18011
894.796	17885
894.918	18053
895.04	17942
895.161	18045
895.283	17988
895.405	17889
895.526	17942
895.648	18041
895.769	17996
895.891	17977
896.012	18011
896.134	17958
896.255	17916
896.376	17916
896.498	17961
896.619	17977
896.74	18003
896.861	18091
896.982	18414
897.103	18456
897.224	18266
897.345	18197
897.466	18194
897.587	18194
897.708	18220
897.828	18254
897.949	18106
898.07	18041
898.19	18159
898.311	18304
898.431	18125
898.552	18334
898.672	18251
898.792	18197
898.913	18197
899.033	18148
899.153	18068
899.273	17901
899.393	17969
899.513	17996
899.633	17920
899.753	17961
899.873	17889
899.993	17999
900.113	17882
900.232	18011
900.352	17954
900.472	17775
900.591	17828
900.711	17809
900.83	17630
900.95	17824
901.069	17984
901.189	17684
901.308	17474
901.427	17433
901.546	17520
901.665	17505
901.784	17482
901.904	17246
902.023	17090
902.141	16980
902.26	16953
902.379	16934
902.498	16889
902.617	16854
902.735	17003
902.854	16885
902.973	16999
903.091	16527
903.21	16554
903.328	16531
903.446	16382
903.565	16402
903.683	16314
903.801	16253
903.919	16268
904.038	16287
904.156	16207
904.274	16322
904.392	16082
904.51	16078
904.627	16131
904.745	16185
904.863	16143
904.981	16120
905.098	15679
905.216	15751
905.334	15785
905.451	15732
905.569	15720
905.686	15831
905.803	15808
905.921	15538
906.038	15701
906.155	15606
906.272	15511
906.389	15481
906.506	15287
906.623	15454
906.74	15188
906.857	15237
906.974	15268
907.091	15386
907.208	15401
907.324	15397
907.441	15252
907.557	15017
907.674	14929
907.79	14990
907.907	15032
908.023	15039
908.139	15055
908.256	14979
908.372	14883
908.488	14792
908.604	14746
908.72	14651
908.836	14697
908.952	14594
909.068	14785
909.184	14807
909.3	14777
909.415	14785
909.531	14743
909.647	14423
909.762	14381
909.878	14465
909.993	14442
910.108	14381
910.224	14408
910.339	14408
910.454	14358
910.57	14324
910.685	14206
910.8	14434
910.915	14400
911.03	14214
911.145	14020
911.259	14130
911.374	14039
911.489	14008
911.604	13978
911.718	13921
911.833	13750
911.947	13765
912.062	13708
912.176	13822
912.291	13693
912.405	13727
912.519	13913
912.633	13875
912.748	13871
912.862	13791
912.976	13613
913.09	13563
913.204	13597
913.318	13670
913.431	13670
913.545	13677
913.659	13803
913.772	13609
913.886	13460
914	13514
914.113	13613
914.226	13571
914.34	13537
914.453	13346
914.566	13502
914.68	13343
914.793	13373
914.906	13278
915.019	13217
915.132	13091
915.245	13225
915.358	13088
915.47	13110
915.583	13198
915.696	13232
915.809	13217
915.921	13289
916.034	13145
916.146	13152
916.259	13076
916.371	13282
916.483	13141
916.595	13038
916.708	13099
916.82	13034
916.932	13004
917.044	13042
917.156	12981
917.268	12924
917.38	12840
917.491	12947
917.603	12920
917.715	12901
917.826	13053
917.938	12738
918.049	12719
918.161	12920
918.272	12928
918.384	13046
918.495	12791
918.606	12726
918.717	12597
918.828	12764
918.939	12662
919.05	12620
919.161	12585
919.272	12441
919.383	12479
919.494	12715
919.604	12973
919.715	12635
919.826	12521
919.936	12593
920.047	12673
920.157	12631
920.267	12802
920.378	12696
920.488	12646
920.598	12829
920.708	12958
920.818	12753
920.928	12726
921.038	13000
921.148	12905
921.258	12566
921.368	12555
921.477	12422
921.587	12376
921.697	12311
921.806	12395
921.916	12319
922.025	12026
922.134	12152
922.244	11984
922.353	12057
922.462	11870
922.571	11893
922.68	11836
922.789	11680
922.898	11737
923.007	11649
923.116	11760
923.224	11646
923.333	11684
923.442	11608
923.55	11543
923.659	11592
923.767	11642
923.876	11547
923.984	11642
924.092	11486
924.201	11554
924.309	11467
924.417	11516
924.525	11444
924.633	11463
924.741	12194
924.849	11280
924.956	11444
925.064	11318
925.172	11181
925.279	11273
925.387	11296
925.494	11193
925.602	11402
925.709	11383
925.816	11185
925.924	11143
926.031	11223
926.138	11265
926.245	11258
926.352	11208
926.459	11296
926.566	11250
926.673	11102
926.779	11010
926.886	11079
926.993	10965
927.099	10869
927.206	10793
927.312	10797
927.419	10987
927.525	10809
927.631	10885
927.737	10831
927.843	10698
927.95	10599
928.056	10721
928.162	10736
928.267	10793
928.373	11242
928.479	10767
928.585	10618
928.69	10691
928.796	10767
928.901	10607
929.007	10481
929.112	10588
929.218	10527
929.323	10500
929.428	10516
929.533	10565
929.638	10295
929.743	10417
929.848	10531
929.953	10462
930.058	10341
930.163	10131
930.267	10185
930.372	10360
930.477	10188
930.581	10352
930.685	10169
930.79	10025
930.894	10162
930.998	10120
931.103	10162
931.207	9846
931.311	9869
931.415	9686
931.519	9515
931.623	9545
