Data from test_V78500241_2304.txt Node
Date: Fri Mar 25 14:49:45 CST 2022
User: usil
Spectrometer: V785-0024
Trigger mode: 0
Integration Time (sec): 4.000000E-1
Scans to average: 1
Nonlinearity correction enabled: false
Boxcar width: 0
Storing dark spectrum: false
XAxis mode: Wavelengths
Number of Pixels in Spectrum: 1024
>>>>>Begin Spectral Data<<<<<
801.071	22207
801.214	22055
801.356	21797
801.499	21686
801.641	21606
801.783	21526
801.926	21572
802.068	21618
802.211	21359
802.353	21291
802.496	21055
802.638	21043
802.78	20986
802.923	20952
803.065	20857
803.208	20807
803.35	20975
803.492	20979
803.635	21005
803.777	20956
803.919	20921
804.061	21298
804.204	21058
804.346	20857
804.488	20667
804.63	20929
804.773	20697
804.915	20781
805.057	20861
805.199	20716
805.341	20910
805.483	21055
805.626	21043
805.768	20788
805.91	20849
806.052	20804
806.194	20815
806.336	20948
806.478	20765
806.62	20746
806.762	20891
806.904	20979
807.046	21169
807.188	21165
807.33	21123
807.472	21146
807.614	20975
807.756	21028
807.898	20986
808.04	20792
808.182	20743
808.324	20792
808.465	21009
808.607	21096
808.749	21150
808.891	21393
809.033	21393
809.174	21336
809.316	21085
809.458	21188
809.6	21218
809.741	21222
809.883	21317
810.025	21439
810.166	21241
810.308	21481
810.45	21367
810.591	21146
810.733	21074
810.875	20929
811.016	20876
811.158	20796
811.299	21017
811.441	21096
811.582	21108
811.724	21047
811.865	20952
812.007	20979
812.148	20994
812.29	21009
812.431	21096
812.573	21302
812.714	21287
812.855	21443
812.997	21530
813.138	21709
813.279	21515
813.421	21420
813.562	21359
813.703	21074
813.845	21089
813.986	20830
814.127	20670
814.268	20541
814.41	20549
814.551	20469
814.692	20541
814.833	20366
814.974	20450
815.115	20552
815.256	20351
815.397	20404
815.539	20370
815.68	20377
815.821	20183
815.962	20164
816.103	20161
816.244	20001
816.385	19940
816.526	19917
816.666	19860
816.807	19723
816.948	19807
817.089	19734
817.23	19712
817.371	19635
817.512	19639
817.653	19597
817.793	19563
817.934	19556
818.075	19734
818.216	19643
818.356	19620
818.497	19472
818.638	19285
818.778	19377
818.919	19384
819.06	19251
819.2	19449
819.341	19533
819.481	19544
819.622	19757
819.762	19772
819.903	19681
820.043	19700
820.184	19594
820.324	19723
820.465	19674
820.605	19556
820.746	19597
820.886	19499
821.026	19529
821.167	19563
821.307	19586
821.447	19586
821.588	19434
821.728	19312
821.868	19023
822.008	19091
822.149	18958
822.289	18943
822.429	18757
822.569	18783
822.709	18684
822.849	18551
822.99	18532
823.13	18445
823.27	18422
823.41	18296
823.55	18277
823.69	18395
823.83	18346
823.97	18148
824.11	18095
824.25	17965
824.389	18087
824.529	18060
824.669	17965
824.809	18148
824.949	18174
825.089	18201
825.228	18083
825.368	17946
825.508	17855
825.648	17779
825.787	17961
825.927	17832
826.067	17840
826.206	17726
826.346	17927
826.485	17851
826.625	17855
826.765	18057
826.904	17752
827.044	17638
827.183	17680
827.323	17490
827.462	17642
827.601	17729
827.741	17436
827.88	17547
828.02	17391
828.159	17474
828.298	17535
828.437	17516
828.577	17478
828.716	17630
828.855	17433
828.994	17334
829.134	17277
829.273	17216
829.412	17166
829.551	17216
829.69	17277
829.829	17322
829.968	17330
830.107	17216
830.246	17414
830.385	17269
830.524	17284
830.663	17052
830.802	16965
830.941	16759
831.08	16930
831.219	16942
831.357	17033
831.496	17128
831.635	16908
831.774	16763
831.913	16801
832.051	16660
832.19	16683
832.329	16592
832.467	16565
832.606	16561
832.744	16569
832.883	16660
833.022	16508
833.16	16626
833.299	16558
833.437	16504
833.576	16588
833.714	16679
833.852	16622
833.991	16618
834.129	16641
834.267	16725
834.406	16596
834.544	16679
834.682	16675
834.821	16630
834.959	16752
835.097	16630
835.235	16744
835.373	16607
835.511	16653
835.65	16474
835.788	16519
835.926	16382
836.064	16371
836.202	16485
836.34	16531
836.478	16588
836.615	16481
836.753	16550
836.891	16565
837.029	16470
837.167	16504
837.305	16398
837.443	16424
837.58	16352
837.718	16398
837.856	16443
837.993	16287
838.131	16394
838.269	16333
838.406	16299
838.544	16177
838.681	16013
838.819	16067
838.956	15930
839.094	15888
839.231	15945
839.369	16109
839.506	16299
839.643	16158
839.781	15880
839.918	15918
840.055	15983
840.193	15964
840.33	15956
840.467	15888
840.604	15934
840.742	16048
840.879	15861
841.016	15846
841.153	15972
841.29	15972
841.427	15945
841.564	16006
841.701	15994
841.838	15899
841.975	15755
842.112	15831
842.249	15793
842.385	15675
842.522	15823
842.659	15724
842.796	15728
842.933	15739
843.069	15633
843.206	15618
843.343	15713
843.479	15686
843.616	15709
843.752	15633
843.889	15469
844.025	15603
844.162	15534
844.298	15603
844.435	15435
844.571	15355
844.708	15530
844.844	15591
844.98	15652
845.117	15629
845.253	15416
845.389	15386
845.525	15374
845.661	15370
845.798	15226
845.934	15325
846.07	15245
846.206	15367
846.342	15336
846.478	15272
846.614	14941
846.75	14971
846.886	14975
847.022	15150
847.158	15024
847.294	15093
847.429	15074
847.565	15009
847.701	15272
847.837	14834
847.972	14754
848.108	14853
848.244	14826
848.379	14705
848.515	14636
848.65	14655
848.786	14648
848.921	14537
849.057	14705
849.192	14765
849.328	14746
849.463	14648
849.598	14511
849.734	14518
849.869	14446
850.004	14362
850.14	14518
850.275	14412
850.41	14305
850.545	14317
850.68	14389
850.815	14347
850.95	14446
851.085	14571
851.22	14518
851.355	14362
851.49	14366
851.625	14404
851.76	14294
851.895	14282
852.03	14347
852.165	14374
852.299	14511
852.434	14488
852.569	14465
852.703	14454
852.838	14438
852.973	14606
853.107	14583
853.242	14339
853.376	14206
853.511	14176
853.645	14206
853.78	14427
853.914	14240
854.048	14256
854.183	14290
854.317	14393
854.451	14442
854.585	14294
854.72	14244
854.854	14412
854.988	14256
855.122	14199
855.256	14187
855.39	14278
855.524	14355
855.658	14370
855.792	14263
855.926	14286
856.06	14396
856.194	14320
856.327	14275
856.461	14267
856.595	14320
856.729	14309
856.862	14328
856.996	14324
857.13	14313
857.263	14339
857.397	14412
857.53	14362
857.664	14328
857.797	14370
857.931	14381
858.064	14358
858.197	14358
858.331	14370
858.464	14164
858.597	14183
858.731	14172
858.864	14298
858.997	14240
859.13	14267
859.263	14202
859.396	14385
859.529	14149
859.662	14206
859.795	14286
859.928	14275
860.061	14347
860.194	14492
860.327	14343
860.46	14229
860.592	14389
860.725	14408
860.858	14393
860.99	14267
861.123	14142
861.256	14237
861.388	14221
861.521	14857
861.653	14210
861.786	14176
861.918	14069
862.05	14256
862.183	14206
862.315	14237
862.447	14244
862.58	14229
862.712	14107
862.844	13974
862.976	14084
863.108	14043
863.24	14343
863.372	14031
863.504	14039
863.636	14050
863.768	14187
863.9	14046
864.032	13970
864.164	13944
864.296	14119
864.428	14088
864.559	14107
864.691	14153
864.823	14145
864.954	13986
865.086	14119
865.217	13997
865.349	14008
865.48	14012
865.612	14123
865.743	14206
865.875	13997
866.006	14005
866.137	13963
866.269	13947
866.4	14062
866.531	14065
866.662	13887
866.793	14016
866.924	13921
867.055	14024
867.186	13986
867.317	13989
867.448	13917
867.579	14027
867.71	13921
867.841	13925
867.972	14107
868.103	14016
868.233	13997
868.364	14016
868.495	14058
868.625	14210
868.756	14389
868.886	14195
869.017	14298
869.147	14431
869.278	14355
869.408	14408
869.539	14168
869.669	14385
869.799	14286
869.929	14404
870.06	14503
870.19	14621
870.32	14549
870.45	14644
870.58	14697
870.71	14743
870.84	14651
870.97	14587
871.1	14651
871.23	14914
871.36	14807
871.489	14788
871.619	14826
871.749	14921
871.879	14918
872.008	14986
872.138	14948
872.267	14857
872.397	14807
872.526	14739
872.656	14674
872.785	14705
872.915	14910
873.044	14944
873.173	14929
873.303	14982
873.432	14933
873.561	15020
873.69	14891
873.819	14967
873.948	14941
874.077	14918
874.206	14864
874.335	15039
874.464	15077
874.593	15093
874.722	15157
874.851	15264
874.979	15325
875.108	15256
875.237	15218
875.365	15176
875.494	15169
875.623	15344
875.751	15195
875.88	15256
876.008	15447
876.136	15507
876.265	15622
876.393	15793
876.521	15785
876.65	15766
876.778	15629
876.906	15614
877.034	15603
877.162	15663
877.29	15584
877.418	15679
877.546	15732
877.674	15629
877.802	15732
877.93	15724
878.058	15675
878.185	15553
878.313	15690
878.441	15641
878.568	15519
878.696	15572
878.824	15720
878.951	15770
879.079	15941
879.206	15823
879.333	15789
879.461	15641
879.588	15618
879.715	15915
879.842	15926
879.97	15690
880.097	15500
880.224	15450
880.351	15568
880.478	15538
880.605	15511
880.732	15443
880.859	15770
880.986	15534
881.112	15450
881.239	15416
881.366	15294
881.493	15188
881.619	15138
881.746	15169
881.872	15199
881.999	15085
882.125	15169
882.252	15192
882.378	15207
882.505	15351
882.631	15161
882.757	14933
882.883	14918
883.01	14902
883.136	14914
883.262	14826
883.388	14743
883.514	14941
883.64	14998
883.766	14895
883.892	14826
884.018	14731
884.143	15036
884.269	15058
884.395	14765
884.52	14598
884.646	14697
884.772	14530
884.897	14613
885.023	14750
885.148	14853
885.274	14937
885.399	14765
885.524	14762
885.65	14659
885.775	14720
885.9	14625
886.025	14697
886.15	14659
886.275	14663
886.4	14590
886.525	14549
886.65	14575
886.775	14583
886.9	14750
887.025	14842
887.149	14689
887.274	14484
887.399	14457
887.523	14381
887.648	14533
887.773	14332
887.897	14568
888.021	14610
888.146	14560
888.27	14754
888.395	14655
888.519	14655
888.643	14564
888.767	14629
888.891	14423
889.015	14317
889.139	14442
889.263	14305
889.387	14419
889.511	14648
889.635	14400
889.759	14347
889.883	14396
890.006	14381
890.13	14457
890.254	14336
890.377	14317
890.501	14168
890.624	14142
890.748	14252
890.871	14187
890.995	13951
891.118	13970
891.241	14065
891.364	14065
891.488	14206
891.611	14126
891.734	14062
891.857	14180
891.98	14126
892.103	14092
892.226	14142
892.349	13974
892.471	13936
892.594	14043
892.717	14130
892.839	14096
892.962	14126
893.085	14115
893.207	14058
893.33	13997
893.452	13970
893.575	14088
893.697	14027
893.819	14221
893.941	14377
894.064	14210
894.186	14084
894.308	14077
894.43	14145
894.552	14362
894.674	14275
894.796	14054
894.918	14107
895.04	14199
895.161	14214
895.283	14278
895.405	14103
895.526	14180
895.648	14164
895.769	14210
895.891	14180
896.012	14221
896.134	14187
896.255	14214
896.376	14149
896.498	14278
896.619	14434
896.74	14313
896.861	14248
896.982	14617
897.103	14739
897.224	14583
897.345	14450
897.466	14423
897.587	14526
897.708	14674
897.828	14541
897.949	14438
898.07	14305
898.19	14533
898.311	14674
898.431	14610
898.552	14617
898.672	14701
898.792	14739
898.913	14693
899.033	14526
899.153	14514
899.273	14427
899.393	14431
899.513	14465
899.633	14526
899.753	14488
899.873	14461
899.993	14541
900.113	14454
900.232	14568
900.352	14381
900.472	14389
900.591	14294
900.711	14317
900.83	14237
900.95	14461
901.069	14503
901.189	14263
901.308	14142
901.427	13963
901.546	13974
901.665	14100
901.784	14027
901.904	13864
902.023	13830
902.141	13731
902.26	13582
902.379	13788
902.498	13582
902.617	13552
902.735	13651
902.854	13582
902.973	13483
903.091	13384
903.21	13350
903.328	13339
903.446	13221
903.565	13221
903.683	13213
903.801	13046
903.919	13164
904.038	13156
904.156	13046
904.274	13004
904.392	12985
904.51	12977
904.627	12905
904.745	13065
904.863	13057
904.981	12810
905.098	12608
905.216	12684
905.334	12654
905.451	12589
905.569	12662
905.686	12760
905.803	12639
905.921	12460
906.038	12597
906.155	12426
906.272	12346
906.389	12372
906.506	12197
906.623	12315
906.74	12251
906.857	12087
906.974	12163
907.091	12292
907.208	12338
907.324	12296
907.441	12121
907.557	11965
907.674	11961
907.79	11942
907.907	11965
908.023	11980
908.139	11958
908.256	11878
908.372	11851
908.488	11752
908.604	11813
908.72	11798
908.836	11756
908.952	11665
909.068	11779
909.184	11859
909.3	11710
909.415	11882
909.531	11805
909.647	11592
909.762	11528
909.878	11467
909.993	11547
910.108	11512
910.224	11478
910.339	11535
910.454	11452
910.57	11471
910.685	11254
910.8	11608
910.915	11634
911.03	11398
911.145	11121
911.259	11242
911.374	11212
911.489	11124
911.604	11117
911.718	11010
911.833	10999
911.947	10900
912.062	10889
912.176	10953
912.291	10968
912.405	10953
912.519	11121
912.633	11140
912.748	11048
912.862	10949
912.976	10793
913.09	10790
913.204	10748
913.318	10869
913.431	10949
913.545	10927
913.659	10995
913.772	10835
913.886	10835
914	10675
914.113	10759
914.226	10896
914.34	10828
914.453	10649
914.566	10847
914.68	10660
914.793	10630
914.906	10500
915.019	10485
915.132	10436
915.245	10394
915.358	10440
915.47	10481
915.583	10569
915.696	10599
915.809	10672
915.921	10694
916.034	10466
916.146	10459
916.259	10394
916.371	10493
916.483	10447
916.595	10382
916.708	10500
916.82	10485
916.932	10394
917.044	10428
917.156	10375
917.268	10303
917.38	10318
917.491	10322
917.603	10268
917.715	10413
917.826	10421
917.938	10276
918.049	10166
918.161	10371
918.272	10424
918.384	10413
918.495	10318
918.606	10188
918.717	10067
918.828	10181
918.939	10211
919.05	10044
919.161	10162
919.272	10116
919.383	10078
919.494	10177
919.604	10402
919.715	10287
919.826	10154
919.936	10196
920.047	10265
920.157	10257
920.267	10329
920.378	10196
920.488	10188
920.598	10375
920.708	10588
920.818	10447
920.928	10455
921.038	10504
921.148	10481
921.258	10257
921.368	10116
921.477	10063
921.587	10074
921.697	9994
921.806	10051
921.916	10048
922.025	9842
922.134	9705
922.244	9732
922.353	9789
922.462	9759
922.571	9652
922.68	9542
922.789	9439
922.898	9496
923.007	9412
923.116	9485
923.224	9473
923.333	9496
923.442	9332
923.55	9332
923.659	9412
923.767	9519
923.876	9306
923.984	9405
924.092	9310
924.201	9313
924.309	9241
924.417	9355
924.525	9256
924.633	9264
924.741	10265
924.849	9097
924.956	9233
925.064	9116
925.172	9028
925.279	9097
925.387	9074
925.494	9173
925.602	9310
925.709	9184
925.816	8998
925.924	9100
926.031	9173
926.138	9112
926.245	9142
926.352	9055
926.459	9226
926.566	9176
926.673	9074
926.779	8956
926.886	8979
926.993	8891
927.099	8811
927.206	8807
927.312	8773
927.419	8853
927.525	8796
927.631	8918
927.737	8705
927.843	8758
927.95	8678
928.056	8686
928.162	8708
928.267	8811
928.373	9443
928.479	8853
928.585	8610
928.69	8663
928.796	8762
928.901	8579
929.007	8530
929.112	8659
929.218	8602
929.323	8560
929.428	8598
929.533	8621
929.638	8507
929.743	8537
929.848	8640
929.953	8606
930.058	8522
930.163	8256
930.267	8374
930.372	8393
930.477	8271
930.581	8518
930.685	8351
930.79	8294
930.894	8267
930.998	8237
931.103	8362
931.207	8100
931.311	8024
931.415	7928
931.519	7818
931.623	7769
