Data from test_V78500241_238.txt Node
Date: Fri Mar 25 14:35:22 CST 2022
User: usil
Spectrometer: V785-0024
Trigger mode: 0
Integration Time (sec): 4.000000E-1
Scans to average: 1
Nonlinearity correction enabled: false
Boxcar width: 0
Storing dark spectrum: false
XAxis mode: Wavelengths
Number of Pixels in Spectrum: 1024
>>>>>Begin Spectral Data<<<<<
801.071	27572
801.214	27667
801.356	27260
801.499	27294
801.641	27013
801.783	27096
801.926	27062
802.068	27013
802.211	26940
802.353	26849
802.496	26697
802.638	26621
802.78	26682
802.923	26499
803.065	26530
803.208	26617
803.35	26499
803.492	26712
803.635	26735
803.777	26602
803.919	26746
804.061	26895
804.204	26621
804.346	26617
804.488	26469
804.63	26537
804.773	26476
804.915	26530
805.057	26743
805.199	26476
805.341	26686
805.483	26682
805.626	26579
805.768	26602
805.91	26613
806.052	26720
806.194	26632
806.336	26937
806.478	26663
806.62	26587
806.762	26788
806.904	26910
807.046	26914
807.188	27039
807.33	26971
807.472	27131
807.614	26967
807.756	27096
807.898	26940
808.04	26842
808.182	27047
808.324	26990
808.465	26902
808.607	27169
808.749	27275
808.891	27374
809.033	27591
809.174	27336
809.316	27374
809.458	27329
809.6	27173
809.741	27287
809.883	27336
810.025	27367
810.166	27283
810.308	27340
810.45	27264
810.591	27348
810.733	26990
810.875	26921
811.016	26960
811.158	26849
811.299	26979
811.441	27051
811.582	27066
811.724	26975
811.865	27020
812.007	26994
812.148	26971
812.29	26925
812.431	27260
812.573	27256
812.714	27275
812.855	27374
812.997	27682
813.138	27717
813.279	27473
813.421	27370
813.562	27325
813.703	27256
813.845	27218
813.986	26902
814.127	26644
814.268	26602
814.41	26514
814.551	26659
814.692	26670
814.833	26644
814.974	26503
815.115	26427
815.256	26453
815.397	26412
815.539	26495
815.68	26237
815.821	26313
815.962	26358
816.103	26275
816.244	26142
816.385	26046
816.526	26111
816.666	25856
816.807	25689
816.948	25742
817.089	25742
817.23	25674
817.371	25624
817.512	25757
817.653	25632
817.793	25628
817.934	25658
818.075	25807
818.216	25807
818.356	25586
818.497	25487
818.638	25487
818.778	25209
818.919	25388
819.06	25335
819.2	25510
819.341	25552
819.481	25609
819.622	25700
819.762	25932
819.903	25727
820.043	25849
820.184	25590
820.324	25571
820.465	25693
820.605	25761
820.746	25643
820.886	25445
821.026	25662
821.167	25540
821.307	25742
821.447	25457
821.588	25457
821.728	25270
821.868	25137
822.008	25034
822.149	25031
822.289	24992
822.429	24783
822.569	24601
822.709	24623
822.849	24456
822.99	24471
823.13	24365
823.27	24452
823.41	24110
823.55	24148
823.69	24300
823.83	24251
823.97	24216
824.11	23980
824.25	24003
824.389	23912
824.529	24011
824.669	24079
824.809	24121
824.949	24194
825.089	24007
825.228	24045
825.368	23923
825.508	23802
825.648	23767
825.787	23996
825.927	23870
826.067	23703
826.206	23718
826.346	23733
826.485	23824
826.625	23699
826.765	23942
826.904	23676
827.044	23551
827.183	23577
827.323	23471
827.462	23596
827.601	23512
827.741	23490
827.88	23520
828.02	23280
828.159	23440
828.298	23387
828.437	23387
828.577	23250
828.716	23619
828.855	23353
828.994	23212
829.134	23208
829.273	23223
829.412	23140
829.551	23075
829.69	23136
829.829	23105
829.968	23212
830.107	23166
830.246	23060
830.385	23086
830.524	22987
830.663	22908
830.802	22850
830.941	22831
831.08	22675
831.219	22748
831.357	22847
831.496	22919
831.635	22668
831.774	22535
831.913	22767
832.051	22603
832.19	22421
832.329	22497
832.467	22314
832.606	22367
832.744	22424
832.883	22402
833.022	22303
833.16	22325
833.299	22291
833.437	22386
833.576	22402
833.714	22432
833.852	22363
833.991	22398
834.129	22459
834.267	22390
834.406	22417
834.544	22314
834.682	22356
834.821	22284
834.959	22504
835.097	22413
835.235	22394
835.373	22299
835.511	22318
835.65	22207
835.788	22188
835.926	22154
836.064	21956
836.202	22154
836.34	22143
836.478	22276
836.615	22162
836.753	22211
836.891	22272
837.029	22150
837.167	22196
837.305	21968
837.443	22013
837.58	21960
837.718	22074
837.856	22093
837.993	22032
838.131	22147
838.269	21941
838.406	22006
838.544	21888
838.681	21747
838.819	21629
838.956	21603
839.094	21447
839.231	21454
839.369	21557
839.506	21831
839.643	21701
839.781	21443
839.918	21428
840.055	21340
840.193	21370
840.33	21302
840.467	21340
840.604	21363
840.742	21675
840.879	21313
841.016	21454
841.153	21241
841.29	21340
841.427	21336
841.564	21294
841.701	21203
841.838	21283
841.975	21344
842.112	21279
842.249	21131
842.385	21108
842.522	21233
842.659	21020
842.796	21001
842.933	21074
843.069	21020
843.206	20933
843.343	21123
843.479	21135
843.616	21089
843.752	20754
843.889	20838
844.025	20910
844.162	20800
844.298	20967
844.435	20891
844.571	20724
844.708	20853
844.844	21039
844.98	20956
845.117	20933
845.253	20826
845.389	20788
845.525	20720
845.661	20785
845.798	20750
845.934	20998
846.07	20887
846.206	20960
846.342	20887
846.478	20785
846.614	20419
846.75	20286
846.886	20343
847.022	20465
847.158	20320
847.294	20294
847.429	20320
847.565	20259
847.701	20412
847.837	19890
847.972	19970
848.108	20202
848.244	20126
848.379	19887
848.515	19772
848.65	19887
848.786	19734
848.921	19856
849.057	19898
849.192	19963
849.328	19887
849.463	19864
849.598	19830
849.734	19833
849.869	19666
850.004	19594
850.14	19693
850.275	19556
850.41	19430
850.545	19502
850.68	19422
850.815	19597
850.95	19525
851.085	19651
851.22	19666
851.355	19502
851.49	19613
851.625	19449
851.76	19483
851.895	19487
852.03	19392
852.165	19430
852.299	19628
852.434	19605
852.569	19624
852.703	19419
852.838	19586
852.973	19586
853.107	19639
853.242	19403
853.376	19403
853.511	19274
853.645	19369
853.78	19487
853.914	19457
854.048	19217
854.183	19384
854.317	19392
854.451	19518
854.585	19400
854.72	19407
854.854	19502
854.988	19251
855.122	19331
855.256	19236
855.39	19411
855.524	19407
855.658	19438
855.792	19335
855.926	19476
856.06	19343
856.194	19449
856.327	19354
856.461	19339
856.595	19293
856.729	19377
856.862	19438
856.996	19339
857.13	19419
857.263	19502
857.397	19476
857.53	19301
857.664	19419
857.797	19449
857.931	19346
858.064	19350
858.197	19441
858.331	19194
858.464	19206
858.597	19225
858.731	19148
858.864	19285
858.997	19240
859.13	19362
859.263	19251
859.396	19365
859.529	19369
859.662	19175
859.795	19289
859.928	19263
860.061	19400
860.194	19472
860.327	19282
860.46	19225
860.592	19343
860.725	19407
860.858	19377
860.99	19190
861.123	19171
861.256	19141
861.388	19343
861.521	19970
861.653	19183
861.786	19031
861.918	19145
862.05	19228
862.183	19324
862.315	19316
862.447	19388
862.58	19244
862.712	19114
862.844	18947
862.976	19050
863.108	19027
863.24	19464
863.372	18962
863.504	19027
863.636	18951
863.768	19076
863.9	18935
864.032	18920
864.164	18943
864.296	19012
864.428	19008
864.559	19061
864.691	19133
864.823	18886
864.954	18993
865.086	18920
865.217	19038
865.349	18745
865.48	18916
865.612	18859
865.743	19065
865.875	18943
866.006	18909
866.137	18962
866.269	18954
866.4	18859
866.531	18890
866.662	18760
866.793	18802
866.924	18749
867.055	18768
867.186	18817
867.317	18688
867.448	18764
867.579	18749
867.71	18814
867.841	18825
867.972	18859
868.103	18719
868.233	18833
868.364	18897
868.495	18924
868.625	19164
868.756	19110
868.886	19000
869.017	19076
869.147	19110
869.278	19175
869.408	19061
869.539	19004
869.669	19095
869.799	19103
869.929	19244
870.06	19175
870.19	19381
870.32	19377
870.45	19350
870.58	19365
870.71	19575
870.84	19533
870.97	19343
871.1	19434
871.23	19757
871.36	19674
871.489	19518
871.619	19632
871.749	19552
871.879	19556
872.008	19856
872.138	19772
872.267	19632
872.397	19502
872.526	19552
872.656	19453
872.785	19430
872.915	19753
873.044	19658
873.173	19746
873.303	19620
873.432	19647
873.561	19803
873.69	19807
873.819	19723
873.948	19833
874.077	19677
874.206	19723
874.335	19742
874.464	19738
874.593	20016
874.722	19963
874.851	20119
874.979	19967
875.108	20119
875.237	19970
875.365	19833
875.494	19940
875.623	20005
875.751	19944
875.88	20084
876.008	20119
876.136	20164
876.265	20358
876.393	20476
876.521	20484
876.65	20492
876.778	20351
876.906	20263
877.034	20305
877.162	20377
877.29	20347
877.418	20298
877.546	20469
877.674	20374
877.802	20389
877.93	20351
878.058	20256
878.185	20252
878.313	20301
878.441	20374
878.568	20286
878.696	20366
878.824	20446
878.951	20522
879.079	20621
879.206	20621
879.333	20712
879.461	20583
879.588	20644
879.715	20720
879.842	20781
879.97	20530
880.097	20362
880.224	20317
880.351	20237
880.478	20183
880.605	20100
880.732	20229
880.859	20442
880.986	20256
881.112	20248
881.239	20092
881.366	20111
881.493	19959
881.619	19959
881.746	19723
881.872	19757
881.999	19715
882.125	19776
882.252	19849
882.378	19940
882.505	20016
882.631	19852
882.757	19658
882.883	19715
883.01	19658
883.136	19677
883.262	19464
883.388	19426
883.514	19616
883.64	19632
883.766	19540
883.892	19411
884.018	19430
884.143	19647
884.269	19681
884.395	19343
884.52	19266
884.646	19282
884.772	19282
884.897	19137
885.023	19213
885.148	19384
885.274	19392
885.399	19343
885.524	19171
885.65	19160
885.775	19255
885.9	19202
886.025	19445
886.15	19327
886.275	19088
886.4	18954
886.525	19221
886.65	19209
886.775	19137
886.9	19247
887.025	19457
887.149	19183
887.274	19031
887.399	18859
887.523	18973
887.648	18901
887.773	18909
887.897	19008
888.021	18977
888.146	18863
888.27	19076
888.395	19023
888.519	18859
888.643	19015
888.767	18993
888.891	18814
889.015	18798
889.139	18810
889.263	18757
889.387	18856
889.511	19004
889.635	18905
889.759	18738
889.883	18722
890.006	18753
890.13	18787
890.254	18639
890.377	18601
890.501	18407
890.624	18429
890.748	18559
890.871	18426
890.995	18338
891.118	18273
891.241	18342
891.364	18308
891.488	18445
891.611	18403
891.734	18296
891.857	18395
891.98	18380
892.103	18426
892.226	18460
892.349	18304
892.471	18209
892.594	18239
892.717	18429
892.839	18308
892.962	18292
893.085	18296
893.207	18395
893.33	18281
893.452	18258
893.575	18357
893.697	18254
893.819	18380
893.941	18509
894.064	18498
894.186	18254
894.308	18281
894.43	18304
894.552	18517
894.674	18410
894.796	18239
894.918	18308
895.04	18304
895.161	18399
895.283	18357
895.405	18334
895.526	18235
895.648	18384
895.769	18327
895.891	18342
896.012	18410
896.134	18422
896.255	18319
896.376	18281
896.498	18357
896.619	18483
896.74	18292
896.861	18418
896.982	18707
897.103	18852
897.224	18612
897.345	18601
897.466	18627
897.587	18601
897.708	18795
897.828	18574
897.949	18525
898.07	18452
898.19	18547
898.311	18734
898.431	18532
898.552	18650
898.672	18688
898.792	18601
898.913	18521
899.033	18418
899.153	18429
899.273	18266
899.393	18258
899.513	18388
899.633	18338
899.753	18357
899.873	18311
899.993	18426
900.113	18342
900.232	18414
900.352	18311
900.472	18186
900.591	18239
900.711	18197
900.83	18117
900.95	18369
901.069	18220
901.189	18095
901.308	17847
901.427	17813
901.546	17840
901.665	17843
901.784	17882
901.904	17737
902.023	17566
902.141	17334
902.26	17459
902.379	17376
902.498	17303
902.617	17216
902.735	17250
902.854	17307
902.973	17261
903.091	16999
903.21	16991
903.328	16934
903.446	16961
903.565	16816
903.683	16774
903.801	16653
903.919	16774
904.038	16717
904.156	16656
904.274	16565
904.392	16580
904.51	16516
904.627	16493
904.745	16535
904.863	16580
904.981	16337
905.098	16246
905.216	16185
905.334	16284
905.451	16143
905.569	16204
905.686	16246
905.803	16215
905.921	16021
906.038	16192
906.155	16032
906.272	15880
906.389	15956
906.506	15739
906.623	15854
906.74	15698
906.857	15576
906.974	15728
907.091	15823
907.208	15884
907.324	15770
907.441	15686
907.557	15492
907.674	15473
907.79	15469
907.907	15454
908.023	15500
908.139	15481
908.256	15306
908.372	15351
908.488	15298
908.604	15135
908.72	15222
908.836	15116
908.952	15199
909.068	15230
909.184	15195
909.3	15032
909.415	15138
909.531	15039
909.647	14918
909.762	14868
909.878	14845
909.993	14845
910.108	14864
910.224	14815
910.339	14849
910.454	14724
910.57	14629
910.685	14575
910.8	14838
910.915	14788
911.03	14606
911.145	14484
911.259	14552
911.374	14473
911.489	14465
911.604	14309
911.718	14294
911.833	14301
911.947	14084
912.062	14073
912.176	14172
912.291	14225
912.405	14172
912.519	14408
912.633	14385
912.748	14328
912.862	14149
912.976	14058
913.09	13978
913.204	14031
913.318	14073
913.431	14202
913.545	14138
913.659	14168
913.772	13955
913.886	13936
914	13902
914.113	13909
914.226	13959
914.34	13898
914.453	13723
914.566	13955
914.68	13704
914.793	13723
914.906	13666
915.019	13544
915.132	13559
915.245	13529
915.358	13624
915.47	13643
915.583	13578
915.696	13544
915.809	13655
915.921	13620
916.034	13499
916.146	13396
916.259	13430
916.371	13491
916.483	13521
916.595	13339
916.708	13453
916.82	13384
916.932	13335
917.044	13343
917.156	13373
917.268	13297
917.38	13209
917.491	13206
917.603	13228
917.715	13346
917.826	13381
917.938	13217
918.049	13129
918.161	13122
918.272	13266
918.384	13236
918.495	13213
918.606	13084
918.717	12928
918.828	13050
918.939	13065
919.05	12924
919.161	12947
919.272	12806
919.383	12852
919.494	13027
919.604	13198
919.715	12977
919.826	12954
919.936	12985
920.047	13000
920.157	13023
920.267	13225
920.378	12913
920.488	12981
920.598	13175
920.708	13282
920.818	13179
920.928	13084
921.038	13346
921.148	13183
921.258	12894
921.368	12943
921.477	12719
921.587	12654
921.697	12654
921.806	12719
921.916	12551
922.025	12483
922.134	12407
922.244	12346
922.353	12422
922.462	12296
922.571	12186
922.68	12026
922.789	12011
922.898	12026
923.007	12019
923.116	12003
923.224	12064
923.333	12019
923.442	11950
923.55	11923
923.659	11904
923.767	11973
923.876	11817
923.984	11950
924.092	11809
924.201	11916
924.309	11832
924.417	11828
924.525	11710
924.633	11767
924.741	12669
924.849	11570
924.956	11634
925.064	11535
925.172	11478
925.279	11512
925.387	11668
925.494	11585
925.602	11794
925.709	11653
925.816	11528
925.924	11505
926.031	11630
926.138	11615
926.245	11604
926.352	11436
926.459	11562
926.566	11657
926.673	11425
926.779	11368
926.886	11368
926.993	11170
927.099	11170
927.206	11143
927.312	11147
927.419	11273
927.525	11140
927.631	11162
927.737	11090
927.843	11010
927.95	10946
928.056	10987
928.162	11029
928.267	11048
928.373	11520
928.479	11102
928.585	10866
928.69	10923
928.796	10999
928.901	10927
929.007	10755
929.112	10908
929.218	10843
929.323	10793
929.428	10763
929.533	10889
929.638	10637
929.743	10660
929.848	10679
929.953	10748
930.058	10630
930.163	10565
930.267	10432
930.372	10588
930.477	10489
930.581	10691
930.685	10618
930.79	10379
930.894	10375
930.998	10272
931.103	10500
931.207	10158
931.311	10017
931.415	9953
931.519	9762
931.623	9797
