Data from test_V78500241_1418.txt Node
Date: Fri Mar 25 14:43:35 CST 2022
User: usil
Spectrometer: V785-0024
Trigger mode: 0
Integration Time (sec): 4.000000E-1
Scans to average: 1
Nonlinearity correction enabled: false
Boxcar width: 0
Storing dark spectrum: false
XAxis mode: Wavelengths
Number of Pixels in Spectrum: 1024
>>>>>Begin Spectral Data<<<<<
801.071	22417
801.214	22333
801.356	22074
801.499	21998
801.641	21915
801.783	21797
801.926	21838
802.068	21739
802.211	21637
802.353	21690
802.496	21408
802.638	21348
802.78	21245
802.923	21131
803.065	21077
803.208	21203
803.35	21165
803.492	21222
803.635	21275
803.777	21096
803.919	21184
804.061	21587
804.204	21264
804.346	21051
804.488	21062
804.63	21146
804.773	20960
804.915	21085
805.057	21184
805.199	21195
805.341	21268
805.483	21142
805.626	21123
805.768	21013
805.91	21039
806.052	21096
806.194	21013
806.336	21241
806.478	20872
806.62	21036
806.762	21142
806.904	21294
807.046	21481
807.188	21511
807.33	21443
807.472	21397
807.614	21348
807.756	21302
807.898	21237
808.04	21131
808.182	21302
808.324	21340
808.465	21389
808.607	21496
808.749	21732
808.891	21861
809.033	21850
809.174	21789
809.316	21648
809.458	21732
809.6	21614
809.741	21755
809.883	21644
810.025	21751
810.166	21686
810.308	21530
810.45	21622
810.591	21485
810.733	21401
810.875	21348
811.016	21260
811.158	21074
811.299	21260
811.441	21431
811.582	21485
811.724	21237
811.865	21275
812.007	21157
812.148	21218
812.29	21211
812.431	21420
812.573	21591
812.714	21610
812.855	21709
812.997	21922
813.138	21861
813.279	21823
813.421	21755
813.562	21690
813.703	21450
813.845	21317
813.986	21199
814.127	20956
814.268	21032
814.41	20963
814.551	20861
814.692	20830
814.833	20636
814.974	20743
815.115	20819
815.256	20636
815.397	20659
815.539	20678
815.68	20541
815.821	20412
815.962	20533
816.103	20518
816.244	20389
816.385	20298
816.526	20263
816.666	20138
816.807	19997
816.948	19997
817.089	20058
817.23	19955
817.371	20001
817.512	19947
817.653	19909
817.793	19879
817.934	19947
818.075	20012
818.216	19959
818.356	19898
818.497	19856
818.638	19537
818.778	19578
818.919	19632
819.06	19601
819.2	19852
819.341	19780
819.481	19890
819.622	19868
819.762	20122
819.903	20122
820.043	20084
820.184	20001
820.324	19928
820.465	19963
820.605	19913
820.746	19974
820.886	19681
821.026	19947
821.167	19940
821.307	19898
821.447	19864
821.588	19753
821.728	19753
821.868	19426
822.008	19308
822.149	19240
822.289	19244
822.429	19179
822.569	19099
822.709	18947
822.849	18787
822.99	18772
823.13	18783
823.27	18681
823.41	18635
823.55	18608
823.69	18597
823.83	18623
823.97	18486
824.11	18369
824.25	18395
824.389	18426
824.529	18380
824.669	18426
824.809	18585
824.949	18490
825.089	18456
825.228	18452
825.368	18247
825.508	18110
825.648	18205
825.787	18258
825.927	18190
826.067	18133
826.206	18178
826.346	18296
826.485	18258
826.625	18125
826.765	18243
826.904	18216
827.044	18019
827.183	17935
827.323	17870
827.462	17901
827.601	17832
827.741	17786
827.88	17942
828.02	17843
828.159	17764
828.298	17832
828.437	17977
828.577	17927
828.716	17897
828.855	17847
828.994	17608
829.134	17684
829.273	17695
829.412	17676
829.551	17623
829.69	17649
829.829	17592
829.968	17695
830.107	17627
830.246	17589
830.385	17661
830.524	17562
830.663	17364
830.802	17459
830.941	17368
831.08	17242
831.219	17433
831.357	17330
831.496	17372
831.635	17239
831.774	17075
831.913	17128
832.051	17018
832.19	17018
832.329	17041
832.467	16938
832.606	16946
832.744	16911
832.883	16946
833.022	16828
833.16	16915
833.299	16949
833.437	16930
833.576	17025
833.714	16835
833.852	16968
833.991	17006
834.129	16927
834.267	17018
834.406	17022
834.544	16957
834.682	16995
834.821	16965
834.959	17037
835.097	16877
835.235	16999
835.373	17014
835.511	17003
835.65	16915
835.788	16854
835.926	16683
836.064	16691
836.202	16634
836.34	16862
836.478	17006
836.615	16892
836.753	16923
836.891	16881
837.029	16873
837.167	16904
837.305	16835
837.443	16752
837.58	16675
837.718	16839
837.856	16725
837.993	16672
838.131	16664
838.269	16603
838.406	16687
838.544	16489
838.681	16428
838.819	16436
838.956	16322
839.094	16230
839.231	16371
839.369	16417
839.506	16656
839.643	16580
839.781	16325
839.918	16211
840.055	16367
840.193	16253
840.33	16249
840.467	16287
840.604	16280
840.742	16516
840.879	16234
841.016	16223
841.153	16063
841.29	16360
841.427	16265
841.564	16329
841.701	16303
841.838	16268
841.975	16234
842.112	16192
842.249	16097
842.385	16036
842.522	16223
842.659	16120
842.796	16040
842.933	16105
843.069	15975
843.206	16048
843.343	16166
843.479	16128
843.616	16017
843.752	15918
843.889	15903
844.025	15918
844.162	15823
844.298	15991
844.435	15888
844.571	15728
844.708	15964
844.844	15972
844.98	15873
845.117	15911
845.253	15789
845.389	15846
845.525	15728
845.661	15880
845.798	15899
845.934	15991
846.07	15922
846.206	16093
846.342	16040
846.478	15865
846.614	15622
846.75	15534
846.886	15355
847.022	15466
847.158	15435
847.294	15492
847.429	15580
847.565	15351
847.701	15633
847.837	15146
847.972	15195
848.108	15264
848.244	15275
848.379	15104
848.515	14998
848.65	14975
848.786	15036
848.921	15074
849.057	15161
849.192	15184
849.328	14960
849.463	14979
849.598	14941
849.734	14979
849.869	14899
850.004	14800
850.14	14815
850.275	14708
850.41	14689
850.545	14686
850.68	14823
850.815	14720
850.95	14762
851.085	14929
851.22	14872
851.355	14739
851.49	14743
851.625	14659
851.76	14731
851.895	14537
852.03	14705
852.165	14705
852.299	14754
852.434	14857
852.569	14800
852.703	14708
852.838	14815
852.973	14918
853.107	14944
853.242	14705
853.376	14655
853.511	14503
853.645	14632
853.78	14720
853.914	14625
854.048	14587
854.183	14484
854.317	14556
854.451	14845
854.585	14579
854.72	14575
854.854	14644
854.988	14587
855.122	14617
855.256	14571
855.39	14655
855.524	14781
855.658	14629
855.792	14720
855.926	14743
856.06	14705
856.194	14682
856.327	14583
856.461	14564
856.595	14571
856.729	14613
856.862	14678
856.996	14590
857.13	14663
857.263	14807
857.397	14823
857.53	14564
857.664	14754
857.797	14739
857.931	14705
858.064	14648
858.197	14758
858.331	14545
858.464	14533
858.597	14571
858.731	14610
858.864	14644
858.997	14610
859.13	14689
859.263	14613
859.396	14644
859.529	14541
859.662	14545
859.795	14533
859.928	14629
860.061	14648
860.194	14792
860.327	14693
860.46	14617
860.592	14781
860.725	14838
860.858	14693
860.99	14610
861.123	14564
861.256	14545
861.388	14674
861.521	15447
861.653	14552
861.786	14366
861.918	14454
862.05	14613
862.183	14587
862.315	14511
862.447	14720
862.58	14629
862.712	14366
862.844	14305
862.976	14415
863.108	14412
863.24	14883
863.372	14221
863.504	14415
863.636	14385
863.768	14385
863.9	14431
864.032	14339
864.164	14400
864.296	14415
864.428	14514
864.559	14541
864.691	14488
864.823	14537
864.954	14438
865.086	14450
865.217	14317
865.349	14290
865.48	14362
865.612	14446
865.743	14495
865.875	14450
866.006	14355
866.137	14427
866.269	14355
866.4	14328
866.531	14370
866.662	14301
866.793	14309
866.924	14385
867.055	14385
867.186	14298
867.317	14366
867.448	14259
867.579	14309
867.71	14336
867.841	14290
867.972	14423
868.103	14286
868.233	14309
868.364	14389
868.495	14404
868.625	14602
868.756	14701
868.886	14640
869.017	14636
869.147	14667
869.278	14712
869.408	14598
869.539	14686
869.669	14796
869.799	14644
869.929	14785
870.06	14716
870.19	14956
870.32	14925
870.45	15001
870.58	14990
870.71	15066
870.84	15203
870.97	15047
871.1	14986
871.23	15230
871.36	15214
871.489	15005
871.619	15161
871.749	15294
871.879	15207
872.008	15298
872.138	15207
872.267	15252
872.397	15138
872.526	15005
872.656	15009
872.785	14971
872.915	15329
873.044	15306
873.173	15241
873.303	15329
873.432	15325
873.561	15325
873.69	15226
873.819	15283
873.948	15458
874.077	15264
874.206	15142
874.335	15310
874.464	15473
874.593	15606
874.722	15504
874.851	15660
874.979	15557
875.108	15591
875.237	15462
875.365	15625
875.494	15603
875.623	15625
875.751	15580
875.88	15633
876.008	15576
876.136	15804
876.265	15975
876.393	16154
876.521	16097
876.65	16120
876.778	16010
876.906	15945
877.034	15979
877.162	15953
877.29	16006
877.418	15968
877.546	16010
877.674	15975
877.802	15960
877.93	15979
878.058	16063
878.185	15846
878.313	16051
878.441	16021
878.568	15880
878.696	15968
878.824	16006
878.951	16154
879.079	16246
879.206	16413
879.333	16268
879.461	16188
879.588	16295
879.715	16238
879.842	16424
879.97	16207
880.097	15991
880.224	15819
880.351	15892
880.478	15941
880.605	15835
880.732	15922
880.859	16177
880.986	15915
881.112	15975
881.239	15751
881.366	15663
881.493	15561
881.619	15595
881.746	15599
881.872	15530
881.999	15466
882.125	15496
882.252	15496
882.378	15667
882.505	15698
882.631	15519
882.757	15447
882.883	15378
883.01	15393
883.136	15241
883.262	15188
883.388	15135
883.514	15355
883.64	15363
883.766	15370
883.892	15165
884.018	15180
884.143	15310
884.269	15412
884.395	15112
884.52	15150
884.646	15062
884.772	14925
884.897	14933
885.023	15146
885.148	15195
885.274	15233
885.399	15093
885.524	15123
885.65	15074
885.775	15085
885.9	15039
886.025	15211
886.15	15211
886.275	14944
886.4	15001
886.525	14971
886.65	15024
886.775	14960
886.9	15173
887.025	15207
887.149	15032
887.274	14826
887.399	14868
887.523	14845
887.648	14815
887.773	14720
887.897	14872
888.021	14864
888.146	14777
888.27	14948
888.395	14944
888.519	14929
888.643	14944
888.767	14883
888.891	14731
889.015	14754
889.139	14838
889.263	14716
889.387	14777
889.511	14872
889.635	14914
889.759	14708
889.883	14712
890.006	14579
890.13	14910
890.254	14678
890.377	14651
890.501	14575
890.624	14564
890.748	14541
890.871	14461
890.995	14336
891.118	14328
891.241	14492
891.364	14446
891.488	14461
891.611	14396
891.734	14454
891.857	14473
891.98	14488
892.103	14473
892.226	14355
892.349	14290
892.471	14286
892.594	14347
892.717	14328
892.839	14434
892.962	14461
893.085	14336
893.207	14423
893.33	14267
893.452	14336
893.575	14454
893.697	14282
893.819	14545
893.941	14480
894.064	14606
894.186	14328
894.308	14294
894.43	14469
894.552	14667
894.674	14503
894.796	14339
894.918	14465
895.04	14400
895.161	14556
895.283	14545
895.405	14434
895.526	14507
895.648	14480
895.769	14560
895.891	14533
896.012	14610
896.134	14560
896.255	14514
896.376	14488
896.498	14552
896.619	14469
896.74	14568
896.861	14629
896.982	14925
897.103	15058
897.224	14785
897.345	14792
897.466	14735
897.587	14800
897.708	14925
897.828	14967
897.949	14804
898.07	14708
898.19	14735
898.311	15058
898.431	14876
898.552	14944
898.672	15005
898.792	15024
898.913	14929
899.033	14861
899.153	14773
899.273	14621
899.393	14708
899.513	14762
899.633	14693
899.753	14796
899.873	14762
899.993	14765
900.113	14739
900.232	14765
900.352	14739
900.472	14602
900.591	14590
900.711	14708
900.83	14674
900.95	14765
901.069	14746
901.189	14579
901.308	14400
901.427	14282
901.546	14233
901.665	14305
901.784	14256
901.904	14157
902.023	14138
902.141	13868
902.26	13803
902.379	13940
902.498	13693
902.617	13864
902.735	13967
902.854	13849
902.973	13818
903.091	13594
903.21	13518
903.328	13624
903.446	13556
903.565	13434
903.683	13426
903.801	13316
903.919	13339
904.038	13365
904.156	13187
904.274	13320
904.392	13156
904.51	13141
904.627	13187
904.745	13343
904.863	13316
904.981	13072
905.098	12878
905.216	12878
905.334	12962
905.451	12905
905.569	12943
905.686	12977
905.803	12913
905.921	12745
906.038	12810
906.155	12741
906.272	12677
906.389	12650
906.506	12582
906.623	12502
906.74	12479
906.857	12380
906.974	12460
907.091	12597
907.208	12612
907.324	12616
907.441	12445
907.557	12270
907.674	12232
907.79	12209
907.907	12235
908.023	12140
908.139	12239
908.256	12171
908.372	12178
908.488	12190
908.604	11946
908.72	11954
908.836	12015
908.952	12045
909.068	12026
909.184	12076
909.3	12102
909.415	12087
909.531	11931
909.647	11741
909.762	11798
909.878	11695
909.993	11752
910.108	11828
910.224	11760
910.339	11775
910.454	11570
910.57	11600
910.685	11642
910.8	11882
910.915	11756
911.03	11714
911.145	11486
911.259	11471
911.374	11512
911.489	11429
911.604	11318
911.718	11261
911.833	11242
911.947	11147
912.062	11018
912.176	11235
912.291	11189
912.405	11284
912.519	11364
912.633	11471
912.748	11303
912.862	11174
912.976	11071
913.09	10919
913.204	11025
913.318	11067
913.431	11197
913.545	11162
913.659	11189
913.772	11079
913.886	10980
914	10976
914.113	11064
914.226	11143
914.34	11090
914.453	10828
914.566	11006
914.68	11006
914.793	10984
914.906	10748
915.019	10706
915.132	10584
915.245	10771
915.358	10801
915.47	10706
915.583	10687
915.696	10786
915.809	10896
915.921	10774
916.034	10653
916.146	10550
916.259	10656
916.371	10793
916.483	10687
916.595	10679
916.708	10668
916.82	10656
916.932	10546
917.044	10592
917.156	10615
917.268	10481
917.38	10561
917.491	10500
917.603	10580
917.715	10607
917.826	10607
917.938	10489
918.049	10432
918.161	10542
918.272	10630
918.384	10679
918.495	10565
918.606	10428
918.717	10375
918.828	10462
918.939	10497
919.05	10394
919.161	10421
919.272	10215
919.383	10253
919.494	10481
919.604	10603
919.715	10413
919.826	10329
919.936	10421
920.047	10500
920.157	10440
920.267	10615
920.378	10447
920.488	10436
920.598	10558
920.708	10717
920.818	10622
920.928	10577
921.038	10797
921.148	10771
921.258	10462
921.368	10333
921.477	10268
921.587	10219
921.697	10154
921.806	10337
921.916	10246
922.025	10040
922.134	9953
922.244	9876
922.353	10010
922.462	9857
922.571	9827
922.68	9625
922.789	9622
922.898	9656
923.007	9656
923.116	9671
923.224	9622
923.333	9682
923.442	9542
923.55	9549
923.659	9523
923.767	9599
923.876	9466
923.984	9633
924.092	9526
924.201	9473
924.309	9553
924.417	9572
924.525	9492
924.633	9488
924.741	10322
924.849	9321
924.956	9439
925.064	9340
925.172	9260
925.279	9226
925.387	9363
925.494	9264
925.602	9469
925.709	9386
925.816	9214
925.924	9306
926.031	9401
926.138	9260
926.245	9313
926.352	9237
926.459	9382
926.566	9386
926.673	9211
926.779	9150
926.886	9188
926.993	9028
927.099	9017
927.206	9017
927.312	8990
927.419	9005
927.525	9058
927.631	9043
927.737	8876
927.843	8921
927.95	8819
928.056	8861
928.162	8899
928.267	8986
928.373	9606
928.479	8975
928.585	8777
928.69	8891
928.796	8929
928.901	8834
929.007	8670
929.112	8811
929.218	8823
929.323	8746
929.428	8758
929.533	8921
929.638	8648
929.743	8693
929.848	8739
929.953	8686
930.058	8610
930.163	8404
930.267	8514
930.372	8682
930.477	8480
930.581	8701
930.685	8583
930.79	8454
930.894	8480
930.998	8412
931.103	8545
931.207	8237
931.311	8130
931.415	8092
931.519	7967
931.623	7883
