Data from test_V78500241_3259.txt Node
Date: Fri Mar 25 14:56:24 CST 2022
User: usil
Spectrometer: V785-0024
Trigger mode: 0
Integration Time (sec): 4.000000E-1
Scans to average: 1
Nonlinearity correction enabled: false
Boxcar width: 0
Storing dark spectrum: false
XAxis mode: Wavelengths
Number of Pixels in Spectrum: 1024
>>>>>Begin Spectral Data<<<<<
801.071	21964
801.214	21876
801.356	21671
801.499	21545
801.641	21424
801.783	21386
801.926	21393
802.068	21321
802.211	21214
802.353	21180
802.496	20941
802.638	20899
802.78	20781
802.923	20743
803.065	20670
803.208	20739
803.35	20705
803.492	20781
803.635	20697
803.777	20697
803.919	20857
804.061	21043
804.204	20648
804.346	20686
804.488	20541
804.63	20731
804.773	20438
804.915	20636
805.057	20640
805.199	20552
805.341	20670
805.483	20758
805.626	20545
805.768	20499
805.91	20598
806.052	20640
806.194	20552
806.336	20777
806.478	20560
806.62	20469
806.762	20587
806.904	20823
807.046	20990
807.188	20937
807.33	20975
807.472	20975
807.614	20880
807.756	20895
807.898	20621
808.04	20571
808.182	20655
808.324	20629
808.465	20758
808.607	20735
808.749	21005
808.891	21066
809.033	21222
809.174	21013
809.316	20929
809.458	21043
809.6	20910
809.741	20986
809.883	20872
810.025	21131
810.166	21070
810.308	21131
810.45	21043
810.591	21005
810.733	20678
810.875	20823
811.016	20556
811.158	20526
811.299	20842
811.441	20902
811.582	20773
811.724	20708
811.865	20663
812.007	20609
812.148	20587
812.29	20815
812.431	20792
812.573	21039
812.714	21161
812.855	21245
812.997	21222
813.138	21519
813.279	21317
813.421	21230
813.562	21058
813.703	20994
813.845	20785
813.986	20609
814.127	20415
814.268	20381
814.41	20210
814.551	20362
814.692	20377
814.833	20244
814.974	20168
815.115	20237
815.256	20161
815.397	20187
815.539	20058
815.68	20001
815.821	19887
815.962	20092
816.103	20005
816.244	19868
816.385	19731
816.526	19601
816.666	19419
816.807	19460
816.948	19544
817.089	19594
817.23	19411
817.371	19525
817.512	19373
817.653	19457
817.793	19259
817.934	19396
818.075	19403
818.216	19331
818.356	19396
818.497	19175
818.638	19110
818.778	19004
818.919	19046
819.06	19084
819.2	19263
819.341	19285
819.481	19293
819.622	19453
819.762	19586
819.903	19491
820.043	19369
820.184	19327
820.324	19236
820.465	19289
820.605	19373
820.746	19343
820.886	19160
821.026	19350
821.167	19312
821.307	19282
821.447	19266
821.588	19183
821.728	19088
821.868	18810
822.008	18779
822.149	18722
822.289	18730
822.429	18623
822.569	18460
822.709	18445
822.849	18296
822.99	18232
823.13	18220
823.27	18194
823.41	18163
823.55	18015
823.69	18072
823.83	18049
823.97	17977
824.11	17756
824.25	17828
824.389	17901
824.529	17859
824.669	17756
824.809	17984
824.949	17931
825.089	17859
825.228	17824
825.368	17661
825.508	17695
825.648	17661
825.787	17649
825.927	17642
826.067	17646
826.206	17634
826.346	17703
826.485	17657
826.625	17573
826.765	17703
826.904	17611
827.044	17448
827.183	17337
827.323	17269
827.462	17379
827.601	17372
827.741	17364
827.88	17345
828.02	17208
828.159	17345
828.298	17440
828.437	17372
828.577	17284
828.716	17337
828.855	17261
828.994	17140
829.134	17067
829.273	17242
829.412	17121
829.551	16976
829.69	17223
829.829	17079
829.968	17178
830.107	17136
830.246	17064
830.385	16987
830.524	17056
830.663	16896
830.802	16862
830.941	16729
831.08	16672
831.219	16721
831.357	16790
831.496	16877
831.635	16755
831.774	16694
831.913	16611
832.051	16508
832.19	16531
832.329	16656
832.467	16424
832.606	16356
832.744	16382
832.883	16443
833.022	16322
833.16	16485
833.299	16512
833.437	16584
833.576	16546
833.714	16440
833.852	16409
833.991	16466
834.129	16459
834.267	16702
834.406	16390
834.544	16577
834.682	16462
834.821	16485
834.959	16736
835.097	16489
835.235	16432
835.373	16462
835.511	16481
835.65	16356
835.788	16424
835.926	16261
836.064	16116
836.202	16246
836.34	16462
836.478	16417
836.615	16398
836.753	16428
836.891	16459
837.029	16523
837.167	16337
837.305	16226
837.443	16234
837.58	16207
837.718	16352
837.856	16390
837.993	16253
838.131	16329
838.269	16287
838.406	16169
838.544	16238
838.681	15987
838.819	15930
838.956	15770
839.094	15797
839.231	15854
839.369	15941
839.506	16215
839.643	15998
839.781	15800
839.918	15766
840.055	15800
840.193	15804
840.33	15686
840.467	15736
840.604	15823
840.742	16116
840.879	15694
841.016	15781
841.153	15778
841.29	15873
841.427	15918
841.564	15804
841.701	15778
841.838	15679
841.975	15720
842.112	15739
842.249	15610
842.385	15523
842.522	15717
842.659	15603
842.796	15553
842.933	15648
843.069	15648
843.206	15511
843.343	15675
843.479	15610
843.616	15667
843.752	15473
843.889	15367
844.025	15523
844.162	15272
844.298	15481
844.435	15416
844.571	15245
844.708	15458
844.844	15530
844.98	15530
845.117	15549
845.253	15294
845.389	15329
845.525	15275
845.661	15306
845.798	15249
845.934	15154
846.07	15192
846.206	15310
846.342	15325
846.478	15119
846.614	15058
846.75	14899
846.886	14834
847.022	15055
847.158	14990
847.294	14948
847.429	14937
847.565	14861
847.701	15207
847.837	14648
847.972	14708
848.108	14777
848.244	14678
848.379	14613
848.515	14545
848.65	14419
848.786	14602
848.921	14526
849.057	14712
849.192	14606
849.328	14617
849.463	14552
849.598	14575
849.734	14518
849.869	14438
850.004	14290
850.14	14415
850.275	14328
850.41	14233
850.545	14324
850.68	14301
850.815	14351
850.95	14248
851.085	14442
851.22	14454
851.355	14320
851.49	14320
851.625	14332
851.76	14263
851.895	14225
852.03	14111
852.165	14244
852.299	14317
852.434	14377
852.569	14332
852.703	14256
852.838	14366
852.973	14507
853.107	14374
853.242	14339
853.376	14195
853.511	14008
853.645	14183
853.78	14271
853.914	14286
854.048	14221
854.183	14092
854.317	14183
854.451	14396
854.585	14111
854.72	14229
854.854	14275
854.988	14161
855.122	14218
855.256	14077
855.39	14077
855.524	14218
855.658	14187
855.792	14218
855.926	14252
856.06	14240
856.194	14324
856.327	14123
856.461	14100
856.595	14134
856.729	14183
856.862	14191
856.996	14221
857.13	14294
857.263	14332
857.397	14336
857.53	14240
857.664	14256
857.797	14244
857.931	14252
858.064	14355
858.197	14294
858.331	14214
858.464	14210
858.597	14054
858.731	14107
858.864	14111
858.997	14172
859.13	14149
859.263	14221
859.396	14374
859.529	14187
859.662	14115
859.795	14134
859.928	14248
860.061	14358
860.194	14267
860.327	14237
860.46	14134
860.592	14206
860.725	14278
860.858	14328
860.99	14157
861.123	14218
861.256	14035
861.388	14229
861.521	14891
861.653	14012
861.786	13913
861.918	14115
862.05	14103
862.183	14115
862.315	14180
862.447	14305
862.58	14172
862.712	14008
862.844	13833
862.976	13963
863.108	14020
863.24	14419
863.372	13986
863.504	13936
863.636	14054
863.768	14012
863.9	13982
864.032	13963
864.164	13986
864.296	14001
864.428	14111
864.559	14172
864.691	14096
864.823	13951
864.954	13997
865.086	14008
865.217	13959
865.349	13902
865.48	13951
865.612	13906
865.743	14103
865.875	13963
866.006	14008
866.137	13902
866.269	13898
866.4	13970
866.531	13967
866.662	13875
866.793	13860
866.924	13871
867.055	13993
867.186	13951
867.317	13849
867.448	13868
867.579	13868
867.71	13837
867.841	13856
867.972	14069
868.103	13913
868.233	13986
868.364	13959
868.495	13967
868.625	14180
868.756	14324
868.886	14161
869.017	14206
869.147	14324
869.278	14320
869.408	14301
869.539	14157
869.669	14320
869.799	14259
869.929	14374
870.06	14336
870.19	14454
870.32	14480
870.45	14522
870.58	14511
870.71	14708
870.84	14762
870.97	14495
871.1	14568
871.23	14815
871.36	14880
871.489	14686
871.619	14796
871.749	14754
871.879	14895
872.008	14895
872.138	14823
872.267	14754
872.397	14686
872.526	14708
872.656	14701
872.785	14632
872.915	14735
873.044	14872
873.173	14758
873.303	14883
873.432	14887
873.561	14971
873.69	14830
873.819	14876
873.948	14982
874.077	14807
874.206	14925
874.335	14857
874.464	15047
874.593	15119
874.722	15043
874.851	15218
874.979	15154
875.108	15176
875.237	15047
875.365	15058
875.494	15233
875.623	15279
875.751	15173
875.88	15256
876.008	15298
876.136	15405
876.265	15660
876.393	15736
876.521	15717
876.65	15671
876.778	15618
876.906	15507
877.034	15515
877.162	15580
877.29	15500
877.418	15587
877.546	15637
877.674	15622
877.802	15644
877.93	15488
878.058	15469
878.185	15526
878.313	15614
878.441	15534
878.568	15481
878.696	15443
878.824	15671
878.951	15724
879.079	15781
879.206	15911
879.333	15827
879.461	15694
879.588	15751
879.715	15739
879.842	15778
879.97	15671
880.097	15386
880.224	15382
880.351	15504
880.478	15488
880.605	15329
880.732	15496
880.859	15580
880.986	15435
881.112	15439
881.239	15344
881.366	15195
881.493	15081
881.619	15100
881.746	15112
881.872	15062
881.999	15097
882.125	15112
882.252	15161
882.378	15199
882.505	15272
882.631	15093
882.757	14807
882.883	15020
883.01	14948
883.136	14853
883.262	14705
883.388	14781
883.514	15028
883.64	14971
883.766	14838
883.892	14819
884.018	14765
884.143	14971
884.269	15001
884.395	14678
884.52	14526
884.646	14579
884.772	14575
884.897	14556
885.023	14644
885.148	14716
885.274	14842
885.399	14720
885.524	14746
885.65	14655
885.775	14663
885.9	14629
886.025	14758
886.15	14682
886.275	14594
886.4	14552
886.525	14610
886.65	14545
886.775	14484
886.9	14857
887.025	14880
887.149	14659
887.274	14541
887.399	14351
887.523	14298
887.648	14381
887.773	14290
887.897	14613
888.021	14545
888.146	14370
888.27	14469
888.395	14629
888.519	14560
888.643	14583
888.767	14533
888.891	14469
889.015	14377
889.139	14400
889.263	14221
889.387	14522
889.511	14632
889.635	14423
889.759	14282
889.883	14278
890.006	14347
890.13	14492
890.254	14332
890.377	14317
890.501	14202
890.624	14088
890.748	14195
890.871	14062
890.995	13970
891.118	13925
891.241	13936
891.364	13879
891.488	14142
891.611	13955
891.734	14069
891.857	14077
891.98	14016
892.103	14103
892.226	14088
892.349	14001
892.471	13890
892.594	13989
892.717	14024
892.839	14035
892.962	13947
893.085	14138
893.207	14123
893.33	13928
893.452	13898
893.575	14077
893.697	13997
893.819	14123
893.941	14202
894.064	14237
894.186	13982
894.308	13997
894.43	14088
894.552	14168
894.674	14229
894.796	13947
894.918	14081
895.04	14115
895.161	14168
895.283	14077
895.405	13997
895.526	14054
895.648	14092
895.769	14168
895.891	14240
896.012	14275
896.134	14206
896.255	14225
896.376	14145
896.498	14123
896.619	14290
896.74	14172
896.861	14301
896.982	14492
897.103	14526
897.224	14530
897.345	14511
897.466	14454
897.587	14415
897.708	14514
897.828	14423
897.949	14423
898.07	14427
898.19	14328
898.311	14629
898.431	14503
898.552	14541
898.672	14594
898.792	14590
898.913	14579
899.033	14469
899.153	14419
899.273	14320
899.393	14313
899.513	14419
899.633	14393
899.753	14385
899.873	14396
899.993	14419
900.113	14362
900.232	14396
900.352	14313
900.472	14374
900.591	14161
900.711	14343
900.83	14240
900.95	14324
901.069	14355
901.189	14282
901.308	14035
901.427	13955
901.546	13913
901.665	14001
901.784	14012
901.904	13795
902.023	13647
902.141	13578
902.26	13491
902.379	13571
902.498	13537
902.617	13510
902.735	13483
902.854	13506
902.973	13400
903.091	13240
903.21	13221
903.328	13293
903.446	13129
903.565	13198
903.683	13110
903.801	13008
903.919	13088
904.038	13076
904.156	12844
904.274	12939
904.392	12856
904.51	12833
904.627	12856
904.745	12981
904.863	12989
904.981	12612
905.098	12574
905.216	12639
905.334	12566
905.451	12604
905.569	12551
905.686	12578
905.803	12616
905.921	12429
906.038	12410
906.155	12521
906.272	12304
906.389	12304
906.506	12117
906.623	12175
906.74	12186
906.857	11939
906.974	12095
907.091	12224
907.208	12357
907.324	12277
907.441	12144
907.557	11958
907.674	11965
907.79	11855
907.907	11904
908.023	11920
908.139	11893
908.256	11840
908.372	11939
908.488	11817
908.604	11752
908.72	11695
908.836	11657
908.952	11688
909.068	11691
909.184	11737
909.3	11649
909.415	11752
909.531	11688
909.647	11528
909.762	11497
909.878	11497
909.993	11490
910.108	11334
910.224	11391
910.339	11539
910.454	11345
910.57	11395
910.685	11231
910.8	11490
910.915	11509
911.03	11349
911.145	11223
911.259	11041
911.374	11124
911.489	11094
911.604	10999
911.718	10892
911.833	10942
911.947	10862
912.062	10771
912.176	10904
912.291	10934
912.405	10972
912.519	11143
912.633	11227
912.748	10976
912.862	10938
912.976	10854
913.09	10645
913.204	10717
913.318	10820
913.431	10831
913.545	10919
913.659	10987
913.772	10778
913.886	10626
914	10714
914.113	10816
914.226	10873
914.34	10721
914.453	10599
914.566	10740
914.68	10672
914.793	10615
914.906	10443
915.019	10360
915.132	10329
915.245	10428
915.358	10379
915.47	10428
915.583	10440
915.696	10538
915.809	10550
915.921	10569
916.034	10382
916.146	10386
916.259	10341
916.371	10481
916.483	10493
916.595	10348
916.708	10386
916.82	10318
916.932	10284
917.044	10306
917.156	10253
917.268	10249
917.38	10310
917.491	10249
917.603	10246
917.715	10352
917.826	10280
917.938	10204
918.049	10105
918.161	10306
918.272	10398
918.384	10352
918.495	10371
918.606	10166
918.717	10147
918.828	10150
918.939	10147
919.05	10036
919.161	10162
919.272	10040
919.383	9949
919.494	10196
919.604	10352
919.715	10173
919.826	10120
919.936	10128
920.047	10253
920.157	10215
920.267	10367
920.378	10185
920.488	10120
920.598	10375
920.708	10580
920.818	10409
920.928	10306
921.038	10558
921.148	10500
921.258	10166
921.368	10169
921.477	10025
921.587	9983
921.697	9934
921.806	9956
921.916	9899
922.025	9770
922.134	9762
922.244	9713
922.353	9740
922.462	9629
922.571	9534
922.68	9443
922.789	9332
922.898	9428
923.007	9344
923.116	9447
923.224	9401
923.333	9405
923.442	9363
923.55	9325
923.659	9302
923.767	9408
923.876	9321
923.984	9329
924.092	9207
924.201	9230
924.309	9256
924.417	9260
924.525	9249
924.633	9275
924.741	10166
924.849	9062
924.956	9218
925.064	9039
925.172	9097
925.279	9077
925.387	8979
925.494	9047
925.602	9188
925.709	9142
925.816	8994
925.924	9119
926.031	9176
926.138	9104
926.245	9058
926.352	8998
926.459	9192
926.566	9188
926.673	9077
926.779	8891
926.886	8918
926.993	8853
927.099	8762
927.206	8807
927.312	8758
927.419	8880
927.525	8800
927.631	8781
927.737	8762
927.843	8651
927.95	8549
928.056	8674
928.162	8651
928.267	8743
928.373	9241
928.479	8788
928.585	8621
928.69	8575
928.796	8682
928.901	8568
929.007	8473
929.112	8617
929.218	8579
929.323	8518
929.428	8514
929.533	8663
929.638	8408
929.743	8560
929.848	8503
929.953	8541
930.058	8374
930.163	8313
930.267	8271
930.372	8366
930.477	8214
930.581	8461
930.685	8317
930.79	8210
930.894	8229
930.998	8134
931.103	8419
931.207	7940
931.311	7970
931.415	7890
931.519	7731
931.623	7704
