Data from test_V78500241_2117.txt Node
Date: Fri Mar 25 14:48:27 CST 2022
User: usil
Spectrometer: V785-0024
Trigger mode: 0
Integration Time (sec): 4.000000E-1
Scans to average: 1
Nonlinearity correction enabled: false
Boxcar width: 0
Storing dark spectrum: false
XAxis mode: Wavelengths
Number of Pixels in Spectrum: 1024
>>>>>Begin Spectral Data<<<<<
801.071	22093
801.214	22048
801.356	21717
801.499	21610
801.641	21420
801.783	21519
801.926	21587
802.068	21473
802.211	21359
802.353	21245
802.496	21176
802.638	20971
802.78	20895
802.923	20811
803.065	20857
803.208	20667
803.35	20811
803.492	20895
803.635	21017
803.777	20788
803.919	20861
804.061	21161
804.204	20929
804.346	20746
804.488	20678
804.63	20800
804.773	20693
804.915	20727
805.057	20929
805.199	20640
805.341	20864
805.483	20781
805.626	20804
805.768	20724
805.91	20758
806.052	20750
806.194	20651
806.336	20941
806.478	20655
806.62	20785
806.762	20815
806.904	20986
807.046	21218
807.188	21096
807.33	21039
807.472	21051
807.614	20960
807.756	20941
807.898	20796
808.04	20800
808.182	20708
808.324	20876
808.465	20902
808.607	20990
808.749	21062
808.891	21207
809.033	21348
809.174	21192
809.316	21047
809.458	21093
809.6	21074
809.741	21199
809.883	21211
810.025	21397
810.166	21252
810.308	21302
810.45	21222
810.591	21047
810.733	21001
810.875	20872
811.016	20925
811.158	20781
811.299	20861
811.441	21058
811.582	20967
811.724	20933
811.865	20864
812.007	20914
812.148	20781
812.29	20895
812.431	21074
812.573	21272
812.714	21306
812.855	21397
812.997	21492
813.138	21576
813.279	21485
813.421	21450
813.562	21306
813.703	21058
813.845	21062
813.986	20838
814.127	20697
814.268	20480
814.41	20526
814.551	20469
814.692	20533
814.833	20324
814.974	20324
815.115	20423
815.256	20267
815.397	20290
815.539	20278
815.68	20259
815.821	20115
815.962	20183
816.103	20119
816.244	20008
816.385	19982
816.526	19860
816.666	19803
816.807	19696
816.948	19734
817.089	19852
817.23	19594
817.371	19552
817.512	19677
817.653	19635
817.793	19430
817.934	19514
818.075	19571
818.216	19533
818.356	19620
818.497	19449
818.638	19156
818.778	19129
818.919	19133
819.06	19244
819.2	19403
819.341	19499
819.481	19495
819.622	19628
819.762	19803
819.903	19597
820.043	19666
820.184	19582
820.324	19480
820.465	19521
820.605	19586
820.746	19556
820.886	19502
821.026	19514
821.167	19441
821.307	19460
821.447	19506
821.588	19274
821.728	19301
821.868	19053
822.008	19004
822.149	19004
822.289	18779
822.429	18646
822.569	18623
822.709	18646
822.849	18589
822.99	18422
823.13	18460
823.27	18467
823.41	18323
823.55	18155
823.69	18319
823.83	18178
823.97	18228
824.11	18034
824.25	18079
824.389	18038
824.529	18106
824.669	18007
824.809	18083
824.949	18072
825.089	17958
825.228	18049
825.368	17912
825.508	17851
825.648	17824
825.787	17847
825.927	17889
826.067	17805
826.206	17756
826.346	17878
826.485	17729
826.625	17741
826.765	17893
826.904	17866
827.044	17649
827.183	17471
827.323	17444
827.462	17554
827.601	17535
827.741	17551
827.88	17421
828.02	17463
828.159	17524
828.298	17577
828.437	17714
828.577	17486
828.716	17528
828.855	17364
828.994	17288
829.134	17258
829.273	17231
829.412	17273
829.551	17147
829.69	17227
829.829	17220
829.968	17265
830.107	17372
830.246	17284
830.385	17170
830.524	17128
830.663	16984
830.802	17006
830.941	16862
831.08	16847
831.219	16942
831.357	16885
831.496	17109
831.635	16866
831.774	16744
831.913	16763
832.051	16599
832.19	16683
832.329	16816
832.467	16596
832.606	16634
832.744	16519
832.883	16588
833.022	16398
833.16	16565
833.299	16618
833.437	16622
833.576	16687
833.714	16512
833.852	16618
833.991	16641
834.129	16675
834.267	16744
834.406	16611
834.544	16599
834.682	16618
834.821	16618
834.959	16797
835.097	16603
835.235	16725
835.373	16565
835.511	16588
835.65	16462
835.788	16523
835.926	16428
836.064	16337
836.202	16470
836.34	16527
836.478	16596
836.615	16470
836.753	16550
836.891	16588
837.029	16523
837.167	16546
837.305	16504
837.443	16329
837.58	16306
837.718	16489
837.856	16409
837.993	16352
838.131	16348
838.269	16390
838.406	16295
838.544	16333
838.681	16093
838.819	16074
838.956	15915
839.094	15949
839.231	16082
839.369	16074
839.506	16348
839.643	16200
839.781	16006
839.918	15888
840.055	15926
840.193	15922
840.33	15854
840.467	15915
840.604	15949
840.742	16207
840.879	15800
841.016	15819
841.153	15789
841.29	15964
841.427	15865
841.564	15991
841.701	16040
841.838	15823
841.975	15857
842.112	15846
842.249	15774
842.385	15667
842.522	15835
842.659	15778
842.796	15751
842.933	15709
843.069	15774
843.206	15694
843.343	15835
843.479	15739
843.616	15778
843.752	15549
843.889	15515
844.025	15633
844.162	15584
844.298	15618
844.435	15481
844.571	15553
844.708	15572
844.844	15690
844.98	15671
845.117	15599
845.253	15496
845.389	15389
845.525	15443
845.661	15291
845.798	15325
845.934	15374
846.07	15226
846.206	15313
846.342	15378
846.478	15287
846.614	15055
846.75	15036
846.886	15081
847.022	15146
847.158	15081
847.294	15097
847.429	15062
847.565	15028
847.701	15245
847.837	14853
847.972	14819
848.108	14921
848.244	14906
848.379	14746
848.515	14712
848.65	14648
848.786	14716
848.921	14689
849.057	14769
849.192	14773
849.328	14716
849.463	14686
849.598	14587
849.734	14602
849.869	14522
850.004	14484
850.14	14549
850.275	14370
850.41	14450
850.545	14423
850.68	14347
850.815	14442
850.95	14461
851.085	14610
851.22	14492
851.355	14461
851.49	14366
851.625	14278
851.76	14381
851.895	14366
852.03	14469
852.165	14404
852.299	14518
852.434	14522
852.569	14476
852.703	14419
852.838	14575
852.973	14469
853.107	14518
853.242	14385
853.376	14282
853.511	14145
853.645	14240
853.78	14476
853.914	14343
854.048	14282
854.183	14294
854.317	14320
854.451	14476
854.585	14313
854.72	14317
854.854	14336
854.988	14221
855.122	14358
855.256	14168
855.39	14328
855.524	14351
855.658	14355
855.792	14298
855.926	14332
856.06	14381
856.194	14438
856.327	14233
856.461	14282
856.595	14355
856.729	14275
856.862	14313
856.996	14381
857.13	14328
857.263	14377
857.397	14488
857.53	14336
857.664	14381
857.797	14301
857.931	14423
858.064	14324
858.197	14370
858.331	14332
858.464	14309
858.597	14195
858.731	14229
858.864	14240
858.997	14252
859.13	14381
859.263	14298
859.396	14294
859.529	14343
859.662	14263
859.795	14267
859.928	14294
860.061	14484
860.194	14476
860.327	14290
860.46	14267
860.592	14434
860.725	14473
860.858	14358
860.99	14252
861.123	14301
861.256	14206
861.388	14324
861.521	14986
861.653	14225
861.786	14221
861.918	14225
862.05	14126
862.183	14256
862.315	14263
862.447	14351
862.58	14172
862.712	14039
862.844	14016
862.976	14073
863.108	14126
863.24	14484
863.372	13982
863.504	14062
863.636	14119
863.768	14191
863.9	14084
864.032	13993
864.164	14027
864.296	14100
864.428	14157
864.559	14191
864.691	14115
864.823	14187
864.954	14142
865.086	14145
865.217	14069
865.349	14005
865.48	14073
865.612	14073
865.743	14202
865.875	14119
866.006	14039
866.137	14050
866.269	14050
866.4	14065
866.531	13982
866.662	13906
866.793	13967
866.924	14092
867.055	14084
867.186	14073
867.317	14084
867.448	13967
867.579	13974
867.71	13967
867.841	14096
867.972	14035
868.103	14065
868.233	14111
868.364	14054
868.495	14096
868.625	14298
868.756	14408
868.886	14237
869.017	14259
869.147	14431
869.278	14362
869.408	14351
869.539	14275
869.669	14377
869.799	14457
869.929	14419
870.06	14427
870.19	14617
870.32	14457
870.45	14701
870.58	14708
870.71	14792
870.84	14823
870.97	14754
871.1	14655
871.23	14834
871.36	14876
871.489	14842
871.619	14921
871.749	15001
871.879	14960
872.008	14967
872.138	14914
872.267	14826
872.397	14750
872.526	14727
872.656	14617
872.785	14857
872.915	14902
873.044	15039
873.173	14967
873.303	14971
873.432	14952
873.561	15074
873.69	14929
873.819	14990
873.948	14990
874.077	14979
874.206	14941
874.335	15097
874.464	15169
874.593	15230
874.722	15256
874.851	15306
874.979	15283
875.108	15355
875.237	15321
875.365	15154
875.494	15195
875.623	15317
875.751	15279
875.88	15294
876.008	15428
876.136	15568
876.265	15644
876.393	15861
876.521	15762
876.65	15770
876.778	15762
876.906	15587
877.034	15625
877.162	15743
877.29	15667
877.418	15656
877.546	15701
877.674	15614
877.802	15751
877.93	15743
878.058	15766
878.185	15485
878.313	15720
878.441	15694
878.568	15443
878.696	15732
878.824	15637
878.951	15778
879.079	15892
879.206	16013
879.333	15857
879.461	15778
879.588	15831
879.715	15934
879.842	15998
879.97	15682
880.097	15515
880.224	15477
880.351	15682
880.478	15622
880.605	15435
880.732	15447
880.859	15717
880.986	15523
881.112	15618
881.239	15496
881.366	15237
881.493	15264
881.619	15218
881.746	15222
881.872	15192
881.999	15256
882.125	15218
882.252	15317
882.378	15180
882.505	15344
882.631	15077
882.757	15055
882.883	15066
883.01	15074
883.136	14982
883.262	14899
883.388	14880
883.514	14975
883.64	15135
883.766	14952
883.892	14804
884.018	14902
884.143	15051
884.269	15066
884.395	14762
884.52	14735
884.646	14754
884.772	14648
884.897	14720
885.023	14811
885.148	14876
885.274	14956
885.399	14861
885.524	14785
885.65	14720
885.775	14720
885.9	14693
886.025	14929
886.15	14739
886.275	14625
886.4	14587
886.525	14693
886.65	14659
886.775	14579
886.9	14811
887.025	14941
887.149	14674
887.274	14629
887.399	14473
887.523	14507
887.648	14484
887.773	14427
887.897	14629
888.021	14587
888.146	14518
888.27	14499
888.395	14765
888.519	14552
888.643	14606
888.767	14617
888.891	14526
889.015	14427
889.139	14438
889.263	14404
889.387	14530
889.511	14598
889.635	14594
889.759	14339
889.883	14431
890.006	14465
890.13	14594
890.254	14313
890.377	14339
890.501	14259
890.624	14237
890.748	14290
890.871	14214
890.995	13997
891.118	14031
891.241	14107
891.364	14172
891.488	14221
891.611	14138
891.734	14149
891.857	14107
891.98	14149
892.103	14191
892.226	14149
892.349	14039
892.471	14062
892.594	14145
892.717	14119
892.839	14027
892.962	14119
893.085	14176
893.207	14142
893.33	13970
893.452	14065
893.575	14187
893.697	14088
893.819	14252
893.941	14313
894.064	14267
894.186	14008
894.308	14065
894.43	14256
894.552	14374
894.674	14229
894.796	14126
894.918	14172
895.04	14096
895.161	14282
895.283	14229
895.405	14195
895.526	14119
895.648	14199
895.769	14301
895.891	14301
896.012	14313
896.134	14301
896.255	14229
896.376	14221
896.498	14225
896.619	14339
896.74	14225
896.861	14374
896.982	14617
897.103	14800
897.224	14522
897.345	14457
897.466	14476
897.587	14518
897.708	14621
897.828	14568
897.949	14545
898.07	14454
898.19	14484
898.311	14701
898.431	14495
898.552	14640
898.672	14663
898.792	14743
898.913	14651
899.033	14579
899.153	14579
899.273	14434
899.393	14431
899.513	14530
899.633	14473
899.753	14526
899.873	14480
899.993	14507
900.113	14533
900.232	14552
900.352	14438
900.472	14446
900.591	14298
900.711	14450
900.83	14339
900.95	14473
901.069	14457
901.189	14339
901.308	14058
901.427	14062
901.546	14027
901.665	14077
901.784	14008
901.904	13864
902.023	13814
902.141	13727
902.26	13590
902.379	13734
902.498	13674
902.617	13476
902.735	13689
902.854	13590
902.973	13563
903.091	13255
903.21	13358
903.328	13278
903.446	13164
903.565	13072
903.683	13244
903.801	13129
903.919	13088
904.038	13114
904.156	12871
904.274	13050
904.392	12977
904.51	12951
904.627	13023
904.745	12939
904.863	13004
904.981	12734
905.098	12730
905.216	12646
905.334	12760
905.451	12684
905.569	12616
905.686	12654
905.803	12665
905.921	12448
906.038	12646
906.155	12509
906.272	12369
906.389	12410
906.506	12273
906.623	12228
906.74	12292
906.857	12175
906.974	12213
907.091	12353
907.208	12445
907.324	12251
907.441	12171
907.557	12026
907.674	11916
907.79	11950
907.907	11996
908.023	12076
908.139	11950
908.256	12011
908.372	11901
908.488	11893
908.604	11756
908.72	11790
908.836	11764
908.952	11726
909.068	11802
909.184	11836
909.3	11836
909.415	11764
909.531	11802
909.647	11630
909.762	11455
909.878	11486
909.993	11547
910.108	11585
910.224	11581
910.339	11570
910.454	11425
910.57	11387
910.685	11303
910.8	11608
910.915	11551
911.03	11433
911.145	11303
911.259	11250
911.374	11239
911.489	11128
911.604	11155
911.718	10961
911.833	11056
911.947	10930
912.062	10820
912.176	10953
912.291	10976
912.405	11045
912.519	11166
912.633	11227
912.748	11086
912.862	11022
912.976	10858
913.09	10637
913.204	10805
913.318	10968
913.431	10904
913.545	11029
913.659	11060
913.772	10900
913.886	10797
914	10752
914.113	10877
914.226	10866
914.34	10801
914.453	10637
914.566	10847
914.68	10736
914.793	10729
914.906	10538
915.019	10558
915.132	10344
915.245	10516
915.358	10546
915.47	10527
915.583	10538
915.696	10546
915.809	10645
915.921	10706
916.034	10500
916.146	10432
916.259	10462
916.371	10535
916.483	10527
916.595	10386
916.708	10459
916.82	10413
916.932	10402
917.044	10470
917.156	10466
917.268	10268
917.38	10417
917.491	10268
917.603	10310
917.715	10466
917.826	10432
917.938	10257
918.049	10162
918.161	10386
918.272	10390
918.384	10470
918.495	10390
918.606	10230
918.717	10177
918.828	10219
918.939	10188
919.05	10162
919.161	10238
919.272	10002
919.383	10025
919.494	10310
919.604	10390
919.715	10261
919.826	10181
919.936	10219
920.047	10379
920.157	10204
920.267	10447
920.378	10291
920.488	10139
920.598	10447
920.708	10580
920.818	10440
920.928	10348
921.038	10660
921.148	10664
921.258	10249
921.368	10139
921.477	10097
921.587	10067
921.697	9975
921.806	10116
921.916	10048
922.025	9774
922.134	9743
922.244	9789
922.353	9724
922.462	9671
922.571	9564
922.68	9519
922.789	9511
922.898	9488
923.007	9435
923.116	9519
923.224	9431
923.333	9462
923.442	9340
923.55	9321
923.659	9378
923.767	9412
923.876	9310
923.984	9386
924.092	9279
924.201	9279
924.309	9389
924.417	9466
924.525	9260
924.633	9355
924.741	10295
924.849	9123
924.956	9211
925.064	9150
925.172	9039
925.279	9100
925.387	9097
925.494	9123
925.602	9302
925.709	9245
925.816	9024
925.924	9100
926.031	9241
926.138	9119
926.245	9195
926.352	9108
926.459	9146
926.566	9211
926.673	9131
926.779	8971
926.886	8963
926.993	8948
927.099	8826
927.206	8727
927.312	8807
927.419	8823
927.525	8899
927.631	8861
927.737	8746
927.843	8754
927.95	8625
928.056	8712
928.162	8811
928.267	8785
928.373	9302
928.479	8804
928.585	8598
928.69	8735
928.796	8743
928.901	8663
929.007	8530
929.112	8689
929.218	8613
929.323	8587
929.428	8556
929.533	8735
929.638	8575
929.743	8560
929.848	8560
929.953	8533
930.058	8450
930.163	8324
930.267	8355
930.372	8495
930.477	8252
930.581	8514
930.685	8377
930.79	8248
930.894	8332
930.998	8225
931.103	8442
931.207	8123
931.311	8001
931.415	7944
931.519	7792
931.623	7799
