Data from test_V78500241_1774.txt Node
Date: Fri Mar 25 14:46:03 CST 2022
User: usil
Spectrometer: V785-0024
Trigger mode: 0
Integration Time (sec): 4.000000E-1
Scans to average: 1
Nonlinearity correction enabled: false
Boxcar width: 0
Storing dark spectrum: false
XAxis mode: Wavelengths
Number of Pixels in Spectrum: 1024
>>>>>Begin Spectral Data<<<<<
801.071	22268
801.214	22097
801.356	21915
801.499	21819
801.641	21622
801.783	21466
801.926	21496
802.068	21542
802.211	21572
802.353	21329
802.496	21150
802.638	20975
802.78	21146
802.923	20944
803.065	20842
803.208	20754
803.35	20819
803.492	21058
803.635	21028
803.777	20933
803.919	20921
804.061	21241
804.204	21028
804.346	20853
804.488	20800
804.63	20918
804.773	20708
804.915	20895
805.057	20918
805.199	20925
805.341	20902
805.483	20880
805.626	20887
805.768	20689
805.91	20986
806.052	20739
806.194	20777
806.336	20876
806.478	20804
806.62	20792
806.762	20895
806.904	21047
807.046	21214
807.188	21154
807.33	21085
807.472	21226
807.614	20994
807.756	21081
807.898	21005
808.04	20895
808.182	20906
808.324	20804
808.465	20921
808.607	21062
808.749	21302
808.891	21294
809.033	21325
809.174	21310
809.316	21195
809.458	21203
809.6	21116
809.741	21245
809.883	21252
810.025	21412
810.166	21431
810.308	21378
810.45	21287
810.591	21237
810.733	21058
810.875	21039
811.016	20960
811.158	20937
811.299	20982
811.441	21058
811.582	21085
811.724	21058
811.865	21032
812.007	20941
812.148	20906
812.29	21005
812.431	21188
812.573	21302
812.714	21294
812.855	21462
812.997	21542
813.138	21629
813.279	21572
813.421	21481
813.562	21359
813.703	21283
813.845	21062
813.986	20804
814.127	20716
814.268	20590
814.41	20663
814.551	20609
814.692	20590
814.833	20442
814.974	20503
815.115	20499
815.256	20434
815.397	20229
815.539	20377
815.68	20199
815.821	20199
815.962	20195
816.103	20225
816.244	20191
816.385	19982
816.526	19989
816.666	19822
816.807	19624
816.948	19765
817.089	19909
817.23	19677
817.371	19746
817.512	19635
817.653	19582
817.793	19590
817.934	19609
818.075	19647
818.216	19586
818.356	19685
818.497	19495
818.638	19324
818.778	19278
818.919	19392
819.06	19343
819.2	19422
819.341	19411
819.481	19594
819.622	19540
819.762	19807
819.903	19871
820.043	19753
820.184	19632
820.324	19620
820.465	19719
820.605	19632
820.746	19639
820.886	19491
821.026	19518
821.167	19594
821.307	19734
821.447	19655
821.588	19590
821.728	19331
821.868	19168
822.008	19042
822.149	19038
822.289	19027
822.429	18795
822.569	18642
822.709	18707
822.849	18506
822.99	18532
823.13	18486
823.27	18563
823.41	18327
823.55	18308
823.69	18426
823.83	18292
823.97	18395
824.11	18083
824.25	17996
824.389	18011
824.529	18174
824.669	18182
824.809	18167
824.949	18209
825.089	18133
825.228	18110
825.368	17958
825.508	17958
825.648	17958
825.787	17977
825.927	17973
826.067	17969
826.206	17805
826.346	17931
826.485	17942
826.625	17904
826.765	18049
826.904	17866
827.044	17638
827.183	17649
827.323	17581
827.462	17623
827.601	17691
827.741	17512
827.88	17638
828.02	17471
828.159	17467
828.298	17516
828.437	17684
828.577	17433
828.716	17775
828.855	17467
828.994	17364
829.134	17318
829.273	17387
829.412	17178
829.551	17235
829.69	17410
829.829	17315
829.968	17417
830.107	17337
830.246	17341
830.385	17280
830.524	17208
830.663	17124
830.802	17041
830.941	16908
831.08	16999
831.219	17006
831.357	17018
831.496	17242
831.635	16790
831.774	16850
831.913	16782
832.051	16672
832.19	16797
832.329	16797
832.467	16683
832.606	16656
832.744	16675
832.883	16664
833.022	16653
833.16	16569
833.299	16736
833.437	16626
833.576	16706
833.714	16634
833.852	16774
833.991	16702
834.129	16782
834.267	16774
834.406	16725
834.544	16641
834.682	16763
834.821	16649
834.959	16816
835.097	16687
835.235	16816
835.373	16672
835.511	16641
835.65	16561
835.788	16698
835.926	16485
836.064	16451
836.202	16440
836.34	16683
836.478	16653
836.615	16519
836.753	16607
836.891	16611
837.029	16611
837.167	16550
837.305	16554
837.443	16474
837.58	16462
837.718	16493
837.856	16489
837.993	16447
838.131	16474
838.269	16390
838.406	16466
838.544	16322
838.681	16101
838.819	16173
838.956	15941
839.094	16013
839.231	16040
839.369	16131
839.506	16390
839.643	16230
839.781	16006
839.918	16006
840.055	16147
840.193	15998
840.33	15991
840.467	16002
840.604	15953
840.742	16287
840.879	15922
841.016	15937
841.153	16082
841.29	16143
841.427	16086
841.564	16040
841.701	16071
841.838	15945
841.975	15945
842.112	15846
842.249	15800
842.385	15679
842.522	15918
842.659	15850
842.796	15717
842.933	15869
843.069	15797
843.206	15831
843.343	15907
843.479	15876
843.616	15785
843.752	15580
843.889	15580
844.025	15679
844.162	15538
844.298	15835
844.435	15534
844.571	15526
844.708	15713
844.844	15728
844.98	15755
845.117	15656
845.253	15633
845.389	15481
845.525	15511
845.661	15507
845.798	15393
845.934	15428
846.07	15405
846.206	15473
846.342	15530
846.478	15340
846.614	15313
846.75	15077
846.886	15150
847.022	15233
847.158	15157
847.294	15195
847.429	15157
847.565	15195
847.701	15450
847.837	14834
847.972	14937
848.108	14994
848.244	14944
848.379	14785
848.515	14746
848.65	14720
848.786	14777
848.921	14750
849.057	14864
849.192	14807
849.328	14769
849.463	14724
849.598	14621
849.734	14610
849.869	14629
850.004	14473
850.14	14629
850.275	14514
850.41	14431
850.545	14434
850.68	14396
850.815	14461
850.95	14423
851.085	14716
851.22	14537
851.355	14579
851.49	14507
851.625	14415
851.76	14488
851.895	14450
852.03	14393
852.165	14507
852.299	14564
852.434	14583
852.569	14571
852.703	14514
852.838	14583
852.973	14610
853.107	14667
853.242	14427
853.376	14381
853.511	14374
853.645	14294
853.78	14514
853.914	14366
854.048	14362
854.183	14259
854.317	14404
854.451	14568
854.585	14423
854.72	14423
854.854	14415
854.988	14351
855.122	14301
855.256	14267
855.39	14278
855.524	14446
855.658	14503
855.792	14324
855.926	14419
856.06	14393
856.194	14457
856.327	14396
856.461	14237
856.595	14343
856.729	14473
856.862	14511
856.996	14450
857.13	14469
857.263	14457
857.397	14549
857.53	14412
857.664	14465
857.797	14514
857.931	14514
858.064	14362
858.197	14465
858.331	14370
858.464	14347
858.597	14271
858.731	14381
858.864	14252
858.997	14377
859.13	14446
859.263	14488
859.396	14431
859.529	14419
859.662	14320
859.795	14259
859.928	14495
860.061	14549
860.194	14530
860.327	14385
860.46	14427
860.592	14370
860.725	14507
860.858	14450
860.99	14404
861.123	14328
861.256	14248
861.388	14492
861.521	15089
861.653	14252
861.786	14267
861.918	14271
862.05	14298
862.183	14259
862.315	14343
862.447	14419
862.58	14244
862.712	14199
862.844	14054
862.976	14176
863.108	14168
863.24	14533
863.372	14062
863.504	14210
863.636	14077
863.768	14191
863.9	14267
864.032	14058
864.164	14195
864.296	14225
864.428	14282
864.559	14263
864.691	14244
864.823	14199
864.954	14077
865.086	14145
865.217	14214
865.349	14043
865.48	14161
865.612	14225
865.743	14278
865.875	14206
866.006	14107
866.137	14195
866.269	14172
866.4	14195
866.531	14107
866.662	14058
866.793	14046
866.924	14100
867.055	14142
867.186	14172
867.317	14111
867.448	14050
867.579	14107
867.71	14016
867.841	14043
867.972	14138
868.103	14168
868.233	14202
868.364	14263
868.495	14244
868.625	14374
868.756	14492
868.886	14210
869.017	14412
869.147	14431
869.278	14564
869.408	14438
869.539	14385
869.669	14530
869.799	14404
869.929	14499
870.06	14514
870.19	14697
870.32	14743
870.45	14689
870.58	14872
870.71	14956
870.84	14826
870.97	14705
871.1	14731
871.23	14933
871.36	14948
871.489	14842
871.619	14990
871.749	15013
871.879	14933
872.008	15131
872.138	15013
872.267	15005
872.397	14796
872.526	14845
872.656	14868
872.785	14872
872.915	14952
873.044	15188
873.173	14994
873.303	15043
873.432	15142
873.561	15104
873.69	15058
873.819	15036
873.948	15123
874.077	15017
874.206	15085
874.335	15123
874.464	15188
874.593	15359
874.722	15249
874.851	15370
874.979	15359
875.108	15504
875.237	15374
875.365	15321
875.494	15389
875.623	15389
875.751	15325
875.88	15279
876.008	15629
876.136	15576
876.265	15759
876.393	15816
876.521	15842
876.65	15854
876.778	15751
876.906	15762
877.034	15701
877.162	15755
877.29	15648
877.418	15831
877.546	15732
877.674	15876
877.802	15739
877.93	15751
878.058	15698
878.185	15625
878.313	15679
878.441	15762
878.568	15652
878.696	15732
878.824	15819
878.951	15759
879.079	15819
879.206	16234
879.333	15953
879.461	15838
879.588	15854
879.715	15945
879.842	16059
879.97	15831
880.097	15682
880.224	15622
880.351	15644
880.478	15618
880.605	15682
880.732	15568
880.859	15854
880.986	15686
881.112	15599
881.239	15526
881.366	15424
881.493	15397
881.619	15298
881.746	15245
881.872	15283
881.999	15135
882.125	15264
882.252	15325
882.378	15214
882.505	15469
882.631	15233
882.757	15135
882.883	15192
883.01	15009
883.136	15055
883.262	15028
883.388	14861
883.514	15085
883.64	15161
883.766	14990
883.892	14952
884.018	15020
884.143	15127
884.269	15112
884.395	14845
884.52	14811
884.646	14823
884.772	14743
884.897	14758
885.023	14815
885.148	14845
885.274	15005
885.399	14963
885.524	14769
885.65	14743
885.775	14853
885.9	14819
886.025	14910
886.15	14792
886.275	14716
886.4	14682
886.525	14743
886.65	14731
886.775	14705
886.9	14925
887.025	15020
887.149	14842
887.274	14705
887.399	14640
887.523	14495
887.648	14545
887.773	14484
887.897	14689
888.021	14712
888.146	14594
888.27	14693
888.395	14765
888.519	14693
888.643	14686
888.767	14705
888.891	14610
889.015	14503
889.139	14511
889.263	14518
889.387	14583
889.511	14716
889.635	14640
889.759	14408
889.883	14431
890.006	14438
890.13	14625
890.254	14370
890.377	14415
890.501	14320
890.624	14282
890.748	14256
890.871	14259
890.995	14164
891.118	14088
891.241	14138
891.364	14256
891.488	14210
891.611	14145
891.734	14130
891.857	14157
891.98	14301
892.103	14225
892.226	14278
892.349	14111
892.471	14012
892.594	14225
892.717	14259
892.839	14138
892.962	14138
893.085	14233
893.207	14142
893.33	14100
893.452	14149
893.575	14256
893.697	14161
893.819	14244
893.941	14305
894.064	14248
894.186	14161
894.308	14062
894.43	14336
894.552	14343
894.674	14282
894.796	14119
894.918	14180
895.04	14206
895.161	14362
895.283	14210
895.405	14153
895.526	14263
895.648	14355
895.769	14339
895.891	14343
896.012	14347
896.134	14377
896.255	14336
896.376	14351
896.498	14328
896.619	14385
896.74	14408
896.861	14404
896.982	14651
897.103	14868
897.224	14530
897.345	14556
897.466	14473
897.587	14545
897.708	14682
897.828	14746
897.949	14575
898.07	14495
898.19	14568
898.311	14830
898.431	14667
898.552	14655
898.672	14750
898.792	14743
898.913	14689
899.033	14670
899.153	14613
899.273	14404
899.393	14495
899.513	14568
899.633	14644
899.753	14587
899.873	14514
899.993	14629
900.113	14571
900.232	14526
900.352	14560
900.472	14507
900.591	14347
900.711	14507
900.83	14377
900.95	14434
901.069	14495
901.189	14271
901.308	14111
901.427	14005
901.546	14161
901.665	14084
901.784	14073
901.904	14103
902.023	13864
902.141	13696
902.26	13613
902.379	13700
902.498	13620
902.617	13620
902.735	13734
902.854	13537
902.973	13594
903.091	13415
903.21	13400
903.328	13343
903.446	13354
903.565	13175
903.683	13221
903.801	13069
903.919	13213
904.038	13072
904.156	13061
904.274	13076
904.392	13031
904.51	13065
904.627	12951
904.745	12981
904.863	13069
904.981	12844
905.098	12791
905.216	12707
905.334	12711
905.451	12772
905.569	12726
905.686	12798
905.803	12753
905.921	12525
906.038	12662
906.155	12559
906.272	12471
906.389	12502
906.506	12330
906.623	12285
906.74	12258
906.857	12243
906.974	12213
907.091	12388
907.208	12418
907.324	12315
907.441	12277
907.557	12095
907.674	11999
907.79	12011
907.907	12106
908.023	12030
908.139	12030
908.256	12064
908.372	11965
908.488	11996
908.604	11836
908.72	11779
908.836	11843
908.952	11828
909.068	11802
909.184	11980
909.3	11748
909.415	11912
909.531	11748
909.647	11615
909.762	11638
909.878	11577
909.993	11634
910.108	11638
910.224	11493
910.339	11596
910.454	11573
910.57	11448
910.685	11334
910.8	11642
910.915	11630
911.03	11440
911.145	11296
911.259	11212
911.374	11258
911.489	11231
911.604	11227
911.718	11048
911.833	11018
911.947	10892
912.062	10900
912.176	11060
912.291	11006
912.405	11083
912.519	11239
912.633	11254
912.748	11117
912.862	11075
912.976	10934
913.09	10824
913.204	10896
913.318	10980
913.431	11006
913.545	10995
913.659	11105
913.772	10923
913.886	10835
914	10733
914.113	10869
914.226	10900
914.34	10816
914.453	10748
914.566	10934
914.68	10736
914.793	10733
914.906	10569
915.019	10561
915.132	10512
915.245	10599
915.358	10485
915.47	10561
915.583	10580
915.696	10603
915.809	10668
915.921	10710
916.034	10538
916.146	10440
916.259	10493
916.371	10607
916.483	10569
916.595	10413
916.708	10478
916.82	10417
916.932	10432
917.044	10474
917.156	10398
917.268	10371
917.38	10394
917.491	10382
917.603	10409
917.715	10527
917.826	10447
917.938	10421
918.049	10227
918.161	10398
918.272	10462
918.384	10409
918.495	10413
918.606	10371
918.717	10169
918.828	10253
918.939	10325
919.05	10227
919.161	10261
919.272	10067
919.383	10185
919.494	10325
919.604	10493
919.715	10280
919.826	10139
919.936	10188
920.047	10325
920.157	10192
920.267	10519
920.378	10352
920.488	10306
920.598	10470
920.708	10679
920.818	10436
920.928	10440
921.038	10645
921.148	10550
921.258	10352
921.368	10196
921.477	10211
921.587	10109
921.697	10051
921.806	10131
921.916	10010
922.025	9934
922.134	9846
922.244	9831
922.353	9922
922.462	9747
922.571	9660
922.68	9538
922.789	9500
922.898	9553
923.007	9492
923.116	9538
923.224	9450
923.333	9542
923.442	9367
923.55	9386
923.659	9405
923.767	9492
923.876	9428
923.984	9363
924.092	9340
924.201	9367
924.309	9374
924.417	9424
924.525	9355
924.633	9325
924.741	10306
924.849	9104
924.956	9336
925.064	9169
925.172	9047
925.279	9043
925.387	9169
925.494	9135
925.602	9302
925.709	9283
925.816	9104
925.924	9165
926.031	9283
926.138	9211
926.245	9207
926.352	9047
926.459	9230
926.566	9249
926.673	9203
926.779	9036
926.886	9043
926.993	8967
927.099	8872
927.206	8849
927.312	8880
927.419	8826
927.525	8933
927.631	8948
927.737	8777
927.843	8796
927.95	8655
928.056	8743
928.162	8781
928.267	8849
928.373	9412
928.479	8857
928.585	8693
928.69	8754
928.796	8830
928.901	8655
929.007	8518
929.112	8663
929.218	8727
929.323	8552
929.428	8571
929.533	8777
929.638	8583
929.743	8533
929.848	8610
929.953	8568
930.058	8457
930.163	8332
930.267	8396
930.372	8530
930.477	8313
930.581	8579
930.685	8366
930.79	8358
930.894	8339
930.998	8351
931.103	8560
931.207	8107
931.311	8054
931.415	7989
931.519	7822
931.623	7780
