Data from test_V78500241_2949.txt Node
Date: Fri Mar 25 14:54:14 CST 2022
User: usil
Spectrometer: V785-0024
Trigger mode: 0
Integration Time (sec): 4.000000E-1
Scans to average: 1
Nonlinearity correction enabled: false
Boxcar width: 0
Storing dark spectrum: false
XAxis mode: Wavelengths
Number of Pixels in Spectrum: 1024
>>>>>Begin Spectral Data<<<<<
801.071	22059
801.214	21930
801.356	21701
801.499	21580
801.641	21500
801.783	21332
801.926	21606
802.068	21466
802.211	21424
802.353	21252
802.496	20971
802.638	20971
802.78	20910
802.923	20891
803.065	20788
803.208	20701
803.35	20830
803.492	20986
803.635	20868
803.777	20689
803.919	21001
804.061	21154
804.204	20800
804.346	20708
804.488	20670
804.63	20746
804.773	20648
804.915	20777
805.057	20941
805.199	20625
805.341	20746
805.483	20861
805.626	20564
805.768	20739
805.91	20651
806.052	20792
806.194	20705
806.336	20899
806.478	20697
806.62	20602
806.762	20720
806.904	20861
807.046	21142
807.188	21017
807.33	21001
807.472	21020
807.614	20838
807.756	20971
807.898	20716
808.04	20754
808.182	20811
808.324	20842
808.465	20686
808.607	21020
808.749	21039
808.891	21302
809.033	21272
809.174	21100
809.316	21135
809.458	21096
809.6	21047
809.741	21146
809.883	21142
810.025	21192
810.166	21222
810.308	21302
810.45	21207
810.591	21047
810.733	20998
810.875	20883
811.016	20788
811.158	20640
811.299	20899
811.441	21055
811.582	21017
811.724	20800
811.865	20796
812.007	20746
812.148	20857
812.29	20823
812.431	21005
812.573	21165
812.714	21222
812.855	21393
812.997	21340
813.138	21545
813.279	21443
813.421	21272
813.562	21268
813.703	21047
813.845	21119
813.986	20686
814.127	20549
814.268	20518
814.41	20465
814.551	20484
814.692	20396
814.833	20233
814.974	20370
815.115	20408
815.256	20240
815.397	20244
815.539	20275
815.68	20130
815.821	20020
815.962	20130
816.103	20027
816.244	20035
816.385	19765
816.526	19784
816.666	19704
816.807	19422
816.948	19670
817.089	19658
817.23	19502
817.371	19586
817.512	19480
817.653	19548
817.793	19381
817.934	19609
818.075	19495
818.216	19529
818.356	19525
818.497	19324
818.638	19179
818.778	19316
818.919	19190
819.06	19187
819.2	19285
819.341	19400
819.481	19335
819.622	19430
819.762	19906
819.903	19734
820.043	19586
820.184	19411
820.324	19601
820.465	19499
820.605	19567
820.746	19331
820.886	19365
821.026	19449
821.167	19457
821.307	19312
821.447	19476
821.588	19251
821.728	19232
821.868	19084
822.008	18738
822.149	18760
822.289	18753
822.429	18730
822.569	18578
822.709	18582
822.849	18407
822.99	18239
823.13	18357
823.27	18327
823.41	18117
823.55	18106
823.69	18273
823.83	18174
823.97	18030
824.11	17954
824.25	17954
824.389	17954
824.529	18003
824.669	17980
824.809	18007
824.949	18117
825.089	17912
825.228	17980
825.368	17786
825.508	17726
825.648	17790
825.787	17790
825.927	17821
826.067	17657
826.206	17722
826.346	17786
826.485	17786
826.625	17676
826.765	17748
826.904	17775
827.044	17467
827.183	17402
827.323	17292
827.462	17444
827.601	17440
827.741	17490
827.88	17512
828.02	17280
828.159	17402
828.298	17474
828.437	17592
828.577	17376
828.716	17524
828.855	17383
828.994	17277
829.134	17220
829.273	17204
829.412	17098
829.551	17121
829.69	17170
829.829	17208
829.968	17113
830.107	17189
830.246	17277
830.385	17189
830.524	17105
830.663	17045
830.802	16995
830.941	16717
831.08	16706
831.219	16995
831.357	16881
831.496	16957
831.635	16721
831.774	16683
831.913	16569
832.051	16561
832.19	16599
832.329	16577
832.467	16493
832.606	16462
832.744	16493
832.883	16443
833.022	16375
833.16	16516
833.299	16500
833.437	16443
833.576	16546
833.714	16500
833.852	16417
833.991	16565
834.129	16470
834.267	16554
834.406	16497
834.544	16554
834.682	16558
834.821	16523
834.959	16675
835.097	16504
835.235	16615
835.373	16451
835.511	16504
835.65	16493
835.788	16390
835.926	16272
836.064	16238
836.202	16196
836.34	16447
836.478	16546
836.615	16402
836.753	16527
836.891	16462
837.029	16424
837.167	16428
837.305	16363
837.443	16280
837.58	16253
837.718	16322
837.856	16249
837.993	16242
838.131	16242
838.269	16223
838.406	16219
838.544	16101
838.681	16025
838.819	15960
838.956	15831
839.094	15827
839.231	16071
839.369	16021
839.506	16291
839.643	16025
839.781	15865
839.918	15762
840.055	15823
840.193	15793
840.33	15686
840.467	15766
840.604	15888
840.742	16051
840.879	15785
841.016	15736
841.153	15778
841.29	15964
841.427	15842
841.564	15865
841.701	15800
841.838	15797
841.975	15572
842.112	15701
842.249	15686
842.385	15622
842.522	15797
842.659	15519
842.796	15637
842.933	15701
843.069	15523
843.206	15511
843.343	15629
843.479	15561
843.616	15675
843.752	15389
843.889	15348
844.025	15553
844.162	15351
844.298	15477
844.435	15348
844.571	15401
844.708	15526
844.844	15576
844.98	15534
845.117	15534
845.253	15363
845.389	15294
845.525	15298
845.661	15268
845.798	15150
845.934	15203
846.07	15077
846.206	15199
846.342	15306
846.478	15173
846.614	15119
846.75	14979
846.886	14910
847.022	14982
847.158	14925
847.294	14990
847.429	15108
847.565	14990
847.701	15157
847.837	14746
847.972	14705
848.108	14796
848.244	14765
848.379	14564
848.515	14533
848.65	14480
848.786	14492
848.921	14526
849.057	14708
849.192	14701
849.328	14625
849.463	14621
849.598	14560
849.734	14450
849.869	14511
850.004	14374
850.14	14412
850.275	14400
850.41	14259
850.545	14271
850.68	14271
850.815	14313
850.95	14320
851.085	14469
851.22	14412
851.355	14267
851.49	14351
851.625	14225
851.76	14202
851.895	14176
852.03	14103
852.165	14317
852.299	14309
852.434	14408
852.569	14252
852.703	14404
852.838	14419
852.973	14526
853.107	14465
853.242	14282
853.376	14282
853.511	14088
853.645	14050
853.78	14324
853.914	14149
854.048	14256
854.183	14191
854.317	14187
854.451	14267
854.585	14180
854.72	14195
854.854	14237
854.988	14123
855.122	14115
855.256	14039
855.39	14161
855.524	14305
855.658	14225
855.792	14221
855.926	14271
856.06	14206
856.194	14229
856.327	14187
856.461	14142
856.595	14081
856.729	14096
856.862	14374
856.996	14240
857.13	14313
857.263	14164
857.397	14282
857.53	14115
857.664	14263
857.797	14164
857.931	14278
858.064	14233
858.197	14343
858.331	14214
858.464	14111
858.597	14161
858.731	14107
858.864	14214
858.997	14183
859.13	14282
859.263	14161
859.396	14328
859.529	14206
859.662	14111
859.795	14145
859.928	14157
860.061	14263
860.194	14434
860.327	14271
860.46	14187
860.592	14305
860.725	14271
860.858	14362
860.99	14225
861.123	14046
861.256	14142
861.388	14210
861.521	14792
861.653	14005
861.786	14035
861.918	13997
862.05	14103
862.183	14199
862.315	14206
862.447	14233
862.58	14119
862.712	13970
862.844	13906
862.976	14084
863.108	14039
863.24	14377
863.372	13936
863.504	13887
863.636	13989
863.768	14024
863.9	14024
864.032	13936
864.164	13868
864.296	14020
864.428	14103
864.559	14077
864.691	14043
864.823	13993
864.954	14027
865.086	14115
865.217	13928
865.349	13852
865.48	13932
865.612	13974
865.743	14088
865.875	13944
866.006	13978
866.137	14008
866.269	13947
866.4	13959
866.531	13887
866.662	13940
866.793	13826
866.924	13868
867.055	13982
867.186	13967
867.317	13860
867.448	13871
867.579	13974
867.71	13852
867.841	13875
867.972	13951
868.103	13921
868.233	13982
868.364	13970
868.495	14005
868.625	14221
868.756	14336
868.886	14206
869.017	14084
869.147	14377
869.278	14305
869.408	14218
869.539	14248
869.669	14294
869.799	14168
869.929	14328
870.06	14412
870.19	14541
870.32	14526
870.45	14571
870.58	14655
870.71	14735
870.84	14648
870.97	14469
871.1	14495
871.23	14796
871.36	14826
871.489	14716
871.619	14811
871.749	14644
871.879	14765
872.008	14929
872.138	14849
872.267	14807
872.397	14686
872.526	14636
872.656	14579
872.785	14602
872.915	14880
873.044	14929
873.173	14883
873.303	14853
873.432	14990
873.561	14944
873.69	14849
873.819	14788
873.948	14956
874.077	14921
874.206	14826
874.335	14918
874.464	15028
874.593	15226
874.722	15043
874.851	15329
874.979	15226
875.108	15176
875.237	15211
875.365	15165
875.494	15218
875.623	15279
875.751	15089
875.88	15176
876.008	15329
876.136	15412
876.265	15652
876.393	15694
876.521	15717
876.65	15766
876.778	15679
876.906	15576
877.034	15629
877.162	15587
877.29	15492
877.418	15561
877.546	15526
877.674	15610
877.802	15450
877.93	15591
878.058	15542
878.185	15473
878.313	15648
878.441	15667
878.568	15401
878.696	15595
878.824	15720
878.951	15568
879.079	15785
879.206	15857
879.333	15720
879.461	15679
879.588	15618
879.715	15819
879.842	15827
879.97	15682
880.097	15374
880.224	15310
880.351	15439
880.478	15386
880.605	15431
880.732	15367
880.859	15682
880.986	15507
881.112	15515
881.239	15355
881.366	15241
881.493	15176
881.619	15020
881.746	15131
881.872	15051
881.999	15043
882.125	15085
882.252	15108
882.378	15089
882.505	15218
882.631	15062
882.757	14956
882.883	14914
883.01	14899
883.136	14830
883.262	14777
883.388	14792
883.514	14918
883.64	14899
883.766	14769
883.892	14758
884.018	14815
884.143	14948
884.269	14986
884.395	14648
884.52	14480
884.646	14651
884.772	14434
884.897	14499
885.023	14621
885.148	14712
885.274	14724
885.399	14712
885.524	14693
885.65	14579
885.775	14598
885.9	14564
886.025	14731
886.15	14724
886.275	14640
886.4	14533
886.525	14651
886.65	14480
886.775	14469
886.9	14754
887.025	14880
887.149	14651
887.274	14442
887.399	14450
887.523	14427
887.648	14385
887.773	14305
887.897	14594
888.021	14454
888.146	14385
888.27	14503
888.395	14610
888.519	14522
888.643	14590
888.767	14492
888.891	14343
889.015	14259
889.139	14408
889.263	14298
889.387	14374
889.511	14571
889.635	14370
889.759	14229
889.883	14286
890.006	14332
890.13	14434
890.254	14256
890.377	14301
890.501	14111
890.624	14073
890.748	14180
890.871	14065
890.995	14005
891.118	13989
891.241	14103
891.364	14054
891.488	14138
891.611	14012
891.734	14008
891.857	14111
891.98	13970
892.103	14191
892.226	14012
892.349	14020
892.471	13841
892.594	14001
892.717	13951
892.839	13955
892.962	14123
893.085	14126
893.207	13997
893.33	13944
893.452	13902
893.575	14103
893.697	13936
893.819	14130
893.941	14195
894.064	14077
894.186	13978
894.308	14024
894.43	14206
894.552	14240
894.674	14275
894.796	14062
894.918	14096
895.04	13967
895.161	14157
895.283	14195
895.405	14084
895.526	14145
895.648	14069
895.769	14111
895.891	14145
896.012	14187
896.134	14290
896.255	14244
896.376	14134
896.498	14119
896.619	14244
896.74	14309
896.861	14263
896.982	14560
897.103	14682
897.224	14533
897.345	14480
897.466	14454
897.587	14514
897.708	14499
897.828	14434
897.949	14434
898.07	14294
898.19	14438
898.311	14648
898.431	14469
898.552	14514
898.672	14701
898.792	14636
898.913	14507
899.033	14503
899.153	14374
899.273	14290
899.393	14396
899.513	14324
899.633	14332
899.753	14560
899.873	14313
899.993	14473
900.113	14400
900.232	14484
900.352	14301
900.472	14381
900.591	14130
900.711	14328
900.83	14172
900.95	14267
901.069	14347
901.189	14248
901.308	14001
901.427	14020
901.546	13902
901.665	13871
901.784	13970
901.904	13750
902.023	13849
902.141	13548
902.26	13525
902.379	13601
902.498	13499
902.617	13411
902.735	13556
902.854	13563
902.973	13472
903.091	13308
903.21	13259
903.328	13259
903.446	13232
903.565	13091
903.683	13209
903.801	12951
903.919	13069
904.038	13057
904.156	12867
904.274	13027
904.392	12954
904.51	12859
904.627	12859
904.745	12844
904.863	12932
904.981	12677
905.098	12551
905.216	12616
905.334	12547
905.451	12547
905.569	12521
905.686	12715
905.803	12593
905.921	12407
906.038	12486
906.155	12380
906.272	12304
906.389	12365
906.506	12190
906.623	12243
906.74	12133
906.857	12102
906.974	12068
907.091	12254
907.208	12224
907.324	12262
907.441	12091
907.557	11912
907.674	11939
907.79	11893
907.907	11840
908.023	11954
908.139	11965
908.256	11863
908.372	11885
908.488	11756
908.604	11783
908.72	11592
908.836	11638
908.952	11649
909.068	11688
909.184	11794
909.3	11668
909.415	11737
909.531	11699
909.647	11429
909.762	11516
909.878	11436
909.993	11433
910.108	11471
910.224	11429
910.339	11444
910.454	11395
910.57	11299
910.685	11292
910.8	11535
910.915	11482
911.03	11391
911.145	11124
911.259	11204
911.374	11174
911.489	11113
911.604	11079
911.718	10900
911.833	10984
911.947	10778
912.062	10702
912.176	10858
912.291	10831
912.405	10828
912.519	11105
912.633	11071
912.748	10911
912.862	10980
912.976	10763
913.09	10710
913.204	10812
913.318	10717
913.431	10889
913.545	10911
913.659	10881
913.772	10771
913.886	10687
914	10683
914.113	10786
914.226	10782
914.34	10691
914.453	10615
914.566	10725
914.68	10584
914.793	10634
914.906	10421
915.019	10390
915.132	10333
915.245	10440
915.358	10371
915.47	10424
915.583	10371
915.696	10417
915.809	10550
915.921	10519
916.034	10424
916.146	10424
916.259	10314
916.371	10485
916.483	10409
916.595	10325
916.708	10371
916.82	10398
916.932	10303
917.044	10337
917.156	10367
917.268	10177
917.38	10284
917.491	10185
917.603	10295
917.715	10310
917.826	10371
917.938	10246
918.049	10211
918.161	10230
918.272	10428
918.384	10455
918.495	10242
918.606	10082
918.717	10074
918.828	10177
918.939	10154
919.05	10139
919.161	10105
919.272	9915
919.383	10013
919.494	10173
919.604	10363
919.715	10207
919.826	10082
919.936	10116
920.047	10314
920.157	10150
920.267	10265
920.378	10162
920.488	10196
920.598	10322
920.708	10440
920.818	10382
920.928	10379
921.038	10504
921.148	10535
921.258	10188
921.368	10086
921.477	9956
921.587	9972
921.697	9964
921.806	10013
921.916	9915
922.025	9785
922.134	9736
922.244	9701
922.353	9709
922.462	9629
922.571	9526
922.68	9408
922.789	9454
922.898	9355
923.007	9424
923.116	9485
923.224	9336
923.333	9393
923.442	9344
923.55	9302
923.659	9325
923.767	9272
923.876	9279
923.984	9287
924.092	9249
924.201	9332
924.309	9195
924.417	9279
924.525	9188
924.633	9264
924.741	10158
924.849	9058
924.956	9199
925.064	9066
925.172	9024
925.279	9055
925.387	9013
925.494	9043
925.602	9188
925.709	9192
925.816	8986
925.924	9032
926.031	9150
926.138	9070
926.245	9123
926.352	8933
926.459	9119
926.566	9173
926.673	8986
926.779	9017
926.886	8925
926.993	8914
927.099	8731
927.206	8781
927.312	8758
927.419	8834
927.525	8807
927.631	8819
927.737	8735
927.843	8697
927.95	8499
928.056	8670
928.162	8678
928.267	8739
928.373	9389
928.479	8804
928.585	8606
928.69	8762
928.796	8693
928.901	8648
929.007	8465
929.112	8629
929.218	8564
929.323	8503
929.428	8457
929.533	8678
929.638	8495
929.743	8465
929.848	8545
929.953	8450
930.058	8362
930.163	8259
930.267	8282
930.372	8351
930.477	8317
930.581	8552
930.685	8347
930.79	8324
930.894	8256
930.998	8195
931.103	8313
931.207	8008
931.311	7967
931.415	7921
931.519	7792
931.623	7780
