Data from test_V78500241_1883.txt Node
Date: Fri Mar 25 14:46:49 CST 2022
User: usil
Spectrometer: V785-0024
Trigger mode: 0
Integration Time (sec): 4.000000E-1
Scans to average: 1
Nonlinearity correction enabled: false
Boxcar width: 0
Storing dark spectrum: false
XAxis mode: Wavelengths
Number of Pixels in Spectrum: 1024
>>>>>Begin Spectral Data<<<<<
801.071	22006
801.214	21922
801.356	21778
801.499	21652
801.641	21591
801.783	21557
801.926	21618
802.068	21443
802.211	21450
802.353	21214
802.496	21116
802.638	21077
802.78	20937
802.923	20861
803.065	20754
803.208	20796
803.35	20819
803.492	21066
803.635	20906
803.777	20914
803.919	20902
804.061	21165
804.204	20842
804.346	20712
804.488	20651
804.63	20781
804.773	20583
804.915	20762
805.057	20891
805.199	20792
805.341	20857
805.483	20849
805.626	20952
805.768	20807
805.91	20746
806.052	20758
806.194	20682
806.336	20861
806.478	20583
806.62	20609
806.762	20804
806.904	20845
807.046	21100
807.188	20979
807.33	21062
807.472	21100
807.614	20910
807.756	21005
807.898	20815
808.04	20849
808.182	20830
808.324	20921
808.465	20895
808.607	21093
808.749	21154
808.891	21116
809.033	21344
809.174	21150
809.316	21135
809.458	21135
809.6	21039
809.741	21169
809.883	21195
810.025	21176
810.166	21283
810.308	21256
810.45	21298
810.591	21039
810.733	21001
810.875	20933
811.016	20963
811.158	20861
811.299	20823
811.441	20994
811.582	21047
811.724	20853
811.865	20872
812.007	20830
812.148	20826
812.29	20925
812.431	21024
812.573	21104
812.714	21169
812.855	21389
812.997	21477
813.138	21530
813.279	21488
813.421	21329
813.562	21245
813.703	21188
813.845	20998
813.986	20887
814.127	20655
814.268	20545
814.41	20423
814.551	20400
814.692	20393
814.833	20377
814.974	20389
815.115	20408
815.256	20248
815.397	20355
815.539	20278
815.68	20130
815.821	20145
815.962	20164
816.103	20062
816.244	20065
816.385	19898
816.526	19875
816.666	19731
816.807	19537
816.948	19693
817.089	19727
817.23	19708
817.371	19563
817.512	19495
817.653	19628
817.793	19388
817.934	19556
818.075	19578
818.216	19620
818.356	19495
818.497	19445
818.638	19293
818.778	19217
818.919	19304
819.06	19285
819.2	19312
819.341	19430
819.481	19483
819.622	19639
819.762	19696
819.903	19620
820.043	19590
820.184	19578
820.324	19518
820.465	19499
820.605	19537
820.746	19548
820.886	19384
821.026	19540
821.167	19453
821.307	19533
821.447	19362
821.588	19464
821.728	19244
821.868	19152
822.008	18894
822.149	18924
822.289	18897
822.429	18730
822.569	18620
822.709	18665
822.849	18403
822.99	18601
823.13	18414
823.27	18410
823.41	18243
823.55	18190
823.69	18338
823.83	18308
823.97	18330
824.11	18038
824.25	17988
824.389	17980
824.529	18159
824.669	18007
824.809	18209
824.949	18133
825.089	18045
825.228	18049
825.368	17885
825.508	17836
825.648	17786
825.787	17870
825.927	17897
826.067	17687
826.206	17840
826.346	17840
826.485	17901
826.625	17809
826.765	17847
826.904	17767
827.044	17600
827.183	17551
827.323	17379
827.462	17425
827.601	17471
827.741	17486
827.88	17703
828.02	17398
828.159	17440
828.298	17585
828.437	17524
828.577	17509
828.716	17581
828.855	17414
828.994	17254
829.134	17273
829.273	17258
829.412	17303
829.551	17273
829.69	17296
829.829	17235
829.968	17326
830.107	17315
830.246	17246
830.385	17220
830.524	17178
830.663	17105
830.802	16965
830.941	16930
831.08	16828
831.219	16972
831.357	16896
831.496	17181
831.635	16869
831.774	16755
831.913	16752
832.051	16622
832.19	16615
832.329	16763
832.467	16637
832.606	16497
832.744	16561
832.883	16573
833.022	16569
833.16	16550
833.299	16618
833.437	16653
833.576	16546
833.714	16626
833.852	16668
833.991	16675
834.129	16660
834.267	16698
834.406	16618
834.544	16694
834.682	16615
834.821	16592
834.959	16801
835.097	16550
835.235	16744
835.373	16687
835.511	16645
835.65	16558
835.788	16504
835.926	16451
836.064	16287
836.202	16341
836.34	16561
836.478	16664
836.615	16542
836.753	16535
836.891	16641
837.029	16561
837.167	16618
837.305	16455
837.443	16519
837.58	16455
837.718	16493
837.856	16386
837.993	16390
838.131	16382
838.269	16318
838.406	16314
838.544	16318
838.681	16067
838.819	16078
838.956	15945
839.094	15857
839.231	15941
839.369	16090
839.506	16363
839.643	16200
839.781	16082
839.918	15949
840.055	15953
840.193	15945
840.33	15983
840.467	15972
840.604	15979
840.742	16276
840.879	15873
841.016	15789
841.153	15899
841.29	16051
841.427	15968
841.564	15994
841.701	16017
841.838	15911
841.975	15831
842.112	15915
842.249	15892
842.385	15759
842.522	15979
842.659	15835
842.796	15705
842.933	15724
843.069	15766
843.206	15739
843.343	15827
843.479	15694
843.616	15717
843.752	15587
843.889	15545
844.025	15656
844.162	15656
844.298	15663
844.435	15576
844.571	15587
844.708	15698
844.844	15739
844.98	15652
845.117	15660
845.253	15534
845.389	15408
845.525	15515
845.661	15355
845.798	15389
845.934	15355
846.07	15306
846.206	15416
846.342	15405
846.478	15462
846.614	15222
846.75	15100
846.886	15104
847.022	15211
847.158	15077
847.294	15146
847.429	15123
847.565	15024
847.701	15359
847.837	14842
847.972	14861
848.108	14952
848.244	14887
848.379	14804
848.515	14800
848.65	14590
848.786	14678
848.921	14636
849.057	14880
849.192	14807
849.328	14769
849.463	14758
849.598	14701
849.734	14610
849.869	14514
850.004	14522
850.14	14556
850.275	14469
850.41	14393
850.545	14499
850.68	14499
850.815	14602
850.95	14438
851.085	14712
851.22	14537
851.355	14412
851.49	14514
851.625	14450
851.76	14484
851.895	14389
852.03	14339
852.165	14332
852.299	14495
852.434	14606
852.569	14469
852.703	14545
852.838	14541
852.973	14678
853.107	14568
853.242	14457
853.376	14366
853.511	14282
853.645	14336
853.78	14400
853.914	14355
854.048	14233
854.183	14317
854.317	14320
854.451	14583
854.585	14252
854.72	14374
854.854	14396
854.988	14336
855.122	14309
855.256	14164
855.39	14320
855.524	14434
855.658	14412
855.792	14362
855.926	14400
856.06	14328
856.194	14412
856.327	14214
856.461	14305
856.595	14278
856.729	14305
856.862	14480
856.996	14450
857.13	14400
857.263	14450
857.397	14461
857.53	14355
857.664	14438
857.797	14328
857.931	14473
858.064	14328
858.197	14465
858.331	14282
858.464	14282
858.597	14218
858.731	14332
858.864	14317
858.997	14336
859.13	14355
859.263	14328
859.396	14427
859.529	14377
859.662	14286
859.795	14328
859.928	14370
860.061	14484
860.194	14594
860.327	14412
860.46	14336
860.592	14503
860.725	14446
860.858	14434
860.99	14381
861.123	14149
861.256	14278
861.388	14362
861.521	14815
861.653	14168
861.786	14252
861.918	14202
862.05	14355
862.183	14294
862.315	14351
862.447	14317
862.58	14324
862.712	14103
862.844	13993
862.976	14145
863.108	14218
863.24	14423
863.372	14096
863.504	14202
863.636	14123
863.768	14210
863.9	14237
864.032	14161
864.164	14065
864.296	14168
864.428	14282
864.559	14161
864.691	14221
864.823	14191
864.954	14210
865.086	14119
865.217	14126
865.349	13944
865.48	14107
865.612	14111
865.743	14233
865.875	14126
866.006	14119
866.137	14084
866.269	14119
866.4	14100
866.531	14065
866.662	13959
866.793	13974
866.924	14035
867.055	14107
867.186	14191
867.317	14153
867.448	14016
867.579	14035
867.71	14081
867.841	14016
867.972	14172
868.103	14069
868.233	14062
868.364	14119
868.495	14153
868.625	14339
868.756	14522
868.886	14282
869.017	14320
869.147	14434
869.278	14476
869.408	14366
869.539	14309
869.669	14427
869.799	14324
869.929	14415
870.06	14511
870.19	14583
870.32	14594
870.45	14674
870.58	14712
870.71	14872
870.84	14781
870.97	14697
871.1	14754
871.23	14956
871.36	14899
871.489	14849
871.619	14929
871.749	15009
871.879	14990
872.008	15036
872.138	14937
872.267	14929
872.397	14823
872.526	14773
872.656	14678
872.785	14739
872.915	14994
873.044	15062
873.173	15051
873.303	15119
873.432	15024
873.561	15176
873.69	15013
873.819	14914
873.948	15047
874.077	15058
874.206	14918
874.335	15085
874.464	15199
874.593	15283
874.722	15249
874.851	15348
874.979	15374
875.108	15291
875.237	15252
875.365	15317
875.494	15351
875.623	15412
875.751	15226
875.88	15325
876.008	15515
876.136	15564
876.265	15751
876.393	15934
876.521	15880
876.65	15846
876.778	15774
876.906	15682
877.034	15530
877.162	15671
877.29	15724
877.418	15743
877.546	15682
877.674	15808
877.802	15842
877.93	15755
878.058	15652
878.185	15686
878.313	15648
878.441	15732
878.568	15641
878.696	15690
878.824	15732
878.951	15781
879.079	15804
879.206	15975
879.333	15956
879.461	15865
879.588	15854
879.715	15857
879.842	15956
879.97	15709
880.097	15591
880.224	15557
880.351	15648
880.478	15641
880.605	15534
880.732	15507
880.859	15823
880.986	15614
881.112	15675
881.239	15454
881.366	15374
881.493	15230
881.619	15249
881.746	15138
881.872	15188
881.999	15207
882.125	15230
882.252	15230
882.378	15237
882.505	15378
882.631	15165
882.757	15074
882.883	15173
883.01	15123
883.136	14826
883.262	14941
883.388	14944
883.514	15074
883.64	15093
883.766	14971
883.892	14891
884.018	14765
884.143	15104
884.269	15062
884.395	14739
884.52	14743
884.646	14845
884.772	14625
884.897	14632
885.023	14727
885.148	14834
885.274	14834
885.399	14956
885.524	14777
885.65	14762
885.775	14769
885.9	14777
886.025	14941
886.15	14788
886.275	14739
886.4	14564
886.525	14693
886.65	14735
886.775	14594
886.9	14891
887.025	14982
887.149	14811
887.274	14644
887.399	14632
887.523	14530
887.648	14530
887.773	14549
887.897	14708
888.021	14629
888.146	14594
888.27	14636
888.395	14712
888.519	14678
888.643	14708
888.767	14644
888.891	14465
889.015	14423
889.139	14476
889.263	14415
889.387	14537
889.511	14560
889.635	14689
889.759	14385
889.883	14446
890.006	14549
890.13	14629
890.254	14309
890.377	14415
890.501	14294
890.624	14210
890.748	14358
890.871	14172
890.995	14168
891.118	14054
891.241	14225
891.364	14172
891.488	14278
891.611	14062
891.734	14138
891.857	14275
891.98	14145
892.103	14168
892.226	14252
892.349	14103
892.471	14088
892.594	14115
892.717	14202
892.839	14062
892.962	14081
893.085	14176
893.207	14271
893.33	14020
893.452	14130
893.575	14195
893.697	14187
893.819	14343
893.941	14298
894.064	14317
894.186	14149
894.308	14119
894.43	14237
894.552	14423
894.674	14320
894.796	14191
894.918	14149
895.04	14172
895.161	14305
895.283	14233
895.405	14210
895.526	14229
895.648	14237
895.769	14294
895.891	14210
896.012	14336
896.134	14328
896.255	14366
896.376	14290
896.498	14275
896.619	14396
896.74	14370
896.861	14495
896.982	14670
897.103	14743
897.224	14621
897.345	14606
897.466	14518
897.587	14549
897.708	14682
897.828	14518
897.949	14594
898.07	14419
898.19	14473
898.311	14716
898.431	14598
898.552	14682
898.672	14769
898.792	14701
898.913	14678
899.033	14621
899.153	14499
899.273	14415
899.393	14442
899.513	14579
899.633	14530
899.753	14560
899.873	14415
899.993	14537
900.113	14518
900.232	14457
900.352	14541
900.472	14488
900.591	14431
900.711	14480
900.83	14317
900.95	14457
901.069	14465
901.189	14263
901.308	14065
901.427	14054
901.546	14024
901.665	14119
901.784	14176
901.904	13944
902.023	13811
902.141	13731
902.26	13666
902.379	13788
902.498	13753
902.617	13521
902.735	13696
902.854	13616
902.973	13586
903.091	13354
903.21	13354
903.328	13411
903.446	13198
903.565	13103
903.683	13202
903.801	13156
903.919	13209
904.038	13187
904.156	13023
904.274	13069
904.392	13069
904.51	12951
904.627	12958
904.745	13038
904.863	13202
904.981	12863
905.098	12753
905.216	12753
905.334	12726
905.451	12719
905.569	12696
905.686	12719
905.803	12707
905.921	12445
906.038	12627
906.155	12517
906.272	12388
906.389	12395
906.506	12304
906.623	12289
906.74	12254
906.857	12228
906.974	12243
907.091	12388
907.208	12456
907.324	12353
907.441	12197
907.557	12015
907.674	12095
907.79	11999
907.907	12041
908.023	12095
908.139	12072
908.256	12015
908.372	11950
908.488	11950
908.604	11824
908.72	11756
908.836	11805
908.952	11866
909.068	11805
909.184	11942
909.3	11729
909.415	11874
909.531	11779
909.647	11676
909.762	11577
909.878	11512
909.993	11585
910.108	11528
910.224	11600
910.339	11615
910.454	11459
910.57	11360
910.685	11360
910.8	11619
910.915	11596
911.03	11455
911.145	11258
911.259	11265
911.374	11227
911.489	11212
911.604	11140
911.718	11037
911.833	11128
911.947	10877
912.062	10862
912.176	10938
912.291	11018
912.405	10957
912.519	11166
912.633	11292
912.748	11052
912.862	11037
912.976	10927
913.09	10786
913.204	10930
913.318	10896
913.431	10946
913.545	10949
913.659	10957
913.772	10889
913.886	10786
914	10801
914.113	10896
914.226	10900
914.34	10942
914.453	10714
914.566	10904
914.68	10710
914.793	10634
914.906	10542
915.019	10508
915.132	10451
915.245	10546
915.358	10569
915.47	10558
915.583	10519
915.696	10565
915.809	10675
915.921	10729
916.034	10584
916.146	10519
916.259	10462
916.371	10550
916.483	10558
916.595	10451
916.708	10432
916.82	10466
916.932	10436
917.044	10462
917.156	10440
917.268	10303
917.38	10402
917.491	10390
917.603	10417
917.715	10459
917.826	10421
917.938	10291
918.049	10154
918.161	10405
918.272	10531
918.384	10538
918.495	10474
918.606	10188
918.717	10169
918.828	10261
918.939	10280
919.05	10097
919.161	10276
919.272	9994
919.383	10105
919.494	10314
919.604	10451
919.715	10265
919.826	10207
919.936	10268
920.047	10325
920.157	10348
920.267	10531
920.378	10341
920.488	10215
920.598	10390
920.708	10569
920.818	10455
920.928	10436
921.038	10607
921.148	10603
921.258	10284
921.368	10188
921.477	10177
921.587	10109
921.697	10032
921.806	10097
921.916	9975
922.025	9797
922.134	9850
922.244	9838
922.353	9903
922.462	9751
922.571	9675
922.68	9386
922.789	9473
922.898	9519
923.007	9473
923.116	9614
923.224	9568
923.333	9538
923.442	9374
923.55	9321
923.659	9443
923.767	9435
923.876	9370
923.984	9500
924.092	9340
924.201	9397
924.309	9283
924.417	9439
924.525	9302
924.633	9348
924.741	10287
924.849	9195
924.956	9268
925.064	9184
925.172	9062
925.279	9173
925.387	9161
925.494	9230
925.602	9325
925.709	9298
925.816	9157
925.924	9104
926.031	9203
926.138	9135
926.245	9154
926.352	9104
926.459	9116
926.566	9233
926.673	9089
926.779	8975
926.886	9024
926.993	8819
927.099	8933
927.206	8781
927.312	8800
927.419	8895
927.525	8876
927.631	8929
927.737	8781
927.843	8777
927.95	8636
928.056	8708
928.162	8746
928.267	8807
928.373	9355
928.479	8899
928.585	8625
928.69	8716
928.796	8792
928.901	8644
929.007	8541
929.112	8682
929.218	8644
929.323	8590
929.428	8549
929.533	8712
929.638	8511
929.743	8526
929.848	8636
929.953	8556
930.058	8488
930.163	8351
930.267	8393
930.372	8461
930.477	8275
930.581	8560
930.685	8362
930.79	8259
930.894	8301
930.998	8229
931.103	8431
931.207	8161
931.311	8024
931.415	7932
931.519	7795
931.623	7860
