Data from test_V78500241_2901.txt Node
Date: Fri Mar 25 14:53:54 CST 2022
User: usil
Spectrometer: V785-0024
Trigger mode: 0
Integration Time (sec): 4.000000E-1
Scans to average: 1
Nonlinearity correction enabled: false
Boxcar width: 0
Storing dark spectrum: false
XAxis mode: Wavelengths
Number of Pixels in Spectrum: 1024
>>>>>Begin Spectral Data<<<<<
801.071	21987
801.214	21895
801.356	21698
801.499	21652
801.641	21393
801.783	21351
801.926	21481
802.068	21348
802.211	21370
802.353	21199
802.496	21028
802.638	20941
802.78	20971
802.923	20891
803.065	20651
803.208	20758
803.35	20788
803.492	20876
803.635	20921
803.777	20735
803.919	20857
804.061	21058
804.204	20861
804.346	20731
804.488	20632
804.63	20788
804.773	20629
804.915	20762
805.057	20887
805.199	20655
805.341	20800
805.483	20826
805.626	20754
805.768	20598
805.91	20655
806.052	20602
806.194	20571
806.336	20746
806.478	20564
806.62	20644
806.762	20735
806.904	20853
807.046	21001
807.188	21020
807.33	21055
807.472	21081
807.614	20906
807.756	20921
807.898	20880
808.04	20693
808.182	20830
808.324	20750
808.465	20819
808.607	20826
808.749	21013
808.891	21096
809.033	21241
809.174	21100
809.316	21051
809.458	21005
809.6	20891
809.741	21058
809.883	21116
810.025	21211
810.166	21157
810.308	21188
810.45	21176
810.591	21047
810.733	20971
810.875	20864
811.016	20727
811.158	20720
811.299	20948
811.441	20979
811.582	20979
811.724	20777
811.865	20842
812.007	20788
812.148	20758
812.29	20785
812.431	20876
812.573	21119
812.714	21252
812.855	21291
812.997	21230
813.138	21545
813.279	21386
813.421	21359
813.562	21279
813.703	20975
813.845	20986
813.986	20636
814.127	20457
814.268	20419
814.41	20374
814.551	20415
814.692	20404
814.833	20366
814.974	20396
815.115	20423
815.256	20290
815.397	20214
815.539	20237
815.68	20096
815.821	19989
815.962	20077
816.103	20122
816.244	19936
816.385	19826
816.526	19738
816.666	19499
816.807	19407
816.948	19647
817.089	19696
817.23	19544
817.371	19472
817.512	19483
817.653	19476
817.793	19373
817.934	19449
818.075	19449
818.216	19521
818.356	19396
818.497	19244
818.638	19240
818.778	19202
818.919	19156
819.06	19270
819.2	19270
819.341	19419
819.481	19403
819.622	19533
819.762	19643
819.903	19540
820.043	19540
820.184	19537
820.324	19525
820.465	19563
820.605	19445
820.746	19480
820.886	19362
821.026	19373
821.167	19285
821.307	19468
821.447	19381
821.588	19247
821.728	19152
821.868	19065
822.008	18913
822.149	18760
822.289	18814
822.429	18604
822.569	18513
822.709	18540
822.849	18334
822.99	18399
823.13	18407
823.27	18296
823.41	18190
823.55	18178
823.69	18216
823.83	18213
823.97	18064
824.11	17882
824.25	17851
824.389	17961
824.529	18072
824.669	17954
824.809	17988
824.949	18019
825.089	18026
825.228	17969
825.368	17672
825.508	17756
825.648	17851
825.787	17752
825.927	17767
826.067	17707
826.206	17657
826.346	17699
826.485	17767
826.625	17752
826.765	17828
826.904	17596
827.044	17425
827.183	17551
827.323	17402
827.462	17452
827.601	17440
827.741	17322
827.88	17410
828.02	17303
828.159	17414
828.298	17360
828.437	17444
828.577	17280
828.716	17570
828.855	17372
828.994	17204
829.134	17223
829.273	17208
829.412	17185
829.551	17109
829.69	17258
829.829	17204
829.968	17227
830.107	17162
830.246	17208
830.385	17143
830.524	17121
830.663	16915
830.802	16824
830.941	16801
831.08	16908
831.219	16889
831.357	16850
831.496	17128
831.635	16797
831.774	16630
831.913	16729
832.051	16596
832.19	16546
832.329	16694
832.467	16500
832.606	16527
832.744	16428
832.883	16481
833.022	16478
833.16	16546
833.299	16508
833.437	16550
833.576	16489
833.714	16558
833.852	16603
833.991	16577
834.129	16672
834.267	16554
834.406	16554
834.544	16580
834.682	16512
834.821	16592
834.959	16691
835.097	16607
835.235	16653
835.373	16577
835.511	16607
835.65	16485
835.788	16405
835.926	16303
836.064	16223
836.202	16360
836.34	16531
836.478	16565
836.615	16405
836.753	16409
836.891	16405
837.029	16459
837.167	16402
837.305	16432
837.443	16360
837.58	16299
837.718	16226
837.856	16344
837.993	16215
838.131	16306
838.269	16181
838.406	16272
838.544	16249
838.681	16086
838.819	15888
838.956	15876
839.094	15861
839.231	15895
839.369	15960
839.506	16158
839.643	16211
839.781	15850
839.918	15770
840.055	15835
840.193	15827
840.33	15781
840.467	15949
840.604	15854
840.742	16162
840.879	15842
841.016	15739
841.153	15717
841.29	16002
841.427	15907
841.564	15934
841.701	15793
841.838	15865
841.975	15698
842.112	15778
842.249	15675
842.385	15576
842.522	15838
842.659	15686
842.796	15625
842.933	15644
843.069	15492
843.206	15641
843.343	15629
843.479	15701
843.616	15633
843.752	15553
843.889	15416
844.025	15526
844.162	15317
844.298	15637
844.435	15428
844.571	15386
844.708	15462
844.844	15561
844.98	15599
845.117	15568
845.253	15386
845.389	15351
845.525	15393
845.661	15302
845.798	15180
845.934	15192
846.07	15123
846.206	15275
846.342	15348
846.478	15169
846.614	15020
846.75	14963
846.886	15043
847.022	15085
847.158	15032
847.294	15043
847.429	15066
847.565	14967
847.701	15264
847.837	14735
847.972	14682
848.108	14819
848.244	14785
848.379	14663
848.515	14632
848.65	14507
848.786	14663
848.921	14552
849.057	14655
849.192	14659
849.328	14697
849.463	14587
849.598	14575
849.734	14545
849.869	14389
850.004	14377
850.14	14457
850.275	14332
850.41	14324
850.545	14278
850.68	14294
850.815	14423
850.95	14400
851.085	14564
851.22	14408
851.355	14415
851.49	14442
851.625	14263
851.76	14389
851.895	14237
852.03	14149
852.165	14377
852.299	14336
852.434	14351
852.569	14343
852.703	14278
852.838	14393
852.973	14545
853.107	14431
853.242	14339
853.376	14313
853.511	14081
853.645	14115
853.78	14317
853.914	14278
854.048	14225
854.183	14176
854.317	14263
854.451	14457
854.585	14206
854.72	14259
854.854	14298
854.988	14153
855.122	14229
855.256	14100
855.39	14153
855.524	14374
855.658	14206
855.792	14336
855.926	14225
856.06	14290
856.194	14355
856.327	14263
856.461	14195
856.595	14244
856.729	14164
856.862	14423
856.996	14210
857.13	14309
857.263	14267
857.397	14252
857.53	14229
857.664	14294
857.797	14309
857.931	14275
858.064	14290
858.197	14286
858.331	14256
858.464	14145
858.597	14130
858.731	14157
858.864	14149
858.997	14202
859.13	14298
859.263	14313
859.396	14259
859.529	14252
859.662	14271
859.795	14088
859.928	14214
860.061	14419
860.194	14362
860.327	14320
860.46	14206
860.592	14355
860.725	14336
860.858	14343
860.99	14229
861.123	14157
861.256	14183
861.388	14221
861.521	14952
861.653	14119
861.786	14069
861.918	14123
862.05	14180
862.183	14123
862.315	14233
862.447	14259
862.58	14199
862.712	13940
862.844	13970
862.976	14046
863.108	14043
863.24	14358
863.372	13970
863.504	14043
863.636	14027
863.768	14043
863.9	14081
864.032	13868
864.164	14039
864.296	14054
864.428	14115
864.559	14081
864.691	14054
864.823	14153
864.954	14016
865.086	14035
865.217	13989
865.349	13925
865.48	13932
865.612	13970
865.743	14107
865.875	14001
866.006	13890
866.137	13989
866.269	14069
866.4	13959
866.531	13879
866.662	13944
866.793	13986
866.924	13944
867.055	14027
867.186	13974
867.317	13963
867.448	13928
867.579	13963
867.71	13959
867.841	13936
867.972	13970
868.103	13864
868.233	13997
868.364	14073
868.495	14020
868.625	14096
868.756	14343
868.886	14210
869.017	14206
869.147	14377
869.278	14313
869.408	14214
869.539	14252
869.669	14393
869.799	14229
869.929	14374
870.06	14286
870.19	14560
870.32	14556
870.45	14556
870.58	14682
870.71	14765
870.84	14792
870.97	14564
871.1	14712
871.23	14743
871.36	14815
871.489	14705
871.619	14800
871.749	14834
871.879	14891
872.008	14826
872.138	14842
872.267	14796
872.397	14712
872.526	14682
872.656	14659
872.785	14735
872.915	14864
873.044	14918
873.173	14887
873.303	14944
873.432	14838
873.561	15009
873.69	14872
873.819	14899
873.948	14921
874.077	14937
874.206	14849
874.335	14876
874.464	15024
874.593	15173
874.722	15074
874.851	15230
874.979	15207
875.108	15268
875.237	15123
875.365	15100
875.494	15135
875.623	15325
875.751	15222
875.88	15317
876.008	15393
876.136	15454
876.265	15557
876.393	15793
876.521	15793
876.65	15610
876.778	15652
876.906	15663
877.034	15599
877.162	15557
877.29	15564
877.418	15633
877.546	15648
877.674	15667
877.802	15663
877.93	15610
878.058	15561
878.185	15557
878.313	15603
878.441	15606
878.568	15439
878.696	15572
878.824	15629
878.951	15618
879.079	15850
879.206	15876
879.333	15857
879.461	15701
879.588	15660
879.715	15732
879.842	15949
879.97	15713
880.097	15580
880.224	15454
880.351	15530
880.478	15485
880.605	15526
880.732	15507
880.859	15698
880.986	15397
881.112	15450
881.239	15397
881.366	15211
881.493	15176
881.619	15112
881.746	15161
881.872	15211
881.999	15161
882.125	15108
882.252	15241
882.378	15119
882.505	15249
882.631	15020
882.757	15005
882.883	15051
883.01	14925
883.136	14861
883.262	14724
883.388	14815
883.514	14986
883.64	14990
883.766	14857
883.892	14769
884.018	14746
884.143	14918
884.269	14929
884.395	14754
884.52	14659
884.646	14765
884.772	14617
884.897	14549
885.023	14697
885.148	14758
885.274	14777
885.399	14754
885.524	14651
885.65	14636
885.775	14602
885.9	14606
886.025	14804
886.15	14724
886.275	14602
886.4	14503
886.525	14537
886.65	14530
886.775	14442
886.9	14746
887.025	14883
887.149	14625
887.274	14442
887.399	14431
887.523	14434
887.648	14393
887.773	14396
887.897	14549
888.021	14450
888.146	14434
888.27	14568
888.395	14663
888.519	14511
888.643	14568
888.767	14564
888.891	14381
889.015	14351
889.139	14267
889.263	14263
889.387	14415
889.511	14549
889.635	14454
889.759	14271
889.883	14248
890.006	14408
890.13	14389
890.254	14248
890.377	14206
890.501	14187
890.624	14126
890.748	14149
890.871	14096
890.995	13951
891.118	13974
891.241	14035
891.364	14100
891.488	14073
891.611	13993
891.734	14016
891.857	14130
891.98	14065
892.103	14073
892.226	14024
892.349	14096
892.471	13833
892.594	13989
892.717	14039
892.839	14073
892.962	14077
893.085	14073
893.207	14126
893.33	14027
893.452	13951
893.575	14077
893.697	14005
893.819	14142
893.941	14210
894.064	14149
894.186	14050
894.308	14016
894.43	14210
894.552	14286
894.674	14153
894.796	13963
894.918	14069
895.04	14130
895.161	14191
895.283	14130
895.405	14119
895.526	14100
895.648	14096
895.769	14180
895.891	14149
896.012	14244
896.134	14240
896.255	14240
896.376	14180
896.498	14233
896.619	14400
896.74	14248
896.861	14286
896.982	14564
897.103	14667
897.224	14518
897.345	14404
897.466	14526
897.587	14484
897.708	14617
897.828	14495
897.949	14492
898.07	14415
898.19	14499
898.311	14708
898.431	14431
898.552	14526
898.672	14674
898.792	14663
898.913	14617
899.033	14461
899.153	14568
899.273	14294
899.393	14431
899.513	14427
899.633	14473
899.753	14450
899.873	14465
899.993	14526
900.113	14374
900.232	14457
900.352	14469
900.472	14328
900.591	14244
900.711	14286
900.83	14237
900.95	14442
901.069	14366
901.189	14313
901.308	14008
901.427	13944
901.546	13852
901.665	14039
901.784	13993
901.904	13845
902.023	13830
902.141	13559
902.26	13556
902.379	13636
902.498	13567
902.617	13499
902.735	13559
902.854	13571
902.973	13495
903.091	13293
903.21	13266
903.328	13293
903.446	13247
903.565	13110
903.683	13080
903.801	13095
903.919	13084
904.038	13031
904.156	12935
904.274	12996
904.392	12913
904.51	12878
904.627	12878
904.745	12909
904.863	12928
904.981	12730
905.098	12589
905.216	12692
905.334	12623
905.451	12525
905.569	12589
905.686	12654
905.803	12658
905.921	12498
906.038	12551
906.155	12376
906.272	12315
906.389	12308
906.506	12190
906.623	12190
906.74	12247
906.857	12136
906.974	12152
907.091	12201
907.208	12380
907.324	12201
907.441	12140
907.557	11965
907.674	12022
907.79	11904
907.907	11961
908.023	11927
908.139	11969
908.256	11920
908.372	11859
908.488	11847
908.604	11786
908.72	11718
908.836	11741
908.952	11668
909.068	11676
909.184	11824
909.3	11718
909.415	11752
909.531	11836
909.647	11608
909.762	11490
909.878	11391
909.993	11490
910.108	11520
910.224	11482
910.339	11486
910.454	11299
910.57	11216
910.685	11258
910.8	11619
910.915	11455
911.03	11345
911.145	11189
911.259	11159
911.374	11220
911.489	11067
911.604	10968
911.718	10866
911.833	11014
911.947	10839
912.062	10755
912.176	10904
912.291	10965
912.405	10923
912.519	11147
912.633	11090
912.748	11056
912.862	10911
912.976	10782
913.09	10759
913.204	10793
913.318	10839
913.431	10854
913.545	10968
913.659	10930
913.772	10820
913.886	10679
914	10641
914.113	10778
914.226	10801
914.34	10797
914.453	10561
914.566	10717
914.68	10565
914.793	10603
914.906	10409
915.019	10421
915.132	10322
915.245	10428
915.358	10451
915.47	10459
915.583	10436
915.696	10542
915.809	10565
915.921	10565
916.034	10451
916.146	10440
916.259	10386
916.371	10497
916.483	10462
916.595	10382
916.708	10440
916.82	10363
916.932	10356
917.044	10303
917.156	10417
917.268	10257
917.38	10337
917.491	10249
917.603	10276
917.715	10413
917.826	10390
917.938	10299
918.049	10246
918.161	10242
918.272	10451
918.384	10447
918.495	10310
918.606	10143
918.717	10090
918.828	10128
918.939	10143
919.05	10074
919.161	10234
919.272	9964
919.383	10055
919.494	10204
919.604	10440
919.715	10059
919.826	10055
919.936	10162
920.047	10139
920.157	10158
920.267	10329
920.378	10188
920.488	10192
920.598	10421
920.708	10523
920.818	10371
920.928	10405
921.038	10500
921.148	10481
921.258	10276
921.368	10177
921.477	10017
921.587	10063
921.697	9922
921.806	10048
921.916	9953
922.025	9740
922.134	9720
922.244	9724
922.353	9759
922.462	9641
922.571	9618
922.68	9458
922.789	9450
922.898	9397
923.007	9355
923.116	9458
923.224	9359
923.333	9386
923.442	9359
923.55	9260
923.659	9298
923.767	9367
923.876	9325
923.984	9321
924.092	9203
924.201	9321
924.309	9325
924.417	9329
924.525	9264
924.633	9310
924.741	10223
924.849	9062
924.956	9203
925.064	9058
925.172	8971
925.279	8971
925.387	9116
925.494	9036
925.602	9142
925.709	9138
925.816	9070
925.924	9150
926.031	9188
926.138	9104
926.245	9195
926.352	9108
926.459	9157
926.566	9203
926.673	9116
926.779	8883
926.886	8895
926.993	8872
927.099	8800
927.206	8731
927.312	8766
927.419	8880
927.525	8773
927.631	8773
927.737	8746
927.843	8754
927.95	8632
928.056	8644
928.162	8651
928.267	8739
928.373	9367
928.479	8788
928.585	8495
928.69	8674
928.796	8712
928.901	8621
929.007	8469
929.112	8678
929.218	8571
929.323	8545
929.428	8446
929.533	8640
929.638	8450
929.743	8556
929.848	8564
929.953	8511
930.058	8488
930.163	8267
930.267	8294
930.372	8423
930.477	8263
930.581	8461
930.685	8309
930.79	8256
930.894	8259
930.998	8199
931.103	8317
931.207	8012
931.311	7928
931.415	7921
931.519	7769
931.623	7719
