Data from test_V78500241_163.txt Node
Date: Fri Mar 25 14:34:51 CST 2022
User: usil
Spectrometer: V785-0024
Trigger mode: 0
Integration Time (sec): 4.000000E-1
Scans to average: 1
Nonlinearity correction enabled: false
Boxcar width: 0
Storing dark spectrum: false
XAxis mode: Wavelengths
Number of Pixels in Spectrum: 1024
>>>>>Begin Spectral Data<<<<<
801.071	29109
801.214	28995
801.356	28717
801.499	28824
801.641	28599
801.783	28523
801.926	28470
802.068	28386
802.211	28371
802.353	28223
802.496	28169
802.638	28131
802.78	28135
802.923	27979
803.065	28025
803.208	27968
803.35	28063
803.492	28192
803.635	28310
803.777	28032
803.919	28276
804.061	28569
804.204	28192
804.346	28116
804.488	28074
804.63	28223
804.773	28181
804.915	28147
805.057	28341
805.199	28287
805.341	28440
805.483	28295
805.626	28299
805.768	28196
805.91	28253
806.052	28360
806.194	28341
806.336	28607
806.478	28626
806.62	28550
806.762	28637
806.904	28664
807.046	29113
807.188	29086
807.33	29341
807.472	29356
807.614	29353
807.756	29505
807.898	29699
808.04	29847
808.182	30346
808.324	30791
808.465	31316
808.607	31887
808.749	32541
808.891	33013
809.033	33077
809.174	32579
809.316	31864
809.458	31377
809.6	30772
809.741	30437
809.883	30007
810.025	29950
810.166	29836
810.308	29482
810.45	29414
810.591	29322
810.733	29143
810.875	29029
811.016	28854
811.158	28630
811.299	28839
811.441	28900
811.582	28793
811.724	28835
811.865	28656
812.007	28664
812.148	28664
812.29	28748
812.431	28847
812.573	29064
812.714	29056
812.855	29170
812.997	29200
813.138	29398
813.279	29360
813.421	29200
813.562	29094
813.703	28873
813.845	28721
813.986	28584
814.127	28333
814.268	28154
814.41	28325
814.551	28166
814.692	28109
814.833	27983
814.974	28238
815.115	28032
815.256	28025
815.397	28013
815.539	27979
815.68	27869
815.821	27728
815.962	27983
816.103	27831
816.244	27690
816.385	27679
816.526	27504
816.666	27412
816.807	27188
816.948	27344
817.089	27279
817.23	27279
817.371	27157
817.512	27211
817.653	27127
817.793	27161
817.934	27214
818.075	27173
818.216	27150
818.356	27047
818.497	26921
818.638	26861
818.778	26887
818.919	26891
819.06	26960
819.2	27036
819.341	27127
819.481	27081
819.622	27218
819.762	27367
819.903	27252
820.043	27332
820.184	27180
820.324	27169
820.465	27310
820.605	27157
820.746	27195
820.886	26914
821.026	27173
821.167	26872
821.307	27188
821.447	26960
821.588	26918
821.728	26796
821.868	26499
822.008	26526
822.149	26560
822.289	26347
822.429	26183
822.569	26122
822.709	26115
822.849	25906
822.99	25997
823.13	25803
823.27	25742
823.41	25731
823.55	25548
823.69	25776
823.83	25628
823.97	25670
824.11	25605
824.25	25308
824.389	25559
824.529	25559
824.669	25563
824.809	25445
824.949	25510
825.089	25533
825.228	25529
825.368	25373
825.508	25301
825.648	25285
825.787	25251
825.927	25381
826.067	25225
826.206	25289
826.346	25289
826.485	25232
826.625	25350
826.765	25377
826.904	25263
827.044	25076
827.183	24943
827.323	24867
827.462	24939
827.601	24878
827.741	24852
827.88	24996
828.02	24779
828.159	24878
828.298	24989
828.437	24970
828.577	24939
828.716	25057
828.855	24753
828.994	24696
829.134	24738
829.273	24635
829.412	24616
829.551	24452
829.69	24616
829.829	24483
829.968	24776
830.107	24642
830.246	24646
830.385	24555
830.524	24540
830.663	24532
830.802	24311
830.941	24213
831.08	24182
831.219	24205
831.357	24262
831.496	24422
831.635	24163
831.774	24091
831.913	23992
832.051	23920
832.19	23908
832.329	24060
832.467	23874
832.606	23703
832.744	23878
832.883	23908
833.022	23931
833.16	23889
833.299	23889
833.437	23893
833.576	23885
833.714	23923
833.852	23965
833.991	24053
834.129	24186
834.267	24125
834.406	23996
834.544	23996
834.682	24068
834.821	23927
834.959	23980
835.097	23802
835.235	23988
835.373	24041
835.511	23764
835.65	23710
835.788	23760
835.926	23611
836.064	23402
836.202	23497
836.34	23535
836.478	23737
836.615	23623
836.753	23573
836.891	23775
837.029	23570
837.167	23665
837.305	23459
837.443	23471
837.58	23440
837.718	23665
837.856	23429
837.993	23459
838.131	23417
838.269	23239
838.406	23277
838.544	23269
838.681	23079
838.819	23064
838.956	22919
839.094	22847
839.231	22889
839.369	23079
839.506	23318
839.643	23124
839.781	22778
839.918	22816
840.055	22793
840.193	22786
840.33	22660
840.467	22736
840.604	22702
840.742	23109
840.879	22691
841.016	22752
841.153	22683
841.29	22828
841.427	22752
841.564	22721
841.701	22748
841.838	22717
841.975	22607
842.112	22679
842.249	22523
842.385	22504
842.522	22637
842.659	22417
842.796	22382
842.933	22424
843.069	22440
843.206	22527
843.343	22531
843.479	22379
843.616	22489
843.752	22131
843.889	22181
844.025	22310
844.162	22105
844.298	22390
844.435	22284
844.571	22409
844.708	22455
844.844	22588
844.98	22656
845.117	22721
845.253	22637
845.389	23029
845.525	23608
845.661	24525
845.798	25818
845.934	26727
846.07	27036
846.206	26952
846.342	26324
846.478	24897
846.614	23570
846.75	22793
846.886	22535
847.022	22276
847.158	21991
847.294	21960
847.429	21838
847.565	21713
847.701	22070
847.837	21511
847.972	21454
848.108	21485
848.244	21443
848.379	21218
848.515	21192
848.65	21230
848.786	21211
848.921	21131
849.057	21363
849.192	21424
849.328	21176
849.463	21268
849.598	21127
849.734	21180
849.869	21017
850.004	21039
850.14	20948
850.275	21036
850.41	20819
850.545	20956
850.68	20899
850.815	21047
850.95	20891
851.085	20986
851.22	21047
851.355	20872
851.49	20857
851.625	20800
851.76	20811
851.895	20712
852.03	20834
852.165	20750
852.299	21020
852.434	20967
852.569	20834
852.703	20811
852.838	20914
852.973	21024
853.107	20963
853.242	20891
853.376	20720
853.511	20602
853.645	20762
853.78	20811
853.914	20720
854.048	20727
854.183	20720
854.317	20845
854.451	20971
854.585	20781
854.72	20651
854.854	20735
854.988	20689
855.122	20731
855.256	20530
855.39	20678
855.524	20762
855.658	20739
855.792	20762
855.926	20796
856.06	20804
856.194	20735
856.327	20796
856.461	20670
856.595	20594
856.729	20655
856.862	20758
856.996	20686
857.13	20762
857.263	20819
857.397	20720
857.53	20613
857.664	20731
857.797	20712
857.931	20750
858.064	20575
858.197	20697
858.331	20716
858.464	20533
858.597	20545
858.731	20552
858.864	20560
858.997	20617
859.13	20648
859.263	20560
859.396	20655
859.529	20648
859.662	20488
859.795	20549
859.928	20640
860.061	20720
860.194	20663
860.327	20621
860.46	20571
860.592	20739
860.725	20670
860.858	20636
860.99	20579
861.123	20431
861.256	20613
861.388	20667
861.521	21218
861.653	20511
861.786	20446
861.918	20328
862.05	20507
862.183	20644
862.315	20598
862.447	20575
862.58	20583
862.712	20400
862.844	20218
862.976	20423
863.108	20324
863.24	20640
863.372	20248
863.504	20298
863.636	20248
863.768	20332
863.9	20214
864.032	20039
864.164	20187
864.296	20267
864.428	20370
864.559	20393
864.691	20347
864.823	20237
864.954	20256
865.086	20275
865.217	20130
865.349	20027
865.48	20103
865.612	20069
865.743	20415
865.875	20180
866.006	20096
866.137	20100
866.269	20214
866.4	20130
866.531	20107
866.662	20039
866.793	20069
866.924	20153
867.055	20164
867.186	20145
867.317	20020
867.448	20027
867.579	20058
867.71	20065
867.841	19959
867.972	20145
868.103	20153
868.233	20050
868.364	20134
868.495	20183
868.625	20408
868.756	20518
868.886	20180
869.017	20412
869.147	20431
869.278	20396
869.408	20294
869.539	20362
869.669	20351
869.799	20370
869.929	20488
870.06	20457
870.19	20629
870.32	20674
870.45	20663
870.58	20708
870.71	20815
870.84	20857
870.97	20765
871.1	20724
871.23	20826
871.36	20887
871.489	20819
871.619	20887
871.749	20834
871.879	20990
872.008	21020
872.138	20963
872.267	20887
872.397	20777
872.526	20762
872.656	20781
872.785	20960
872.915	20883
873.044	21146
873.173	20849
873.303	21135
873.432	20963
873.561	21089
873.69	20960
873.819	21017
873.948	21058
874.077	21081
874.206	20910
874.335	21085
874.464	21173
874.593	21260
874.722	21237
874.851	21344
874.979	21279
875.108	21389
875.237	21245
875.365	21214
875.494	21298
875.623	21443
875.751	21507
875.88	21401
876.008	21561
876.136	21561
876.265	21698
876.393	21895
876.521	21827
876.65	21819
876.778	21842
876.906	21739
877.034	21785
877.162	21762
877.29	21724
877.418	21880
877.546	21819
877.674	21861
877.802	21789
877.93	21918
878.058	21812
878.185	21953
878.313	22063
878.441	22006
878.568	22025
878.696	22120
878.824	22329
878.951	22630
879.079	22987
879.206	23493
879.333	23824
879.461	23977
879.588	24353
879.715	24456
879.842	24171
879.97	23619
880.097	23151
880.224	22698
880.351	22725
880.478	22421
880.605	22337
880.732	22173
880.859	22485
880.986	22299
881.112	22226
881.239	21994
881.366	21892
881.493	21899
881.619	21743
881.746	21660
881.872	21850
881.999	21751
882.125	21743
882.252	21823
882.378	21778
882.505	21888
882.631	21641
882.757	21682
882.883	21564
883.01	21500
883.136	21481
883.262	21424
883.388	21397
883.514	21587
883.64	21504
883.766	21511
883.892	21287
884.018	21370
884.143	21485
884.269	21564
884.395	21161
884.52	21264
884.646	21222
884.772	21195
884.897	21024
885.023	21264
885.148	21348
885.274	21313
885.399	21214
885.524	21176
885.65	21127
885.775	21135
885.9	20994
886.025	21222
886.15	21089
886.275	20838
886.4	20891
886.525	20891
886.65	20864
886.775	20887
886.9	20864
887.025	21173
887.149	20891
887.274	20629
887.399	20499
887.523	20769
887.648	20385
887.773	20419
887.897	20545
888.021	20507
888.146	20454
888.27	20522
888.395	20480
888.519	20526
888.643	20469
888.767	20465
888.891	20355
889.015	20290
889.139	20358
889.263	20187
889.387	20225
889.511	20355
889.635	20221
889.759	20149
889.883	20180
890.006	20069
890.13	20168
890.254	20202
890.377	20065
890.501	19974
890.624	19761
890.748	19883
890.871	19822
890.995	19689
891.118	19639
891.241	19731
891.364	19833
891.488	19856
891.611	19674
891.734	19613
891.857	19742
891.98	19639
892.103	19807
892.226	19731
892.349	19582
892.471	19510
892.594	19594
892.717	19548
892.839	19533
892.962	19666
893.085	19674
893.207	19559
893.33	19445
893.452	19426
893.575	19544
893.697	19419
893.819	19616
893.941	19791
894.064	19609
894.186	19499
894.308	19388
894.43	19518
894.552	19620
894.674	19514
894.796	19453
894.918	19529
895.04	19457
895.161	19510
895.283	19457
895.405	19415
895.526	19533
895.648	19483
895.769	19472
895.891	19613
896.012	19533
896.134	19575
896.255	19487
896.376	19468
896.498	19552
896.619	19548
896.74	19514
896.861	19540
896.982	19913
897.103	19951
897.224	19811
897.345	19643
897.466	19647
897.587	19609
897.708	19727
897.828	19811
897.949	19597
898.07	19502
898.19	19719
898.311	19765
898.431	19594
898.552	19704
898.672	19887
898.792	19765
898.913	19647
899.033	19601
899.153	19381
899.273	19255
899.393	19457
899.513	19445
899.633	19400
899.753	19460
899.873	19426
899.993	19468
900.113	19308
900.232	19327
900.352	19358
900.472	19343
900.591	19061
900.711	19411
900.83	19266
900.95	19327
901.069	19392
901.189	19183
901.308	18966
901.427	18920
901.546	18852
901.665	18810
901.784	19004
901.904	18711
902.023	18692
902.141	18464
902.26	18323
902.379	18361
902.498	18327
902.617	18327
902.735	18315
902.854	18232
902.973	18197
903.091	17969
903.21	17885
903.328	17916
903.446	17954
903.565	17889
903.683	17813
903.801	17718
903.919	17794
904.038	17783
904.156	17573
904.274	17638
904.392	17524
904.51	17417
904.627	17444
904.745	17528
904.863	17395
904.981	17311
905.098	17178
905.216	17254
905.334	17189
905.451	17189
905.569	17128
905.686	17181
905.803	17056
905.921	16984
906.038	17025
906.155	16938
906.272	16877
906.389	16896
906.506	16649
906.623	16649
906.74	16694
906.857	16558
906.974	16626
907.091	16752
907.208	16801
907.324	16641
907.441	16683
907.557	16402
907.674	16386
907.79	16303
907.907	16356
908.023	16386
908.139	16295
908.256	16253
908.372	16181
908.488	16265
908.604	16078
908.72	16048
908.836	16055
908.952	15991
909.068	16036
909.184	16135
909.3	16040
909.415	16040
909.531	15926
909.647	15800
909.762	15709
909.878	15690
909.993	15793
910.108	15781
910.224	15656
910.339	15663
910.454	15694
910.57	15618
910.685	15519
910.8	15759
910.915	15698
911.03	15523
911.145	15393
911.259	15408
911.374	15264
911.489	15287
911.604	15192
911.718	15077
911.833	15077
911.947	15047
912.062	14872
912.176	15043
912.291	15032
912.405	15066
912.519	15245
912.633	15268
912.748	15116
912.862	15043
912.976	14861
913.09	14788
913.204	14796
913.318	14960
913.431	14823
913.545	14982
913.659	15047
913.772	14815
913.886	14739
914	14682
914.113	14849
914.226	14792
914.34	14781
914.453	14549
914.566	14800
914.68	14659
914.793	14579
914.906	14461
915.019	14259
915.132	14347
915.245	14381
915.358	14355
915.47	14366
915.583	14381
915.696	14522
915.809	14385
915.921	14438
916.034	14240
916.146	14202
916.259	14263
916.371	14309
916.483	14320
916.595	14142
916.708	14256
916.82	14145
916.932	14077
917.044	14168
917.156	14218
917.268	14001
917.38	14164
917.491	14001
917.603	14062
917.715	14077
917.826	14195
917.938	13959
918.049	13864
918.161	14001
918.272	14031
918.384	14050
918.495	13978
918.606	13803
918.717	13712
918.828	13814
918.939	13746
919.05	13666
919.161	13734
919.272	13677
919.383	13601
919.494	13818
919.604	14012
919.715	13731
919.826	13651
919.936	13636
920.047	13742
920.157	13727
920.267	13890
920.378	13708
920.488	13757
920.598	13917
920.708	13928
920.818	13906
920.928	13807
921.038	14054
921.148	13970
921.258	13670
921.368	13510
921.477	13499
921.587	13499
921.697	13384
921.806	13487
921.916	13293
922.025	13221
922.134	13168
922.244	12981
922.353	13187
922.462	13004
922.571	12897
922.68	12745
922.789	12833
922.898	12810
923.007	12703
923.116	12673
923.224	12745
923.333	12726
923.442	12604
923.55	12498
923.659	12555
923.767	12700
923.876	12566
923.984	12688
924.092	12467
924.201	12429
924.309	12506
924.417	12540
924.525	12403
924.633	12486
924.741	13312
924.849	12285
924.956	12380
925.064	12239
925.172	12079
925.279	12224
925.387	12194
925.494	12228
925.602	12361
925.709	12289
925.816	12019
925.924	12213
926.031	12235
926.138	12117
926.245	12175
926.352	12057
926.459	12178
926.566	12235
926.673	12026
926.779	11977
926.886	12038
926.993	11897
927.099	11805
927.206	11649
927.312	11741
927.419	11786
927.525	11752
927.631	11836
927.737	11733
927.843	11680
927.95	11608
928.056	11611
928.162	11699
928.267	11672
928.373	12216
928.479	11722
928.585	11455
928.69	11566
928.796	11581
928.901	11417
929.007	11318
929.112	11512
929.218	11509
929.323	11337
929.428	11372
929.533	11474
929.638	11204
929.743	11288
929.848	11345
929.953	11299
930.058	11261
930.163	11079
930.267	11052
930.372	11223
930.477	11003
930.581	11334
930.685	11102
930.79	11006
930.894	10889
930.998	10877
931.103	11018
931.207	10771
931.311	10645
931.415	10470
931.519	10413
931.623	10295
