Data from test_V78500241_1397.txt Node
Date: Fri Mar 25 14:43:26 CST 2022
User: usil
Spectrometer: V785-0024
Trigger mode: 0
Integration Time (sec): 4.000000E-1
Scans to average: 1
Nonlinearity correction enabled: false
Boxcar width: 0
Storing dark spectrum: false
XAxis mode: Wavelengths
Number of Pixels in Spectrum: 1024
>>>>>Begin Spectral Data<<<<<
801.071	22436
801.214	22280
801.356	22029
801.499	21892
801.641	21876
801.783	21774
801.926	21861
802.068	21580
802.211	21564
802.353	21614
802.496	21370
802.638	21298
802.78	21249
802.923	21119
803.065	21077
803.208	21077
803.35	21127
803.492	21131
803.635	21230
803.777	21058
803.919	21116
804.061	21370
804.204	21180
804.346	20971
804.488	21020
804.63	21093
804.773	20902
804.915	21142
805.057	21131
805.199	21062
805.341	21131
805.483	21043
805.626	21077
805.768	20937
805.91	21020
806.052	21028
806.194	20948
806.336	21256
806.478	20971
806.62	20925
806.762	21089
806.904	21089
807.046	21549
807.188	21294
807.33	21450
807.472	21458
807.614	21340
807.756	21454
807.898	21245
808.04	21112
808.182	21287
808.324	21203
808.465	21317
808.607	21679
808.749	21675
808.891	21759
809.033	21789
809.174	21690
809.316	21523
809.458	21545
809.6	21587
809.741	21523
809.883	21515
810.025	21720
810.166	21610
810.308	21622
810.45	21549
810.591	21549
810.733	21386
810.875	21207
811.016	21112
811.158	21062
811.299	21302
811.441	21481
811.582	21336
811.724	21249
811.865	21252
812.007	21199
812.148	21161
812.29	21329
812.431	21408
812.573	21431
812.714	21576
812.855	21686
812.997	21892
813.138	21895
813.279	21888
813.421	21660
813.562	21652
813.703	21469
813.845	21332
813.986	21104
814.127	20948
814.268	20739
814.41	20876
814.551	20720
814.692	20834
814.833	20750
814.974	20655
815.115	20823
815.256	20579
815.397	20568
815.539	20708
815.68	20412
815.821	20514
815.962	20492
816.103	20385
816.244	20366
816.385	20339
816.526	20191
816.666	20012
816.807	19967
816.948	19928
817.089	20062
817.23	20016
817.371	19921
817.512	19871
817.653	19883
817.793	19894
817.934	19909
818.075	19967
818.216	19974
818.356	19807
818.497	19693
818.638	19586
818.778	19696
818.919	19563
819.06	19708
819.2	19712
819.341	19731
819.481	19719
819.622	19917
819.762	20058
819.903	20191
820.043	20062
820.184	19894
820.324	19807
820.465	19989
820.605	19978
820.746	19925
820.886	19723
821.026	19799
821.167	19921
821.307	19959
821.447	19803
821.588	19742
821.728	19537
821.868	19377
822.008	19232
822.149	19247
822.289	19209
822.429	19122
822.569	18993
822.709	19008
822.849	18814
822.99	18871
823.13	18840
823.27	18738
823.41	18551
823.55	18536
823.69	18578
823.83	18673
823.97	18429
824.11	18346
824.25	18300
824.389	18346
824.529	18471
824.669	18350
824.809	18456
824.949	18540
825.089	18479
825.228	18422
825.368	18201
825.508	18220
825.648	18213
825.787	18266
825.927	18232
826.067	18125
826.206	18186
826.346	18140
826.485	18129
826.625	18079
826.765	18235
826.904	18110
827.044	17912
827.183	17878
827.323	17859
827.462	17904
827.601	17851
827.741	17798
827.88	17813
828.02	17771
828.159	17904
828.298	17779
828.437	17897
828.577	17760
828.716	17961
828.855	17901
828.994	17551
829.134	17524
829.273	17649
829.412	17539
829.551	17482
829.69	17528
829.829	17532
829.968	17699
830.107	17589
830.246	17611
830.385	17463
830.524	17608
830.663	17387
830.802	17292
830.941	17208
831.08	17246
831.219	17326
831.357	17239
831.496	17349
831.635	17337
831.774	17200
831.913	17132
832.051	16987
832.19	17006
832.329	17033
832.467	16980
832.606	16930
832.744	16892
832.883	17025
833.022	16904
833.16	16866
833.299	17014
833.437	16919
833.576	17006
833.714	16889
833.852	17003
833.991	16968
834.129	16942
834.267	16923
834.406	16946
834.544	16976
834.682	16999
834.821	17022
834.959	17083
835.097	16972
835.235	17090
835.373	17022
835.511	16930
835.65	16923
835.788	16854
835.926	16672
836.064	16729
836.202	16767
836.34	16831
836.478	16953
836.615	16812
836.753	16839
836.891	16854
837.029	16911
837.167	16782
837.305	16755
837.443	16713
837.58	16710
837.718	16801
837.856	16691
837.993	16615
838.131	16687
838.269	16538
838.406	16752
838.544	16527
838.681	16375
838.819	16318
838.956	16295
839.094	16207
839.231	16333
839.369	16447
839.506	16649
839.643	16390
839.781	16287
839.918	16268
840.055	16249
840.193	16318
840.33	16196
840.467	16238
840.604	16329
840.742	16550
840.879	16185
841.016	16150
841.153	16112
841.29	16367
841.427	16223
841.564	16272
841.701	16299
841.838	16192
841.975	16154
842.112	16131
842.249	16135
842.385	16082
842.522	16249
842.659	16109
842.796	16071
842.933	16040
843.069	16021
843.206	16006
843.343	16139
843.479	15983
843.616	16010
843.752	15915
843.889	15751
844.025	15945
844.162	15759
844.298	15918
844.435	15838
844.571	15739
844.708	15903
844.844	16044
844.98	15979
845.117	15892
845.253	15812
845.389	15705
845.525	15812
845.661	15800
845.798	15895
845.934	16055
846.07	15781
846.206	15899
846.342	15994
846.478	15804
846.614	15572
846.75	15416
846.886	15336
847.022	15485
847.158	15397
847.294	15538
847.429	15389
847.565	15389
847.701	15686
847.837	15112
847.972	15009
848.108	15135
848.244	15260
848.379	14925
848.515	15020
848.65	15070
848.786	14910
848.921	14960
849.057	15104
849.192	15085
849.328	14986
849.463	15100
849.598	14963
849.734	14895
849.869	14807
850.004	14811
850.14	14735
850.275	14697
850.41	14636
850.545	14640
850.68	14796
850.815	14792
850.95	14754
851.085	14937
851.22	14792
851.355	14792
851.49	14731
851.625	14720
851.76	14739
851.895	14705
852.03	14655
852.165	14750
852.299	14762
852.434	14899
852.569	14800
852.703	14746
852.838	14845
852.973	14921
853.107	14952
853.242	14693
853.376	14686
853.511	14587
853.645	14549
853.78	14674
853.914	14648
854.048	14575
854.183	14617
854.317	14629
854.451	14819
854.585	14682
854.72	14632
854.854	14621
854.988	14575
855.122	14659
855.256	14396
855.39	14625
855.524	14708
855.658	14629
855.792	14663
855.926	14750
856.06	14712
856.194	14750
856.327	14571
856.461	14514
856.595	14495
856.729	14556
856.862	14735
856.996	14629
857.13	14750
857.263	14804
857.397	14667
857.53	14667
857.664	14701
857.797	14743
857.931	14739
858.064	14743
858.197	14697
858.331	14686
858.464	14594
858.597	14549
858.731	14575
858.864	14564
858.997	14571
859.13	14613
859.263	14621
859.396	14708
859.529	14564
859.662	14556
859.795	14720
859.928	14579
860.061	14773
860.194	14731
860.327	14629
860.46	14602
860.592	14754
860.725	14663
860.858	14781
860.99	14712
861.123	14526
861.256	14556
861.388	14571
861.521	15351
861.653	14507
861.786	14484
861.918	14408
862.05	14564
862.183	14602
862.315	14606
862.447	14640
862.58	14541
862.712	14324
862.844	14374
862.976	14522
863.108	14408
863.24	14899
863.372	14244
863.504	14442
863.636	14389
863.768	14381
863.9	14358
864.032	14309
864.164	14275
864.296	14450
864.428	14552
864.559	14522
864.691	14541
864.823	14495
864.954	14415
865.086	14377
865.217	14366
865.349	14282
865.48	14412
865.612	14336
865.743	14461
865.875	14446
866.006	14305
866.137	14370
866.269	14438
866.4	14374
866.531	14320
866.662	14313
866.793	14290
866.924	14343
867.055	14328
867.186	14355
867.317	14339
867.448	14259
867.579	14366
867.71	14252
867.841	14248
867.972	14385
868.103	14290
868.233	14423
868.364	14442
868.495	14465
868.625	14587
868.756	14705
868.886	14396
869.017	14518
869.147	14727
869.278	14712
869.408	14674
869.539	14739
869.669	14750
869.799	14560
869.929	14826
870.06	14705
870.19	14872
870.32	14887
870.45	14902
870.58	15028
870.71	15146
870.84	15131
870.97	15032
871.1	14887
871.23	15237
871.36	15161
871.489	15066
871.619	15131
871.749	15310
871.879	15211
872.008	15329
872.138	15203
872.267	15241
872.397	15142
872.526	14941
872.656	15043
872.785	15047
872.915	15237
873.044	15226
873.173	15222
873.303	15279
873.432	15329
873.561	15260
873.69	15344
873.819	15241
873.948	15275
874.077	15298
874.206	15203
874.335	15302
874.464	15519
874.593	15549
874.722	15603
874.851	15663
874.979	15698
875.108	15564
875.237	15530
875.365	15507
875.494	15587
875.623	15701
875.751	15549
875.88	15759
876.008	15736
876.136	15800
876.265	15979
876.393	16185
876.521	16124
876.65	16181
876.778	15998
876.906	15869
877.034	15934
877.162	16006
877.29	15918
877.418	16093
877.546	16032
877.674	16021
877.802	16032
877.93	16078
878.058	15975
878.185	15964
878.313	16002
878.441	16059
878.568	15831
878.696	15994
878.824	16154
878.951	16162
879.079	16272
879.206	16352
879.333	16394
879.461	16379
879.588	16219
879.715	16306
879.842	16424
879.97	16188
880.097	15918
880.224	15911
880.351	15960
880.478	15888
880.605	15842
880.732	15907
880.859	16166
880.986	15797
881.112	15960
881.239	15816
881.366	15625
881.493	15545
881.619	15553
881.746	15564
881.872	15637
881.999	15614
882.125	15580
882.252	15637
882.378	15629
882.505	15762
882.631	15496
882.757	15370
882.883	15488
883.01	15287
883.136	15310
883.262	15302
883.388	15218
883.514	15466
883.64	15428
883.766	15306
883.892	15283
884.018	15192
884.143	15378
884.269	15431
884.395	15157
884.52	15081
884.646	15150
884.772	15089
884.897	15020
885.023	15093
885.148	15260
885.274	15241
885.399	15100
885.524	15108
885.65	15135
885.775	15123
885.9	15138
886.025	15154
886.15	15081
886.275	15043
886.4	14941
886.525	14960
886.65	14925
886.775	15005
886.9	15135
887.025	15336
887.149	15123
887.274	14975
887.399	14853
887.523	14853
887.648	14781
887.773	14788
887.897	14979
888.021	14948
888.146	14807
888.27	14941
888.395	14986
888.519	15001
888.643	14944
888.767	14967
888.891	14815
889.015	14762
889.139	14834
889.263	14743
889.387	14800
889.511	14944
889.635	14921
889.759	14727
889.883	14644
890.006	14746
890.13	14845
890.254	14701
890.377	14724
890.501	14511
890.624	14442
890.748	14602
890.871	14488
890.995	14408
891.118	14355
891.241	14301
891.364	14469
891.488	14514
891.611	14389
891.734	14503
891.857	14423
891.98	14598
892.103	14495
892.226	14492
892.349	14393
892.471	14218
892.594	14324
892.717	14358
892.839	14355
892.962	14446
893.085	14499
893.207	14366
893.33	14328
893.452	14343
893.575	14427
893.697	14434
893.819	14625
893.941	14594
894.064	14530
894.186	14442
894.308	14377
894.43	14556
894.552	14602
894.674	14606
894.796	14328
894.918	14465
895.04	14423
895.161	14575
895.283	14537
895.405	14465
895.526	14541
895.648	14545
895.769	14530
895.891	14526
896.012	14590
896.134	14530
896.255	14602
896.376	14514
896.498	14552
896.619	14541
896.74	14659
896.861	14682
896.982	14880
897.103	15104
897.224	14982
897.345	14712
897.466	14781
897.587	14849
897.708	14944
897.828	14804
897.949	14708
898.07	14750
898.19	14769
898.311	14975
898.431	14845
898.552	14914
898.672	14925
898.792	14986
898.913	14975
899.033	14861
899.153	14788
899.273	14705
899.393	14716
899.513	14819
899.633	14826
899.753	14804
899.873	14769
899.993	14785
900.113	14800
900.232	14792
900.352	14758
900.472	14697
900.591	14617
900.711	14587
900.83	14610
900.95	14705
901.069	14773
901.189	14651
901.308	14389
901.427	14294
901.546	14263
901.665	14374
901.784	14374
901.904	14168
902.023	14115
902.141	13967
902.26	13849
902.379	13925
902.498	13837
902.617	13830
902.735	13913
902.854	13875
902.973	13788
903.091	13521
903.21	13586
903.328	13548
903.446	13514
903.565	13476
903.683	13384
903.801	13301
903.919	13457
904.038	13438
904.156	13247
904.274	13335
904.392	13312
904.51	13209
904.627	13312
904.745	13225
904.863	13331
904.981	13053
905.098	12890
905.216	12935
905.334	12932
905.451	12993
905.569	12985
905.686	13008
905.803	12943
905.921	12707
906.038	12760
906.155	12776
906.272	12669
906.389	12696
906.506	12532
906.623	12475
906.74	12517
906.857	12506
906.974	12460
907.091	12498
907.208	12582
907.324	12437
907.441	12350
907.557	12281
907.674	12258
907.79	12247
907.907	12251
908.023	12247
908.139	12315
908.256	12232
908.372	12171
908.488	12121
908.604	11996
908.72	12068
908.836	12034
908.952	11954
909.068	11996
909.184	12091
909.3	12003
909.415	12083
909.531	12102
909.647	11802
909.762	11786
909.878	11756
909.993	11863
910.108	11824
910.224	11729
910.339	11684
910.454	11668
910.57	11634
910.685	11558
910.8	11828
910.915	11817
911.03	11726
911.145	11524
911.259	11448
911.374	11463
911.489	11414
911.604	11410
911.718	11227
911.833	11349
911.947	11117
912.062	11067
912.176	11231
912.291	11220
912.405	11288
912.519	11376
912.633	11436
912.748	11220
912.862	11204
912.976	11067
913.09	10976
913.204	11006
913.318	11083
913.431	11231
913.545	11204
913.659	11250
913.772	11124
913.886	11045
914	10999
914.113	11071
914.226	11121
914.34	11037
914.453	10904
914.566	11102
914.68	10915
914.793	10896
914.906	10729
915.019	10691
915.132	10637
915.245	10752
915.358	10752
915.47	10752
915.583	10729
915.696	10721
915.809	10908
915.921	10869
916.034	10752
916.146	10702
916.259	10634
916.371	10759
916.483	10725
916.595	10641
916.708	10645
916.82	10687
916.932	10607
917.044	10588
917.156	10630
917.268	10535
917.38	10546
917.491	10569
917.603	10516
917.715	10622
917.826	10687
917.938	10527
918.049	10402
918.161	10603
918.272	10694
918.384	10706
918.495	10584
918.606	10478
918.717	10291
918.828	10382
918.939	10382
919.05	10356
919.161	10318
919.272	10284
919.383	10268
919.494	10428
919.604	10618
919.715	10462
919.826	10344
919.936	10421
920.047	10554
920.157	10470
920.267	10687
920.378	10459
920.488	10478
920.598	10653
920.708	10748
920.818	10603
920.928	10645
921.038	10702
921.148	10717
921.258	10550
921.368	10382
921.477	10322
921.587	10291
921.697	10101
921.806	10265
921.916	10128
922.025	10013
922.134	9953
922.244	9888
922.353	10032
922.462	9930
922.571	9861
922.68	9667
922.789	9690
922.898	9637
923.007	9660
923.116	9686
923.224	9656
923.333	9618
923.442	9511
923.55	9526
923.659	9523
923.767	9618
923.876	9504
923.984	9591
924.092	9416
924.201	9561
924.309	9507
924.417	9587
924.525	9462
924.633	9428
924.741	10459
924.849	9336
924.956	9473
925.064	9351
925.172	9310
925.279	9287
925.387	9374
925.494	9325
925.602	9374
925.709	9447
925.816	9253
925.924	9287
926.031	9298
926.138	9329
926.245	9351
926.352	9233
926.459	9291
926.566	9393
926.673	9226
926.779	9241
926.886	9154
926.993	9100
927.099	8937
927.206	8967
927.312	9020
927.419	8979
927.525	9009
927.631	9093
927.737	8944
927.843	8883
927.95	8845
928.056	8872
928.162	8921
928.267	8948
928.373	9587
928.479	8967
928.585	8834
928.69	8937
928.796	8990
928.901	8834
929.007	8663
929.112	8819
929.218	8830
929.323	8781
929.428	8727
929.533	8925
929.638	8720
929.743	8697
929.848	8769
929.953	8686
930.058	8667
930.163	8446
930.267	8492
930.372	8613
930.477	8480
930.581	8727
930.685	8575
930.79	8457
930.894	8495
930.998	8415
931.103	8549
931.207	8221
931.311	8187
931.415	8142
931.519	7967
931.623	7913
