Data from test_V78500241_2590.txt Node
Date: Fri Mar 25 14:51:44 CST 2022
User: usil
Spectrometer: V785-0024
Trigger mode: 0
Integration Time (sec): 4.000000E-1
Scans to average: 1
Nonlinearity correction enabled: false
Boxcar width: 0
Storing dark spectrum: false
XAxis mode: Wavelengths
Number of Pixels in Spectrum: 1024
>>>>>Begin Spectral Data<<<<<
801.071	22017
801.214	21846
801.356	21679
801.499	21530
801.641	21420
801.783	21355
801.926	21367
802.068	21378
802.211	21260
802.353	21195
802.496	21017
802.638	20883
802.78	20937
802.923	20861
803.065	20746
803.208	20598
803.35	20769
803.492	20864
803.635	20845
803.777	20670
803.919	20792
804.061	21066
804.204	20743
804.346	20682
804.488	20731
804.63	20632
804.773	20564
804.915	20678
805.057	20731
805.199	20727
805.341	20655
805.483	20788
805.626	20689
805.768	20648
805.91	20575
806.052	20674
806.194	20636
806.336	20849
806.478	20602
806.62	20663
806.762	20636
806.904	20769
807.046	21043
807.188	20982
807.33	20906
807.472	20891
807.614	21013
807.756	20819
807.898	20739
808.04	20651
808.182	20792
808.324	20796
808.465	20868
808.607	20842
808.749	21032
808.891	21142
809.033	21157
809.174	21005
809.316	21024
809.458	20921
809.6	20872
809.741	21058
809.883	20956
810.025	21211
810.166	21116
810.308	21127
810.45	21108
810.591	21036
810.733	20861
810.875	20773
811.016	20590
811.158	20644
811.299	20834
811.441	20826
811.582	20880
811.724	20693
811.865	20609
812.007	20648
812.148	20682
812.29	20750
812.431	20887
812.573	20975
812.714	21138
812.855	21226
812.997	21317
813.138	21595
813.279	21416
813.421	21252
813.562	21062
813.703	21058
813.845	20971
813.986	20579
814.127	20446
814.268	20381
814.41	20404
814.551	20286
814.692	20438
814.833	20130
814.974	20225
815.115	20275
815.256	20176
815.397	20202
815.539	20180
815.68	20084
815.821	19947
815.962	19940
816.103	19997
816.244	19807
816.385	19746
816.526	19750
816.666	19582
816.807	19468
816.948	19426
817.089	19647
817.23	19464
817.371	19434
817.512	19544
817.653	19464
817.793	19308
817.934	19518
818.075	19411
818.216	19445
818.356	19453
818.497	19274
818.638	19156
818.778	19110
818.919	19133
819.06	19129
819.2	19236
819.341	19316
819.481	19198
819.622	19563
819.762	19563
819.903	19559
820.043	19472
820.184	19525
820.324	19396
820.465	19468
820.605	19476
820.746	19304
820.886	19320
821.026	19362
821.167	19304
821.307	19419
821.447	19320
821.588	19266
821.728	19065
821.868	18973
822.008	18753
822.149	18776
822.289	18776
822.429	18601
822.569	18509
822.709	18437
822.849	18372
822.99	18254
823.13	18311
823.27	18174
823.41	18064
823.55	18076
823.69	18182
823.83	18110
823.97	18049
824.11	17870
824.25	17973
824.389	17882
824.529	17969
824.669	17813
824.809	18045
824.949	18015
825.089	17874
825.228	17904
825.368	17794
825.508	17733
825.648	17798
825.787	17718
825.927	17794
826.067	17532
826.206	17680
826.346	17748
826.485	17684
826.625	17543
826.765	17627
826.904	17745
827.044	17520
827.183	17406
827.323	17296
827.462	17395
827.601	17391
827.741	17395
827.88	17429
828.02	17258
828.159	17429
828.298	17398
828.437	17512
828.577	17265
828.716	17554
828.855	17311
828.994	17147
829.134	17155
829.273	17185
829.412	17079
829.551	17060
829.69	17094
829.829	17162
829.968	17128
830.107	17200
830.246	17162
830.385	17121
830.524	17022
830.663	17132
830.802	16938
830.941	16710
831.08	16736
831.219	16771
831.357	16889
831.496	16972
831.635	16725
831.774	16733
831.913	16645
832.051	16569
832.19	16573
832.329	16527
832.467	16337
832.606	16356
832.744	16432
832.883	16462
833.022	16466
833.16	16538
833.299	16489
833.437	16516
833.576	16500
833.714	16542
833.852	16512
833.991	16485
834.129	16660
834.267	16611
834.406	16409
834.544	16523
834.682	16386
834.821	16573
834.959	16630
835.097	16447
835.235	16535
835.373	16573
835.511	16588
835.65	16341
835.788	16379
835.926	16261
836.064	16249
836.202	16287
836.34	16512
836.478	16428
836.615	16440
836.753	16371
836.891	16561
837.029	16360
837.167	16428
837.305	16276
837.443	16299
837.58	16261
837.718	16329
837.856	16219
837.993	16150
838.131	16211
838.269	16211
838.406	16192
838.544	16223
838.681	16097
838.819	16021
838.956	15804
839.094	15778
839.231	15930
839.369	15956
839.506	16257
839.643	16150
839.781	15865
839.918	15838
840.055	15793
840.193	15846
840.33	15808
840.467	15755
840.604	15850
840.742	16048
840.879	15625
841.016	15804
841.153	15770
841.29	15945
841.427	15953
841.564	15846
841.701	15846
841.838	15793
841.975	15671
842.112	15724
842.249	15641
842.385	15572
842.522	15770
842.659	15713
842.796	15671
842.933	15652
843.069	15595
843.206	15580
843.343	15736
843.479	15595
843.616	15694
843.752	15393
843.889	15382
844.025	15568
844.162	15435
844.298	15397
844.435	15325
844.571	15397
844.708	15382
844.844	15580
844.98	15587
845.117	15511
845.253	15340
845.389	15313
845.525	15393
845.661	15226
845.798	15226
845.934	15329
846.07	15146
846.206	15184
846.342	15283
846.478	15207
846.614	15066
846.75	14899
846.886	14937
847.022	15043
847.158	15020
847.294	14963
847.429	14963
847.565	15005
847.701	15180
847.837	14785
847.972	14697
848.108	14819
848.244	14693
848.379	14670
848.515	14560
848.65	14636
848.786	14556
848.921	14526
849.057	14644
849.192	14689
849.328	14613
849.463	14571
849.598	14587
849.734	14412
849.869	14492
850.004	14305
850.14	14495
850.275	14358
850.41	14263
850.545	14305
850.68	14339
850.815	14320
850.95	14324
851.085	14552
851.22	14450
851.355	14442
851.49	14355
851.625	14263
851.76	14229
851.895	14271
852.03	14187
852.165	14324
852.299	14320
852.434	14320
852.569	14298
852.703	14423
852.838	14488
852.973	14549
853.107	14522
853.242	14381
853.376	14191
853.511	14149
853.645	14123
853.78	14351
853.914	14248
854.048	14309
854.183	14123
854.317	14183
854.451	14396
854.585	14290
854.72	14187
854.854	14298
854.988	14244
855.122	14199
855.256	14142
855.39	14180
855.524	14248
855.658	14286
855.792	14195
855.926	14298
856.06	14271
856.194	14355
856.327	14202
856.461	14153
856.595	14168
856.729	14145
856.862	14393
856.996	14221
857.13	14286
857.263	14286
857.397	14298
857.53	14168
857.664	14282
857.797	14259
857.931	14366
858.064	14187
858.197	14305
858.331	14240
858.464	14183
858.597	14138
858.731	14191
858.864	14180
858.997	14157
859.13	14240
859.263	14290
859.396	14248
859.529	14290
859.662	14202
859.795	14164
859.928	14317
860.061	14313
860.194	14446
860.327	14301
860.46	14088
860.592	14229
860.725	14381
860.858	14343
860.99	14161
861.123	14221
861.256	14191
861.388	14191
861.521	14804
861.653	14145
861.786	14027
861.918	14088
862.05	14115
862.183	14183
862.315	14267
862.447	14240
862.58	14176
862.712	14027
862.844	13947
862.976	14081
863.108	14100
863.24	14476
863.372	13997
863.504	13921
863.636	13982
863.768	14084
863.9	14012
864.032	13841
864.164	13967
864.296	14100
864.428	14214
864.559	14081
864.691	14020
864.823	14005
864.954	14039
865.086	14016
865.217	13982
865.349	13890
865.48	14024
865.612	13951
865.743	14039
865.875	13963
866.006	14008
866.137	13986
866.269	13963
866.4	13974
866.531	13959
866.662	13951
866.793	13993
866.924	13959
867.055	13947
867.186	13967
867.317	13928
867.448	13951
867.579	13951
867.71	13879
867.841	13879
867.972	14043
868.103	13917
868.233	14020
868.364	13959
868.495	14084
868.625	14259
868.756	14305
868.886	14237
869.017	14206
869.147	14305
869.278	14393
869.408	14256
869.539	14202
869.669	14233
869.799	14267
869.929	14290
870.06	14355
870.19	14583
870.32	14537
870.45	14590
870.58	14587
870.71	14739
870.84	14689
870.97	14648
871.1	14530
871.23	14834
871.36	14891
871.489	14750
871.619	14746
871.749	14902
871.879	14830
872.008	14857
872.138	14887
872.267	14746
872.397	14651
872.526	14621
872.656	14629
872.785	14644
872.915	14804
873.044	14937
873.173	14815
873.303	14823
873.432	14861
873.561	15047
873.69	14944
873.819	14815
873.948	14982
874.077	15028
874.206	14785
874.335	14982
874.464	15005
874.593	15249
874.722	15180
874.851	15169
874.979	15142
875.108	15245
875.237	15077
875.365	15009
875.494	15218
875.623	15294
875.751	15146
875.88	15112
876.008	15458
876.136	15393
876.265	15694
876.393	15770
876.521	15743
876.65	15762
876.778	15637
876.906	15568
877.034	15622
877.162	15580
877.29	15599
877.418	15564
877.546	15648
877.674	15656
877.802	15591
877.93	15663
878.058	15584
878.185	15545
878.313	15534
878.441	15580
878.568	15462
878.696	15557
878.824	15625
878.951	15679
879.079	15759
879.206	15960
879.333	15835
879.461	15610
879.588	15736
879.715	15755
879.842	15899
879.97	15610
880.097	15473
880.224	15458
880.351	15545
880.478	15450
880.605	15454
880.732	15416
880.859	15694
880.986	15443
881.112	15488
881.239	15389
881.366	15199
881.493	15180
881.619	15043
881.746	15112
881.872	15173
881.999	15112
882.125	15112
882.252	15142
882.378	15169
882.505	15287
882.631	15127
882.757	14891
882.883	14994
883.01	14990
883.136	14944
883.262	14807
883.388	14838
883.514	14963
883.64	14979
883.766	14994
883.892	14777
884.018	14746
884.143	14937
884.269	15051
884.395	14746
884.52	14712
884.646	14716
884.772	14602
884.897	14556
885.023	14552
885.148	14724
885.274	14781
885.399	14815
885.524	14610
885.65	14625
885.775	14636
885.9	14663
886.025	14861
886.15	14701
886.275	14663
886.4	14533
886.525	14541
886.65	14625
886.775	14636
886.9	14724
887.025	14830
887.149	14625
887.274	14511
887.399	14454
887.523	14465
887.648	14301
887.773	14389
887.897	14533
888.021	14533
888.146	14492
888.27	14530
888.395	14651
888.519	14530
888.643	14526
888.767	14663
888.891	14473
889.015	14374
889.139	14370
889.263	14199
889.387	14374
889.511	14450
889.635	14347
889.759	14225
889.883	14301
890.006	14396
890.13	14541
890.254	14332
890.377	14263
890.501	14081
890.624	14149
890.748	14191
890.871	14126
890.995	14020
891.118	14001
891.241	14081
891.364	14008
891.488	14202
891.611	14050
891.734	14062
891.857	14050
891.98	14054
892.103	14088
892.226	14100
892.349	14024
892.471	13818
892.594	14062
892.717	14103
892.839	14012
892.962	14005
893.085	14123
893.207	14031
893.33	13951
893.452	13951
893.575	14103
893.697	14065
893.819	14263
893.941	14180
894.064	14259
894.186	14088
894.308	14024
894.43	14187
894.552	14206
894.674	14111
894.796	13894
894.918	14111
895.04	14054
895.161	14172
895.283	14119
895.405	14126
895.526	14195
895.648	14123
895.769	14210
895.891	14221
896.012	14275
896.134	14263
896.255	14187
896.376	14221
896.498	14275
896.619	14271
896.74	14267
896.861	14218
896.982	14613
897.103	14731
897.224	14541
897.345	14415
897.466	14450
897.587	14450
897.708	14689
897.828	14541
897.949	14355
898.07	14427
898.19	14465
898.311	14606
898.431	14442
898.552	14495
898.672	14674
898.792	14610
898.913	14587
899.033	14465
899.153	14465
899.273	14252
899.393	14415
899.513	14488
899.633	14450
899.753	14423
899.873	14377
899.993	14518
900.113	14328
900.232	14507
900.352	14465
900.472	14309
900.591	14286
900.711	14298
900.83	14210
900.95	14457
901.069	14404
901.189	14294
901.308	14050
901.427	13997
901.546	13970
901.665	14130
901.784	13997
901.904	13928
902.023	13795
902.141	13620
902.26	13521
902.379	13521
902.498	13537
902.617	13563
902.735	13537
902.854	13468
902.973	13419
903.091	13316
903.21	13236
903.328	13263
903.446	13190
903.565	13099
903.683	13129
903.801	12989
903.919	13164
904.038	13088
904.156	12821
904.274	12993
904.392	12878
904.51	12897
904.627	12924
904.745	12928
904.863	13000
904.981	12783
905.098	12631
905.216	12570
905.334	12604
905.451	12623
905.569	12662
905.686	12623
905.803	12639
905.921	12452
906.038	12506
906.155	12403
906.272	12258
906.389	12273
906.506	12133
906.623	12235
906.74	12224
906.857	12026
906.974	12121
907.091	12342
907.208	12369
907.324	12239
907.441	12205
907.557	11912
907.674	11942
907.79	11870
907.907	11916
908.023	11980
908.139	12015
908.256	11904
908.372	12003
908.488	11920
908.604	11748
908.72	11581
908.836	11703
908.952	11668
909.068	11764
909.184	11798
909.3	11680
909.415	11767
909.531	11665
909.647	11512
909.762	11535
909.878	11334
909.993	11524
910.108	11436
910.224	11398
910.339	11547
910.454	11417
910.57	11307
910.685	11345
910.8	11497
910.915	11478
911.03	11318
911.145	11239
911.259	11174
911.374	11193
911.489	11121
911.604	11010
911.718	10930
911.833	10946
911.947	10839
912.062	10740
912.176	10873
912.291	10965
912.405	10953
912.519	11235
912.633	11151
912.748	11048
912.862	10965
912.976	10767
913.09	10778
913.204	10778
913.318	10816
913.431	10869
913.545	10957
913.659	11014
913.772	10809
913.886	10717
914	10653
914.113	10828
914.226	10782
914.34	10786
914.453	10615
914.566	10820
914.68	10626
914.793	10588
914.906	10531
915.019	10386
915.132	10344
915.245	10512
915.358	10417
915.47	10451
915.583	10443
915.696	10402
915.809	10584
915.921	10622
916.034	10390
916.146	10333
916.259	10337
916.371	10588
916.483	10462
916.595	10360
916.708	10360
916.82	10451
916.932	10360
917.044	10333
917.156	10348
917.268	10188
917.38	10306
917.491	10261
917.603	10272
917.715	10329
917.826	10360
917.938	10261
918.049	10188
918.161	10181
918.272	10489
918.384	10333
918.495	10276
918.606	10234
918.717	10162
918.828	10166
918.939	10166
919.05	10093
919.161	10166
919.272	10006
919.383	10044
919.494	10227
919.604	10390
919.715	10200
919.826	10120
919.936	10162
920.047	10280
920.157	10219
920.267	10413
920.378	10265
920.488	10143
920.598	10329
920.708	10523
920.818	10398
920.928	10363
921.038	10550
921.148	10538
921.258	10265
921.368	10181
921.477	10112
921.587	10010
921.697	9956
921.806	10147
921.916	9918
922.025	9778
922.134	9713
922.244	9686
922.353	9713
922.462	9656
922.571	9629
922.68	9412
922.789	9386
922.898	9416
923.007	9443
923.116	9439
923.224	9405
923.333	9397
923.442	9249
923.55	9272
923.659	9287
923.767	9336
923.876	9344
923.984	9408
924.092	9283
924.201	9306
924.309	9298
924.417	9218
924.525	9287
924.633	9241
924.741	10021
924.849	9070
924.956	9195
925.064	9055
925.172	9005
925.279	9055
925.387	9157
925.494	9119
925.602	9199
925.709	9188
925.816	9009
925.924	9127
926.031	9199
926.138	9104
926.245	9138
926.352	9043
926.459	9226
926.566	9218
926.673	9020
926.779	8921
926.886	9020
926.993	8845
927.099	8811
927.206	8853
927.312	8727
927.419	8838
927.525	8868
927.631	8826
927.737	8746
927.843	8720
927.95	8610
928.056	8708
928.162	8670
928.267	8750
928.373	9348
928.479	8807
928.585	8602
928.69	8701
928.796	8701
928.901	8674
929.007	8438
929.112	8636
929.218	8674
929.323	8594
929.428	8442
929.533	8708
929.638	8450
929.743	8446
929.848	8545
929.953	8507
930.058	8419
930.163	8309
930.267	8305
930.372	8400
930.477	8229
930.581	8514
930.685	8358
930.79	8218
930.894	8221
930.998	8180
931.103	8351
931.207	8020
931.311	7997
931.415	7959
931.519	7696
931.623	7708
