Data from test_V78500241_598.txt Node
Date: Fri Mar 25 14:37:52 CST 2022
User: usil
Spectrometer: V785-0024
Trigger mode: 0
Integration Time (sec): 4.000000E-1
Scans to average: 1
Nonlinearity correction enabled: false
Boxcar width: 0
Storing dark spectrum: false
XAxis mode: Wavelengths
Number of Pixels in Spectrum: 1024
>>>>>Begin Spectral Data<<<<<
801.071	27960
801.214	27827
801.356	27614
801.499	27622
801.641	27306
801.783	27374
801.926	27370
802.068	27222
802.211	27222
802.353	27009
802.496	26933
802.638	26872
802.78	26857
802.923	26838
803.065	26811
803.208	26804
803.35	26883
803.492	27013
803.635	27009
803.777	26815
803.919	27047
804.061	27294
804.204	27032
804.346	27032
804.488	27104
804.63	27043
804.773	26982
804.915	27100
805.057	27245
805.199	27207
805.341	27272
805.483	27329
805.626	27382
805.768	27359
805.91	27466
806.052	27595
806.194	27431
806.336	27914
806.478	27968
806.62	27941
806.762	28265
806.904	28497
807.046	28930
807.188	29155
807.33	29448
807.472	29847
807.614	30098
807.756	30696
807.898	31578
808.04	32522
808.182	33998
808.324	35691
808.465	37654
808.607	39979
808.749	42026
808.891	43282
809.033	43293
809.174	42072
809.316	40063
809.458	37651
809.6	35509
809.741	33766
809.883	32244
810.025	31449
810.166	30673
810.308	30015
810.45	29478
810.591	29318
810.733	28847
810.875	28577
811.016	28322
811.158	28150
811.299	28234
811.441	28158
811.582	28082
811.724	27793
811.865	27663
812.007	27629
812.148	27466
812.29	27701
812.431	27797
812.573	27614
812.714	27793
812.855	27972
812.997	28086
813.138	28109
813.279	27934
813.421	27907
813.562	27660
813.703	27564
813.845	27332
813.986	27245
814.127	26963
814.268	26762
814.41	26602
814.551	26670
814.692	26838
814.833	26640
814.974	26568
815.115	26625
815.256	26499
815.397	26530
815.539	26450
815.68	26347
815.821	26313
815.962	26320
816.103	26286
816.244	26073
816.385	25997
816.526	25978
816.666	25712
816.807	25601
816.948	25841
817.089	25750
817.23	25632
817.371	25483
817.512	25609
817.653	25483
817.793	25502
817.934	25510
818.075	25544
818.216	25472
818.356	25388
818.497	25362
818.638	25126
818.778	25255
818.919	25217
819.06	25327
819.2	25441
819.341	25441
819.481	25400
819.622	25708
819.762	25643
819.903	25601
820.043	25624
820.184	25445
820.324	25468
820.465	25438
820.605	25533
820.746	25388
820.886	25354
821.026	25354
821.167	25400
821.307	25316
821.447	25331
821.588	25118
821.728	24920
821.868	24825
822.008	24741
822.149	24604
822.289	24696
822.429	24456
822.569	24334
822.709	24414
822.849	24148
822.99	24045
823.13	24174
823.27	24102
823.41	23958
823.55	23863
823.69	23950
823.83	23950
823.97	23726
824.11	23764
824.25	23752
824.389	23684
824.529	23741
824.669	23600
824.809	23722
824.949	23790
825.089	23710
825.228	23596
825.368	23524
825.508	23554
825.648	23474
825.787	23566
825.927	23516
826.067	23433
826.206	23471
826.346	23482
826.485	23531
826.625	23433
826.765	23630
826.904	23406
827.044	23303
827.183	23254
827.323	23147
827.462	23204
827.601	23117
827.741	23037
827.88	23025
828.02	22915
828.159	23155
828.298	23128
828.437	23083
828.577	23029
828.716	23140
828.855	23014
828.994	22862
829.134	22733
829.273	22797
829.412	22763
829.551	22710
829.69	22713
829.829	22805
829.968	22828
830.107	22812
830.246	22835
830.385	22698
830.524	22694
830.663	22672
830.802	22531
830.941	22360
831.08	22226
831.219	22504
831.357	22443
831.496	22565
831.635	22402
831.774	22314
831.913	22318
832.051	22196
832.19	22166
832.329	22185
832.467	22036
832.606	22017
832.744	22078
832.883	22257
833.022	22291
833.16	22402
833.299	22409
833.437	22466
833.576	22774
833.714	22649
833.852	22831
833.991	22828
834.129	22953
834.267	22999
834.406	22869
834.544	22831
834.682	22752
834.821	22630
834.959	22729
835.097	22481
835.235	22424
835.373	22405
835.511	22268
835.65	22002
835.788	22128
835.926	21884
836.064	21739
836.202	21835
836.34	21964
836.478	21941
836.615	22010
836.753	21865
836.891	21873
837.029	21873
837.167	21937
837.305	21937
837.443	21568
837.58	21705
837.718	21854
837.856	21705
837.993	21660
838.131	21583
838.269	21443
838.406	21534
838.544	21583
838.681	21313
838.819	21317
838.956	21108
839.094	21051
839.231	21173
839.369	21218
839.506	21511
839.643	21329
839.781	21176
839.918	21070
840.055	21157
840.193	21028
840.33	21001
840.467	21093
840.604	21154
840.742	21313
840.879	21020
841.016	21001
841.153	20975
841.29	21074
841.427	21005
841.564	21020
841.701	21058
841.838	20944
841.975	21001
842.112	20998
842.249	20880
842.385	20739
842.522	21036
842.659	20754
842.796	20788
842.933	20925
843.069	20853
843.206	20807
843.343	20941
843.479	20838
843.616	20739
843.752	20765
843.889	20720
844.025	20906
844.162	20887
844.298	20956
844.435	21013
844.571	21127
844.708	21393
844.844	21682
844.98	22006
845.117	22295
845.253	22877
845.389	24076
845.525	26324
845.661	30201
845.798	34801
845.934	38408
846.07	39914
846.206	39013
846.342	35942
846.478	31381
846.614	27340
846.75	24422
846.886	23033
847.022	22188
847.158	21393
847.294	20956
847.429	20868
847.565	20571
847.701	20800
847.837	20301
847.972	20073
848.108	20092
848.244	20134
848.379	19906
848.515	19723
848.65	19700
848.786	19765
848.921	19757
849.057	19814
849.192	19811
849.328	19841
849.463	19700
849.598	19632
849.734	19407
849.869	19468
850.004	19434
850.14	19476
850.275	19377
850.41	19327
850.545	19335
850.68	19358
850.815	19373
850.95	19369
851.085	19556
851.22	19426
851.355	19335
851.49	19236
851.625	19365
851.76	19350
851.895	19255
852.03	19244
852.165	19411
852.299	19400
852.434	19495
852.569	19327
852.703	19441
852.838	19426
852.973	19502
853.107	19635
853.242	19453
853.376	19308
853.511	19270
853.645	19251
853.78	19597
853.914	19400
854.048	19400
854.183	19396
854.317	19483
854.451	19670
854.585	19499
854.72	19506
854.854	19552
854.988	19407
855.122	19346
855.256	19187
855.39	19350
855.524	19308
855.658	19232
855.792	19232
855.926	19270
856.06	19308
856.194	19320
856.327	19156
856.461	19008
856.595	19034
856.729	19206
856.862	19312
856.996	19034
857.13	19293
857.263	19312
857.397	19171
857.53	19183
857.664	19110
857.797	19377
857.931	19263
858.064	19110
858.197	19190
858.331	19027
858.464	18913
858.597	18939
858.731	19034
858.864	19122
858.997	18977
859.13	19019
859.263	19061
859.396	19152
859.529	18993
859.662	19027
859.795	18867
859.928	19088
860.061	19031
860.194	19221
860.327	18989
860.46	19099
860.592	19141
860.725	19069
860.858	19065
860.99	19015
861.123	18932
861.256	18916
861.388	18951
861.521	19666
861.653	19000
861.786	18856
861.918	18920
862.05	19072
862.183	18958
862.315	18996
862.447	19046
862.58	18947
862.712	18795
862.844	18700
862.976	18741
863.108	18684
863.24	19107
863.372	18681
863.504	18681
863.636	18722
863.768	18688
863.9	18669
864.032	18684
864.164	18635
864.296	18700
864.428	18783
864.559	18654
864.691	18856
864.823	18825
864.954	18669
865.086	18696
865.217	18700
865.349	18692
865.48	18582
865.612	18585
865.743	18798
865.875	18635
866.006	18585
866.137	18692
866.269	18642
866.4	18627
866.531	18669
866.662	18494
866.793	18616
866.924	18517
867.055	18532
867.186	18646
867.317	18513
867.448	18490
867.579	18464
867.71	18528
867.841	18471
867.972	18585
868.103	18578
868.233	18612
868.364	18608
868.495	18665
868.625	18700
868.756	18878
868.886	18783
869.017	18772
869.147	18966
869.278	18962
869.408	18856
869.539	18924
869.669	18928
869.799	18875
869.929	18871
870.06	18958
870.19	19209
870.32	19171
870.45	19278
870.58	19198
870.71	19324
870.84	19293
870.97	19282
871.1	19259
871.23	19495
871.36	19457
871.489	19373
871.619	19491
871.749	19422
871.879	19605
872.008	19715
872.138	19578
872.267	19556
872.397	19441
872.526	19327
872.656	19381
872.785	19400
872.915	19594
873.044	19674
873.173	19571
873.303	19685
873.432	19639
873.561	19833
873.69	19632
873.819	19689
873.948	19784
874.077	19723
874.206	19731
874.335	19795
874.464	19856
874.593	20027
874.722	20164
874.851	20111
874.979	20206
875.108	20134
875.237	20180
875.365	20142
875.494	20191
875.623	20355
875.751	20161
875.88	20278
876.008	20385
876.136	20594
876.265	20845
876.393	21013
876.521	20895
876.65	20933
876.778	20975
876.906	21001
877.034	20937
877.162	21020
877.29	21077
877.418	21116
877.546	21222
877.674	21447
877.802	21321
877.93	21515
878.058	21530
878.185	21606
878.313	21876
878.441	22025
878.568	22226
878.696	22774
878.824	23326
878.951	23973
879.079	25080
879.206	26484
879.333	27854
879.461	29003
879.588	29977
879.715	29824
879.842	29269
879.97	27964
880.097	26492
880.224	25293
880.351	24498
880.478	23840
880.605	23459
880.732	23364
880.859	23303
880.986	23052
881.112	22984
881.239	22687
881.366	22656
881.493	22474
881.619	22542
881.746	22462
881.872	22424
881.999	22577
882.125	22527
882.252	22592
882.378	22733
882.505	22729
882.631	22485
882.757	22375
882.883	22443
883.01	22535
883.136	22421
883.262	22337
883.388	22306
883.514	22447
883.64	22489
883.766	22443
883.892	22128
884.018	22246
884.143	22257
884.269	22428
884.395	22154
884.52	22150
884.646	22055
884.772	22097
884.897	22036
885.023	22105
885.148	22147
885.274	22090
885.399	22135
885.524	21827
885.65	21766
885.775	21743
885.9	21713
886.025	21660
886.15	21606
886.275	21370
886.4	21184
886.525	21108
886.65	21058
886.775	20883
886.9	21142
887.025	21127
887.149	20705
887.274	20545
887.399	20488
887.523	20408
887.648	20419
887.773	20229
887.897	20442
888.021	20332
888.146	20103
888.27	20244
888.395	20256
888.519	20225
888.643	20050
888.767	20043
888.891	19921
889.015	19780
889.139	19818
889.263	19731
889.387	19852
889.511	19944
889.635	19795
889.759	19590
889.883	19753
890.006	19559
890.13	19586
890.254	19506
890.377	19358
890.501	19320
890.624	19244
890.748	19209
890.871	19175
890.995	19118
891.118	19015
891.241	19000
891.364	18996
891.488	19114
891.611	18985
891.734	19000
891.857	18901
891.98	18939
892.103	19027
892.226	18897
892.349	18837
892.471	18700
892.594	18802
892.717	18886
892.839	18688
892.962	18700
893.085	18787
893.207	18688
893.33	18563
893.452	18483
893.575	18703
893.697	18612
893.819	18738
893.941	18779
894.064	18719
894.186	18506
894.308	18467
894.43	18654
894.552	18776
894.674	18506
894.796	18426
894.918	18506
895.04	18479
895.161	18471
895.283	18502
895.405	18399
895.526	18399
895.648	18494
895.769	18384
895.891	18422
896.012	18536
896.134	18498
896.255	18498
896.376	18338
896.498	18365
896.619	18384
896.74	18334
896.861	18441
896.982	18715
897.103	18920
897.224	18620
897.345	18532
897.466	18559
897.587	18532
897.708	18623
897.828	18650
897.949	18513
898.07	18437
898.19	18517
898.311	18585
898.431	18506
898.552	18623
898.672	18635
898.792	18642
898.913	18623
899.033	18414
899.153	18399
899.273	18350
899.393	18433
899.513	18418
899.633	18365
899.753	18407
899.873	18243
899.993	18357
900.113	18388
900.232	18304
900.352	18308
900.472	18197
900.591	18163
900.711	18117
900.83	18057
900.95	18201
901.069	18266
901.189	18098
901.308	17783
901.427	17733
901.546	17794
901.665	17786
901.784	17729
901.904	17661
902.023	17516
902.141	17315
902.26	17178
902.379	17261
902.498	17322
902.617	17174
902.735	17220
902.854	17090
902.973	17029
903.091	16908
903.21	16892
903.328	16790
903.446	16786
903.565	16649
903.683	16759
903.801	16554
903.919	16645
904.038	16634
904.156	16356
904.274	16428
904.392	16348
904.51	16379
904.627	16409
904.745	16375
904.863	16451
904.981	16154
905.098	15956
905.216	15972
905.334	16002
905.451	15983
905.569	15895
905.686	16109
905.803	16082
905.921	15873
906.038	15975
906.155	15873
906.272	15717
906.389	15694
906.506	15614
906.623	15549
906.74	15545
906.857	15397
906.974	15496
907.091	15591
907.208	15656
907.324	15511
907.441	15603
907.557	15325
907.674	15218
907.79	15233
907.907	15146
908.023	15184
908.139	15211
908.256	15275
908.372	15116
908.488	15062
908.604	15077
908.72	14941
908.836	14990
908.952	14883
909.068	14914
909.184	15028
909.3	15009
909.415	15005
909.531	14971
909.647	14625
909.762	14667
909.878	14613
909.993	14640
910.108	14617
910.224	14655
910.339	14655
910.454	14571
910.57	14499
910.685	14374
910.8	14689
910.915	14579
911.03	14450
911.145	14366
911.259	14286
911.374	14339
911.489	14267
911.604	14103
911.718	14016
911.833	14134
911.947	14020
912.062	13940
912.176	14103
912.291	14153
912.405	13967
912.519	14195
912.633	14290
912.748	14077
912.862	14035
912.976	13883
913.09	13704
913.204	13830
913.318	13883
913.431	13959
913.545	13959
913.659	13883
913.772	13849
913.886	13700
914	13670
914.113	13700
914.226	13780
914.34	13860
914.453	13624
914.566	13837
914.68	13746
914.793	13605
914.906	13392
915.019	13392
915.132	13297
915.245	13373
915.358	13476
915.47	13453
915.583	13358
915.696	13476
915.809	13502
915.921	13552
916.034	13373
916.146	13339
916.259	13282
916.371	13350
916.483	13384
916.595	13312
916.708	13346
916.82	13282
916.932	13301
917.044	13225
917.156	13209
917.268	13133
917.38	13202
917.491	13145
917.603	13198
917.715	13187
917.826	13141
917.938	13038
918.049	13008
918.161	13038
918.272	13171
918.384	13175
918.495	13095
918.606	12882
918.717	12840
918.828	12935
918.939	12947
919.05	12722
919.161	12871
919.272	12772
919.383	12662
919.494	12875
919.604	13057
919.715	12833
919.826	12798
919.936	12787
920.047	12939
920.157	12871
920.267	13133
920.378	12920
920.488	12825
920.598	12981
920.708	13129
920.818	12966
920.928	13057
921.038	13114
921.148	12993
921.258	12791
921.368	12730
921.477	12566
921.587	12544
921.697	12467
921.806	12665
921.916	12517
922.025	12277
922.134	12270
922.244	12277
922.353	12289
922.462	12053
922.571	12030
922.68	11923
922.789	11863
922.898	11931
923.007	11779
923.116	11882
923.224	11870
923.333	11897
923.442	11786
923.55	11718
923.659	11912
923.767	11889
923.876	11729
923.984	11794
924.092	11657
924.201	11710
924.309	11688
924.417	11657
924.525	11604
924.633	11646
924.741	12353
924.849	11501
924.956	11539
925.064	11425
925.172	11349
925.279	11284
925.387	11417
925.494	11341
925.602	11539
925.709	11516
925.816	11288
925.924	11395
926.031	11433
926.138	11341
926.245	11391
926.352	11280
926.459	11421
926.566	11471
926.673	11360
926.779	11147
926.886	11197
926.993	11090
927.099	11048
927.206	10946
927.312	11033
927.419	11037
927.525	11048
927.631	11056
927.737	10957
927.843	10900
927.95	10828
928.056	10881
928.162	10965
928.267	10949
928.373	11395
928.479	10942
928.585	10698
928.69	10908
928.796	10881
928.901	10736
929.007	10653
929.112	10767
929.218	10706
929.323	10672
929.428	10672
929.533	10763
929.638	10554
929.743	10641
929.848	10649
929.953	10656
930.058	10584
930.163	10436
930.267	10379
930.372	10508
930.477	10367
930.581	10535
930.685	10432
930.79	10253
930.894	10360
930.998	10272
931.103	10402
931.207	10082
931.311	9903
931.415	9911
931.519	9728
931.623	9717
