Data from test_V78500241_1807.txt Node
Date: Fri Mar 25 14:46:17 CST 2022
User: usil
Spectrometer: V785-0024
Trigger mode: 0
Integration Time (sec): 4.000000E-1
Scans to average: 1
Nonlinearity correction enabled: false
Boxcar width: 0
Storing dark spectrum: false
XAxis mode: Wavelengths
Number of Pixels in Spectrum: 1024
>>>>>Begin Spectral Data<<<<<
801.071	22280
801.214	22055
801.356	21831
801.499	21785
801.641	21587
801.783	21420
801.926	21492
802.068	21466
802.211	21393
802.353	21370
802.496	21104
802.638	21017
802.78	21013
802.923	20876
803.065	20872
803.208	20902
803.35	20872
803.492	20971
803.635	20994
803.777	20998
803.919	20872
804.061	21195
804.204	21009
804.346	20864
804.488	20727
804.63	20773
804.773	20689
804.915	20777
805.057	20941
805.199	20811
805.341	20910
805.483	20948
805.626	20864
805.768	20731
805.91	20750
806.052	20960
806.194	20727
806.336	21032
806.478	20754
806.62	20842
806.762	20857
806.904	21017
807.046	21142
807.188	21108
807.33	21222
807.472	21279
807.614	21070
807.756	21066
807.898	20895
808.04	20773
808.182	20906
808.324	20857
808.465	20902
808.607	21024
808.749	21249
808.891	21272
809.033	21393
809.174	21230
809.316	21237
809.458	21089
809.6	21203
809.741	21211
809.883	21325
810.025	21359
810.166	21386
810.308	21332
810.45	21348
810.591	21146
810.733	21036
810.875	20933
811.016	20910
811.158	20857
811.299	20952
811.441	20979
811.582	21074
811.724	20941
811.865	20994
812.007	20933
812.148	20956
812.29	21028
812.431	21157
812.573	21378
812.714	21363
812.855	21355
812.997	21450
813.138	21690
813.279	21542
813.421	21553
813.562	21393
813.703	21169
813.845	21112
813.986	20811
814.127	20609
814.268	20640
814.41	20457
814.551	20450
814.692	20594
814.833	20415
814.974	20590
815.115	20461
815.256	20259
815.397	20267
815.539	20298
815.68	20271
815.821	20256
815.962	20172
816.103	20111
816.244	20107
816.385	19967
816.526	19963
816.666	19868
816.807	19616
816.948	19753
817.089	19769
817.23	19693
817.371	19616
817.512	19651
817.653	19639
817.793	19594
817.934	19616
818.075	19681
818.216	19563
818.356	19620
818.497	19293
818.638	19358
818.778	19320
818.919	19407
819.06	19407
819.2	19434
819.341	19537
819.481	19460
819.622	19780
819.762	19830
819.903	19784
820.043	19609
820.184	19662
820.324	19647
820.465	19670
820.605	19609
820.746	19605
820.886	19362
821.026	19643
821.167	19506
821.307	19548
821.447	19552
821.588	19601
821.728	19346
821.868	19152
822.008	19042
822.149	18970
822.289	19088
822.429	18738
822.569	18650
822.709	18703
822.849	18536
822.99	18559
823.13	18517
823.27	18407
823.41	18289
823.55	18251
823.69	18369
823.83	18296
823.97	18251
824.11	18060
824.25	18072
824.389	18007
824.529	18247
824.669	18106
824.809	18224
824.949	18262
825.089	18148
825.228	18106
825.368	17942
825.508	17882
825.648	17821
825.787	17939
825.927	17870
826.067	17821
826.206	17794
826.346	17901
826.485	17866
826.625	17794
826.765	17779
826.904	17836
827.044	17535
827.183	17592
827.323	17524
827.462	17512
827.601	17596
827.741	17592
827.88	17551
828.02	17395
828.159	17642
828.298	17562
828.437	17623
828.577	17562
828.716	17646
828.855	17440
828.994	17254
829.134	17425
829.273	17227
829.412	17269
829.551	17200
829.69	17376
829.829	17337
829.968	17486
830.107	17391
830.246	17353
830.385	17185
830.524	17246
830.663	17075
830.802	17048
830.941	16942
831.08	17045
831.219	16987
831.357	17014
831.496	17220
831.635	16896
831.774	16687
831.913	16831
832.051	16683
832.19	16755
832.329	16843
832.467	16691
832.606	16626
832.744	16596
832.883	16577
833.022	16691
833.16	16630
833.299	16630
833.437	16668
833.576	16812
833.714	16679
833.852	16702
833.991	16733
834.129	16668
834.267	16748
834.406	16752
834.544	16721
834.682	16683
834.821	16672
834.959	16831
835.097	16626
835.235	16881
835.373	16706
835.511	16778
835.65	16577
835.788	16577
835.926	16405
836.064	16436
836.202	16375
836.34	16558
836.478	16656
836.615	16497
836.753	16546
836.891	16713
837.029	16675
837.167	16558
837.305	16474
837.443	16428
837.58	16322
837.718	16478
837.856	16493
837.993	16428
838.131	16459
838.269	16409
838.406	16455
838.544	16310
838.681	16177
838.819	16109
838.956	15907
839.094	15915
839.231	16017
839.369	16048
839.506	16413
839.643	16154
839.781	16131
839.918	16029
840.055	16048
840.193	16040
840.33	15945
840.467	15994
840.604	16036
840.742	16318
840.879	15823
841.016	15895
841.153	15876
841.29	16082
841.427	15922
841.564	16074
841.701	15960
841.838	15918
841.975	15835
842.112	15922
842.249	15846
842.385	15728
842.522	15956
842.659	15838
842.796	15713
842.933	15778
843.069	15736
843.206	15785
843.343	15793
843.479	15808
843.616	15861
843.752	15629
843.889	15652
844.025	15713
844.162	15542
844.298	15694
844.435	15595
844.571	15511
844.708	15568
844.844	15663
844.98	15755
845.117	15648
845.253	15549
845.389	15473
845.525	15473
845.661	15408
845.798	15332
845.934	15431
846.07	15401
846.206	15386
846.342	15462
846.478	15412
846.614	15176
846.75	15127
846.886	15116
847.022	15291
847.158	15066
847.294	15138
847.429	15146
847.565	15074
847.701	15408
847.837	14868
847.972	14823
848.108	14986
848.244	14880
848.379	14842
848.515	14762
848.65	14693
848.786	14773
848.921	14746
849.057	14883
849.192	14785
849.328	14746
849.463	14739
849.598	14697
849.734	14724
849.869	14617
850.004	14549
850.14	14606
850.275	14610
850.41	14396
850.545	14427
850.68	14427
850.815	14590
850.95	14518
851.085	14648
851.22	14613
851.355	14457
851.49	14412
851.625	14484
851.76	14492
851.895	14454
852.03	14412
852.165	14434
852.299	14583
852.434	14625
852.569	14564
852.703	14617
852.838	14583
852.973	14788
853.107	14644
853.242	14499
853.376	14431
853.511	14339
853.645	14313
853.78	14541
853.914	14457
854.048	14343
854.183	14320
854.317	14423
854.451	14575
854.585	14381
854.72	14351
854.854	14381
854.988	14366
855.122	14309
855.256	14225
855.39	14271
855.524	14549
855.658	14511
855.792	14408
855.926	14465
856.06	14434
856.194	14461
856.327	14374
856.461	14362
856.595	14343
856.729	14313
856.862	14461
856.996	14400
857.13	14454
857.263	14465
857.397	14438
857.53	14374
857.664	14358
857.797	14400
857.931	14484
858.064	14454
858.197	14499
858.331	14461
858.464	14381
858.597	14237
858.731	14336
858.864	14263
858.997	14431
859.13	14400
859.263	14309
859.396	14476
859.529	14305
859.662	14343
859.795	14351
859.928	14301
860.061	14514
860.194	14537
860.327	14385
860.46	14347
860.592	14503
860.725	14522
860.858	14522
860.99	14396
861.123	14362
861.256	14313
861.388	14355
861.521	14891
861.653	14336
861.786	14149
861.918	14252
862.05	14244
862.183	14336
862.315	14336
862.447	14457
862.58	14370
862.712	14183
862.844	14153
862.976	14252
863.108	14183
863.24	14480
863.372	14157
863.504	14088
863.636	14065
863.768	14191
863.9	14153
864.032	14149
864.164	14088
864.296	14294
864.428	14275
864.559	14278
864.691	14263
864.823	14176
864.954	14187
865.086	14301
865.217	14164
865.349	14073
865.48	14164
865.612	14214
865.743	14408
865.875	14126
866.006	14191
866.137	14172
866.269	14145
866.4	14126
866.531	14027
866.662	14077
866.793	13970
866.924	14103
867.055	14126
867.186	14092
867.317	13997
867.448	14043
867.579	14107
867.71	14157
867.841	14054
867.972	14123
868.103	14199
868.233	14176
868.364	14145
868.495	14221
868.625	14362
868.756	14457
868.886	14320
869.017	14366
869.147	14518
869.278	14457
869.408	14412
869.539	14408
869.669	14533
869.799	14476
869.929	14507
870.06	14571
870.19	14659
870.32	14697
870.45	14743
870.58	14765
870.71	14811
870.84	14925
870.97	14800
871.1	14834
871.23	14933
871.36	14952
871.489	14998
871.619	14880
871.749	14982
871.879	15024
872.008	15001
872.138	15058
872.267	14921
872.397	14864
872.526	14777
872.656	14861
872.785	14853
872.915	15020
873.044	15104
873.173	15005
873.303	15005
873.432	14998
873.561	15116
873.69	15112
873.819	15142
873.948	15085
874.077	14994
874.206	15036
874.335	15028
874.464	15203
874.593	15355
874.722	15283
874.851	15443
874.979	15454
875.108	15393
875.237	15283
875.365	15233
875.494	15317
875.623	15447
875.751	15382
875.88	15424
876.008	15450
876.136	15526
876.265	15682
876.393	15911
876.521	15865
876.65	15789
876.778	15713
876.906	15667
877.034	15701
877.162	15656
877.29	15698
877.418	15717
877.546	15778
877.674	15778
877.802	15857
877.93	15751
878.058	15671
878.185	15641
878.313	15686
878.441	15797
878.568	15690
878.696	15656
878.824	15751
878.951	15831
879.079	16021
879.206	16128
879.333	15850
879.461	15888
879.588	15842
879.715	15895
879.842	16059
879.97	15880
880.097	15701
880.224	15553
880.351	15694
880.478	15682
880.605	15644
880.732	15622
880.859	15743
880.986	15603
881.112	15648
881.239	15439
881.366	15447
881.493	15382
881.619	15325
881.746	15264
881.872	15264
881.999	15180
882.125	15195
882.252	15370
882.378	15233
882.505	15355
882.631	15135
882.757	15161
882.883	15142
883.01	14998
883.136	15017
883.262	15043
883.388	14975
883.514	15138
883.64	15097
883.766	15024
883.892	14887
884.018	14887
884.143	15062
884.269	15188
884.395	14906
884.52	14800
884.646	14781
884.772	14727
884.897	14773
885.023	14849
885.148	14880
885.274	14895
885.399	14952
885.524	14754
885.65	14762
885.775	14769
885.9	14716
886.025	14944
886.15	14994
886.275	14769
886.4	14644
886.525	14788
886.65	14682
886.775	14682
886.9	14914
887.025	14986
887.149	14811
887.274	14788
887.399	14610
887.523	14640
887.648	14602
887.773	14537
887.897	14765
888.021	14678
888.146	14655
888.27	14773
888.395	14720
888.519	14689
888.643	14651
888.767	14667
888.891	14564
889.015	14389
889.139	14518
889.263	14438
889.387	14575
889.511	14682
889.635	14621
889.759	14427
889.883	14450
890.006	14575
890.13	14541
890.254	14427
890.377	14400
890.501	14275
890.624	14180
890.748	14301
890.871	14301
890.995	14157
891.118	13982
891.241	14172
891.364	14183
891.488	14332
891.611	14145
891.734	14168
891.857	14214
891.98	14157
892.103	14199
892.226	14195
892.349	14157
892.471	14073
892.594	14130
892.717	14183
892.839	14221
892.962	14206
893.085	14275
893.207	14153
893.33	14065
893.452	14130
893.575	14168
893.697	14145
893.819	14355
893.941	14450
894.064	14438
894.186	14142
894.308	14115
894.43	14271
894.552	14423
894.674	14362
894.796	14206
894.918	14153
895.04	14168
895.161	14336
895.283	14339
895.405	14202
895.526	14294
895.648	14290
895.769	14313
895.891	14305
896.012	14366
896.134	14347
896.255	14374
896.376	14332
896.498	14240
896.619	14457
896.74	14377
896.861	14396
896.982	14693
897.103	14853
897.224	14594
897.345	14526
897.466	14495
897.587	14549
897.708	14758
897.828	14758
897.949	14644
898.07	14564
898.19	14537
898.311	14693
898.431	14636
898.552	14693
898.672	14754
898.792	14720
898.913	14773
899.033	14632
899.153	14537
899.273	14492
899.393	14499
899.513	14568
899.633	14613
899.753	14602
899.873	14442
899.993	14571
900.113	14530
900.232	14526
900.352	14568
900.472	14552
900.591	14381
900.711	14381
900.83	14313
900.95	14427
901.069	14526
901.189	14362
901.308	14119
901.427	14024
901.546	14088
901.665	14180
901.784	14081
901.904	13974
902.023	13906
902.141	13658
902.26	13578
902.379	13674
902.498	13662
902.617	13582
902.735	13666
902.854	13658
902.973	13544
903.091	13396
903.21	13289
903.328	13331
903.446	13403
903.565	13183
903.683	13232
903.801	13061
903.919	13190
904.038	13183
904.156	12985
904.274	13156
904.392	13080
904.51	13027
904.627	12966
904.745	13069
904.863	13095
904.981	12829
905.098	12711
905.216	12722
905.334	12810
905.451	12741
905.569	12719
905.686	12768
905.803	12639
905.921	12525
906.038	12715
906.155	12593
906.272	12441
906.389	12483
906.506	12350
906.623	12315
906.74	12350
906.857	12285
906.974	12247
907.091	12418
907.208	12433
907.324	12391
907.441	12304
907.557	12140
907.674	12136
907.79	11965
907.907	12045
908.023	12163
908.139	12182
908.256	12053
908.372	12030
908.488	11988
908.604	11870
908.72	11828
908.836	11855
908.952	11836
909.068	11847
909.184	11950
909.3	11840
909.415	11920
909.531	11931
909.647	11630
909.762	11623
909.878	11627
909.993	11707
910.108	11608
910.224	11619
910.339	11615
910.454	11554
910.57	11486
910.685	11452
910.8	11748
910.915	11653
911.03	11467
911.145	11330
911.259	11254
911.374	11311
911.489	11269
911.604	11242
911.718	11113
911.833	11086
911.947	11025
912.062	10831
912.176	11086
912.291	11140
912.405	11121
912.519	11235
912.633	11349
912.748	11140
912.862	11098
912.976	10976
913.09	10854
913.204	10946
913.318	11010
913.431	11090
913.545	11086
913.659	11151
913.772	11014
913.886	10869
914	10824
914.113	10987
914.226	11018
914.34	10968
914.453	10885
914.566	10862
914.68	10873
914.793	10797
914.906	10626
915.019	10592
915.132	10489
915.245	10622
915.358	10656
915.47	10634
915.583	10607
915.696	10653
915.809	10782
915.921	10778
916.034	10554
916.146	10554
916.259	10440
916.371	10577
916.483	10584
916.595	10459
916.708	10481
916.82	10519
916.932	10470
917.044	10497
917.156	10432
917.268	10424
917.38	10413
917.491	10310
917.603	10512
917.715	10440
917.826	10558
917.938	10382
918.049	10268
918.161	10531
918.272	10538
918.384	10554
918.495	10478
918.606	10356
918.717	10173
918.828	10287
918.939	10360
919.05	10284
919.161	10265
919.272	10143
919.383	10128
919.494	10382
919.604	10588
919.715	10310
919.826	10211
919.936	10242
920.047	10402
920.157	10379
920.267	10508
920.378	10356
920.488	10341
920.598	10516
920.708	10656
920.818	10500
920.928	10428
921.038	10653
921.148	10645
921.258	10356
921.368	10249
921.477	10223
921.587	10124
921.697	10078
921.806	10135
921.916	9991
922.025	9949
922.134	9888
922.244	9827
922.353	9941
922.462	9781
922.571	9675
922.68	9561
922.789	9496
922.898	9485
923.007	9481
923.116	9599
923.224	9515
923.333	9545
923.442	9412
923.55	9401
923.659	9507
923.767	9496
923.876	9393
923.984	9469
924.092	9313
924.201	9435
924.309	9344
924.417	9450
924.525	9344
924.633	9348
924.741	10291
924.849	9169
924.956	9359
925.064	9138
925.172	9211
925.279	9157
925.387	9283
925.494	9253
925.602	9332
925.709	9287
925.816	9077
925.924	9195
926.031	9302
926.138	9195
926.245	9264
926.352	9123
926.459	9294
926.566	9275
926.673	9089
926.779	9112
926.886	9058
926.993	8956
927.099	8956
927.206	8830
927.312	8925
927.419	8948
927.525	8937
927.631	8967
927.737	8762
927.843	8811
927.95	8693
928.056	8758
928.162	8826
928.267	8857
928.373	9504
928.479	8902
928.585	8606
928.69	8804
928.796	8834
928.901	8731
929.007	8575
929.112	8670
929.218	8727
929.323	8659
929.428	8598
929.533	8731
929.638	8564
929.743	8594
929.848	8682
929.953	8587
930.058	8511
930.163	8408
930.267	8362
930.372	8549
930.477	8469
930.581	8644
930.685	8492
930.79	8313
930.894	8412
930.998	8339
931.103	8476
931.207	8138
931.311	8058
931.415	7997
931.519	7841
931.623	7841
