Data from test_V78500241_3518.txt Node
Date: Fri Mar 25 14:58:12 CST 2022
User: usil
Spectrometer: V785-0024
Trigger mode: 0
Integration Time (sec): 4.000000E-1
Scans to average: 1
Nonlinearity correction enabled: false
Boxcar width: 0
Storing dark spectrum: false
XAxis mode: Wavelengths
Number of Pixels in Spectrum: 1024
>>>>>Begin Spectral Data<<<<<
801.071	21903
801.214	21819
801.356	21557
801.499	21485
801.641	21340
801.783	21287
801.926	21245
802.068	21249
802.211	21184
802.353	21085
802.496	20826
802.638	20834
802.78	20648
802.923	20556
803.065	20583
803.208	20507
803.35	20564
803.492	20697
803.635	20663
803.777	20579
803.919	20716
804.061	20845
804.204	20438
804.346	20511
804.488	20476
804.63	20541
804.773	20438
804.915	20689
805.057	20579
805.199	20442
805.341	20511
805.483	20583
805.626	20560
805.768	20488
805.91	20518
806.052	20552
806.194	20332
806.336	20594
806.478	20556
806.62	20366
806.762	20530
806.904	20727
807.046	20967
807.188	20876
807.33	20777
807.472	20998
807.614	20785
807.756	20724
807.898	20560
808.04	20537
808.182	20530
808.324	20480
808.465	20556
808.607	20823
808.749	20788
808.891	20895
809.033	21032
809.174	20902
809.316	20773
809.458	20777
809.6	20944
809.741	20925
809.883	20861
810.025	21013
810.166	20994
810.308	20883
810.45	20937
810.591	20716
810.733	20659
810.875	20629
811.016	20545
811.158	20621
811.299	20667
811.441	20701
811.582	20575
811.724	20560
811.865	20602
812.007	20511
812.148	20636
812.29	20556
812.431	20765
812.573	20975
812.714	20998
812.855	21039
812.997	21252
813.138	21291
813.279	21184
813.421	21241
813.562	21020
813.703	20823
813.845	20800
813.986	20457
814.127	20271
814.268	20317
814.41	20290
814.551	20012
814.692	20298
814.833	20058
814.974	20084
815.115	20161
815.256	19997
815.397	19841
815.539	19967
815.68	19833
815.821	19826
815.962	19917
816.103	19887
816.244	19719
816.385	19635
816.526	19499
816.666	19411
816.807	19293
816.948	19331
817.089	19434
817.23	19301
817.371	19335
817.512	19304
817.653	19285
817.793	19202
817.934	19274
818.075	19278
818.216	19206
818.356	19206
818.497	19080
818.638	18985
818.778	18894
818.919	18909
819.06	19015
819.2	19008
819.341	19335
819.481	19202
819.622	19335
819.762	19441
819.903	19358
820.043	19247
820.184	19221
820.324	19209
820.465	19285
820.605	19312
820.746	19266
820.886	19126
821.026	19209
821.167	19069
821.307	19289
821.447	19225
821.588	19004
821.728	18993
821.868	18757
822.008	18646
822.149	18593
822.289	18551
822.429	18369
822.569	18422
822.709	18403
822.849	18220
822.99	18163
823.13	18155
823.27	18045
823.41	17923
823.55	17973
823.69	17775
823.83	17935
823.97	18026
824.11	17722
824.25	17691
824.389	17748
824.529	17771
824.669	17752
824.809	17843
824.949	17847
825.089	17828
825.228	17836
825.368	17509
825.508	17501
825.648	17573
825.787	17585
825.927	17554
826.067	17474
826.206	17467
826.346	17589
826.485	17539
826.625	17516
826.765	17585
826.904	17532
827.044	17463
827.183	17265
827.323	17250
827.462	17223
827.601	17387
827.741	17147
827.88	17292
828.02	17193
828.159	17200
828.298	17254
828.437	17261
828.577	17216
828.716	17345
828.855	17258
828.994	17090
829.134	16972
829.273	17033
829.412	16961
829.551	16949
829.69	17025
829.829	17045
829.968	17105
830.107	17067
830.246	17075
830.385	16904
830.524	16938
830.663	16721
830.802	16767
830.941	16630
831.08	16698
831.219	16744
831.357	16698
831.496	16881
831.635	16611
831.774	16664
831.913	16508
832.051	16474
832.19	16443
832.329	16516
832.467	16352
832.606	16280
832.744	16306
832.883	16322
833.022	16386
833.16	16200
833.299	16333
833.437	16295
833.576	16451
833.714	16375
833.852	16447
833.991	16466
834.129	16478
834.267	16508
834.406	16386
834.544	16344
834.682	16466
834.821	16363
834.959	16592
835.097	16261
835.235	16584
835.373	16413
835.511	16489
835.65	16348
835.788	16341
835.926	16158
836.064	16086
836.202	16166
836.34	16329
836.478	16405
836.615	16280
836.753	16337
836.891	16409
837.029	16337
837.167	16303
837.305	16185
837.443	16242
837.58	16173
837.718	16329
837.856	16188
837.993	16154
838.131	16265
838.269	16143
838.406	16124
838.544	16067
838.681	15823
838.819	15838
838.956	15778
839.094	15770
839.231	15743
839.369	15888
839.506	16124
839.643	15975
839.781	15747
839.918	15717
840.055	15789
840.193	15739
840.33	15679
840.467	15785
840.604	15781
840.742	15998
840.879	15595
841.016	15709
841.153	15679
841.29	15762
841.427	15713
841.564	15739
841.701	15781
841.838	15720
841.975	15633
842.112	15713
842.249	15572
842.385	15447
842.522	15724
842.659	15534
842.796	15561
842.933	15625
843.069	15561
843.206	15466
843.343	15633
843.479	15610
843.616	15485
843.752	15386
843.889	15195
844.025	15469
844.162	15378
844.298	15420
844.435	15336
844.571	15306
844.708	15359
844.844	15462
844.98	15450
845.117	15435
845.253	15294
845.389	15207
845.525	15119
845.661	15173
845.798	15074
845.934	15116
846.07	15150
846.206	15150
846.342	15161
846.478	15165
846.614	14872
846.75	14853
846.886	14819
847.022	14929
847.158	14861
847.294	14929
847.429	14883
847.565	14872
847.701	15176
847.837	14720
847.972	14716
848.108	14777
848.244	14716
848.379	14556
848.515	14431
848.65	14556
848.786	14556
848.921	14507
849.057	14602
849.192	14594
849.328	14511
849.463	14537
849.598	14408
849.734	14450
849.869	14465
850.004	14225
850.14	14324
850.275	14164
850.41	14172
850.545	14233
850.68	14294
850.815	14225
850.95	14332
851.085	14465
851.22	14393
851.355	14332
851.49	14298
851.625	14244
851.76	14218
851.895	14123
852.03	14100
852.165	14214
852.299	14324
852.434	14370
852.569	14290
852.703	14199
852.838	14381
852.973	14415
853.107	14396
853.242	14142
853.376	14126
853.511	14069
853.645	14084
853.78	14339
853.914	14145
854.048	14157
854.183	14100
854.317	14149
854.451	14286
854.585	14138
854.72	14073
854.854	14202
854.988	14214
855.122	14073
855.256	14035
855.39	14050
855.524	14225
855.658	14183
855.792	14103
855.926	14187
856.06	14233
856.194	14229
856.327	14199
856.461	14065
856.595	14172
856.729	14221
856.862	14237
856.996	14214
857.13	14206
857.263	14240
857.397	14286
857.53	14142
857.664	14180
857.797	14168
857.931	14377
858.064	14123
858.197	14214
858.331	14142
858.464	14138
858.597	14054
858.731	14172
858.864	14077
858.997	14138
859.13	14161
859.263	14195
859.396	14282
859.529	14073
859.662	14161
859.795	14126
859.928	14202
860.061	14347
860.194	14259
860.327	14138
860.46	14252
860.592	14233
860.725	14290
860.858	14347
860.99	14187
861.123	14073
861.256	14058
861.388	14187
861.521	15009
861.653	14103
861.786	14077
861.918	14012
862.05	14088
862.183	14088
862.315	14199
862.447	14153
862.58	14115
862.712	13906
862.844	13928
862.976	13986
863.108	14035
863.24	14336
863.372	13833
863.504	13921
863.636	13913
863.768	13940
863.9	13925
864.032	13879
864.164	13902
864.296	13928
864.428	14115
864.559	14073
864.691	13955
864.823	13967
864.954	13925
865.086	13944
865.217	13830
865.349	13818
865.48	13830
865.612	13894
865.743	13989
865.875	14035
866.006	13807
866.137	13898
866.269	13845
866.4	13947
866.531	13864
866.662	13811
866.793	13902
866.924	13849
867.055	13932
867.186	13932
867.317	13963
867.448	13811
867.579	13807
867.71	13776
867.841	13769
867.972	13947
868.103	13849
868.233	13875
868.364	13868
868.495	14035
868.625	14123
868.756	14233
868.886	14043
869.017	14153
869.147	14240
869.278	14267
869.408	14145
869.539	14123
869.669	14214
869.799	14161
869.929	14225
870.06	14324
870.19	14564
870.32	14457
870.45	14457
870.58	14568
870.71	14701
870.84	14701
870.97	14556
871.1	14476
871.23	14727
871.36	14815
871.489	14606
871.619	14697
871.749	14602
871.879	14838
872.008	14823
872.138	14777
872.267	14746
872.397	14663
872.526	14594
872.656	14682
872.785	14606
872.915	14849
873.044	14819
873.173	14830
873.303	14826
873.432	14758
873.561	14868
873.69	14830
873.819	14712
873.948	14941
874.077	14823
874.206	14758
874.335	14849
874.464	14967
874.593	15150
874.722	15066
874.851	15077
874.979	15036
875.108	15116
875.237	15104
875.365	15047
875.494	15104
875.623	15287
875.751	15074
875.88	15241
876.008	15264
876.136	15313
876.265	15466
876.393	15701
876.521	15584
876.65	15610
876.778	15515
876.906	15549
877.034	15542
877.162	15534
877.29	15431
877.418	15511
877.546	15549
877.674	15526
877.802	15591
877.93	15428
878.058	15545
878.185	15416
878.313	15542
878.441	15564
878.568	15397
878.696	15481
878.824	15591
878.951	15679
879.079	15751
879.206	15892
879.333	15580
879.461	15587
879.588	15709
879.715	15629
879.842	15857
879.97	15534
880.097	15462
880.224	15370
880.351	15348
880.478	15332
880.605	15447
880.732	15389
880.859	15644
880.986	15412
881.112	15370
881.239	15275
881.366	15203
881.493	15108
881.619	15058
881.746	15135
881.872	15077
881.999	14971
882.125	15055
882.252	15161
882.378	15074
882.505	15184
882.631	15001
882.757	14849
882.883	14868
883.01	14895
883.136	14743
883.262	14765
883.388	14758
883.514	14868
883.64	14883
883.766	14773
883.892	14667
884.018	14716
884.143	14876
884.269	14937
884.395	14644
884.52	14541
884.646	14613
884.772	14522
884.897	14404
885.023	14587
885.148	14670
885.274	14800
885.399	14758
885.524	14587
885.65	14587
885.775	14587
885.9	14492
886.025	14743
886.15	14674
886.275	14552
886.4	14419
886.525	14571
886.65	14427
886.775	14564
886.9	14724
887.025	14811
887.149	14560
887.274	14450
887.399	14438
887.523	14366
887.648	14358
887.773	14320
887.897	14419
888.021	14408
888.146	14396
888.27	14526
888.395	14530
888.519	14522
888.643	14499
888.767	14415
888.891	14385
889.015	14229
889.139	14309
889.263	14252
889.387	14313
889.511	14518
889.635	14427
889.759	14351
889.883	14229
890.006	14244
890.13	14415
890.254	14123
890.377	14206
890.501	14069
890.624	14024
890.748	14195
890.871	13974
890.995	13883
891.118	13959
891.241	13974
891.364	13951
891.488	14168
891.611	13913
891.734	14043
891.857	14035
891.98	14008
892.103	13974
892.226	14039
892.349	13936
892.471	13837
892.594	13967
892.717	13951
892.839	13997
892.962	13993
893.085	14027
893.207	13947
893.33	13715
893.452	13906
893.575	13986
893.697	13955
893.819	14107
893.941	14195
894.064	14065
894.186	13803
894.308	13947
894.43	14180
894.552	14149
894.674	14035
894.796	13936
894.918	14050
895.04	13944
895.161	14142
895.283	14084
895.405	14001
895.526	14065
895.648	14111
895.769	14073
895.891	14130
896.012	14176
896.134	14058
896.255	14180
896.376	14103
896.498	14142
896.619	14240
896.74	14328
896.861	14119
896.982	14526
897.103	14571
897.224	14385
897.345	14377
897.466	14320
897.587	14465
897.708	14522
897.828	14396
897.949	14381
898.07	14290
898.19	14492
898.311	14682
898.431	14419
898.552	14492
898.672	14602
898.792	14629
898.913	14568
899.033	14484
899.153	14328
899.273	14389
899.393	14374
899.513	14442
899.633	14412
899.753	14389
899.873	14252
899.993	14355
900.113	14336
900.232	14347
900.352	14358
900.472	14278
900.591	14130
900.711	14199
900.83	14248
900.95	14282
901.069	14351
901.189	14084
901.308	13921
901.427	13780
901.546	13902
901.665	13799
901.784	13932
901.904	13685
902.023	13666
902.141	13506
902.26	13514
902.379	13540
902.498	13373
902.617	13514
902.735	13403
902.854	13434
902.973	13441
903.091	13202
903.21	13160
903.328	13164
903.446	13209
903.565	13069
903.683	13129
903.801	12970
903.919	13050
904.038	12913
904.156	12951
904.274	12897
904.392	12814
904.51	12730
904.627	12894
904.745	12989
904.863	12878
904.981	12639
905.098	12513
905.216	12639
905.334	12536
905.451	12574
905.569	12593
905.686	12506
905.803	12555
905.921	12388
906.038	12441
906.155	12330
906.272	12258
906.389	12296
906.506	12053
906.623	12144
906.74	12213
906.857	12068
906.974	12038
907.091	12194
907.208	12258
907.324	12201
907.441	12079
907.557	11923
907.674	11843
907.79	11843
907.907	11809
908.023	11863
908.139	11859
908.256	11832
908.372	11802
908.488	11798
908.604	11642
908.72	11577
908.836	11657
908.952	11627
909.068	11634
909.184	11783
909.3	11680
909.415	11741
909.531	11665
909.647	11520
909.762	11414
909.878	11387
909.993	11547
910.108	11410
910.224	11360
910.339	11410
910.454	11303
910.57	11307
910.685	11151
910.8	11440
910.915	11383
911.03	11311
911.145	11052
911.259	11113
911.374	11136
911.489	11102
911.604	11010
911.718	10812
911.833	10942
911.947	10778
912.062	10683
912.176	10831
912.291	10896
912.405	10919
912.519	11056
912.633	11102
912.748	10942
912.862	10839
912.976	10816
913.09	10675
913.204	10778
913.318	10801
913.431	10866
913.545	10877
913.659	10847
913.772	10782
913.886	10630
914	10656
914.113	10683
914.226	10748
914.34	10744
914.453	10558
914.566	10782
914.68	10603
914.793	10580
914.906	10474
915.019	10375
915.132	10329
915.245	10432
915.358	10398
915.47	10447
915.583	10497
915.696	10402
915.809	10481
915.921	10561
916.034	10390
916.146	10398
916.259	10306
916.371	10451
916.483	10436
916.595	10333
916.708	10337
916.82	10310
916.932	10295
917.044	10325
917.156	10215
917.268	10128
917.38	10173
917.491	10177
917.603	10219
917.715	10329
917.826	10325
917.938	10253
918.049	10135
918.161	10306
918.272	10329
918.384	10272
918.495	10284
918.606	10109
918.717	10086
918.828	10112
918.939	10105
919.05	10002
919.161	10086
919.272	9941
919.383	9968
919.494	10204
919.604	10295
919.715	10196
919.826	10032
919.936	10090
920.047	10219
920.157	10150
920.267	10344
920.378	10204
920.488	10101
920.598	10268
920.708	10436
920.818	10337
920.928	10280
921.038	10485
921.148	10470
921.258	10188
921.368	10093
921.477	10006
921.587	9907
921.697	9884
921.806	10025
921.916	9907
922.025	9736
922.134	9663
922.244	9625
922.353	9679
922.462	9610
922.571	9511
922.68	9477
922.789	9313
922.898	9443
923.007	9302
923.116	9447
923.224	9294
923.333	9473
923.442	9272
923.55	9272
923.659	9275
923.767	9325
923.876	9230
923.984	9355
924.092	9199
924.201	9199
924.309	9222
924.417	9245
924.525	9161
924.633	9150
924.741	9934
924.849	8998
924.956	9154
925.064	9047
925.172	8975
925.279	8960
925.387	9127
925.494	9017
925.602	9131
925.709	9070
925.816	9005
925.924	9005
926.031	9142
926.138	9032
926.245	9070
926.352	9001
926.459	9131
926.566	9058
926.673	8979
926.779	8925
926.886	8887
926.993	8735
927.099	8758
927.206	8697
927.312	8686
927.419	8796
927.525	8773
927.631	8842
927.737	8727
927.843	8636
927.95	8499
928.056	8648
928.162	8689
928.267	8792
928.373	9310
928.479	8769
928.585	8514
928.69	8720
928.796	8663
928.901	8613
929.007	8419
929.112	8568
929.218	8522
929.323	8549
929.428	8461
929.533	8613
929.638	8434
929.743	8419
929.848	8511
929.953	8526
930.058	8480
930.163	8267
930.267	8244
930.372	8404
930.477	8218
930.581	8484
930.685	8347
930.79	8206
930.894	8183
930.998	8134
931.103	8336
931.207	7989
931.311	7989
931.415	7890
931.519	7693
931.623	7712
