Data from test_V78500241_3512.txt Node
Date: Fri Mar 25 14:58:10 CST 2022
User: usil
Spectrometer: V785-0024
Trigger mode: 0
Integration Time (sec): 4.000000E-1
Scans to average: 1
Nonlinearity correction enabled: false
Boxcar width: 0
Storing dark spectrum: false
XAxis mode: Wavelengths
Number of Pixels in Spectrum: 1024
>>>>>Begin Spectral Data<<<<<
801.071	22010
801.214	21717
801.356	21564
801.499	21507
801.641	21283
801.783	21272
801.926	21321
802.068	21233
802.211	21184
802.353	21051
802.496	20914
802.638	20712
802.78	20804
802.923	20609
803.065	20579
803.208	20583
803.35	20533
803.492	20594
803.635	20811
803.777	20587
803.919	20724
804.061	20944
804.204	20632
804.346	20575
804.488	20503
804.63	20511
804.773	20480
804.915	20518
805.057	20579
805.199	20541
805.341	20663
805.483	20583
805.626	20632
805.768	20457
805.91	20587
806.052	20533
806.194	20328
806.336	20670
806.478	20579
806.62	20351
806.762	20644
806.904	20667
807.046	20857
807.188	20944
807.33	20701
807.472	20838
807.614	20663
807.756	20880
807.898	20583
808.04	20556
808.182	20583
808.324	20590
808.465	20697
808.607	20758
808.749	20895
808.891	21020
809.033	20914
809.174	20864
809.316	20830
809.458	20842
809.6	20746
809.741	20910
809.883	21028
810.025	21081
810.166	21028
810.308	20971
810.45	21043
810.591	20891
810.733	20663
810.875	20625
811.016	20537
811.158	20613
811.299	20712
811.441	20777
811.582	20811
811.724	20613
811.865	20708
812.007	20537
812.148	20651
812.29	20670
812.431	20838
812.573	20853
812.714	21032
812.855	21085
812.997	21306
813.138	21359
813.279	21268
813.421	21131
813.562	21138
813.703	20906
813.845	20785
813.986	20457
814.127	20263
814.268	20161
814.41	20275
814.551	20126
814.692	20229
814.833	20164
814.974	20119
815.115	20142
815.256	19951
815.397	20039
815.539	19925
815.68	20005
815.821	19864
815.962	19833
816.103	19833
816.244	19826
816.385	19635
816.526	19639
816.666	19407
816.807	19320
816.948	19506
817.089	19388
817.23	19373
817.371	19270
817.512	19278
817.653	19274
817.793	19259
817.934	19324
818.075	19285
818.216	19213
818.356	19240
818.497	18989
818.638	18962
818.778	18973
818.919	19031
819.06	18993
819.2	19225
819.341	19103
819.481	19244
819.622	19346
819.762	19449
819.903	19365
820.043	19445
820.184	19179
820.324	19335
820.465	19384
820.605	19308
820.746	19225
820.886	19107
821.026	19312
821.167	19289
821.307	19213
821.447	19156
821.588	19042
821.728	18993
821.868	18924
822.008	18658
822.149	18661
822.289	18559
822.429	18422
822.569	18372
822.709	18319
822.849	18133
822.99	18148
823.13	18144
823.27	18201
823.41	18015
823.55	18003
823.69	18015
823.83	18038
823.97	17980
824.11	17847
824.25	17707
824.389	17741
824.529	17783
824.669	17741
824.809	17745
824.949	17847
825.089	17882
825.228	17752
825.368	17623
825.508	17543
825.648	17638
825.787	17596
825.927	17543
826.067	17501
826.206	17554
826.346	17611
826.485	17539
826.625	17592
826.765	17562
826.904	17543
827.044	17364
827.183	17284
827.323	17246
827.462	17337
827.601	17200
827.741	17265
827.88	17277
828.02	17113
828.159	17277
828.298	17254
828.437	17181
828.577	17204
828.716	17307
828.855	17239
828.994	17022
829.134	16942
829.273	17033
829.412	16877
829.551	16908
829.69	17060
829.829	16991
829.968	17185
830.107	17056
830.246	17109
830.385	16896
830.524	16877
830.663	16797
830.802	16744
830.941	16668
831.08	16615
831.219	16660
831.357	16637
831.496	16839
831.635	16672
831.774	16569
831.913	16527
832.051	16352
832.19	16470
832.329	16497
832.467	16318
832.606	16386
832.744	16287
832.883	16333
833.022	16314
833.16	16379
833.299	16329
833.437	16272
833.576	16413
833.714	16409
833.852	16474
833.991	16409
834.129	16310
834.267	16504
834.406	16417
834.544	16375
834.682	16500
834.821	16390
834.959	16664
835.097	16344
835.235	16538
835.373	16341
835.511	16428
835.65	16306
835.788	16280
835.926	16147
836.064	16154
836.202	16131
836.34	16367
836.478	16390
836.615	16306
836.753	16287
836.891	16356
837.029	16348
837.167	16371
837.305	16253
837.443	16204
837.58	16196
837.718	16223
837.856	16223
837.993	16181
838.131	16196
838.269	16158
838.406	16105
838.544	16051
838.681	15838
838.819	15835
838.956	15770
839.094	15679
839.231	15759
839.369	15880
839.506	16082
839.643	16013
839.781	15869
839.918	15705
840.055	15728
840.193	15789
840.33	15660
840.467	15717
840.604	15804
840.742	15918
840.879	15492
841.016	15671
841.153	15694
841.29	15865
841.427	15781
841.564	15755
841.701	15838
841.838	15690
841.975	15538
842.112	15709
842.249	15477
842.385	15443
842.522	15709
842.659	15584
842.796	15447
842.933	15564
843.069	15488
843.206	15519
843.343	15584
843.479	15580
843.616	15500
843.752	15313
843.889	15260
844.025	15492
844.162	15336
844.298	15424
844.435	15268
844.571	15272
844.708	15298
844.844	15469
844.98	15485
845.117	15439
845.253	15272
845.389	15256
845.525	15203
845.661	15154
845.798	15123
845.934	15211
846.07	15119
846.206	15203
846.342	15222
846.478	15119
846.614	14880
846.75	14956
846.886	14777
847.022	15005
847.158	14990
847.294	14880
847.429	14925
847.565	14895
847.701	15127
847.837	14629
847.972	14610
848.108	14788
848.244	14716
848.379	14469
848.515	14522
848.65	14419
848.786	14473
848.921	14492
849.057	14617
849.192	14606
849.328	14564
849.463	14587
849.598	14511
849.734	14415
849.869	14389
850.004	14298
850.14	14294
850.275	14332
850.41	14248
850.545	14221
850.68	14187
850.815	14210
850.95	14256
851.085	14355
851.22	14278
851.355	14275
851.49	14244
851.625	14256
851.76	14218
851.895	14191
852.03	14172
852.165	14176
852.299	14278
852.434	14275
852.569	14233
852.703	14248
852.838	14263
852.973	14454
853.107	14286
853.242	14145
853.376	14195
853.511	14054
853.645	14069
853.78	14271
853.914	14088
854.048	14077
854.183	14084
854.317	14115
854.451	14396
854.585	14088
854.72	14126
854.854	14233
854.988	14081
855.122	14126
855.256	13974
855.39	14100
855.524	14115
855.658	14073
855.792	14168
855.926	14252
856.06	14221
856.194	14161
856.327	14183
856.461	14077
856.595	13978
856.729	14046
856.862	14210
856.996	14134
857.13	14176
857.263	14202
857.397	14221
857.53	14107
857.664	14176
857.797	14271
857.931	14267
858.064	14145
858.197	14286
858.331	14130
858.464	14100
858.597	14027
858.731	14119
858.864	14187
858.997	14161
859.13	14134
859.263	14157
859.396	14206
859.529	14119
859.662	14084
859.795	14062
859.928	14134
860.061	14301
860.194	14343
860.327	14210
860.46	14088
860.592	14199
860.725	14229
860.858	14252
860.99	14069
861.123	14050
861.256	14035
861.388	14187
861.521	14902
861.653	14012
861.786	13989
861.918	13955
862.05	14088
862.183	14062
862.315	14153
862.447	14195
862.58	14123
862.712	13982
862.844	13841
862.976	13993
863.108	13959
863.24	14271
863.372	13776
863.504	13887
863.636	13841
863.768	14035
863.9	13993
864.032	13803
864.164	13890
864.296	13947
864.428	13993
864.559	13921
864.691	14100
864.823	13928
864.954	13963
865.086	14005
865.217	13837
865.349	13791
865.48	13868
865.612	13890
865.743	14039
865.875	13947
866.006	13860
866.137	14001
866.269	13826
866.4	13913
866.531	13833
866.662	13811
866.793	13761
866.924	13765
867.055	13860
867.186	13932
867.317	13799
867.448	13776
867.579	13837
867.71	13784
867.841	13830
867.972	13864
868.103	13883
868.233	13913
868.364	13894
868.495	13993
868.625	14103
868.756	14214
868.886	14012
869.017	14180
869.147	14225
869.278	14259
869.408	14084
869.539	14138
869.669	14142
869.799	14180
869.929	14271
870.06	14298
870.19	14476
870.32	14374
870.45	14400
870.58	14492
870.71	14610
870.84	14613
870.97	14499
871.1	14571
871.23	14727
871.36	14758
871.489	14648
871.619	14735
871.749	14712
871.879	14758
872.008	14834
872.138	14716
872.267	14629
872.397	14571
872.526	14621
872.656	14541
872.785	14648
872.915	14823
873.044	14849
873.173	14750
873.303	14842
873.432	14864
873.561	14807
873.69	14868
873.819	14807
873.948	14857
874.077	14906
874.206	14769
874.335	14804
874.464	14876
874.593	15043
874.722	15051
874.851	15051
874.979	15131
875.108	15161
875.237	14963
875.365	14952
875.494	15112
875.623	15173
875.751	15032
875.88	15123
876.008	15336
876.136	15466
876.265	15405
876.393	15694
876.521	15545
876.65	15568
876.778	15458
876.906	15458
877.034	15424
877.162	15450
877.29	15534
877.418	15530
877.546	15473
877.674	15538
877.802	15603
877.93	15519
878.058	15435
878.185	15443
878.313	15526
878.441	15534
878.568	15382
878.696	15435
878.824	15591
878.951	15606
879.079	15717
879.206	15781
879.333	15705
879.461	15526
879.588	15652
879.715	15698
879.842	15705
879.97	15606
880.097	15416
880.224	15386
880.351	15386
880.478	15359
880.605	15317
880.732	15420
880.859	15500
880.986	15405
881.112	15511
881.239	15302
881.366	15169
881.493	15062
881.619	15062
881.746	15074
881.872	15009
881.999	14998
882.125	15005
882.252	15108
882.378	15104
882.505	15180
882.631	15020
882.757	14834
882.883	14941
883.01	14864
883.136	14800
883.262	14724
883.388	14811
883.514	14906
883.64	14815
883.766	14800
883.892	14735
884.018	14708
884.143	14883
884.269	14914
884.395	14705
884.52	14484
884.646	14499
884.772	14663
884.897	14492
885.023	14541
885.148	14705
885.274	14705
885.399	14697
885.524	14564
885.65	14678
885.775	14670
885.9	14560
886.025	14716
886.15	14613
886.275	14549
886.4	14514
886.525	14465
886.65	14511
886.775	14454
886.9	14750
887.025	14762
887.149	14636
887.274	14381
887.399	14320
887.523	14408
887.648	14355
887.773	14317
887.897	14457
888.021	14499
888.146	14377
888.27	14541
888.395	14590
888.519	14427
888.643	14522
888.767	14408
888.891	14317
889.015	14214
889.139	14320
889.263	14126
889.387	14412
889.511	14423
889.635	14476
889.759	14195
889.883	14187
890.006	14313
890.13	14389
890.254	14157
890.377	14225
890.501	14020
890.624	14016
890.748	14107
890.871	13993
890.995	13860
891.118	14012
891.241	13944
891.364	14035
891.488	14157
891.611	13993
891.734	13974
891.857	14100
891.98	14012
892.103	14031
892.226	14035
892.349	13947
892.471	13822
892.594	13894
892.717	13947
892.839	13967
892.962	13982
893.085	14031
893.207	14005
893.33	13928
893.452	13959
893.575	14062
893.697	13989
893.819	13978
893.941	14119
894.064	14100
894.186	13978
894.308	13974
894.43	14084
894.552	14271
894.674	14111
894.796	13967
894.918	13970
895.04	14046
895.161	14065
895.283	14024
895.405	13993
895.526	14027
895.648	14130
895.769	14058
895.891	14172
896.012	14123
896.134	14199
896.255	14043
896.376	14096
896.498	14195
896.619	14210
896.74	14134
896.861	14339
896.982	14442
897.103	14579
897.224	14393
897.345	14313
897.466	14492
897.587	14355
897.708	14590
897.828	14412
897.949	14446
898.07	14374
898.19	14278
898.311	14552
898.431	14389
898.552	14389
898.672	14575
898.792	14579
898.913	14556
899.033	14427
899.153	14298
899.273	14317
899.393	14328
899.513	14415
899.633	14377
899.753	14355
899.873	14278
899.993	14381
900.113	14290
900.232	14381
900.352	14199
900.472	14282
900.591	14176
900.711	14115
900.83	14214
900.95	14301
901.069	14305
901.189	14172
901.308	13936
901.427	13894
901.546	13845
901.665	13856
901.784	13811
901.904	13795
902.023	13696
902.141	13586
902.26	13460
902.379	13502
902.498	13506
902.617	13335
902.735	13502
902.854	13495
902.973	13449
903.091	13198
903.21	13179
903.328	13149
903.446	13107
903.565	12981
903.683	13107
903.801	12939
903.919	12916
904.038	12977
904.156	12901
904.274	12867
904.392	12924
904.51	12844
904.627	12722
904.745	12943
904.863	12989
904.981	12612
905.098	12490
905.216	12639
905.334	12574
905.451	12547
905.569	12540
905.686	12570
905.803	12601
905.921	12410
906.038	12471
906.155	12429
906.272	12190
906.389	12327
906.506	12224
906.623	12228
906.74	12095
906.857	11961
906.974	12117
907.091	12243
907.208	12262
907.324	12194
907.441	12045
907.557	11969
907.674	11969
907.79	11889
907.907	11977
908.023	11855
908.139	11939
908.256	11832
908.372	11817
908.488	11764
908.604	11642
908.72	11543
908.836	11634
908.952	11573
909.068	11600
909.184	11760
909.3	11581
909.415	11775
909.531	11589
909.647	11414
909.762	11429
909.878	11307
909.993	11368
910.108	11455
910.224	11341
910.339	11452
910.454	11326
910.57	11254
910.685	11151
910.8	11581
910.915	11341
911.03	11299
911.145	11105
911.259	11170
911.374	11181
911.489	11067
911.604	11006
911.718	10892
911.833	10896
911.947	10786
912.062	10782
912.176	10889
912.291	10927
912.405	10877
912.519	11056
912.633	11086
912.748	10908
912.862	10866
912.976	10748
913.09	10634
913.204	10729
913.318	10801
913.431	10835
913.545	10889
913.659	10854
913.772	10809
913.886	10721
914	10577
914.113	10771
914.226	10717
914.34	10664
914.453	10500
914.566	10656
914.68	10618
914.793	10588
914.906	10428
915.019	10360
915.132	10352
915.245	10348
915.358	10405
915.47	10432
915.583	10405
915.696	10462
915.809	10466
915.921	10630
916.034	10379
916.146	10352
916.259	10348
916.371	10382
916.483	10447
916.595	10272
916.708	10432
916.82	10306
916.932	10268
917.044	10322
917.156	10314
917.268	10242
917.38	10268
917.491	10215
917.603	10272
917.715	10394
917.826	10322
917.938	10238
918.049	10071
918.161	10207
918.272	10462
918.384	10390
918.495	10200
918.606	10158
918.717	10097
918.828	10063
918.939	10124
919.05	9968
919.161	10112
919.272	9922
919.383	9953
919.494	10204
919.604	10318
919.715	10063
919.826	10032
919.936	10093
920.047	10200
920.157	10097
920.267	10390
920.378	10173
920.488	10128
920.598	10230
920.708	10516
920.818	10432
920.928	10306
921.038	10462
921.148	10500
921.258	10181
921.368	10154
921.477	10021
921.587	9934
921.697	9956
921.806	10013
921.916	9865
922.025	9660
922.134	9644
922.244	9633
922.353	9701
922.462	9572
922.571	9511
922.68	9393
922.789	9393
922.898	9397
923.007	9306
923.116	9405
923.224	9401
923.333	9351
923.442	9329
923.55	9199
923.659	9260
923.767	9378
923.876	9230
923.984	9370
924.092	9241
924.201	9230
924.309	9329
924.417	9294
924.525	9165
924.633	9180
924.741	9968
924.849	9032
924.956	9203
925.064	8956
925.172	8952
925.279	9005
925.387	8994
925.494	9039
925.602	9184
925.709	9097
925.816	8952
925.924	8994
926.031	9070
926.138	9039
926.245	9108
926.352	8933
926.459	9081
926.566	9074
926.673	9024
926.779	8914
926.886	8826
926.993	8796
927.099	8754
927.206	8670
927.312	8769
927.419	8842
927.525	8769
927.631	8758
927.737	8701
927.843	8636
927.95	8610
928.056	8590
928.162	8617
928.267	8727
928.373	9245
928.479	8785
928.585	8507
928.69	8640
928.796	8697
928.901	8629
929.007	8503
929.112	8587
929.218	8549
929.323	8499
929.428	8454
929.533	8629
929.638	8438
929.743	8404
929.848	8545
929.953	8465
930.058	8358
930.163	8237
930.267	8294
930.372	8393
930.477	8168
930.581	8465
930.685	8358
930.79	8183
930.894	8218
930.998	8248
931.103	8317
931.207	8054
931.311	7887
931.415	7894
931.519	7723
931.623	7723
