Data from test_V78500241_2018.txt Node
Date: Fri Mar 25 14:47:45 CST 2022
User: usil
Spectrometer: V785-0024
Trigger mode: 0
Integration Time (sec): 4.000000E-1
Scans to average: 1
Nonlinearity correction enabled: false
Boxcar width: 0
Storing dark spectrum: false
XAxis mode: Wavelengths
Number of Pixels in Spectrum: 1024
>>>>>Begin Spectral Data<<<<<
801.071	22120
801.214	22029
801.356	21762
801.499	21698
801.641	21561
801.783	21507
801.926	21614
802.068	21348
802.211	21351
802.353	21389
802.496	21108
802.638	21104
802.78	21005
802.923	20883
803.065	20883
803.208	20758
803.35	20800
803.492	20910
803.635	20971
803.777	20826
803.919	20921
804.061	21207
804.204	20819
804.346	20834
804.488	20754
804.63	20796
804.773	20667
804.915	20857
805.057	20883
805.199	20781
805.341	20857
805.483	20883
805.626	20838
805.768	20670
805.91	20697
806.052	20667
806.194	20674
806.336	20883
806.478	20815
806.62	20701
806.762	20910
806.904	20963
807.046	21237
807.188	21039
807.33	21055
807.472	21085
807.614	21036
807.756	20982
807.898	20842
808.04	20724
808.182	20895
808.324	20929
808.465	20925
808.607	21013
808.749	20998
808.891	21287
809.033	21355
809.174	21192
809.316	21150
809.458	21100
809.6	21020
809.741	21142
809.883	21173
810.025	21287
810.166	21272
810.308	21317
810.45	21192
810.591	21123
810.733	21032
810.875	20960
811.016	20777
811.158	20663
811.299	20990
811.441	21028
811.582	20960
811.724	20990
811.865	20743
812.007	20868
812.148	20830
812.29	21028
812.431	21043
812.573	21195
812.714	21199
812.855	21344
812.997	21625
813.138	21564
813.279	21439
813.421	21382
813.562	21344
813.703	21195
813.845	20971
813.986	20834
814.127	20701
814.268	20537
814.41	20526
814.551	20499
814.692	20518
814.833	20355
814.974	20412
815.115	20423
815.256	20256
815.397	20267
815.539	20313
815.68	20134
815.821	20122
815.962	20202
816.103	20187
816.244	19982
816.385	19944
816.526	19830
816.666	19677
816.807	19483
816.948	19681
817.089	19772
817.23	19651
817.371	19632
817.512	19578
817.653	19529
817.793	19525
817.934	19590
818.075	19537
818.216	19708
818.356	19575
818.497	19346
818.638	19221
818.778	19270
818.919	19266
819.06	19312
819.2	19362
819.341	19521
819.481	19449
819.622	19567
819.762	19772
819.903	19837
820.043	19525
820.184	19655
820.324	19540
820.465	19677
820.605	19537
820.746	19544
820.886	19449
821.026	19487
821.167	19548
821.307	19628
821.447	19586
821.588	19426
821.728	19228
821.868	19110
822.008	19012
822.149	19088
822.289	18867
822.429	18631
822.569	18563
822.709	18719
822.849	18372
822.99	18407
823.13	18346
823.27	18414
823.41	18403
823.55	18121
823.69	18319
823.83	18197
823.97	18163
824.11	18064
824.25	18083
824.389	18057
824.529	18098
824.669	17942
824.809	18152
824.949	18121
825.089	18083
825.228	18003
825.368	17912
825.508	17904
825.648	17878
825.787	17764
825.927	17897
826.067	17764
826.206	17813
826.346	17882
826.485	17691
826.625	17863
826.765	17882
826.904	17859
827.044	17756
827.183	17573
827.323	17501
827.462	17543
827.601	17566
827.741	17520
827.88	17535
828.02	17372
828.159	17474
828.298	17509
828.437	17543
828.577	17474
828.716	17745
828.855	17497
828.994	17254
829.134	17280
829.273	17284
829.412	17159
829.551	17227
829.69	17147
829.829	17235
829.968	17379
830.107	17353
830.246	17269
830.385	17235
830.524	17174
830.663	17140
830.802	16980
830.941	16866
831.08	16809
831.219	16957
831.357	16923
831.496	17132
831.635	16934
831.774	16725
831.913	16630
832.051	16596
832.19	16672
832.329	16721
832.467	16774
832.606	16470
832.744	16523
832.883	16577
833.022	16493
833.16	16645
833.299	16615
833.437	16584
833.576	16637
833.714	16599
833.852	16588
833.991	16721
834.129	16691
834.267	16611
834.406	16573
834.544	16634
834.682	16577
834.821	16656
834.959	16721
835.097	16634
835.235	16641
835.373	16683
835.511	16698
835.65	16523
835.788	16497
835.926	16527
836.064	16299
836.202	16447
836.34	16588
836.478	16683
836.615	16565
836.753	16527
836.891	16611
837.029	16519
837.167	16478
837.305	16436
837.443	16398
837.58	16443
837.718	16504
837.856	16413
837.993	16341
838.131	16455
838.269	16363
838.406	16337
838.544	16310
838.681	16143
838.819	16169
838.956	15972
839.094	15979
839.231	15956
839.369	16055
839.506	16280
839.643	16246
839.781	15949
839.918	15907
840.055	16006
840.193	15930
840.33	15983
840.467	15876
840.604	15983
840.742	16200
840.879	15770
841.016	15880
841.153	15880
841.29	16067
841.427	15972
841.564	15968
841.701	16093
841.838	16025
841.975	15819
842.112	15793
842.249	15656
842.385	15705
842.522	15892
842.659	15743
842.796	15724
842.933	15641
843.069	15774
843.206	15739
843.343	15793
843.479	15766
843.616	15732
843.752	15477
843.889	15462
844.025	15747
844.162	15511
844.298	15618
844.435	15557
844.571	15477
844.708	15629
844.844	15755
844.98	15709
845.117	15701
845.253	15458
845.389	15447
845.525	15401
845.661	15542
845.798	15313
845.934	15496
846.07	15268
846.206	15408
846.342	15439
846.478	15336
846.614	15180
846.75	15066
846.886	15032
847.022	15195
847.158	15180
847.294	15051
847.429	15123
847.565	15089
847.701	15272
847.837	14960
847.972	14777
848.108	14986
848.244	14906
848.379	14621
848.515	14697
848.65	14659
848.786	14701
848.921	14678
849.057	14739
849.192	14815
849.328	14826
849.463	14743
849.598	14613
849.734	14598
849.869	14602
850.004	14530
850.14	14579
850.275	14423
850.41	14427
850.545	14454
850.68	14396
850.815	14427
850.95	14473
851.085	14560
851.22	14530
851.355	14374
851.49	14484
851.625	14457
851.76	14511
851.895	14355
852.03	14355
852.165	14404
852.299	14488
852.434	14446
852.569	14408
852.703	14454
852.838	14476
852.973	14625
853.107	14655
853.242	14454
853.376	14336
853.511	14309
853.645	14305
853.78	14351
853.914	14267
854.048	14221
854.183	14389
854.317	14313
854.451	14454
854.585	14305
854.72	14237
854.854	14355
854.988	14256
855.122	14343
855.256	14157
855.39	14290
855.524	14518
855.658	14343
855.792	14332
855.926	14301
856.06	14370
856.194	14408
856.327	14278
856.461	14294
856.595	14263
856.729	14301
856.862	14450
856.996	14294
857.13	14450
857.263	14412
857.397	14404
857.53	14278
857.664	14446
857.797	14514
857.931	14473
858.064	14396
858.197	14427
858.331	14385
858.464	14336
858.597	14153
858.731	14377
858.864	14332
858.997	14256
859.13	14370
859.263	14366
859.396	14362
859.529	14317
859.662	14358
859.795	14267
859.928	14385
860.061	14533
860.194	14571
860.327	14374
860.46	14294
860.592	14480
860.725	14450
860.858	14427
860.99	14309
861.123	14244
861.256	14290
861.388	14351
861.521	14925
861.653	14202
861.786	14142
861.918	14221
862.05	14313
862.183	14294
862.315	14286
862.447	14404
862.58	14282
862.712	14164
862.844	14065
862.976	14134
863.108	14077
863.24	14415
863.372	14065
863.504	14157
863.636	14107
863.768	14107
863.9	14103
864.032	13993
864.164	14012
864.296	14168
864.428	14126
864.559	14229
864.691	14267
864.823	14256
864.954	14119
865.086	14195
865.217	14176
865.349	13982
865.48	14103
865.612	14187
865.743	14218
865.875	14142
866.006	14027
866.137	14153
866.269	14119
866.4	14062
866.531	14123
866.662	13982
866.793	14058
866.924	14024
867.055	14145
867.186	14100
867.317	14001
867.448	13955
867.579	13986
867.71	14020
867.841	14031
867.972	14084
868.103	14062
868.233	14096
868.364	14138
868.495	14233
868.625	14309
868.756	14408
868.886	14248
869.017	14229
869.147	14431
869.278	14476
869.408	14362
869.539	14339
869.669	14431
869.799	14385
869.929	14454
870.06	14366
870.19	14625
870.32	14613
870.45	14701
870.58	14693
870.71	14929
870.84	14864
870.97	14746
871.1	14697
871.23	14868
871.36	14861
871.489	14830
871.619	14933
871.749	14902
871.879	14872
872.008	15085
872.138	14960
872.267	14952
872.397	14838
872.526	14720
872.656	14769
872.785	14823
872.915	14948
873.044	15097
873.173	14948
873.303	15058
873.432	15055
873.561	15085
873.69	15020
873.819	14933
873.948	15062
874.077	14982
874.206	14948
874.335	15036
874.464	15218
874.593	15241
874.722	15291
874.851	15332
874.979	15283
875.108	15355
875.237	15230
875.365	15165
875.494	15275
875.623	15340
875.751	15344
875.88	15393
876.008	15477
876.136	15584
876.265	15656
876.393	15876
876.521	15857
876.65	15831
876.778	15751
876.906	15648
877.034	15667
877.162	15743
877.29	15682
877.418	15663
877.546	15705
877.674	15759
877.802	15846
877.93	15762
878.058	15622
878.185	15587
878.313	15629
878.441	15717
878.568	15557
878.696	15648
878.824	15736
878.951	15789
879.079	15854
879.206	16055
879.333	15854
879.461	15785
879.588	15838
879.715	15918
879.842	15964
879.97	15800
880.097	15584
880.224	15572
880.351	15595
880.478	15538
880.605	15606
880.732	15576
880.859	15774
880.986	15648
881.112	15618
881.239	15469
881.366	15329
881.493	15336
881.619	15203
881.746	15188
881.872	15287
881.999	15222
882.125	15264
882.252	15279
882.378	15298
882.505	15329
882.631	15169
882.757	15066
882.883	15058
883.01	15043
883.136	14963
883.262	14868
883.388	14899
883.514	15009
883.64	15005
883.766	14910
883.892	14773
884.018	14826
884.143	15020
884.269	15089
884.395	14788
884.52	14724
884.646	14792
884.772	14667
884.897	14655
885.023	14689
885.148	14807
885.274	14785
885.399	14914
885.524	14777
885.65	14819
885.775	14720
885.9	14762
886.025	14849
886.15	14807
886.275	14594
886.4	14686
886.525	14811
886.65	14659
886.775	14632
886.9	14819
887.025	14979
887.149	14708
887.274	14583
887.399	14590
887.523	14495
887.648	14377
887.773	14400
887.897	14610
888.021	14636
888.146	14530
888.27	14651
888.395	14644
888.519	14606
888.643	14598
888.767	14735
888.891	14503
889.015	14355
889.139	14438
889.263	14301
889.387	14480
889.511	14602
889.635	14507
889.759	14396
889.883	14355
890.006	14495
890.13	14617
890.254	14343
890.377	14442
890.501	14240
890.624	14256
890.748	14233
890.871	14183
890.995	14081
891.118	14016
891.241	14123
891.364	14233
891.488	14214
891.611	14157
891.734	14088
891.857	14248
891.98	14115
892.103	14252
892.226	14073
892.349	14065
892.471	14031
892.594	14176
892.717	14069
892.839	14081
892.962	14161
893.085	14244
893.207	14214
893.33	13974
893.452	14092
893.575	14210
893.697	14142
893.819	14240
893.941	14347
894.064	14267
894.186	14092
894.308	14130
894.43	14225
894.552	14248
894.674	14180
894.796	14096
894.918	14206
895.04	14084
895.161	14214
895.283	14259
895.405	14229
895.526	14275
895.648	14366
895.769	14309
895.891	14396
896.012	14290
896.134	14400
896.255	14244
896.376	14324
896.498	14218
896.619	14343
896.74	14294
896.861	14332
896.982	14617
897.103	14735
897.224	14518
897.345	14484
897.466	14511
897.587	14598
897.708	14682
897.828	14587
897.949	14560
898.07	14457
898.19	14560
898.311	14701
898.431	14632
898.552	14750
898.672	14705
898.792	14731
898.913	14701
899.033	14674
899.153	14450
899.273	14419
899.393	14488
899.513	14415
899.633	14488
899.753	14564
899.873	14446
899.993	14552
900.113	14461
900.232	14484
900.352	14492
900.472	14404
900.591	14256
900.711	14434
900.83	14259
900.95	14396
901.069	14587
901.189	14317
901.308	14020
901.427	14046
901.546	13997
901.665	14062
901.784	14081
901.904	13928
902.023	13894
902.141	13658
902.26	13620
902.379	13738
902.498	13594
902.617	13597
902.735	13597
902.854	13674
902.973	13521
903.091	13430
903.21	13400
903.328	13373
903.446	13232
903.565	13266
903.683	13175
903.801	13053
903.919	13091
904.038	13145
904.156	13012
904.274	13019
904.392	12993
904.51	12985
904.627	12935
904.745	13027
904.863	13099
904.981	12787
905.098	12677
905.216	12650
905.334	12734
905.451	12734
905.569	12620
905.686	12692
905.803	12738
905.921	12486
906.038	12623
906.155	12498
906.272	12456
906.389	12448
906.506	12213
906.623	12262
906.74	12182
906.857	12129
906.974	12251
907.091	12395
907.208	12426
907.324	12304
907.441	12102
907.557	12041
907.674	12057
907.79	11999
907.907	11931
908.023	12041
908.139	12083
908.256	12007
908.372	11847
908.488	11939
908.604	11843
908.72	11729
908.836	11764
908.952	11752
909.068	11855
909.184	11927
909.3	11813
909.415	11798
909.531	11859
909.647	11649
909.762	11570
909.878	11543
909.993	11592
910.108	11589
910.224	11490
910.339	11558
910.454	11398
910.57	11334
910.685	11356
910.8	11665
910.915	11547
911.03	11452
911.145	11261
911.259	11159
911.374	11235
911.489	11136
911.604	11124
911.718	11003
911.833	11014
911.947	10873
912.062	10820
912.176	11052
912.291	11041
912.405	10999
912.519	11193
912.633	11254
912.748	11109
912.862	11041
912.976	10904
913.09	10778
913.204	10862
913.318	10828
913.431	10972
913.545	10953
913.659	10961
913.772	10889
913.886	10805
914	10763
914.113	10877
914.226	10930
914.34	10854
914.453	10691
914.566	10877
914.68	10714
914.793	10710
914.906	10508
915.019	10485
915.132	10459
915.245	10440
915.358	10538
915.47	10554
915.583	10550
915.696	10607
915.809	10706
915.921	10733
916.034	10500
916.146	10409
916.259	10462
916.371	10588
916.483	10535
916.595	10466
916.708	10478
916.82	10493
916.932	10398
917.044	10405
917.156	10447
917.268	10356
917.38	10303
917.491	10325
917.603	10249
917.715	10409
917.826	10443
917.938	10344
918.049	10322
918.161	10322
918.272	10478
918.384	10527
918.495	10360
918.606	10257
918.717	10166
918.828	10219
918.939	10249
919.05	10109
919.161	10158
919.272	10055
919.383	10097
919.494	10234
919.604	10363
919.715	10284
919.826	10188
919.936	10150
920.047	10356
920.157	10242
920.267	10470
920.378	10223
920.488	10234
920.598	10382
920.708	10649
920.818	10382
920.928	10500
921.038	10554
921.148	10512
921.258	10295
921.368	10204
921.477	10105
921.587	10173
921.697	9983
921.806	10063
921.916	9915
922.025	9751
922.134	9808
922.244	9732
922.353	9835
922.462	9694
922.571	9549
922.68	9526
922.789	9458
922.898	9526
923.007	9477
923.116	9591
923.224	9523
923.333	9466
923.442	9359
923.55	9382
923.659	9359
923.767	9488
923.876	9355
923.984	9355
924.092	9272
924.201	9382
924.309	9313
924.417	9397
924.525	9378
924.633	9348
924.741	10215
924.849	9169
924.956	9157
925.064	9104
925.172	9074
925.279	9028
925.387	9199
925.494	9154
925.602	9207
925.709	9108
925.816	9085
925.924	9184
926.031	9226
926.138	9131
926.245	9123
926.352	9074
926.459	9260
926.566	9184
926.673	9051
926.779	9077
926.886	9005
926.993	8921
927.099	8777
927.206	8861
927.312	8876
927.419	8872
927.525	8956
927.631	8941
927.737	8842
927.843	8796
927.95	8636
928.056	8640
928.162	8880
928.267	8849
928.373	9408
928.479	8948
928.585	8674
928.69	8762
928.796	8804
928.901	8670
929.007	8518
929.112	8678
929.218	8701
929.323	8571
929.428	8587
929.533	8678
929.638	8556
929.743	8549
929.848	8682
929.953	8537
930.058	8393
930.163	8332
930.267	8320
930.372	8450
930.477	8317
930.581	8644
930.685	8370
930.79	8294
930.894	8305
930.998	8347
931.103	8396
931.207	8103
931.311	8058
931.415	7959
931.519	7742
931.623	7731
