Data from test_V78500241_2534.txt Node
Date: Fri Mar 25 14:51:21 CST 2022
User: usil
Spectrometer: V785-0024
Trigger mode: 0
Integration Time (sec): 4.000000E-1
Scans to average: 1
Nonlinearity correction enabled: false
Boxcar width: 0
Storing dark spectrum: false
XAxis mode: Wavelengths
Number of Pixels in Spectrum: 1024
>>>>>Begin Spectral Data<<<<<
801.071	22135
801.214	21903
801.356	21675
801.499	21698
801.641	21496
801.783	21416
801.926	21283
802.068	21374
802.211	21393
802.353	21199
802.496	20998
802.638	20864
802.78	20933
802.923	20724
803.065	20644
803.208	20689
803.35	20746
803.492	20880
803.635	21013
803.777	20693
803.919	20769
804.061	21039
804.204	20807
804.346	20621
804.488	20693
804.63	20697
804.773	20621
804.915	20708
805.057	20762
805.199	20613
805.341	20735
805.483	20773
805.626	20705
805.768	20568
805.91	20701
806.052	20693
806.194	20564
806.336	20906
806.478	20648
806.62	20533
806.762	20705
806.904	20830
807.046	21013
807.188	21085
807.33	20948
807.472	21017
807.614	20975
807.756	21043
807.898	20796
808.04	20655
808.182	20670
808.324	20708
808.465	20739
808.607	21024
808.749	21005
808.891	21055
809.033	21161
809.174	21146
809.316	20906
809.458	21096
809.6	20979
809.741	21024
809.883	21154
810.025	21180
810.166	21131
810.308	21169
810.45	21093
810.591	20986
810.733	20887
810.875	20868
811.016	20746
811.158	20670
811.299	20891
811.441	20857
811.582	20963
811.724	20777
811.865	20754
812.007	20804
812.148	20853
812.29	20906
812.431	20918
812.573	21085
812.714	21100
812.855	21294
812.997	21382
813.138	21526
813.279	21450
813.421	21424
813.562	21218
813.703	21017
813.845	20979
813.986	20712
814.127	20473
814.268	20400
814.41	20377
814.551	20412
814.692	20400
814.833	20240
814.974	20271
815.115	20336
815.256	20206
815.397	20206
815.539	20130
815.68	20115
815.821	20008
815.962	20035
816.103	20062
816.244	19925
816.385	19693
816.526	19833
816.666	19609
816.807	19487
816.948	19525
817.089	19651
817.23	19590
817.371	19575
817.512	19411
817.653	19567
817.793	19491
817.934	19449
818.075	19472
818.216	19556
818.356	19445
818.497	19354
818.638	19152
818.778	19240
818.919	19042
819.06	19190
819.2	19407
819.341	19320
819.481	19453
819.622	19472
819.762	19578
819.903	19590
820.043	19487
820.184	19559
820.324	19514
820.465	19419
820.605	19518
820.746	19499
820.886	19350
821.026	19445
821.167	19438
821.307	19491
821.447	19362
821.588	19274
821.728	19202
821.868	18993
822.008	18856
822.149	18817
822.289	18909
822.429	18582
822.569	18612
822.709	18509
822.849	18422
822.99	18308
823.13	18304
823.27	18365
823.41	18209
823.55	18121
823.69	18296
823.83	18064
823.97	18106
824.11	17999
824.25	17942
824.389	17843
824.529	18007
824.669	18034
824.809	18019
824.949	18068
825.089	18068
825.228	17870
825.368	17798
825.508	17756
825.648	17733
825.787	17756
825.927	17783
826.067	17608
826.206	17642
826.346	17771
826.485	17642
826.625	17642
826.765	17794
826.904	17752
827.044	17471
827.183	17585
827.323	17455
827.462	17524
827.601	17448
827.741	17402
827.88	17429
828.02	17273
828.159	17402
828.298	17455
828.437	17360
828.577	17425
828.716	17558
828.855	17417
828.994	17185
829.134	17200
829.273	17231
829.412	17105
829.551	17102
829.69	17189
829.829	17159
829.968	17200
830.107	17208
830.246	17155
830.385	17155
830.524	17086
830.663	17052
830.802	16927
830.941	16698
831.08	16668
831.219	16805
831.357	16771
831.496	17079
831.635	16755
831.774	16672
831.913	16736
832.051	16558
832.19	16618
832.329	16542
832.467	16451
832.606	16447
832.744	16421
832.883	16508
833.022	16474
833.16	16523
833.299	16554
833.437	16550
833.576	16573
833.714	16474
833.852	16538
833.991	16550
834.129	16611
834.267	16535
834.406	16474
834.544	16542
834.682	16554
834.821	16523
834.959	16672
835.097	16512
835.235	16603
835.373	16428
835.511	16580
835.65	16405
835.788	16428
835.926	16291
836.064	16242
836.202	16287
836.34	16455
836.478	16500
836.615	16497
836.753	16516
836.891	16535
837.029	16447
837.167	16443
837.305	16440
837.443	16337
837.58	16322
837.718	16268
837.856	16337
837.993	16333
838.131	16287
838.269	16158
838.406	16318
838.544	16169
838.681	15911
838.819	15972
838.956	15823
839.094	15724
839.231	15941
839.369	16013
839.506	16211
839.643	16063
839.781	15907
839.918	15873
840.055	15915
840.193	15949
840.33	15774
840.467	15865
840.604	15842
840.742	16044
840.879	15717
841.016	15778
841.153	15648
841.29	15945
841.427	15888
841.564	15861
841.701	15979
841.838	15766
841.975	15785
842.112	15785
842.249	15663
842.385	15637
842.522	15751
842.659	15698
842.796	15614
842.933	15709
843.069	15686
843.206	15663
843.343	15660
843.479	15644
843.616	15622
843.752	15454
843.889	15435
844.025	15542
844.162	15401
844.298	15534
844.435	15519
844.571	15313
844.708	15393
844.844	15557
844.98	15500
845.117	15542
845.253	15370
845.389	15340
845.525	15374
845.661	15310
845.798	15207
845.934	15313
846.07	15097
846.206	15294
846.342	15416
846.478	15233
846.614	15028
846.75	14963
846.886	15024
847.022	15161
847.158	15005
847.294	15047
847.429	14998
847.565	15017
847.701	15211
847.837	14750
847.972	14689
848.108	14807
848.244	14823
848.379	14693
848.515	14663
848.65	14651
848.786	14556
848.921	14560
849.057	14716
849.192	14667
849.328	14674
849.463	14613
849.598	14571
849.734	14469
849.869	14507
850.004	14396
850.14	14469
850.275	14389
850.41	14267
850.545	14339
850.68	14374
850.815	14465
850.95	14328
851.085	14503
851.22	14503
851.355	14404
851.49	14298
851.625	14415
851.76	14377
851.895	14225
852.03	14084
852.165	14328
852.299	14438
852.434	14400
852.569	14423
852.703	14381
852.838	14412
852.973	14442
853.107	14556
853.242	14336
853.376	14298
853.511	14054
853.645	14168
853.78	14393
853.914	14191
854.048	14294
854.183	14214
854.317	14172
854.451	14385
854.585	14294
854.72	14183
854.854	14259
854.988	14221
855.122	14290
855.256	14161
855.39	14183
855.524	14324
855.658	14320
855.792	14263
855.926	14290
856.06	14389
856.194	14320
856.327	14244
856.461	14187
856.595	14218
856.729	14237
856.862	14263
856.996	14237
857.13	14332
857.263	14396
857.397	14370
857.53	14202
857.664	14320
857.797	14275
857.931	14282
858.064	14267
858.197	14358
858.331	14267
858.464	14210
858.597	14191
858.731	14183
858.864	14172
858.997	14161
859.13	14218
859.263	14259
859.396	14298
859.529	14244
859.662	14237
859.795	14233
859.928	14298
860.061	14408
860.194	14381
860.327	14271
860.46	14240
860.592	14336
860.725	14374
860.858	14389
860.99	14267
861.123	14176
861.256	14054
861.388	14187
861.521	14800
861.653	14088
861.786	14050
861.918	14153
862.05	14191
862.183	14237
862.315	14210
862.447	14309
862.58	14218
862.712	14024
862.844	13921
862.976	14081
863.108	14123
863.24	14385
863.372	13947
863.504	14001
863.636	14020
863.768	14130
863.9	14035
864.032	13944
864.164	14054
864.296	14062
864.428	14096
864.559	14107
864.691	14103
864.823	14054
864.954	14119
865.086	13974
865.217	14073
865.349	13906
865.48	13978
865.612	14130
865.743	14119
865.875	14012
866.006	13917
866.137	13989
866.269	14069
866.4	14012
866.531	13928
866.662	13917
866.793	13837
866.924	13970
867.055	14058
867.186	14046
867.317	13967
867.448	14005
867.579	13963
867.71	13963
867.841	13947
867.972	13974
868.103	13978
868.233	13993
868.364	13986
868.495	14024
868.625	14263
868.756	14419
868.886	14210
869.017	14172
869.147	14393
869.278	14339
869.408	14244
869.539	14271
869.669	14263
869.799	14290
869.929	14389
870.06	14309
870.19	14533
870.32	14530
870.45	14640
870.58	14629
870.71	14765
870.84	14845
870.97	14716
871.1	14629
871.23	14830
871.36	14849
871.489	14777
871.619	14849
871.749	14785
871.879	14872
872.008	14933
872.138	14849
872.267	14914
872.397	14724
872.526	14590
872.656	14667
872.785	14708
872.915	14826
873.044	14921
873.173	14807
873.303	14925
873.432	14944
873.561	15001
873.69	14929
873.819	14891
873.948	15100
874.077	14952
874.206	14868
874.335	14963
874.464	15100
874.593	15169
874.722	15195
874.851	15325
874.979	15367
875.108	15332
875.237	15123
875.365	15157
875.494	15245
875.623	15211
875.751	15222
875.88	15218
876.008	15344
876.136	15469
876.265	15682
876.393	15679
876.521	15747
876.65	15633
876.778	15660
876.906	15633
877.034	15610
877.162	15584
877.29	15561
877.418	15576
877.546	15644
877.674	15625
877.802	15652
877.93	15675
878.058	15606
878.185	15515
878.313	15690
878.441	15656
878.568	15542
878.696	15614
878.824	15660
878.951	15698
879.079	15835
879.206	15994
879.333	15804
879.461	15648
879.588	15736
879.715	15736
879.842	15975
879.97	15603
880.097	15462
880.224	15545
880.351	15515
880.478	15443
880.605	15443
880.732	15496
880.859	15709
880.986	15507
881.112	15454
881.239	15420
881.366	15351
881.493	15291
881.619	15024
881.746	15112
881.872	15058
881.999	15024
882.125	15097
882.252	15199
882.378	15146
882.505	15287
882.631	15062
882.757	14914
882.883	15020
883.01	14986
883.136	14979
883.262	14720
883.388	14857
883.514	14986
883.64	14979
883.766	14937
883.892	14746
884.018	14689
884.143	14956
884.269	15089
884.395	14826
884.52	14659
884.646	14655
884.772	14705
884.897	14625
885.023	14621
885.148	14739
885.274	14785
885.399	14667
885.524	14636
885.65	14663
885.775	14644
885.9	14716
886.025	14735
886.15	14750
886.275	14610
886.4	14511
886.525	14663
886.65	14621
886.775	14552
886.9	14823
887.025	14834
887.149	14590
887.274	14396
887.399	14457
887.523	14488
887.648	14358
887.773	14377
887.897	14552
888.021	14579
888.146	14389
888.27	14568
888.395	14621
888.519	14568
888.643	14514
888.767	14640
888.891	14431
889.015	14271
889.139	14408
889.263	14351
889.387	14442
889.511	14476
889.635	14446
889.759	14290
889.883	14320
890.006	14389
890.13	14518
890.254	14374
890.377	14362
890.501	14199
890.624	14172
890.748	14263
890.871	14065
890.995	14039
891.118	13997
891.241	14084
891.364	14062
891.488	14172
891.611	14081
891.734	14084
891.857	14065
891.98	14119
892.103	14103
892.226	14123
892.349	14077
892.471	13902
892.594	14043
892.717	14115
892.839	14073
892.962	14073
893.085	14115
893.207	14092
893.33	13921
893.452	13967
893.575	14240
893.697	13982
893.819	14195
893.941	14275
894.064	14244
894.186	13974
894.308	14024
894.43	14138
894.552	14275
894.674	14267
894.796	13989
894.918	14111
895.04	14138
895.161	14218
895.283	14187
895.405	14130
895.526	14134
895.648	14138
895.769	14187
895.891	14202
896.012	14271
896.134	14286
896.255	14336
896.376	14214
896.498	14221
896.619	14199
896.74	14309
896.861	14259
896.982	14533
897.103	14667
897.224	14556
897.345	14537
897.466	14427
897.587	14381
897.708	14541
897.828	14526
897.949	14412
898.07	14385
898.19	14511
898.311	14621
898.431	14571
898.552	14537
898.672	14617
898.792	14682
898.913	14579
899.033	14507
899.153	14377
899.273	14328
899.393	14438
899.513	14450
899.633	14495
899.753	14533
899.873	14400
899.993	14533
900.113	14389
900.232	14461
900.352	14400
900.472	14393
900.591	14282
900.711	14351
900.83	14248
900.95	14389
901.069	14313
901.189	14267
901.308	13978
901.427	13860
901.546	13944
901.665	14084
901.784	13955
901.904	13807
902.023	13757
902.141	13666
902.26	13563
902.379	13658
902.498	13441
902.617	13483
902.735	13533
902.854	13563
902.973	13506
903.091	13297
903.21	13297
903.328	13255
903.446	13206
903.565	13091
903.683	13168
903.801	12890
903.919	13095
904.038	13072
904.156	12966
904.274	13053
904.392	12939
904.51	12901
904.627	12928
904.745	12985
904.863	12905
904.981	12700
905.098	12642
905.216	12631
905.334	12642
905.451	12604
905.569	12597
905.686	12616
905.803	12673
905.921	12559
906.038	12585
906.155	12433
906.272	12407
906.389	12357
906.506	12228
906.623	12186
906.74	12163
906.857	12175
906.974	12182
907.091	12228
907.208	12346
907.324	12216
907.441	12247
907.557	12041
907.674	11980
907.79	11965
907.907	11931
908.023	11973
908.139	12057
908.256	11935
908.372	11931
908.488	11893
908.604	11775
908.72	11642
908.836	11745
908.952	11684
909.068	11726
909.184	11794
909.3	11748
909.415	11741
909.531	11718
909.647	11509
909.762	11516
909.878	11452
909.993	11570
910.108	11505
910.224	11406
910.339	11532
910.454	11448
910.57	11372
910.685	11337
910.8	11627
910.915	11562
911.03	11376
911.145	11132
911.259	11208
911.374	11204
911.489	11136
911.604	11124
911.718	11010
911.833	11006
911.947	10869
912.062	10858
912.176	10957
912.291	10923
912.405	11003
912.519	11094
912.633	11170
912.748	11086
912.862	11022
912.976	10858
913.09	10778
913.204	10740
913.318	10812
913.431	10881
913.545	10991
913.659	10877
913.772	10854
913.886	10641
914	10748
914.113	10782
914.226	10881
914.34	10839
914.453	10687
914.566	10793
914.68	10698
914.793	10634
914.906	10436
915.019	10519
915.132	10417
915.245	10481
915.358	10500
915.47	10504
915.583	10478
915.696	10459
915.809	10653
915.921	10626
916.034	10466
916.146	10367
916.259	10405
916.371	10542
916.483	10519
916.595	10455
916.708	10325
916.82	10382
916.932	10371
917.044	10329
917.156	10322
917.268	10291
917.38	10284
917.491	10280
917.603	10344
917.715	10382
917.826	10356
917.938	10379
918.049	10124
918.161	10253
918.272	10508
918.384	10432
918.495	10287
918.606	10177
918.717	10131
918.828	10147
918.939	10219
919.05	10116
919.161	10078
919.272	10006
919.383	10025
919.494	10234
919.604	10348
919.715	10196
919.826	10169
919.936	10112
920.047	10272
920.157	10169
920.267	10451
920.378	10150
920.488	10173
920.598	10405
920.708	10531
920.818	10356
920.928	10447
921.038	10580
921.148	10474
921.258	10207
921.368	10185
921.477	10086
921.587	9994
921.697	9964
921.806	10124
921.916	9930
922.025	9785
922.134	9751
922.244	9736
922.353	9774
922.462	9648
922.571	9553
922.68	9492
922.789	9504
922.898	9416
923.007	9412
923.116	9469
923.224	9443
923.333	9405
923.442	9351
923.55	9317
923.659	9283
923.767	9378
923.876	9298
923.984	9435
924.092	9222
924.201	9340
924.309	9367
924.417	9291
924.525	9283
924.633	9302
924.741	10215
924.849	9081
924.956	9237
925.064	9062
925.172	8982
925.279	9036
925.387	9070
925.494	9062
925.602	9329
925.709	9207
925.816	9036
925.924	9066
926.031	9154
926.138	9066
926.245	9135
926.352	9024
926.459	9180
926.566	9264
926.673	9028
926.779	8986
926.886	8948
926.993	8826
927.099	8746
927.206	8804
927.312	8788
927.419	8853
927.525	8845
927.631	8830
927.737	8701
927.843	8724
927.95	8625
928.056	8678
928.162	8720
928.267	8796
928.373	9408
928.479	8788
928.585	8610
928.69	8754
928.796	8716
928.901	8602
929.007	8545
929.112	8648
929.218	8579
929.323	8526
929.428	8518
929.533	8678
929.638	8461
929.743	8514
929.848	8545
929.953	8511
930.058	8446
930.163	8256
930.267	8343
930.372	8423
930.477	8286
930.581	8503
930.685	8377
930.79	8202
930.894	8320
930.998	8214
931.103	8389
931.207	7970
931.311	7963
931.415	7993
931.519	7761
931.623	7693
