Data from test_V78500241_3713.txt Node
Date: Fri Mar 25 14:59:34 CST 2022
User: usil
Spectrometer: V785-0024
Trigger mode: 0
Integration Time (sec): 4.000000E-1
Scans to average: 1
Nonlinearity correction enabled: false
Boxcar width: 0
Storing dark spectrum: false
XAxis mode: Wavelengths
Number of Pixels in Spectrum: 1024
>>>>>Begin Spectral Data<<<<<
801.071	21892
801.214	21781
801.356	21500
801.499	21363
801.641	21313
801.783	21116
801.926	21268
802.068	21188
802.211	21116
802.353	21089
802.496	20842
802.638	20823
802.78	20769
802.923	20705
803.065	20556
803.208	20476
803.35	20655
803.492	20648
803.635	20758
803.777	20575
803.919	20571
804.061	20887
804.204	20640
804.346	20571
804.488	20533
804.63	20640
804.773	20492
804.915	20492
805.057	20507
805.199	20404
805.341	20564
805.483	20571
805.626	20522
805.768	20377
805.91	20389
806.052	20530
806.194	20438
806.336	20609
806.478	20480
806.62	20389
806.762	20530
806.904	20762
807.046	20906
807.188	20834
807.33	20731
807.472	20899
807.614	20632
807.756	20792
807.898	20693
808.04	20560
808.182	20590
808.324	20507
808.465	20594
808.607	20842
808.749	20880
808.891	20921
809.033	21058
809.174	20883
809.316	20735
809.458	20693
809.6	20746
809.741	20975
809.883	20876
810.025	20845
810.166	21001
810.308	20944
810.45	20925
810.591	20918
810.733	20697
810.875	20575
811.016	20560
811.158	20404
811.299	20708
811.441	20712
811.582	20609
811.724	20804
811.865	20651
812.007	20533
812.148	20488
812.29	20693
812.431	20716
812.573	20845
812.714	21009
812.855	21127
812.997	21150
813.138	21344
813.279	21230
813.421	20933
813.562	21058
813.703	20777
813.845	20651
813.986	20396
814.127	20229
814.268	20221
814.41	20180
814.551	20202
814.692	20168
814.833	20084
814.974	20149
815.115	20176
815.256	20012
815.397	19970
815.539	20039
815.68	19780
815.821	19776
815.962	19902
816.103	19890
816.244	19666
816.385	19601
816.526	19533
816.666	19506
816.807	19346
816.948	19396
817.089	19392
817.23	19289
817.371	19339
817.512	19240
817.653	19133
817.793	19183
817.934	19202
818.075	19236
818.216	19274
818.356	19190
818.497	19122
818.638	18981
818.778	18928
818.919	18909
819.06	18962
819.2	19076
819.341	19148
819.481	19072
819.622	19312
819.762	19468
819.903	19384
820.043	19217
820.184	19228
820.324	19274
820.465	19343
820.605	19312
820.746	19263
820.886	19057
821.026	19228
821.167	19244
821.307	19266
821.447	19122
821.588	19088
821.728	18905
821.868	18821
822.008	18677
822.149	18677
822.289	18684
822.429	18494
822.569	18319
822.709	18342
822.849	18125
822.99	18102
823.13	18064
823.27	18144
823.41	17889
823.55	17878
823.69	17984
823.83	18034
823.97	17897
824.11	17821
824.25	17680
824.389	17741
824.529	17756
824.669	17748
824.809	17775
824.949	17851
825.089	17699
825.228	17634
825.368	17573
825.508	17562
825.648	17554
825.787	17520
825.927	17554
826.067	17501
826.206	17395
826.346	17558
826.485	17573
826.625	17532
826.765	17566
826.904	17710
827.044	17265
827.183	17143
827.323	17265
827.462	17296
827.601	17235
827.741	17250
827.88	17288
828.02	17083
828.159	17193
828.298	17315
828.437	17315
828.577	17162
828.716	17379
828.855	17181
828.994	16995
829.134	16889
829.273	16965
829.412	16915
829.551	16744
829.69	17003
829.829	16927
829.968	17143
830.107	17045
830.246	17086
830.385	16889
830.524	16786
830.663	16767
830.802	16733
830.941	16508
831.08	16558
831.219	16622
831.357	16748
831.496	16896
831.635	16653
831.774	16569
831.913	16424
832.051	16341
832.19	16398
832.329	16329
832.467	16333
832.606	16280
832.744	16348
832.883	16322
833.022	16166
833.16	16337
833.299	16306
833.437	16413
833.576	16390
833.714	16295
833.852	16402
833.991	16379
834.129	16413
834.267	16310
834.406	16341
834.544	16440
834.682	16363
834.821	16348
834.959	16580
835.097	16348
835.235	16470
835.373	16402
835.511	16432
835.65	16188
835.788	16158
835.926	16093
836.064	16051
836.202	16147
836.34	16150
836.478	16318
836.615	16158
836.753	16268
836.891	16447
837.029	16303
837.167	16265
837.305	16238
837.443	16265
837.58	16162
837.718	16223
837.856	16150
837.993	16078
838.131	16150
838.269	16112
838.406	16006
838.544	16029
838.681	15934
838.819	15835
838.956	15690
839.094	15644
839.231	15770
839.369	15827
839.506	16097
839.643	15907
839.781	15709
839.918	15660
840.055	15679
840.193	15797
840.33	15682
840.467	15842
840.604	15797
840.742	15915
840.879	15584
841.016	15595
841.153	15530
841.29	15770
841.427	15732
841.564	15720
841.701	15629
841.838	15618
841.975	15618
842.112	15576
842.249	15538
842.385	15492
842.522	15618
842.659	15492
842.796	15450
842.933	15500
843.069	15481
843.206	15492
843.343	15534
843.479	15485
843.616	15523
843.752	15214
843.889	15302
844.025	15416
844.162	15184
844.298	15336
844.435	15275
844.571	15081
844.708	15294
844.844	15393
844.98	15424
845.117	15428
845.253	15207
845.389	15207
845.525	15188
845.661	15180
845.798	15039
845.934	15161
846.07	15013
846.206	15074
846.342	15237
846.478	15028
846.614	14941
846.75	14727
846.886	14880
847.022	14921
847.158	14815
847.294	14921
847.429	14918
847.565	14796
847.701	15085
847.837	14632
847.972	14617
848.108	14655
848.244	14701
848.379	14507
848.515	14461
848.65	14454
848.786	14469
848.921	14366
849.057	14583
849.192	14465
849.328	14556
849.463	14415
849.598	14358
849.734	14313
849.869	14271
850.004	14271
850.14	14275
850.275	14164
850.41	14256
850.545	14210
850.68	14164
850.815	14161
850.95	14271
851.085	14320
851.22	14347
851.355	14229
851.49	14103
851.625	14168
851.76	14240
851.895	14100
852.03	14168
852.165	14138
852.299	14214
852.434	14275
852.569	14355
852.703	14180
852.838	14263
852.973	14347
853.107	14336
853.242	14248
853.376	14062
853.511	14046
853.645	13982
853.78	14153
853.914	14092
854.048	14126
854.183	14088
854.317	14115
854.451	14313
854.585	14020
854.72	14020
854.854	14126
854.988	14035
855.122	14039
855.256	13902
855.39	14050
855.524	14218
855.658	14210
855.792	14123
855.926	14062
856.06	14111
856.194	14145
856.327	14126
856.461	13993
856.595	14043
856.729	13986
856.862	14225
856.996	14084
857.13	14176
857.263	14301
857.397	14286
857.53	14046
857.664	14126
857.797	14092
857.931	14126
858.064	14126
858.197	14187
858.331	14065
858.464	14001
858.597	13978
858.731	13959
858.864	14020
858.997	14119
859.13	14073
859.263	14119
859.396	14073
859.529	14043
859.662	14119
859.795	14100
859.928	14001
860.061	14237
860.194	14149
860.327	14096
860.46	14100
860.592	14263
860.725	14214
860.858	14123
860.99	14062
861.123	14020
861.256	14043
861.388	14180
861.521	14750
861.653	13932
861.786	13906
861.918	13963
862.05	14027
862.183	14077
862.315	14081
862.447	14107
862.58	13959
862.712	13875
862.844	13818
862.976	13944
863.108	13928
863.24	14324
863.372	13932
863.504	13921
863.636	13959
863.768	13917
863.9	13947
864.032	13849
864.164	13837
864.296	13890
864.428	13951
864.559	14050
864.691	13967
864.823	13989
864.954	13902
865.086	13902
865.217	13955
865.349	13833
865.48	13860
865.612	13860
865.743	13989
865.875	13837
866.006	13799
866.137	13928
866.269	13784
866.4	13894
866.531	13833
866.662	13799
866.793	13875
866.924	13890
867.055	13890
867.186	13780
867.317	13757
867.448	13852
867.579	13936
867.71	13784
867.841	13780
867.972	13894
868.103	13856
868.233	13944
868.364	13894
868.495	13864
868.625	14161
868.756	14199
868.886	14081
869.017	14130
869.147	14214
869.278	14195
869.408	14096
869.539	14157
869.669	14233
869.799	14202
869.929	14218
870.06	14278
870.19	14423
870.32	14362
870.45	14446
870.58	14518
870.71	14579
870.84	14621
870.97	14469
871.1	14514
871.23	14663
871.36	14689
871.489	14594
871.619	14750
871.749	14705
871.879	14796
872.008	14842
872.138	14712
872.267	14815
872.397	14579
872.526	14556
872.656	14511
872.785	14575
872.915	14769
873.044	14807
873.173	14724
873.303	14838
873.432	14864
873.561	14956
873.69	14743
873.819	14819
873.948	14804
874.077	14731
874.206	14826
874.335	14762
874.464	15036
874.593	15024
874.722	14956
874.851	15169
874.979	15112
875.108	15138
875.237	14944
875.365	14994
875.494	15127
875.623	15142
875.751	15047
875.88	15081
876.008	15283
876.136	15275
876.265	15507
876.393	15641
876.521	15523
876.65	15538
876.778	15523
876.906	15466
877.034	15416
877.162	15572
877.29	15363
877.418	15591
877.546	15488
877.674	15500
877.802	15564
877.93	15435
878.058	15557
878.185	15481
878.313	15488
878.441	15587
878.568	15393
878.696	15424
878.824	15500
878.951	15542
879.079	15671
879.206	15804
879.333	15698
879.461	15603
879.588	15572
879.715	15698
879.842	15755
879.97	15606
880.097	15359
880.224	15416
880.351	15393
880.478	15294
880.605	15317
880.732	15351
880.859	15633
880.986	15298
881.112	15359
881.239	15207
881.366	15127
881.493	15005
881.619	15051
881.746	15047
881.872	14994
881.999	15032
882.125	15013
882.252	15009
882.378	15039
882.505	15104
882.631	14941
882.757	14861
882.883	14933
883.01	14826
883.136	14853
883.262	14720
883.388	14594
883.514	14849
883.64	14883
883.766	14720
883.892	14689
884.018	14689
884.143	14804
884.269	14925
884.395	14610
884.52	14465
884.646	14587
884.772	14503
884.897	14450
885.023	14537
885.148	14674
885.274	14708
885.399	14606
885.524	14602
885.65	14587
885.775	14621
885.9	14541
886.025	14674
886.15	14644
886.275	14446
886.4	14423
886.525	14552
886.65	14499
886.775	14419
886.9	14731
887.025	14769
887.149	14530
887.274	14351
887.399	14339
887.523	14332
887.648	14278
887.773	14267
887.897	14415
888.021	14503
888.146	14199
888.27	14503
888.395	14526
888.519	14423
888.643	14484
888.767	14454
888.891	14351
889.015	14210
889.139	14214
889.263	14290
889.387	14339
889.511	14423
889.635	14358
889.759	14199
889.883	14218
890.006	14229
890.13	14377
890.254	14183
890.377	14218
890.501	14001
890.624	14035
890.748	14103
890.871	14046
890.995	13928
891.118	13799
891.241	13917
891.364	13925
891.488	14035
891.611	13982
891.734	13909
891.857	13967
891.98	13997
892.103	14031
892.226	13947
892.349	13940
892.471	13776
892.594	13932
892.717	13928
892.839	13974
892.962	13959
893.085	14065
893.207	13879
893.33	13864
893.452	13875
893.575	14020
893.697	13932
893.819	14115
893.941	14119
894.064	14039
894.186	13982
894.308	13906
894.43	14092
894.552	14157
894.674	14062
894.796	13860
894.918	13932
895.04	13986
895.161	14054
895.283	14054
895.405	14020
895.526	14077
895.648	14092
895.769	14035
895.891	14077
896.012	14142
896.134	14161
896.255	14107
896.376	14016
896.498	14088
896.619	14218
896.74	14145
896.861	14210
896.982	14362
897.103	14587
897.224	14396
897.345	14370
897.466	14355
897.587	14412
897.708	14526
897.828	14469
897.949	14393
898.07	14164
898.19	14400
898.311	14556
898.431	14473
898.552	14541
898.672	14526
898.792	14530
898.913	14476
899.033	14427
899.153	14370
899.273	14248
899.393	14271
899.513	14317
899.633	14305
899.753	14324
899.873	14328
899.993	14377
900.113	14317
900.232	14298
900.352	14240
900.472	14324
900.591	14225
900.711	14240
900.83	14096
900.95	14324
901.069	14366
901.189	14020
901.308	13967
901.427	13826
901.546	13868
901.665	13776
901.784	13913
901.904	13746
902.023	13643
902.141	13502
902.26	13407
902.379	13491
902.498	13362
902.617	13403
902.735	13495
902.854	13403
902.973	13331
903.091	13190
903.21	13118
903.328	13149
903.446	13129
903.565	13057
903.683	13088
903.801	12886
903.919	13057
904.038	13023
904.156	12882
904.274	12878
904.392	12821
904.51	12859
904.627	12787
904.745	12840
904.863	12844
904.981	12650
905.098	12460
905.216	12563
905.334	12593
905.451	12570
905.569	12509
905.686	12513
905.803	12486
905.921	12334
906.038	12369
906.155	12384
906.272	12292
906.389	12232
906.506	12155
906.623	12121
906.74	12125
906.857	12110
906.974	11988
907.091	12251
907.208	12243
907.324	12140
907.441	12057
907.557	11832
907.674	11901
907.79	11718
907.907	11847
908.023	11863
908.139	11923
908.256	11904
908.372	11836
908.488	11745
908.604	11570
908.72	11634
908.836	11611
908.952	11600
909.068	11672
909.184	11726
909.3	11592
909.415	11718
909.531	11657
909.647	11398
909.762	11414
909.878	11376
909.993	11383
910.108	11417
910.224	11326
910.339	11383
910.454	11277
910.57	11235
910.685	11147
910.8	11433
910.915	11376
911.03	11223
911.145	11162
911.259	11029
911.374	11060
911.489	11029
911.604	10953
911.718	10839
911.833	10896
911.947	10714
912.062	10660
912.176	10771
912.291	10877
912.405	10854
912.519	11071
912.633	11025
912.748	10938
912.862	10866
912.976	10774
913.09	10656
913.204	10717
913.318	10729
913.431	10839
913.545	10866
913.659	10873
913.772	10790
913.886	10668
914	10599
914.113	10774
914.226	10748
914.34	10755
914.453	10516
914.566	10683
914.68	10588
914.793	10558
914.906	10398
915.019	10325
915.132	10379
915.245	10306
915.358	10405
915.47	10432
915.583	10398
915.696	10432
915.809	10485
915.921	10504
916.034	10318
916.146	10394
916.259	10253
916.371	10478
916.483	10360
916.595	10246
916.708	10386
916.82	10352
916.932	10257
917.044	10268
917.156	10261
917.268	10204
917.38	10246
917.491	10147
917.603	10253
917.715	10322
917.826	10314
917.938	10261
918.049	10048
918.161	10230
918.272	10363
918.384	10318
918.495	10223
918.606	10051
918.717	10063
918.828	10109
918.939	10188
919.05	9991
919.161	10105
919.272	9888
919.383	9876
919.494	10196
919.604	10272
919.715	10116
919.826	10013
919.936	10112
920.047	10223
920.157	10147
920.267	10329
920.378	10196
920.488	10063
920.598	10291
920.708	10470
920.818	10265
920.928	10348
921.038	10512
921.148	10398
921.258	10131
921.368	10002
921.477	9964
921.587	10013
921.697	9880
921.806	10036
921.916	9869
922.025	9709
922.134	9785
922.244	9622
922.353	9736
922.462	9553
922.571	9454
922.68	9382
922.789	9382
922.898	9382
923.007	9336
923.116	9389
923.224	9291
923.333	9348
923.442	9173
923.55	9195
923.659	9359
923.767	9310
923.876	9291
923.984	9302
924.092	9207
924.201	9226
924.309	9260
924.417	9283
924.525	9203
924.633	9173
924.741	10021
924.849	8963
924.956	9093
925.064	9051
925.172	8941
925.279	9024
925.387	9066
925.494	8998
925.602	9195
925.709	9123
925.816	9062
925.924	9066
926.031	9097
926.138	9043
926.245	9020
926.352	8960
926.459	9058
926.566	9169
926.673	9001
926.779	8914
926.886	8914
926.993	8834
927.099	8648
927.206	8750
927.312	8705
927.419	8792
927.525	8815
927.631	8804
927.737	8659
927.843	8625
927.95	8549
928.056	8564
928.162	8659
928.267	8727
928.373	9237
928.479	8705
928.585	8533
928.69	8610
928.796	8689
928.901	8537
929.007	8408
929.112	8560
929.218	8537
929.323	8465
929.428	8511
929.533	8579
929.638	8423
929.743	8389
929.848	8503
929.953	8400
930.058	8339
930.163	8195
930.267	8267
930.372	8385
930.477	8214
930.581	8518
930.685	8263
930.79	8210
930.894	8164
930.998	8103
931.103	8263
931.207	8008
931.311	7932
931.415	7868
931.519	7693
931.623	7662
