Data from test_V78500241_2588.txt Node
Date: Fri Mar 25 14:51:44 CST 2022
User: usil
Spectrometer: V785-0024
Trigger mode: 0
Integration Time (sec): 4.000000E-1
Scans to average: 1
Nonlinearity correction enabled: false
Boxcar width: 0
Storing dark spectrum: false
XAxis mode: Wavelengths
Number of Pixels in Spectrum: 1024
>>>>>Begin Spectral Data<<<<<
801.071	22177
801.214	21888
801.356	21610
801.499	21599
801.641	21500
801.783	21439
801.926	21492
802.068	21252
802.211	21173
802.353	21230
802.496	20963
802.638	20902
802.78	20796
802.923	20823
803.065	20617
803.208	20655
803.35	20625
803.492	20792
803.635	20792
803.777	20655
803.919	20670
804.061	20971
804.204	20731
804.346	20682
804.488	20537
804.63	20682
804.773	20537
804.915	20788
805.057	20773
805.199	20579
805.341	20644
805.483	20762
805.626	20746
805.768	20590
805.91	20621
806.052	20613
806.194	20495
806.336	20663
806.478	20587
806.62	20613
806.762	20526
806.904	20765
807.046	20948
807.188	21058
807.33	20758
807.472	20986
807.614	20921
807.756	20921
807.898	20887
808.04	20750
808.182	20640
808.324	20659
808.465	20765
808.607	20880
808.749	21066
808.891	21009
809.033	21184
809.174	21032
809.316	21036
809.458	21005
809.6	21032
809.741	21024
809.883	21032
810.025	21237
810.166	21237
810.308	21287
810.45	21028
810.591	21005
810.733	20754
810.875	20773
811.016	20651
811.158	20697
811.299	20823
811.441	20845
811.582	20731
811.724	20731
811.865	20629
812.007	20682
812.148	20693
812.29	20842
812.431	20861
812.573	21017
812.714	21077
812.855	21188
812.997	21306
813.138	21428
813.279	21397
813.421	21214
813.562	21378
813.703	21020
813.845	20880
813.986	20621
814.127	20465
814.268	20358
814.41	20317
814.551	20393
814.692	20320
814.833	20332
814.974	20199
815.115	20229
815.256	20214
815.397	20046
815.539	20282
815.68	19951
815.821	20020
815.962	19974
816.103	19978
816.244	20005
816.385	19765
816.526	19670
816.666	19643
816.807	19487
816.948	19537
817.089	19601
817.23	19415
817.371	19464
817.512	19453
817.653	19392
817.793	19358
817.934	19483
818.075	19453
818.216	19552
818.356	19422
818.497	19301
818.638	19240
818.778	19126
818.919	19133
819.06	19095
819.2	19206
819.341	19339
819.481	19278
819.622	19434
819.762	19643
819.903	19548
820.043	19506
820.184	19460
820.324	19400
820.465	19518
820.605	19270
820.746	19415
820.886	19255
821.026	19400
821.167	19407
821.307	19400
821.447	19320
821.588	19247
821.728	19053
821.868	18901
822.008	18863
822.149	18954
822.289	18768
822.429	18730
822.569	18601
822.709	18483
822.849	18327
822.99	18391
823.13	18243
823.27	18140
823.41	18152
823.55	18140
823.69	18224
823.83	18144
823.97	18140
824.11	17912
824.25	17817
824.389	17866
824.529	17920
824.669	17916
824.809	17984
824.949	18034
825.089	17828
825.228	17916
825.368	17752
825.508	17775
825.648	17726
825.787	17836
825.927	17657
826.067	17638
826.206	17691
826.346	17657
826.485	17642
826.625	17676
826.765	17824
826.904	17745
827.044	17410
827.183	17391
827.323	17296
827.462	17387
827.601	17372
827.741	17307
827.88	17505
828.02	17265
828.159	17318
828.298	17360
828.437	17467
828.577	17334
828.716	17516
828.855	17395
828.994	17166
829.134	17079
829.273	17216
829.412	17128
829.551	17048
829.69	17121
829.829	17136
829.968	17284
830.107	17159
830.246	17094
830.385	17079
830.524	16953
830.663	17018
830.802	16820
830.941	16904
831.08	16702
831.219	16843
831.357	16717
831.496	17067
831.635	16771
831.774	16645
831.913	16596
832.051	16535
832.19	16542
832.329	16588
832.467	16512
832.606	16421
832.744	16436
832.883	16375
833.022	16367
833.16	16394
833.299	16421
833.437	16516
833.576	16508
833.714	16599
833.852	16440
833.991	16508
834.129	16580
834.267	16527
834.406	16474
834.544	16622
834.682	16516
834.821	16535
834.959	16656
835.097	16497
835.235	16611
835.373	16512
835.511	16573
835.65	16386
835.788	16409
835.926	16276
836.064	16162
836.202	16169
836.34	16523
836.478	16519
836.615	16310
836.753	16459
836.891	16417
837.029	16447
837.167	16428
837.305	16268
837.443	16291
837.58	16253
837.718	16379
837.856	16314
837.993	16211
838.131	16291
838.269	16268
838.406	16284
838.544	16173
838.681	15991
838.819	15922
838.956	15907
839.094	15739
839.231	15941
839.369	15991
839.506	16253
839.643	16048
839.781	15880
839.918	15793
840.055	15888
840.193	15751
840.33	15892
840.467	15778
840.604	15797
840.742	16139
840.879	15709
841.016	15751
841.153	15751
841.29	15926
841.427	15873
841.564	15953
841.701	15945
841.838	15835
841.975	15599
842.112	15736
842.249	15663
842.385	15557
842.522	15762
842.659	15694
842.796	15587
842.933	15587
843.069	15519
843.206	15572
843.343	15690
843.479	15625
843.616	15660
843.752	15340
843.889	15370
844.025	15595
844.162	15481
844.298	15462
844.435	15435
844.571	15363
844.708	15519
844.844	15606
844.98	15542
845.117	15488
845.253	15405
845.389	15389
845.525	15359
845.661	15279
845.798	15211
845.934	15180
846.07	15268
846.206	15180
846.342	15272
846.478	15226
846.614	15119
846.75	14883
846.886	14902
847.022	14971
847.158	14975
847.294	15001
847.429	15047
847.565	15028
847.701	15283
847.837	14686
847.972	14648
848.108	14762
848.244	14758
848.379	14587
848.515	14545
848.65	14571
848.786	14499
848.921	14629
849.057	14701
849.192	14693
849.328	14610
849.463	14587
849.598	14587
849.734	14484
849.869	14450
850.004	14366
850.14	14419
850.275	14381
850.41	14324
850.545	14286
850.68	14442
850.815	14263
850.95	14336
851.085	14571
851.22	14419
851.355	14282
851.49	14339
851.625	14347
851.76	14275
851.895	14263
852.03	14210
852.165	14336
852.299	14408
852.434	14507
852.569	14282
852.703	14366
852.838	14454
852.973	14480
853.107	14457
853.242	14431
853.376	14202
853.511	14195
853.645	14126
853.78	14328
853.914	14183
854.048	14263
854.183	14263
854.317	14161
854.451	14446
854.585	14168
854.72	14229
854.854	14225
854.988	14172
855.122	14244
855.256	14081
855.39	14218
855.524	14256
855.658	14286
855.792	14229
855.926	14214
856.06	14191
856.194	14290
856.327	14199
856.461	14107
856.595	14263
856.729	14263
856.862	14237
856.996	14248
857.13	14275
857.263	14336
857.397	14347
857.53	14313
857.664	14290
857.797	14286
857.931	14412
858.064	14324
858.197	14282
858.331	14271
858.464	14233
858.597	14119
858.731	14176
858.864	14161
858.997	14145
859.13	14252
859.263	14130
859.396	14328
859.529	14119
859.662	14195
859.795	14233
859.928	14267
860.061	14377
860.194	14347
860.327	14275
860.46	14332
860.592	14305
860.725	14298
860.858	14336
860.99	14164
861.123	14187
861.256	14172
861.388	14309
861.521	14834
861.653	14123
861.786	14020
861.918	14054
862.05	14134
862.183	14259
862.315	14218
862.447	14218
862.58	14164
862.712	13989
862.844	13993
862.976	14039
863.108	14130
863.24	14469
863.372	13913
863.504	13978
863.636	13944
863.768	14016
863.9	13974
864.032	13928
864.164	13925
864.296	14142
864.428	14054
864.559	14058
864.691	14115
864.823	14096
864.954	14077
865.086	14050
865.217	14020
865.349	13928
865.48	13936
865.612	13974
865.743	14130
865.875	14012
866.006	14012
866.137	14115
866.269	13963
866.4	14027
866.531	13909
866.662	13936
866.793	13875
866.924	13959
867.055	13970
867.186	14031
867.317	13868
867.448	13860
867.579	13947
867.71	13890
867.841	13902
867.972	13989
868.103	14001
868.233	14008
868.364	13963
868.495	14134
868.625	14278
868.756	14286
868.886	14172
869.017	14199
869.147	14355
869.278	14309
869.408	14240
869.539	14317
869.669	14313
869.799	14256
869.929	14465
870.06	14408
870.19	14571
870.32	14560
870.45	14587
870.58	14663
870.71	14739
870.84	14651
870.97	14659
871.1	14735
871.23	14845
871.36	14815
871.489	14739
871.619	14769
871.749	14819
871.879	14876
872.008	15024
872.138	14800
872.267	14883
872.397	14720
872.526	14594
872.656	14720
872.785	14625
872.915	14925
873.044	14906
873.173	14941
873.303	14944
873.432	14880
873.561	14921
873.69	14826
873.819	14864
873.948	14864
874.077	14941
874.206	14868
874.335	14971
874.464	14982
874.593	15180
874.722	15062
874.851	15188
874.979	15256
875.108	15169
875.237	15165
875.365	15013
875.494	15207
875.623	15268
875.751	15184
875.88	15241
876.008	15428
876.136	15401
876.265	15625
876.393	15823
876.521	15614
876.65	15641
876.778	15637
876.906	15564
877.034	15622
877.162	15633
877.29	15568
877.418	15633
877.546	15603
877.674	15625
877.802	15690
877.93	15587
878.058	15561
878.185	15564
878.313	15629
878.441	15492
878.568	15428
878.696	15557
878.824	15587
878.951	15720
879.079	15808
879.206	16029
879.333	15698
879.461	15663
879.588	15785
879.715	15850
879.842	15888
879.97	15690
880.097	15416
880.224	15370
880.351	15530
880.478	15549
880.605	15519
880.732	15492
880.859	15648
880.986	15538
881.112	15549
881.239	15317
881.366	15272
881.493	15256
881.619	15062
881.746	15085
881.872	15089
881.999	15013
882.125	15062
882.252	15165
882.378	15135
882.505	15230
882.631	15116
882.757	14963
882.883	14998
883.01	14967
883.136	14849
883.262	14773
883.388	14819
883.514	14952
883.64	14986
883.766	14910
883.892	14727
884.018	14785
884.143	14967
884.269	15051
884.395	14708
884.52	14613
884.646	14640
884.772	14686
884.897	14579
885.023	14617
885.148	14792
885.274	14804
885.399	14727
885.524	14606
885.65	14674
885.775	14811
885.9	14651
886.025	14819
886.15	14727
886.275	14648
886.4	14522
886.525	14602
886.65	14617
886.775	14632
886.9	14762
887.025	14853
887.149	14735
887.274	14606
887.399	14473
887.523	14495
887.648	14393
887.773	14324
887.897	14594
888.021	14629
888.146	14431
888.27	14530
888.395	14689
888.519	14533
888.643	14522
888.767	14659
888.891	14423
889.015	14412
889.139	14374
889.263	14313
889.387	14408
889.511	14541
889.635	14587
889.759	14271
889.883	14275
890.006	14454
890.13	14507
890.254	14282
890.377	14332
890.501	14058
890.624	14107
890.748	14240
890.871	14058
890.995	14005
891.118	14031
891.241	14046
891.364	14123
891.488	14199
891.611	14043
891.734	14103
891.857	14164
891.98	14138
892.103	14172
892.226	14096
892.349	13993
892.471	13932
892.594	13993
892.717	14046
892.839	14035
892.962	14016
893.085	13982
893.207	14001
893.33	13951
893.452	13982
893.575	14073
893.697	14008
893.819	14248
893.941	14309
894.064	14237
894.186	14024
894.308	13970
894.43	14149
894.552	14244
894.674	14298
894.796	14073
894.918	14084
895.04	14142
895.161	14161
895.283	14210
895.405	14069
895.526	14252
895.648	14172
895.769	14183
895.891	14138
896.012	14320
896.134	14244
896.255	14206
896.376	14214
896.498	14317
896.619	14324
896.74	14229
896.861	14343
896.982	14511
897.103	14708
897.224	14655
897.345	14568
897.466	14419
897.587	14469
897.708	14617
897.828	14530
897.949	14454
898.07	14343
898.19	14507
898.311	14602
898.431	14499
898.552	14613
898.672	14575
898.792	14587
898.913	14575
899.033	14571
899.153	14484
899.273	14339
899.393	14377
899.513	14434
899.633	14377
899.753	14381
899.873	14370
899.993	14427
900.113	14358
900.232	14507
900.352	14374
900.472	14374
900.591	14294
900.711	14275
900.83	14221
900.95	14457
901.069	14355
901.189	14294
901.308	14069
901.427	13963
901.546	13917
901.665	13868
901.784	14024
901.904	13856
902.023	13696
902.141	13586
902.26	13525
902.379	13590
902.498	13510
902.617	13495
902.735	13571
902.854	13499
902.973	13457
903.091	13312
903.21	13251
903.328	13308
903.446	13179
903.565	13118
903.683	13122
903.801	13069
903.919	13091
904.038	13050
904.156	12970
904.274	13015
904.392	12909
904.51	12871
904.627	12943
904.745	13023
904.863	13008
904.981	12741
905.098	12654
905.216	12650
905.334	12646
905.451	12585
905.569	12559
905.686	12673
905.803	12589
905.921	12448
906.038	12517
906.155	12334
906.272	12334
906.389	12319
906.506	12194
906.623	12163
906.74	12254
906.857	12110
906.974	12178
907.091	12254
907.208	12376
907.324	12254
907.441	12159
907.557	11920
907.674	12011
907.79	11897
907.907	11939
908.023	11996
908.139	12003
908.256	11923
908.372	11897
908.488	11855
908.604	11741
908.72	11748
908.836	11752
908.952	11668
909.068	11729
909.184	11916
909.3	11680
909.415	11767
909.531	11760
909.647	11516
909.762	11490
909.878	11467
909.993	11497
910.108	11463
910.224	11482
910.339	11467
910.454	11345
910.57	11364
910.685	11265
910.8	11573
910.915	11509
911.03	11250
911.145	11170
911.259	11181
911.374	11185
911.489	11079
911.604	11136
911.718	10938
911.833	11067
911.947	10881
912.062	10782
912.176	10877
912.291	10911
912.405	10953
912.519	11140
912.633	11189
912.748	11083
912.862	10972
912.976	10854
913.09	10725
913.204	10805
913.318	10755
913.431	10877
913.545	10919
913.659	10987
913.772	10797
913.886	10767
914	10763
914.113	10752
914.226	10862
914.34	10839
914.453	10618
914.566	10858
914.68	10653
914.793	10641
914.906	10440
915.019	10413
915.132	10371
915.245	10379
915.358	10512
915.47	10478
915.583	10497
915.696	10443
915.809	10588
915.921	10603
916.034	10443
916.146	10276
916.259	10329
916.371	10428
916.483	10470
916.595	10352
916.708	10413
916.82	10379
916.932	10337
917.044	10329
917.156	10375
917.268	10211
917.38	10318
917.491	10234
917.603	10249
917.715	10348
917.826	10348
917.938	10261
918.049	10227
918.161	10280
918.272	10413
918.384	10402
918.495	10333
918.606	10188
918.717	10105
918.828	10097
918.939	10211
919.05	10078
919.161	10162
919.272	9987
919.383	9998
919.494	10215
919.604	10398
919.715	10219
919.826	10128
919.936	10196
920.047	10223
920.157	10219
920.267	10462
920.378	10234
920.488	10143
920.598	10360
920.708	10546
920.818	10474
920.928	10424
921.038	10577
921.148	10493
921.258	10268
921.368	10173
921.477	10032
921.587	10074
921.697	9918
921.806	10093
921.916	9956
922.025	9774
922.134	9797
922.244	9694
922.353	9759
922.462	9618
922.571	9485
922.68	9450
922.789	9473
922.898	9439
923.007	9401
923.116	9485
923.224	9507
923.333	9344
923.442	9260
923.55	9344
923.659	9268
923.767	9397
923.876	9268
923.984	9348
924.092	9253
924.201	9325
924.309	9272
924.417	9230
924.525	9195
924.633	9256
924.741	10040
924.849	9077
924.956	9321
925.064	9142
925.172	8994
925.279	9039
925.387	9165
925.494	9077
925.602	9169
925.709	9108
925.816	9066
925.924	9055
926.031	9207
926.138	9123
926.245	9142
926.352	9032
926.459	9108
926.566	9211
926.673	9074
926.779	8933
926.886	8933
926.993	8853
927.099	8834
927.206	8766
927.312	8804
927.419	8933
927.525	8804
927.631	8891
927.737	8800
927.843	8697
927.95	8598
928.056	8594
928.162	8667
928.267	8823
928.373	9431
928.479	8834
928.585	8617
928.69	8648
928.796	8800
928.901	8629
929.007	8530
929.112	8617
929.218	8587
929.323	8507
929.428	8587
929.533	8716
929.638	8530
929.743	8488
929.848	8556
929.953	8484
930.058	8461
930.163	8290
930.267	8339
930.372	8469
930.477	8279
930.581	8541
930.685	8355
930.79	8191
930.894	8259
930.998	8233
931.103	8347
931.207	8119
931.311	7997
931.415	7951
931.519	7776
931.623	7772
