Data from test_V78500241_3710.txt Node
Date: Fri Mar 25 14:59:33 CST 2022
User: usil
Spectrometer: V785-0024
Trigger mode: 0
Integration Time (sec): 4.000000E-1
Scans to average: 1
Nonlinearity correction enabled: false
Boxcar width: 0
Storing dark spectrum: false
XAxis mode: Wavelengths
Number of Pixels in Spectrum: 1024
>>>>>Begin Spectral Data<<<<<
801.071	21766
801.214	21781
801.356	21500
801.499	21420
801.641	21428
801.783	21165
801.926	21260
802.068	21157
802.211	21062
802.353	21058
802.496	20762
802.638	20746
802.78	20530
802.923	20663
803.065	20575
803.208	20579
803.35	20689
803.492	20629
803.635	20682
803.777	20606
803.919	20621
804.061	20895
804.204	20556
804.346	20556
804.488	20396
804.63	20537
804.773	20484
804.915	20450
805.057	20560
805.199	20473
805.341	20522
805.483	20686
805.626	20488
805.768	20286
805.91	20587
806.052	20587
806.194	20412
806.336	20670
806.478	20408
806.62	20404
806.762	20564
806.904	20606
807.046	20861
807.188	20796
807.33	20773
807.472	20750
807.614	20682
807.756	20727
807.898	20571
808.04	20556
808.182	20461
808.324	20549
808.465	20598
808.607	20693
808.749	20796
808.891	20887
809.033	20960
809.174	20933
809.316	20754
809.458	20941
809.6	20705
809.741	20914
809.883	20914
810.025	20979
810.166	20933
810.308	21005
810.45	20868
810.591	20872
810.733	20655
810.875	20807
811.016	20606
811.158	20469
811.299	20571
811.441	20613
811.582	20689
811.724	20564
811.865	20606
812.007	20530
812.148	20530
812.29	20587
812.431	20724
812.573	20925
812.714	20982
812.855	21043
812.997	21127
813.138	21256
813.279	21112
813.421	21024
813.562	21039
813.703	20872
813.845	20667
813.986	20427
814.127	20240
814.268	20153
814.41	20263
814.551	20096
814.692	20244
814.833	20111
814.974	20039
815.115	20100
815.256	19849
815.397	20062
815.539	20058
815.68	19906
815.821	19830
815.962	19890
816.103	19776
816.244	19666
816.385	19704
816.526	19609
816.666	19301
816.807	19304
816.948	19327
817.089	19388
817.23	19381
817.371	19247
817.512	19358
817.653	19209
817.793	19171
817.934	19255
818.075	19377
818.216	19285
818.356	19133
818.497	19084
818.638	18954
818.778	18943
818.919	18863
819.06	18897
819.2	19023
819.341	19050
819.481	19122
819.622	19171
819.762	19392
819.903	19266
820.043	19228
820.184	19293
820.324	19266
820.465	19411
820.605	19282
820.746	19255
820.886	19152
821.026	19247
821.167	19160
821.307	19122
821.447	19202
821.588	18970
821.728	18958
821.868	18817
822.008	18684
822.149	18570
822.289	18555
822.429	18414
822.569	18414
822.709	18361
822.849	18186
822.99	18216
823.13	18174
823.27	18117
823.41	17931
823.55	17889
823.69	17851
823.83	17935
823.97	17954
824.11	17729
824.25	17691
824.389	17695
824.529	17878
824.669	17779
824.809	17855
824.949	17851
825.089	17851
825.228	17798
825.368	17581
825.508	17512
825.648	17547
825.787	17535
825.927	17455
826.067	17463
826.206	17516
826.346	17459
826.485	17543
826.625	17551
826.765	17589
826.904	17577
827.044	17277
827.183	17261
827.323	17083
827.462	17170
827.601	17200
827.741	17200
827.88	17273
828.02	16980
828.159	17231
828.298	17178
828.437	17368
828.577	17170
828.716	17311
828.855	17094
828.994	16995
829.134	16980
829.273	16980
829.412	16885
829.551	16938
829.69	16942
829.829	16869
829.968	17056
830.107	16999
830.246	17037
830.385	16949
830.524	16942
830.663	16797
830.802	16771
830.941	16542
831.08	16500
831.219	16580
831.357	16664
831.496	16828
831.635	16588
831.774	16455
831.913	16508
832.051	16352
832.19	16428
832.329	16402
832.467	16242
832.606	16211
832.744	16329
832.883	16246
833.022	16257
833.16	16310
833.299	16265
833.437	16303
833.576	16280
833.714	16341
833.852	16341
833.991	16295
834.129	16386
834.267	16413
834.406	16306
834.544	16329
834.682	16371
834.821	16329
834.959	16580
835.097	16356
835.235	16405
835.373	16367
835.511	16314
835.65	16306
835.788	16226
835.926	16120
836.064	16109
836.202	16105
836.34	16211
836.478	16382
836.615	16299
836.753	16207
836.891	16337
837.029	16314
837.167	16185
837.305	16048
837.443	16090
837.58	16150
837.718	16253
837.856	16150
837.993	16051
838.131	16253
838.269	15998
838.406	16166
838.544	16017
838.681	15812
838.819	15819
838.956	15698
839.094	15705
839.231	15724
839.369	15903
839.506	16116
839.643	15930
839.781	15759
839.918	15720
840.055	15774
840.193	15660
840.33	15530
840.467	15625
840.604	15743
840.742	15812
840.879	15561
841.016	15572
841.153	15580
841.29	15816
841.427	15667
841.564	15743
841.701	15762
841.838	15534
841.975	15580
842.112	15622
842.249	15526
842.385	15519
842.522	15603
842.659	15458
842.796	15507
842.933	15424
843.069	15405
843.206	15412
843.343	15591
843.479	15534
843.616	15515
843.752	15298
843.889	15245
844.025	15466
844.162	15260
844.298	15431
844.435	15256
844.571	15268
844.708	15393
844.844	15393
844.98	15329
845.117	15401
845.253	15211
845.389	15100
845.525	15154
845.661	15249
845.798	15055
845.934	15100
846.07	15020
846.206	15161
846.342	15230
846.478	15161
846.614	14864
846.75	14849
846.886	14777
847.022	14979
847.158	14876
847.294	14834
847.429	14895
847.565	14838
847.701	15066
847.837	14568
847.972	14480
848.108	14545
848.244	14712
848.379	14431
848.515	14427
848.65	14503
848.786	14366
848.921	14465
849.057	14594
849.192	14583
849.328	14526
849.463	14499
849.598	14461
849.734	14389
849.869	14339
850.004	14248
850.14	14278
850.275	14195
850.41	14180
850.545	14103
850.68	14263
850.815	14313
850.95	14320
851.085	14393
851.22	14328
851.355	14221
851.49	14278
851.625	14218
851.76	14237
851.895	14035
852.03	14092
852.165	14225
852.299	14313
852.434	14434
852.569	14221
852.703	14328
852.838	14313
852.973	14454
853.107	14495
853.242	14168
853.376	14039
853.511	13978
853.645	14035
853.78	14412
853.914	14073
854.048	14092
854.183	14123
854.317	14191
854.451	14355
854.585	14138
854.72	14161
854.854	14172
854.988	14065
855.122	14103
855.256	13928
855.39	14142
855.524	14161
855.658	14164
855.792	14176
855.926	14210
856.06	14244
856.194	14176
856.327	14130
856.461	13978
856.595	14081
856.729	14134
856.862	14328
856.996	14142
857.13	14168
857.263	14206
857.397	14248
857.53	14096
857.664	14164
857.797	14168
857.931	14256
858.064	14180
858.197	14210
858.331	14119
858.464	14123
858.597	14024
858.731	14157
858.864	14145
858.997	14035
859.13	14084
859.263	14065
859.396	14256
859.529	14183
859.662	14096
859.795	14100
859.928	14142
860.061	14271
860.194	14252
860.327	14081
860.46	14157
860.592	14259
860.725	14240
860.858	14240
860.99	14100
861.123	14138
861.256	14088
861.388	14225
861.521	14731
861.653	13986
861.786	13932
861.918	14016
862.05	14012
862.183	14073
862.315	14103
862.447	14111
862.58	14084
862.712	13921
862.844	13947
862.976	13955
863.108	13944
863.24	14370
863.372	13913
863.504	13917
863.636	13852
863.768	13917
863.9	14005
864.032	13852
864.164	13795
864.296	14020
864.428	14069
864.559	14020
864.691	13974
864.823	13970
864.954	13951
865.086	13944
865.217	13902
865.349	13887
865.48	13837
865.612	13906
865.743	14027
865.875	13940
866.006	13913
866.137	13925
866.269	13902
866.4	13879
866.531	13894
866.662	13742
866.793	13868
866.924	13856
867.055	13894
867.186	13883
867.317	13833
867.448	13826
867.579	13917
867.71	13898
867.841	13757
867.972	13925
868.103	13940
868.233	13913
868.364	13902
868.495	13932
868.625	14103
868.756	14172
868.886	14065
869.017	14153
869.147	14248
869.278	14225
869.408	14081
869.539	14103
869.669	14202
869.799	14142
869.929	14206
870.06	14290
870.19	14427
870.32	14457
870.45	14564
870.58	14560
870.71	14651
870.84	14724
870.97	14583
871.1	14473
871.23	14697
871.36	14804
871.489	14689
871.619	14640
871.749	14670
871.879	14849
872.008	14899
872.138	14807
872.267	14861
872.397	14617
872.526	14598
872.656	14594
872.785	14610
872.915	14796
873.044	14861
873.173	14796
873.303	14853
873.432	14834
873.561	14925
873.69	14880
873.819	14788
873.948	14868
874.077	14971
874.206	14781
874.335	14872
874.464	14842
874.593	15116
874.722	14967
874.851	15180
874.979	15146
875.108	15256
875.237	15093
875.365	15131
875.494	15192
875.623	15173
875.751	15070
875.88	15211
876.008	15287
876.136	15329
876.265	15603
876.393	15625
876.521	15682
876.65	15667
876.778	15572
876.906	15564
877.034	15545
877.162	15481
877.29	15454
877.418	15500
877.546	15496
877.674	15610
877.802	15549
877.93	15580
878.058	15515
878.185	15595
878.313	15500
878.441	15481
878.568	15523
878.696	15439
878.824	15500
878.951	15622
879.079	15606
879.206	15797
879.333	15679
879.461	15481
879.588	15736
879.715	15694
879.842	15865
879.97	15622
880.097	15405
880.224	15416
880.351	15386
880.478	15397
880.605	15329
880.732	15401
880.859	15576
880.986	15401
881.112	15481
881.239	15359
881.366	15192
881.493	15005
881.619	15009
881.746	15047
881.872	15089
881.999	15043
882.125	15100
882.252	15180
882.378	15051
882.505	15268
882.631	14887
882.757	14895
882.883	14811
883.01	14986
883.136	14781
883.262	14724
883.388	14724
883.514	14872
883.64	14960
883.766	14956
883.892	14610
884.018	14682
884.143	14815
884.269	14921
884.395	14552
884.52	14545
884.646	14564
884.772	14507
884.897	14503
885.023	14613
885.148	14697
885.274	14769
885.399	14640
885.524	14617
885.65	14556
885.775	14606
885.9	14541
886.025	14655
886.15	14648
886.275	14530
886.4	14495
886.525	14446
886.65	14541
886.775	14465
886.9	14644
887.025	14781
887.149	14499
887.274	14347
887.399	14324
887.523	14343
887.648	14298
887.773	14313
887.897	14412
888.021	14518
888.146	14366
888.27	14484
888.395	14530
888.519	14454
888.643	14457
888.767	14556
888.891	14252
889.015	14298
889.139	14385
889.263	14176
889.387	14347
889.511	14511
889.635	14263
889.759	14309
889.883	14305
890.006	14339
890.13	14343
890.254	14191
890.377	14328
890.501	14149
890.624	14058
890.748	14084
890.871	14024
890.995	13845
891.118	13906
891.241	14043
891.364	13932
891.488	14062
891.611	14084
891.734	13963
891.857	14134
891.98	13932
892.103	13989
892.226	13959
892.349	13925
892.471	13871
892.594	14027
892.717	14016
892.839	13989
892.962	13864
893.085	14130
893.207	14043
893.33	13864
893.452	13963
893.575	14092
893.697	13963
893.819	14225
893.941	14225
894.064	14187
894.186	13963
894.308	13917
894.43	14153
894.552	14161
894.674	14084
894.796	13944
894.918	13967
895.04	13989
895.161	13978
895.283	14145
895.405	14016
895.526	14088
895.648	14134
895.769	14062
895.891	14153
896.012	14214
896.134	14187
896.255	14088
896.376	14115
896.498	14111
896.619	14130
896.74	14206
896.861	14259
896.982	14408
897.103	14644
897.224	14423
897.345	14427
897.466	14366
897.587	14438
897.708	14541
897.828	14427
897.949	14351
898.07	14240
898.19	14427
898.311	14590
898.431	14454
898.552	14446
898.672	14556
898.792	14484
898.913	14533
899.033	14324
899.153	14267
899.273	14275
899.393	14355
899.513	14492
899.633	14423
899.753	14450
899.873	14301
899.993	14309
900.113	14328
900.232	14431
900.352	14324
900.472	14298
900.591	14172
900.711	14221
900.83	14134
900.95	14252
901.069	14282
901.189	14187
901.308	13921
901.427	13818
901.546	13875
901.665	13883
901.784	13955
901.904	13791
902.023	13681
902.141	13487
902.26	13468
902.379	13525
902.498	13445
902.617	13445
902.735	13480
902.854	13476
902.973	13365
903.091	13175
903.21	13061
903.328	13202
903.446	13088
903.565	13000
903.683	12981
903.801	12954
903.919	12996
904.038	12954
904.156	12806
904.274	12844
904.392	12852
904.51	12738
904.627	12859
904.745	12863
904.863	12958
904.981	12570
905.098	12585
905.216	12502
905.334	12551
905.451	12563
905.569	12585
905.686	12509
905.803	12494
905.921	12350
906.038	12498
906.155	12323
906.272	12220
906.389	12235
906.506	12163
906.623	12125
906.74	12114
906.857	12053
906.974	12057
907.091	12175
907.208	12334
907.324	12205
907.441	12019
907.557	11946
907.674	11851
907.79	11790
907.907	11843
908.023	11942
908.139	11783
908.256	11824
908.372	11870
908.488	11695
908.604	11657
908.72	11608
908.836	11695
908.952	11722
909.068	11623
909.184	11741
909.3	11707
909.415	11653
909.531	11699
909.647	11387
909.762	11467
909.878	11356
909.993	11452
910.108	11364
910.224	11398
910.339	11425
910.454	11376
910.57	11273
910.685	11212
910.8	11482
910.915	11368
911.03	11265
911.145	11159
911.259	11071
911.374	11178
911.489	11037
911.604	10965
911.718	10820
911.833	10961
911.947	10812
912.062	10706
912.176	10866
912.291	10911
912.405	10900
912.519	11067
912.633	11094
912.748	10987
912.862	10862
912.976	10748
913.09	10675
913.204	10717
913.318	10721
913.431	10858
913.545	10816
913.659	10877
913.772	10774
913.886	10580
914	10630
914.113	10767
914.226	10805
914.34	10710
914.453	10546
914.566	10687
914.68	10554
914.793	10592
914.906	10440
915.019	10375
915.132	10272
915.245	10333
915.358	10459
915.47	10386
915.583	10466
915.696	10424
915.809	10561
915.921	10535
916.034	10360
916.146	10367
916.259	10211
916.371	10474
916.483	10440
916.595	10303
916.708	10310
916.82	10299
916.932	10253
917.044	10348
917.156	10375
917.268	10211
917.38	10303
917.491	10257
917.603	10306
917.715	10265
917.826	10303
917.938	10246
918.049	10143
918.161	10238
918.272	10440
918.384	10394
918.495	10238
918.606	10128
918.717	10059
918.828	10162
918.939	10093
919.05	10055
919.161	10139
919.272	9907
919.383	9972
919.494	10147
919.604	10280
919.715	10166
919.826	10128
919.936	10147
920.047	10287
920.157	10169
920.267	10352
920.378	10200
920.488	10131
920.598	10363
920.708	10500
920.818	10348
920.928	10432
921.038	10554
921.148	10421
921.258	10185
921.368	10192
921.477	10082
921.587	10063
921.697	9869
921.806	10185
921.916	9968
922.025	9774
922.134	9679
922.244	9637
922.353	9747
922.462	9641
922.571	9591
922.68	9363
922.789	9424
922.898	9435
923.007	9382
923.116	9492
923.224	9389
923.333	9378
923.442	9351
923.55	9298
923.659	9268
923.767	9351
923.876	9272
923.984	9344
924.092	9237
924.201	9294
924.309	9245
924.417	9275
924.525	9237
924.633	9245
924.741	10097
924.849	8990
924.956	9180
925.064	9093
925.172	8998
925.279	9036
925.387	9085
925.494	9127
925.602	9222
925.709	9203
925.816	9005
925.924	9055
926.031	9142
926.138	8998
926.245	9104
926.352	8906
926.459	9165
926.566	9199
926.673	9009
926.779	9001
926.886	8956
926.993	8686
927.099	8807
927.206	8693
927.312	8766
927.419	8819
927.525	8864
927.631	8807
927.737	8762
927.843	8648
927.95	8499
928.056	8674
928.162	8731
928.267	8693
928.373	9222
928.479	8769
928.585	8537
928.69	8693
928.796	8746
928.901	8655
929.007	8427
929.112	8610
929.218	8518
929.323	8507
929.428	8503
929.533	8659
929.638	8473
929.743	8457
929.848	8514
929.953	8461
930.058	8438
930.163	8294
930.267	8298
930.372	8415
930.477	8263
930.581	8511
930.685	8313
930.79	8214
930.894	8263
930.998	8202
931.103	8339
931.207	8046
931.311	7978
931.415	7936
931.519	7734
931.623	7700
