Data from test_V78500241_1108.txt Node
Date: Fri Mar 25 14:41:25 CST 2022
User: usil
Spectrometer: V785-0024
Trigger mode: 0
Integration Time (sec): 4.000000E-1
Scans to average: 1
Nonlinearity correction enabled: false
Boxcar width: 0
Storing dark spectrum: false
XAxis mode: Wavelengths
Number of Pixels in Spectrum: 1024
>>>>>Begin Spectral Data<<<<<
801.071	22698
801.214	22523
801.356	22341
801.499	22287
801.641	22074
801.783	21972
801.926	22112
802.068	21918
802.211	21956
802.353	21793
802.496	21553
802.638	21515
802.78	21561
802.923	21355
803.065	21329
803.208	21214
803.35	21507
803.492	21504
803.635	21568
803.777	21272
803.919	21481
804.061	21671
804.204	21367
804.346	21135
804.488	21195
804.63	21325
804.773	21260
804.915	21245
805.057	21340
805.199	21329
805.341	21336
805.483	21348
805.626	21355
805.768	21230
805.91	21252
806.052	21207
806.194	21146
806.336	21397
806.478	21302
806.62	21325
806.762	21378
806.904	21443
807.046	21610
807.188	21679
807.33	21694
807.472	21736
807.614	21759
807.756	21614
807.898	21504
808.04	21561
808.182	21466
808.324	21606
808.465	21572
808.607	21956
808.749	21972
808.891	22128
809.033	22181
809.174	22128
809.316	21888
809.458	21934
809.6	21804
809.741	21903
809.883	21884
810.025	22017
810.166	21911
810.308	21937
810.45	21915
810.591	21827
810.733	21595
810.875	21576
811.016	21367
811.158	21397
811.299	21378
811.441	21682
811.582	21561
811.724	21614
811.865	21439
812.007	21496
812.148	21431
812.29	21477
812.431	21713
812.573	21755
812.714	21827
812.855	21960
812.997	22055
813.138	22082
813.279	22059
813.421	21934
813.562	21774
813.703	21686
813.845	21622
813.986	21386
814.127	21306
814.268	21161
814.41	21108
814.551	21131
814.692	21074
814.833	20864
814.974	21036
815.115	21058
815.256	20823
815.397	20861
815.539	20830
815.68	20655
815.821	20739
815.962	20819
816.103	20754
816.244	20609
816.385	20461
816.526	20552
816.666	20457
816.807	20256
816.948	20248
817.089	20259
817.23	20221
817.371	20149
817.512	20221
817.653	20149
817.793	20286
817.934	20084
818.075	20145
818.216	20145
818.356	20054
818.497	20024
818.638	19860
818.778	19780
818.919	19890
819.06	19864
819.2	19986
819.341	20039
819.481	20043
819.622	20176
819.762	20332
819.903	20282
820.043	20347
820.184	20225
820.324	20214
820.465	20286
820.605	20122
820.746	20107
820.886	19986
821.026	20229
821.167	20107
821.307	20183
821.447	20107
821.588	20016
821.728	19734
821.868	19750
822.008	19533
822.149	19578
822.289	19434
822.429	19297
822.569	19320
822.709	19285
822.849	19103
822.99	18996
823.13	18947
823.27	19114
823.41	18878
823.55	18913
823.69	18886
823.83	18878
823.97	18783
824.11	18658
824.25	18684
824.389	18563
824.529	18715
824.669	18677
824.809	18665
824.949	18654
825.089	18700
825.228	18681
825.368	18479
825.508	18464
825.648	18365
825.787	18452
825.927	18445
826.067	18338
826.206	18441
826.346	18494
826.485	18365
826.625	18403
826.765	18665
826.904	18410
827.044	18190
827.183	18182
827.323	18038
827.462	18095
827.601	18083
827.741	18136
827.88	18186
828.02	18019
828.159	18057
828.298	18213
828.437	18148
828.577	18079
828.716	18243
828.855	18011
828.994	17703
829.134	17904
829.273	17786
829.412	17805
829.551	17855
829.69	17889
829.829	17779
829.968	17942
830.107	17855
830.246	17840
830.385	17836
830.524	17790
830.663	17707
830.802	17676
830.941	17501
831.08	17455
831.219	17638
831.357	17581
831.496	17657
831.635	17463
831.774	17425
831.913	17387
832.051	17212
832.19	17242
832.329	17284
832.467	17239
832.606	17067
832.744	17117
832.883	17105
833.022	17064
833.16	17193
833.299	17254
833.437	17376
833.576	17166
833.714	17212
833.852	17318
833.991	17356
834.129	17280
834.267	17315
834.406	17212
834.544	17288
834.682	17341
834.821	17197
834.959	17444
835.097	17140
835.235	17311
835.373	17227
835.511	17261
835.65	17136
835.788	17155
835.926	17029
836.064	16869
836.202	16957
836.34	17159
836.478	17200
836.615	17128
836.753	17212
836.891	17261
837.029	17174
837.167	17083
837.305	17105
837.443	17064
837.58	16908
837.718	17037
837.856	16904
837.993	16991
838.131	16980
838.269	16968
838.406	16938
838.544	16881
838.681	16755
838.819	16691
838.956	16535
839.094	16580
839.231	16649
839.369	16637
839.506	16896
839.643	16801
839.781	16596
839.918	16516
840.055	16508
840.193	16561
840.33	16542
840.467	16573
840.604	16577
840.742	16896
840.879	16421
841.016	16508
841.153	16436
841.29	16664
841.427	16687
841.564	16607
841.701	16717
841.838	16519
841.975	16599
842.112	16523
842.249	16344
842.385	16390
842.522	16554
842.659	16424
842.796	16337
842.933	16295
843.069	16196
843.206	16375
843.343	16462
843.479	16413
843.616	16348
843.752	16223
843.889	16116
844.025	16322
844.162	16204
844.298	16226
844.435	16082
844.571	16074
844.708	16181
844.844	16211
844.98	16424
845.117	16272
845.253	16234
845.389	16078
845.525	16204
845.661	16246
845.798	16276
845.934	16405
846.07	16390
846.206	16398
846.342	16504
846.478	16204
846.614	15926
846.75	15747
846.886	15743
847.022	15804
847.158	15720
847.294	15812
847.429	15720
847.565	15663
847.701	16029
847.837	15454
847.972	15348
848.108	15603
848.244	15614
848.379	15306
848.515	15363
848.65	15321
848.786	15302
848.921	15397
849.057	15408
849.192	15481
849.328	15306
849.463	15321
849.598	15272
849.734	15157
849.869	15173
850.004	15036
850.14	15131
850.275	15085
850.41	14998
850.545	14994
850.68	15058
850.815	15024
850.95	14956
851.085	15165
851.22	15104
851.355	15146
851.49	14982
851.625	15005
851.76	14994
851.895	14952
852.03	15005
852.165	14975
852.299	14952
852.434	15055
852.569	15081
852.703	15097
852.838	15100
852.973	15272
853.107	15165
853.242	15013
853.376	14925
853.511	14750
853.645	14864
853.78	15005
853.914	15001
854.048	14845
854.183	14910
854.317	14990
854.451	15028
854.585	14963
854.72	14910
854.854	15017
854.988	14853
855.122	14895
855.256	14804
855.39	14937
855.524	14941
855.658	14975
855.792	14906
855.926	14960
856.06	14895
856.194	14994
856.327	14952
856.461	14845
856.595	14857
856.729	14842
856.862	15009
856.996	14944
857.13	14990
857.263	14902
857.397	15020
857.53	14944
857.664	14952
857.797	15001
857.931	15009
858.064	14990
858.197	15062
858.331	14880
858.464	14880
858.597	14838
858.731	15039
858.864	14880
858.997	14921
859.13	14921
859.263	14887
859.396	14948
859.529	14906
859.662	14880
859.795	14823
859.928	14895
860.061	15089
860.194	15188
860.327	14876
860.46	14921
860.592	14937
860.725	15036
860.858	15028
860.99	14910
861.123	14868
861.256	14785
861.388	14975
861.521	15728
861.653	14891
861.786	14777
861.918	14834
862.05	14845
862.183	14811
862.315	14910
862.447	14895
862.58	14800
862.712	14754
862.844	14743
862.976	14720
863.108	14830
863.24	15218
863.372	14590
863.504	14644
863.636	14621
863.768	14739
863.9	14708
864.032	14560
864.164	14678
864.296	14697
864.428	14845
864.559	14842
864.691	14777
864.823	14788
864.954	14655
865.086	14762
865.217	14689
865.349	14606
865.48	14663
865.612	14678
865.743	14792
865.875	14674
866.006	14689
866.137	14682
866.269	14693
866.4	14716
866.531	14568
866.662	14625
866.793	14667
866.924	14663
867.055	14606
867.186	14617
867.317	14560
867.448	14461
867.579	14587
867.71	14488
867.841	14530
867.972	14583
868.103	14632
868.233	14587
868.364	14648
868.495	14804
868.625	14727
868.756	15017
868.886	14830
869.017	14853
869.147	15055
869.278	15024
869.408	14937
869.539	14918
869.669	14975
869.799	14933
869.929	15070
870.06	14971
870.19	15226
870.32	15195
870.45	15272
870.58	15359
870.71	15332
870.84	15477
870.97	15329
871.1	15256
871.23	15431
871.36	15492
871.489	15378
871.619	15568
871.749	15622
871.879	15534
872.008	15652
872.138	15500
872.267	15504
872.397	15363
872.526	15351
872.656	15249
872.785	15252
872.915	15580
873.044	15557
873.173	15595
873.303	15580
873.432	15599
873.561	15648
873.69	15542
873.819	15523
873.948	15606
874.077	15568
874.206	15523
874.335	15485
874.464	15835
874.593	15850
874.722	15751
874.851	15915
874.979	15880
875.108	15911
875.237	15793
875.365	15709
875.494	15831
875.623	15975
875.751	15865
875.88	15850
876.008	16002
876.136	16078
876.265	16173
876.393	16455
876.521	16462
876.65	16318
876.778	16284
876.906	16211
877.034	16314
877.162	16265
877.29	16223
877.418	16177
877.546	16299
877.674	16234
877.802	16272
877.93	16238
878.058	16150
878.185	16215
878.313	16272
878.441	16268
878.568	16150
878.696	16207
878.824	16333
878.951	16470
879.079	16584
879.206	16744
879.333	16554
879.461	16402
879.588	16504
879.715	16687
879.842	16782
879.97	16436
880.097	16200
880.224	16196
880.351	16280
880.478	16185
880.605	16116
880.732	16101
880.859	16417
880.986	16219
881.112	16135
881.239	15979
881.366	15884
881.493	15789
881.619	15842
881.746	15835
881.872	15800
881.999	15728
882.125	15899
882.252	15911
882.378	15865
882.505	16025
882.631	15751
882.757	15675
882.883	15682
883.01	15618
883.136	15534
883.262	15473
883.388	15500
883.514	15576
883.64	15656
883.766	15641
883.892	15538
884.018	15492
884.143	15591
884.269	15656
884.395	15504
884.52	15268
884.646	15275
884.772	15264
884.897	15291
885.023	15237
885.148	15382
885.274	15412
885.399	15344
885.524	15310
885.65	15329
885.775	15268
885.9	15275
886.025	15435
886.15	15382
886.275	15199
886.4	15176
886.525	15336
886.65	15268
886.775	15275
886.9	15348
887.025	15599
887.149	15355
887.274	15085
887.399	15108
887.523	15039
887.648	15036
887.773	14956
887.897	15222
888.021	15184
888.146	14960
888.27	15142
888.395	15180
888.519	15169
888.643	15146
888.767	15279
888.891	15100
889.015	15028
889.139	15028
889.263	14952
889.387	15093
889.511	15184
889.635	15066
889.759	14876
889.883	14929
890.006	14990
890.13	15058
890.254	14777
890.377	14876
890.501	14739
890.624	14697
890.748	14823
890.871	14648
890.995	14598
891.118	14549
891.241	14701
891.364	14632
891.488	14750
891.611	14648
891.734	14655
891.857	14819
891.98	14670
892.103	14762
892.226	14705
892.349	14590
892.471	14514
892.594	14670
892.717	14708
892.839	14602
892.962	14610
893.085	14621
893.207	14674
893.33	14583
893.452	14541
893.575	14701
893.697	14568
893.819	14830
893.941	14906
894.064	14842
894.186	14632
894.308	14587
894.43	14629
894.552	14838
894.674	14678
894.796	14682
894.918	14625
895.04	14651
895.161	14762
895.283	14705
895.405	14644
895.526	14701
895.648	14686
895.769	14731
895.891	14804
896.012	14872
896.134	14773
896.255	14781
896.376	14743
896.498	14853
896.619	14842
896.74	14811
896.861	14830
896.982	15085
897.103	15241
897.224	15097
897.345	15062
897.466	14952
897.587	15108
897.708	15222
897.828	15062
897.949	14925
898.07	15028
898.19	15047
898.311	15165
898.431	15062
898.552	15047
898.672	15157
898.792	15264
898.913	15192
899.033	14998
899.153	14921
899.273	14880
899.393	14975
899.513	14914
899.633	14941
899.753	15009
899.873	14925
899.993	15028
900.113	14986
900.232	14994
900.352	14933
900.472	14861
900.591	14739
900.711	14868
900.83	14739
900.95	14899
901.069	14990
901.189	14765
901.308	14545
901.427	14537
901.546	14507
901.665	14533
901.784	14457
901.904	14324
902.023	14339
902.141	14157
902.26	14081
902.379	14103
902.498	14035
902.617	14020
902.735	14111
902.854	14073
902.973	14008
903.091	13841
903.21	13795
903.328	13841
903.446	13708
903.565	13616
903.683	13518
903.801	13594
903.919	13578
904.038	13544
904.156	13422
904.274	13441
904.392	13403
904.51	13354
904.627	13354
904.745	13457
904.863	13411
904.981	13244
905.098	13050
905.216	13171
905.334	13110
905.451	13141
905.569	13080
905.686	13209
905.803	13156
905.921	12943
906.038	13038
906.155	12875
906.272	12681
906.389	12825
906.506	12681
906.623	12669
906.74	12665
906.857	12620
906.974	12612
907.091	12779
907.208	12856
907.324	12703
907.441	12612
907.557	12559
907.674	12422
907.79	12414
907.907	12407
908.023	12403
908.139	12426
908.256	12441
908.372	12361
908.488	12319
908.604	12148
908.72	12095
908.836	12182
908.952	12148
909.068	12163
909.184	12308
909.3	12121
909.415	12319
909.531	12182
909.647	11935
909.762	11992
909.878	11942
909.993	11885
910.108	11916
910.224	11999
910.339	11954
910.454	11874
910.57	11855
910.685	11657
910.8	12083
910.915	11954
911.03	11805
911.145	11665
911.259	11581
911.374	11596
911.489	11642
911.604	11543
911.718	11425
911.833	11425
911.947	11315
912.062	11166
912.176	11383
912.291	11307
912.405	11406
912.519	11615
912.633	11630
912.748	11455
912.862	11349
912.976	11273
913.09	11185
913.204	11193
913.318	11216
913.431	11406
913.545	11353
913.659	11376
913.772	11269
913.886	11284
914	11128
914.113	11315
914.226	11292
914.34	11235
914.453	11064
914.566	11231
914.68	11124
914.793	11018
914.906	10923
915.019	10847
915.132	10828
915.245	10873
915.358	10961
915.47	10892
915.583	10976
915.696	10984
915.809	11029
915.921	11162
916.034	10965
916.146	10850
916.259	10816
916.371	10968
916.483	10873
916.595	10767
916.708	10881
916.82	10896
916.932	10885
917.044	10774
917.156	10755
917.268	10641
917.38	10656
917.491	10763
917.603	10702
917.715	10755
917.826	10824
917.938	10733
918.049	10634
918.161	10759
918.272	10831
918.384	10847
918.495	10793
918.606	10672
918.717	10527
918.828	10637
918.939	10653
919.05	10466
919.161	10603
919.272	10405
919.383	10493
919.494	10664
919.604	10850
919.715	10546
919.826	10569
919.936	10611
920.047	10668
920.157	10607
920.267	10831
920.378	10637
920.488	10592
920.598	10759
920.708	11006
920.818	10809
920.928	10828
921.038	11045
921.148	10961
921.258	10641
921.368	10519
921.477	10466
921.587	10451
921.697	10421
921.806	10470
921.916	10318
922.025	10166
922.134	10135
922.244	10071
922.353	10223
922.462	10074
922.571	9953
922.68	9831
922.789	9819
922.898	9880
923.007	9751
923.116	9812
923.224	9823
923.333	9819
923.442	9793
923.55	9713
923.659	9781
923.767	9755
923.876	9663
923.984	9797
924.092	9644
924.201	9656
924.309	9675
924.417	9713
924.525	9724
924.633	9709
924.741	10527
924.849	9450
924.956	9698
925.064	9469
925.172	9416
925.279	9428
925.387	9454
925.494	9526
925.602	9679
925.709	9625
925.816	9408
925.924	9511
926.031	9599
926.138	9431
926.245	9523
926.352	9386
926.459	9568
926.566	9587
926.673	9443
926.779	9253
926.886	9374
926.993	9154
927.099	9161
927.206	9176
927.312	9097
927.419	9199
927.525	9142
927.631	9253
927.737	9146
927.843	9066
927.95	8971
928.056	9070
928.162	9043
928.267	9195
928.373	9743
928.479	9097
928.585	8925
928.69	8990
928.796	9043
928.901	9005
929.007	8868
929.112	8982
929.218	8986
929.323	8872
929.428	8948
929.533	9005
929.638	8834
929.743	8823
929.848	8925
929.953	8899
930.058	8712
930.163	8629
930.267	8613
930.372	8788
930.477	8674
930.581	8864
930.685	8689
930.79	8568
930.894	8617
930.998	8598
931.103	8678
931.207	8419
931.311	8309
931.415	8279
931.519	8084
931.623	8073
