Data from test_V78500241_2846.txt Node
Date: Fri Mar 25 14:53:31 CST 2022
User: usil
Spectrometer: V785-0024
Trigger mode: 0
Integration Time (sec): 4.000000E-1
Scans to average: 1
Nonlinearity correction enabled: false
Boxcar width: 0
Storing dark spectrum: false
XAxis mode: Wavelengths
Number of Pixels in Spectrum: 1024
>>>>>Begin Spectral Data<<<<<
801.071	22067
801.214	21850
801.356	21679
801.499	21682
801.641	21405
801.783	21469
801.926	21473
802.068	21359
802.211	21279
802.353	21150
802.496	21001
802.638	20887
802.78	20857
802.923	20758
803.065	20708
803.208	20686
803.35	20651
803.492	20971
803.635	20804
803.777	20800
803.919	20838
804.061	21085
804.204	20807
804.346	20613
804.488	20575
804.63	20743
804.773	20571
804.915	20678
805.057	20750
805.199	20731
805.341	20667
805.483	20773
805.626	20667
805.768	20640
805.91	20598
806.052	20781
806.194	20507
806.336	20743
806.478	20590
806.62	20602
806.762	20705
806.904	20868
807.046	21036
807.188	20941
807.33	21058
807.472	20990
807.614	21028
807.756	20975
807.898	20838
808.04	20716
808.182	20606
808.324	20785
808.465	20735
808.607	20944
808.749	21032
808.891	21093
809.033	21241
809.174	21165
809.316	20830
809.458	21058
809.6	20967
809.741	21131
809.883	21055
810.025	21291
810.166	21245
810.308	21112
810.45	21226
810.591	21188
810.733	20754
810.875	20868
811.016	20594
811.158	20743
811.299	20708
811.441	20994
811.582	20921
811.724	20823
811.865	20629
812.007	20910
812.148	20697
812.29	20686
812.431	20952
812.573	21070
812.714	21241
812.855	21408
812.997	21405
813.138	21545
813.279	21412
813.421	21336
813.562	21302
813.703	21127
813.845	20880
813.986	20651
814.127	20469
814.268	20434
814.41	20480
814.551	20305
814.692	20408
814.833	20396
814.974	20366
815.115	20351
815.256	20381
815.397	20282
815.539	20187
815.68	20058
815.821	19947
815.962	20039
816.103	20027
816.244	19970
816.385	19818
816.526	19723
816.666	19605
816.807	19525
816.948	19666
817.089	19662
817.23	19628
817.371	19483
817.512	19544
817.653	19396
817.793	19331
817.934	19559
818.075	19396
818.216	19529
818.356	19495
818.497	19388
818.638	19148
818.778	19118
818.919	19179
819.06	19198
819.2	19316
819.341	19259
819.481	19384
819.622	19624
819.762	19639
819.903	19609
820.043	19567
820.184	19506
820.324	19510
820.465	19647
820.605	19468
820.746	19411
820.886	19297
821.026	19468
821.167	19502
821.307	19472
821.447	19384
821.588	19304
821.728	19160
821.868	19080
822.008	18962
822.149	18859
822.289	18848
822.429	18570
822.569	18585
822.709	18437
822.849	18372
822.99	18498
823.13	18323
823.27	18380
823.41	18216
823.55	18121
823.69	18174
823.83	18254
823.97	18144
824.11	17969
824.25	17980
824.389	17965
824.529	18068
824.669	17965
824.809	18030
824.949	17969
825.089	18102
825.228	17942
825.368	17897
825.508	17608
825.648	17760
825.787	17687
825.927	17661
826.067	17707
826.206	17634
826.346	17665
826.485	17714
826.625	17703
826.765	17836
826.904	17764
827.044	17539
827.183	17459
827.323	17410
827.462	17448
827.601	17406
827.741	17395
827.88	17421
828.02	17277
828.159	17391
828.298	17414
828.437	17471
828.577	17296
828.716	17524
828.855	17379
828.994	17227
829.134	17216
829.273	17250
829.412	17136
829.551	17060
829.69	17136
829.829	17299
829.968	17273
830.107	17200
830.246	17170
830.385	17208
830.524	17052
830.663	16896
830.802	16873
830.941	16877
831.08	16725
831.219	16782
831.357	16729
831.496	16949
831.635	16679
831.774	16584
831.913	16656
832.051	16554
832.19	16542
832.329	16561
832.467	16489
832.606	16360
832.744	16497
832.883	16542
833.022	16436
833.16	16508
833.299	16504
833.437	16523
833.576	16656
833.714	16485
833.852	16508
833.991	16637
834.129	16611
834.267	16489
834.406	16554
834.544	16508
834.682	16466
834.821	16611
834.959	16558
835.097	16432
835.235	16561
835.373	16580
835.511	16573
835.65	16417
835.788	16493
835.926	16268
836.064	16276
836.202	16204
836.34	16497
836.478	16630
836.615	16413
836.753	16382
836.891	16512
837.029	16512
837.167	16459
837.305	16337
837.443	16306
837.58	16371
837.718	16325
837.856	16268
837.993	16322
838.131	16363
838.269	16207
838.406	16303
838.544	16169
838.681	15926
838.819	16051
838.956	15774
839.094	15960
839.231	16048
839.369	16021
839.506	16272
839.643	16086
839.781	15880
839.918	15717
840.055	15823
840.193	15850
840.33	15854
840.467	15854
840.604	15880
840.742	16048
840.879	15614
841.016	15827
841.153	15823
841.29	15975
841.427	15876
841.564	15846
841.701	15911
841.838	15800
841.975	15797
842.112	15751
842.249	15606
842.385	15599
842.522	15728
842.659	15751
842.796	15530
842.933	15637
843.069	15542
843.206	15496
843.343	15709
843.479	15530
843.616	15709
843.752	15435
843.889	15397
844.025	15545
844.162	15462
844.298	15625
844.435	15435
844.571	15447
844.708	15549
844.844	15599
844.98	15656
845.117	15466
845.253	15363
845.389	15310
845.525	15378
845.661	15310
845.798	15150
845.934	15252
846.07	15150
846.206	15275
846.342	15332
846.478	15256
846.614	14975
846.75	14921
846.886	14868
847.022	15123
847.158	14914
847.294	15017
847.429	15020
847.565	15020
847.701	15249
847.837	14716
847.972	14625
848.108	14891
848.244	14845
848.379	14575
848.515	14560
848.65	14640
848.786	14579
848.921	14575
849.057	14686
849.192	14674
849.328	14648
849.463	14537
849.598	14583
849.734	14533
849.869	14400
850.004	14408
850.14	14404
850.275	14358
850.41	14305
850.545	14336
850.68	14404
850.815	14381
850.95	14298
851.085	14484
851.22	14457
851.355	14347
851.49	14282
851.625	14301
851.76	14415
851.895	14275
852.03	14248
852.165	14324
852.299	14355
852.434	14434
852.569	14343
852.703	14343
852.838	14457
852.973	14552
853.107	14450
853.242	14408
853.376	14172
853.511	14069
853.645	14149
853.78	14240
853.914	14221
854.048	14119
854.183	14199
854.317	14191
854.451	14431
854.585	14221
854.72	14145
854.854	14202
854.988	14130
855.122	14252
855.256	14050
855.39	14298
855.524	14362
855.658	14221
855.792	14233
855.926	14183
856.06	14358
856.194	14366
856.327	14210
856.461	14123
856.595	14168
856.729	14248
856.862	14301
856.996	14263
857.13	14237
857.263	14267
857.397	14358
857.53	14172
857.664	14286
857.797	14244
857.931	14294
858.064	14294
858.197	14393
858.331	14191
858.464	14180
858.597	14161
858.731	14206
858.864	14244
858.997	14123
859.13	14282
859.263	14309
859.396	14282
859.529	14199
859.662	14210
859.795	14096
859.928	14229
860.061	14351
860.194	14358
860.327	14244
860.46	14225
860.592	14298
860.725	14408
860.858	14294
860.99	14237
861.123	14172
861.256	14134
861.388	14218
861.521	14788
861.653	14107
861.786	14073
861.918	14126
862.05	14069
862.183	14180
862.315	14142
862.447	14339
862.58	14195
862.712	14050
862.844	13970
862.976	14092
863.108	13997
863.24	14465
863.372	14081
863.504	13970
863.636	14027
863.768	14084
863.9	14046
864.032	14012
864.164	14069
864.296	13963
864.428	14149
864.559	14206
864.691	14058
864.823	14062
864.954	13982
865.086	14027
865.217	14001
865.349	13879
865.48	14005
865.612	14077
865.743	14164
865.875	14005
866.006	14001
866.137	14050
866.269	14008
866.4	14001
866.531	14001
866.662	13955
866.793	13947
866.924	13978
867.055	14012
867.186	13974
867.317	13890
867.448	13902
867.579	13818
867.71	13947
867.841	13932
867.972	14005
868.103	13947
868.233	13894
868.364	14050
868.495	13989
868.625	14278
868.756	14320
868.886	14183
869.017	14153
869.147	14332
869.278	14229
869.408	14237
869.539	14248
869.669	14313
869.799	14294
869.929	14339
870.06	14343
870.19	14556
870.32	14530
870.45	14533
870.58	14602
870.71	14705
870.84	14762
870.97	14587
871.1	14613
871.23	14792
871.36	14864
871.489	14758
871.619	14842
871.749	14773
871.879	14838
872.008	14929
872.138	14902
872.267	14773
872.397	14765
872.526	14613
872.656	14617
872.785	14727
872.915	14861
873.044	14887
873.173	14861
873.303	14891
873.432	14971
873.561	14963
873.69	14902
873.819	14842
873.948	14960
874.077	14899
874.206	14849
874.335	14872
874.464	15074
874.593	15245
874.722	15135
874.851	15214
874.979	15252
875.108	15233
875.237	15131
875.365	15154
875.494	15195
875.623	15154
875.751	15184
875.88	15287
876.008	15294
876.136	15408
876.265	15641
876.393	15736
876.521	15751
876.65	15675
876.778	15713
876.906	15545
877.034	15561
877.162	15587
877.29	15587
877.418	15686
877.546	15553
877.674	15606
877.802	15618
877.93	15564
878.058	15462
878.185	15523
878.313	15587
878.441	15584
878.568	15477
878.696	15644
878.824	15675
878.951	15660
879.079	15755
879.206	15983
879.333	15739
879.461	15728
879.588	15679
879.715	15747
879.842	15915
879.97	15690
880.097	15431
880.224	15416
880.351	15515
880.478	15530
880.605	15378
880.732	15424
880.859	15644
880.986	15435
881.112	15580
881.239	15344
881.366	15279
881.493	15222
881.619	15131
881.746	15222
881.872	15195
881.999	15112
882.125	15112
882.252	15199
882.378	15260
882.505	15306
882.631	15020
882.757	14933
882.883	15017
883.01	14952
883.136	14944
883.262	14861
883.388	14788
883.514	14975
883.64	15009
883.766	14883
883.892	14739
884.018	14838
884.143	14899
884.269	15043
884.395	14727
884.52	14575
884.646	14705
884.772	14670
884.897	14518
885.023	14746
885.148	14743
885.274	14872
885.399	14754
885.524	14712
885.65	14686
885.775	14651
885.9	14701
886.025	14804
886.15	14811
886.275	14598
886.4	14632
886.525	14632
886.65	14579
886.775	14503
886.9	14727
887.025	14990
887.149	14651
887.274	14495
887.399	14469
887.523	14484
887.648	14507
887.773	14511
887.897	14602
888.021	14556
888.146	14511
888.27	14610
888.395	14682
888.519	14537
888.643	14549
888.767	14495
888.891	14438
889.015	14347
889.139	14332
889.263	14389
889.387	14446
889.511	14560
889.635	14389
889.759	14377
889.883	14351
890.006	14374
890.13	14419
890.254	14263
890.377	14282
890.501	14225
890.624	14134
890.748	14263
890.871	14084
890.995	14008
891.118	13967
891.241	14058
891.364	14145
891.488	14142
891.611	13970
891.734	14123
891.857	14153
891.98	14180
892.103	14123
892.226	14119
892.349	14088
892.471	13959
892.594	14096
892.717	14081
892.839	14043
892.962	14107
893.085	14039
893.207	14096
893.33	13940
893.452	13997
893.575	14100
893.697	14054
893.819	14301
893.941	14336
894.064	14126
894.186	14035
894.308	14027
894.43	14221
894.552	14206
894.674	14237
894.796	14035
894.918	14142
895.04	14111
895.161	14142
895.283	14187
895.405	14138
895.526	14069
895.648	14077
895.769	14202
895.891	14240
896.012	14294
896.134	14275
896.255	14229
896.376	14267
896.498	14218
896.619	14271
896.74	14191
896.861	14305
896.982	14590
897.103	14621
897.224	14507
897.345	14511
897.466	14450
897.587	14457
897.708	14629
897.828	14511
897.949	14503
898.07	14343
898.19	14488
898.311	14632
898.431	14484
898.552	14564
898.672	14651
898.792	14693
898.913	14606
899.033	14461
899.153	14408
899.273	14332
899.393	14545
899.513	14427
899.633	14480
899.753	14530
899.873	14381
899.993	14480
900.113	14358
900.232	14438
900.352	14396
900.472	14476
900.591	14282
900.711	14419
900.83	14343
900.95	14461
901.069	14423
901.189	14263
901.308	13993
901.427	13932
901.546	13909
901.665	13925
901.784	13955
901.904	13883
902.023	13715
902.141	13578
902.26	13628
902.379	13624
902.498	13499
902.617	13499
902.735	13597
902.854	13502
902.973	13514
903.091	13266
903.21	13270
903.328	13335
903.446	13194
903.565	13118
903.683	13175
903.801	13069
903.919	13107
904.038	13072
904.156	12958
904.274	12928
904.392	12951
904.51	12928
904.627	12958
904.745	12951
904.863	12913
904.981	12654
905.098	12673
905.216	12635
905.334	12719
905.451	12639
905.569	12646
905.686	12662
905.803	12711
905.921	12490
906.038	12563
906.155	12437
906.272	12323
906.389	12289
906.506	12273
906.623	12159
906.74	12201
906.857	12114
906.974	12133
907.091	12281
907.208	12338
907.324	12213
907.441	12175
907.557	12049
907.674	11992
907.79	11927
907.907	11973
908.023	12003
908.139	11973
908.256	11946
908.372	11958
908.488	11920
908.604	11832
908.72	11672
908.836	11729
908.952	11707
909.068	11752
909.184	11836
909.3	11710
909.415	11752
909.531	11737
909.647	11589
909.762	11490
909.878	11463
909.993	11505
910.108	11482
910.224	11562
910.339	11452
910.454	11429
910.57	11368
910.685	11242
910.8	11558
910.915	11497
911.03	11444
911.145	11265
911.259	11212
911.374	11277
911.489	11071
911.604	11052
911.718	10866
911.833	11022
911.947	10820
912.062	10831
912.176	11003
912.291	10938
912.405	10968
912.519	11185
912.633	11201
912.748	11037
912.862	10965
912.976	10869
913.09	10687
913.204	10771
913.318	10854
913.431	10919
913.545	10972
913.659	10968
913.772	10843
913.886	10656
914	10668
914.113	10763
914.226	10820
914.34	10801
914.453	10793
914.566	10778
914.68	10672
914.793	10641
914.906	10459
915.019	10398
915.132	10462
915.245	10375
915.358	10554
915.47	10493
915.583	10508
915.696	10599
915.809	10565
915.921	10542
916.034	10443
916.146	10371
916.259	10360
916.371	10455
916.483	10451
916.595	10360
916.708	10394
916.82	10382
916.932	10379
917.044	10402
917.156	10329
917.268	10333
917.38	10375
917.491	10310
917.603	10310
917.715	10318
917.826	10341
917.938	10249
918.049	10188
918.161	10375
918.272	10394
918.384	10402
918.495	10356
918.606	10276
918.717	10090
918.828	10124
918.939	10196
919.05	10158
919.161	10204
919.272	9926
919.383	10067
919.494	10230
919.604	10299
919.715	10246
919.826	10109
919.936	10090
920.047	10261
920.157	10162
920.267	10394
920.378	10272
920.488	10185
920.598	10443
920.708	10516
920.818	10428
920.928	10352
921.038	10626
921.148	10554
921.258	10265
921.368	10211
921.477	10116
921.587	10040
921.697	9941
921.806	10097
921.916	9880
922.025	9778
922.134	9705
922.244	9751
922.353	9804
922.462	9660
922.571	9599
922.68	9477
922.789	9473
922.898	9424
923.007	9458
923.116	9515
923.224	9511
923.333	9431
923.442	9332
923.55	9287
923.659	9359
923.767	9397
923.876	9344
923.984	9401
924.092	9294
924.201	9340
924.309	9332
924.417	9397
924.525	9317
924.633	9272
924.741	10261
924.849	9097
924.956	9150
925.064	9135
925.172	9043
925.279	9047
925.387	9135
925.494	9085
925.602	9131
925.709	9199
925.816	9119
925.924	9100
926.031	9142
926.138	9123
926.245	9138
926.352	9070
926.459	9150
926.566	9222
926.673	9074
926.779	8979
926.886	8979
926.993	8842
927.099	8842
927.206	8838
927.312	8769
927.419	8899
927.525	8914
927.631	8830
927.737	8750
927.843	8705
927.95	8617
928.056	8697
928.162	8697
928.267	8754
928.373	9329
928.479	8804
928.585	8587
928.69	8720
928.796	8762
928.901	8571
929.007	8469
929.112	8667
929.218	8644
929.323	8621
929.428	8469
929.533	8644
929.638	8518
929.743	8530
929.848	8556
929.953	8499
930.058	8450
930.163	8313
930.267	8343
930.372	8522
930.477	8252
930.581	8514
930.685	8404
930.79	8218
930.894	8347
930.998	8221
931.103	8351
931.207	8016
931.311	7963
931.415	7974
931.519	7715
931.623	7738
