Data from test_V78500241_704.txt Node
Date: Fri Mar 25 14:38:37 CST 2022
User: usil
Spectrometer: V785-0024
Trigger mode: 0
Integration Time (sec): 4.000000E-1
Scans to average: 1
Nonlinearity correction enabled: false
Boxcar width: 0
Storing dark spectrum: false
XAxis mode: Wavelengths
Number of Pixels in Spectrum: 1024
>>>>>Begin Spectral Data<<<<<
801.071	27747
801.214	27732
801.356	27462
801.499	27291
801.641	27306
801.783	27203
801.926	27188
802.068	27077
802.211	26902
802.353	26796
802.496	26625
802.638	26716
802.78	26724
802.923	26693
803.065	26461
803.208	26640
803.35	26625
803.492	26739
803.635	26788
803.777	26724
803.919	26743
804.061	27024
804.204	26914
804.346	26853
804.488	26811
804.63	26925
804.773	26906
804.915	27047
805.057	27157
805.199	26975
805.341	27188
805.483	27389
805.626	27279
805.768	27367
805.91	27576
806.052	27663
806.194	27774
806.336	28169
806.478	28120
806.62	28295
806.762	28577
806.904	28888
807.046	29497
807.188	29950
807.33	30182
807.472	30833
807.614	31518
807.756	32396
807.898	33405
808.04	35200
808.182	36992
808.324	39671
808.465	42635
808.607	45907
808.749	48776
808.891	50796
809.033	50705
809.174	49323
809.316	46405
809.458	42867
809.6	39427
809.741	36464
809.883	34424
810.025	33051
810.166	31947
810.308	31084
810.45	30505
810.591	30087
810.733	29372
810.875	28976
811.016	28660
811.158	28417
811.299	28360
811.441	28333
811.582	28192
811.724	27812
811.865	27720
812.007	27629
812.148	27667
812.29	27667
812.431	27648
812.573	27739
812.714	27526
812.855	27842
812.997	27717
813.138	27930
813.279	27728
813.421	27667
813.562	27488
813.703	27351
813.845	27104
813.986	26861
814.127	26655
814.268	26541
814.41	26381
814.551	26499
814.692	26457
814.833	26286
814.974	26267
815.115	26202
815.256	26240
815.397	26157
815.539	26278
815.68	26069
815.821	25841
815.962	25997
816.103	25909
816.244	25746
816.385	25712
816.526	25613
816.666	25502
816.807	25346
816.948	25308
817.089	25335
817.23	25324
817.371	25171
817.512	25164
817.653	25190
817.793	25194
817.934	25080
818.075	25114
818.216	25156
818.356	24996
818.497	24966
818.638	24791
818.778	24833
818.919	24859
819.06	24734
819.2	25000
819.341	24905
819.481	25091
819.622	25247
819.762	25251
819.903	25232
820.043	25076
820.184	25137
820.324	25080
820.465	25019
820.605	24947
820.746	25091
820.886	24753
821.026	24897
821.167	24905
821.307	25000
821.447	24894
821.588	24559
821.728	24494
821.868	24445
822.008	24334
822.149	24243
822.289	24205
822.429	23935
822.569	23920
822.709	23794
822.849	23691
822.99	23790
823.13	23657
823.27	23562
823.41	23398
823.55	23440
823.69	23368
823.83	23467
823.97	23387
824.11	23212
824.25	23174
824.389	23189
824.529	23299
824.669	23159
824.809	23242
824.949	23311
825.089	23113
825.228	23364
825.368	23075
825.508	23178
825.648	23064
825.787	23090
825.927	23185
826.067	23044
826.206	23018
826.346	22923
826.485	23159
826.625	23060
826.765	23098
826.904	23113
827.044	22889
827.183	22702
827.323	22702
827.462	22831
827.601	22740
827.741	22675
827.88	22599
828.02	22584
828.159	22573
828.298	22656
828.437	22687
828.577	22565
828.716	22679
828.855	22603
828.994	22542
829.134	22489
829.273	22303
829.412	22287
829.551	22299
829.69	22348
829.829	22230
829.968	22455
830.107	22428
830.246	22421
830.385	22287
830.524	22230
830.663	22200
830.802	22101
830.941	22017
831.08	21922
831.219	22150
831.357	22135
831.496	22185
831.635	22063
831.774	21797
831.913	21918
832.051	21770
832.19	21930
832.329	22048
832.467	21869
832.606	21724
832.744	21656
832.883	21835
833.022	22010
833.16	22017
833.299	22314
833.437	22333
833.576	22375
833.714	22561
833.852	22790
833.991	22854
834.129	22999
834.267	23014
834.406	22889
834.544	22873
834.682	22733
834.821	22512
834.959	22565
835.097	22230
835.235	22257
835.373	22169
835.511	22070
835.65	21861
835.788	21842
835.926	21660
836.064	21477
836.202	21424
836.34	21614
836.478	21572
836.615	21504
836.753	21515
836.891	21603
837.029	21500
837.167	21355
837.305	21397
837.443	21348
837.58	21370
837.718	21450
837.856	21310
837.993	21176
838.131	21256
838.269	21085
838.406	21058
838.544	21100
838.681	20902
838.819	20883
838.956	20708
839.094	20727
839.231	20743
839.369	20948
839.506	21154
839.643	20963
839.781	20613
839.918	20651
840.055	20648
840.193	20765
840.33	20674
840.467	20716
840.604	20674
840.742	20921
840.879	20602
841.016	20651
841.153	20575
841.29	20769
841.427	20720
841.564	20834
841.701	20716
841.838	20644
841.975	20465
842.112	20590
842.249	20613
842.385	20434
842.522	20663
842.659	20640
842.796	20484
842.933	20552
843.069	20530
843.206	20556
843.343	20705
843.479	20625
843.616	20632
843.752	20469
843.889	20537
844.025	20670
844.162	20659
844.298	20826
844.435	20933
844.571	21077
844.708	21526
844.844	21865
844.98	22398
845.117	22946
845.253	23802
845.389	25727
845.525	29463
845.661	35349
845.798	42228
845.934	47258
846.07	49225
846.206	47646
846.342	42882
846.478	36117
846.614	30148
846.75	26320
846.886	24015
847.022	22683
847.158	21717
847.294	21218
847.429	20868
847.565	20511
847.701	20655
847.837	19925
847.972	19955
848.108	20024
848.244	19936
848.379	19632
848.515	19647
848.65	19624
848.786	19514
848.921	19575
849.057	19441
849.192	19464
849.328	19472
849.463	19426
849.598	19244
849.734	19232
849.869	19240
850.004	19141
850.14	19095
850.275	19160
850.41	18993
850.545	19107
850.68	18970
850.815	19114
850.95	19042
851.085	19293
851.22	19084
851.355	19088
851.49	19114
851.625	19053
851.76	19133
851.895	19008
852.03	19000
852.165	19145
852.299	19061
852.434	19263
852.569	19126
852.703	19129
852.838	19145
852.973	19396
853.107	19304
853.242	19194
853.376	19095
853.511	19057
853.645	19183
853.78	19350
853.914	19320
854.048	19297
854.183	19316
854.317	19350
854.451	19575
854.585	19335
854.72	19289
854.854	19384
854.988	19152
855.122	19202
855.256	19133
855.39	19057
855.524	19152
855.658	19118
855.792	19110
855.926	19103
856.06	19050
856.194	19122
856.327	19042
856.461	18833
856.595	18913
856.729	18825
856.862	18989
856.996	18894
857.13	18905
857.263	18947
857.397	18966
857.53	18875
857.664	18943
857.797	18787
857.931	18947
858.064	18916
858.197	18962
858.331	18779
858.464	18844
858.597	18730
858.731	18779
858.864	18738
858.997	18707
859.13	18764
859.263	18886
859.396	18867
859.529	18787
859.662	18726
859.795	18772
859.928	18760
860.061	18817
860.194	18897
860.327	18711
860.46	18757
860.592	18932
860.725	18939
860.858	18787
860.99	18757
861.123	18601
861.256	18719
861.388	18684
861.521	19358
861.653	18608
861.786	18544
861.918	18616
862.05	18760
862.183	18673
862.315	18642
862.447	18673
862.58	18639
862.712	18429
862.844	18369
862.976	18479
863.108	18479
863.24	18757
863.372	18319
863.504	18342
863.636	18311
863.768	18467
863.9	18342
864.032	18254
864.164	18369
864.296	18395
864.428	18513
864.559	18376
864.691	18536
864.823	18410
864.954	18342
865.086	18216
865.217	18372
865.349	18174
865.48	18361
865.612	18273
865.743	18391
865.875	18334
866.006	18254
866.137	18239
866.269	18148
866.4	18289
866.531	18213
866.662	18308
866.793	18281
866.924	18213
867.055	18270
867.186	18323
867.317	18091
867.448	18171
867.579	18167
867.71	18182
867.841	18213
867.972	18228
868.103	18270
868.233	18296
868.364	18384
868.495	18441
868.625	18506
868.756	18654
868.886	18391
869.017	18479
869.147	18536
869.278	18585
869.408	18627
869.539	18513
869.669	18658
869.799	18601
869.929	18566
870.06	18734
870.19	18852
870.32	18837
870.45	18791
870.58	18958
870.71	19126
870.84	18947
870.97	19015
871.1	19046
871.23	19148
871.36	19183
871.489	19095
871.619	19209
871.749	19091
871.879	19381
872.008	19384
872.138	19240
872.267	19263
872.397	19107
872.526	19084
872.656	19183
872.785	19202
872.915	19373
873.044	19438
873.173	19441
873.303	19464
873.432	19575
873.561	19594
873.69	19521
873.819	19578
873.948	19552
874.077	19658
874.206	19597
874.335	19613
874.464	19864
874.593	19849
874.722	19868
874.851	19989
874.979	20161
875.108	20088
875.237	20069
875.365	20115
875.494	20145
875.623	20168
875.751	20240
875.88	20263
876.008	20476
876.136	20575
876.265	20823
876.393	21058
876.521	21043
876.65	21047
876.778	20971
876.906	20994
877.034	21066
877.162	21313
877.29	21165
877.418	21272
877.546	21435
877.674	21443
877.802	21622
877.93	21751
878.058	21968
878.185	22116
878.313	22344
878.441	22896
878.568	23037
878.696	23707
878.824	24471
878.951	25620
879.079	27249
879.206	29356
879.333	31381
879.461	33081
879.588	34207
879.715	34265
879.842	33230
879.97	31316
880.097	29349
880.224	27747
880.351	26412
880.478	25499
880.605	24909
880.732	24642
880.859	24479
880.986	24167
881.112	24038
881.239	23942
881.366	23771
881.493	23695
881.619	23642
881.746	23455
881.872	23566
881.999	23649
882.125	23608
882.252	23752
882.378	23878
882.505	23996
882.631	23771
882.757	23764
882.883	23707
883.01	23649
883.136	23668
883.262	23463
883.388	23490
883.514	23589
883.64	23771
883.766	23581
883.892	23391
884.018	23387
884.143	23592
884.269	23619
884.395	23360
884.52	23250
884.646	23353
884.772	23307
884.897	23322
885.023	23345
885.148	23406
885.274	23383
885.399	23337
885.524	23025
885.65	22938
885.775	22892
885.9	22687
886.025	22607
886.15	22569
886.275	22162
886.4	22131
886.525	21991
886.65	21766
886.775	21660
886.9	21819
887.025	21652
887.149	21443
887.274	21157
887.399	20990
887.523	20986
887.648	20781
887.773	20682
887.897	20769
888.021	20724
888.146	20530
888.27	20716
888.395	20587
888.519	20564
888.643	20408
888.767	20465
888.891	20290
889.015	20195
889.139	20115
889.263	20012
889.387	20122
889.511	20214
889.635	20069
889.759	19856
889.883	19837
890.006	19856
890.13	19917
890.254	19635
890.377	19693
890.501	19476
890.624	19400
890.748	19441
890.871	19244
890.995	19194
891.118	19004
891.241	19190
891.364	19122
891.488	19206
891.611	19107
891.734	19084
891.857	19084
891.98	19027
892.103	19069
892.226	18920
892.349	18913
892.471	18707
892.594	18760
892.717	18821
892.839	18707
892.962	18593
893.085	18837
893.207	18646
893.33	18627
893.452	18582
893.575	18559
893.697	18517
893.819	18650
893.941	18741
894.064	18616
894.186	18414
894.308	18395
894.43	18490
894.552	18536
894.674	18441
894.796	18285
894.918	18281
895.04	18232
895.161	18467
895.283	18369
895.405	18228
895.526	18186
895.648	18182
895.769	18178
895.891	18224
896.012	18319
896.134	18292
896.255	18201
896.376	18239
896.498	18281
896.619	18205
896.74	18194
896.861	18273
896.982	18532
897.103	18540
897.224	18361
897.345	18338
897.466	18319
897.587	18361
897.708	18414
897.828	18410
897.949	18296
898.07	18224
898.19	18365
898.311	18353
898.431	18270
898.552	18323
898.672	18311
898.792	18338
898.913	18330
899.033	18148
899.153	18209
899.273	18045
899.393	18194
899.513	18197
899.633	18178
899.753	18220
899.873	18167
899.993	18117
900.113	18095
900.232	18072
900.352	17961
900.472	17973
900.591	17901
900.711	17882
900.83	17821
900.95	17965
901.069	18045
901.189	17832
901.308	17577
901.427	17532
901.546	17421
901.665	17615
901.784	17425
901.904	17231
902.023	17277
902.141	17014
902.26	16980
902.379	16930
902.498	16999
902.617	16930
902.735	16957
902.854	16927
902.973	16805
903.091	16561
903.21	16596
903.328	16694
903.446	16474
903.565	16318
903.683	16348
903.801	16310
903.919	16303
904.038	16268
904.156	16044
904.274	16196
904.392	16185
904.51	16147
904.627	16143
904.745	16063
904.863	16097
904.981	15842
905.098	15873
905.216	15717
905.334	15770
905.451	15720
905.569	15637
905.686	15774
905.803	15766
905.921	15523
906.038	15603
906.155	15538
906.272	15336
906.389	15473
906.506	15306
906.623	15317
906.74	15245
906.857	15058
906.974	15154
907.091	15325
907.208	15374
907.324	15336
907.441	15241
907.557	15051
907.674	15036
907.79	14963
907.907	14910
908.023	14967
908.139	14933
908.256	14941
908.372	14788
908.488	14754
908.604	14670
908.72	14644
908.836	14796
908.952	14682
909.068	14606
909.184	14716
909.3	14693
909.415	14792
909.531	14663
909.647	14579
909.762	14469
909.878	14385
909.993	14438
910.108	14396
910.224	14366
910.339	14320
910.454	14309
910.57	14309
910.685	14134
910.8	14393
910.915	14419
911.03	14324
911.145	14024
911.259	14020
911.374	14084
911.489	14008
911.604	13955
911.718	13868
911.833	13830
911.947	13784
912.062	13605
912.176	13906
912.291	13837
912.405	13784
912.519	14024
912.633	13993
912.748	13799
912.862	13753
912.976	13658
913.09	13411
913.204	13533
913.318	13685
913.431	13674
913.545	13658
913.659	13742
913.772	13693
913.886	13533
914	13518
914.113	13548
914.226	13613
914.34	13674
914.453	13396
914.566	13487
914.68	13506
914.793	13407
914.906	13255
915.019	13168
915.132	13038
915.245	13160
915.358	13297
915.47	13149
915.583	13301
915.696	13301
915.809	13301
915.921	13384
916.034	13244
916.146	13091
916.259	13114
916.371	13236
916.483	13232
916.595	13194
916.708	13187
916.82	13103
916.932	13114
917.044	13065
917.156	13103
917.268	12966
917.38	12981
917.491	12989
917.603	12962
917.715	13004
917.826	13110
917.938	12833
918.049	12829
918.161	12901
918.272	13008
918.384	12977
918.495	12947
918.606	12757
918.717	12650
918.828	12738
918.939	12688
919.05	12574
919.161	12593
919.272	12475
919.383	12467
919.494	12684
919.604	12863
919.715	12612
919.826	12604
919.936	12612
920.047	12734
920.157	12650
920.267	12768
920.378	12646
920.488	12627
920.598	12909
920.708	12878
920.818	12753
920.928	12764
921.038	12875
921.148	12856
921.258	12544
921.368	12532
921.477	12334
921.587	12372
921.697	12319
921.806	12403
921.916	12205
922.025	12167
922.134	12209
922.244	12110
922.353	12064
922.462	11996
922.571	11809
922.68	11707
922.789	11748
922.898	11748
923.007	11657
923.116	11714
923.224	11741
923.333	11703
923.442	11596
923.55	11528
923.659	11638
923.767	11676
923.876	11535
923.984	11604
924.092	11474
924.201	11558
924.309	11497
924.417	11482
924.525	11528
924.633	11486
924.741	12437
924.849	11216
924.956	11410
925.064	11311
925.172	11181
925.279	11239
925.387	11307
925.494	11185
925.602	11337
925.709	11296
925.816	11201
925.924	11178
926.031	11284
926.138	11185
926.245	11204
926.352	11147
926.459	11269
926.566	11261
926.673	11121
926.779	11014
926.886	11010
926.993	10904
927.099	10892
927.206	10801
927.312	10812
927.419	10900
927.525	10839
927.631	10972
927.737	10698
927.843	10767
927.95	10634
928.056	10672
928.162	10755
928.267	10752
928.373	11258
928.479	10805
928.585	10672
928.69	10641
928.796	10790
928.901	10622
929.007	10489
929.112	10660
929.218	10519
929.323	10489
929.428	10459
929.533	10634
929.638	10409
929.743	10440
929.848	10538
929.953	10497
930.058	10409
930.163	10261
930.267	10150
930.372	10428
930.477	10196
930.581	10402
930.685	10265
930.79	10101
930.894	10158
930.998	10036
931.103	10207
931.207	9892
931.311	9797
931.415	9740
931.519	9549
931.623	9603
