Data from test_V78500241_3672.txt Node
Date: Fri Mar 25 14:59:17 CST 2022
User: usil
Spectrometer: V785-0024
Trigger mode: 0
Integration Time (sec): 4.000000E-1
Scans to average: 1
Nonlinearity correction enabled: false
Boxcar width: 0
Storing dark spectrum: false
XAxis mode: Wavelengths
Number of Pixels in Spectrum: 1024
>>>>>Begin Spectral Data<<<<<
801.071	21846
801.214	21682
801.356	21603
801.499	21359
801.641	21169
801.783	21279
801.926	21317
802.068	21222
802.211	21032
802.353	21036
802.496	20834
802.638	20598
802.78	20708
802.923	20617
803.065	20594
803.208	20518
803.35	20621
803.492	20705
803.635	20743
803.777	20518
803.919	20549
804.061	20861
804.204	20686
804.346	20511
804.488	20457
804.63	20659
804.773	20476
804.915	20545
805.057	20670
805.199	20393
805.341	20533
805.483	20575
805.626	20488
805.768	20389
805.91	20503
806.052	20454
806.194	20469
806.336	20484
806.478	20351
806.62	20343
806.762	20518
806.904	20712
807.046	20902
807.188	20876
807.33	20819
807.472	20891
807.614	20663
807.756	20701
807.898	20571
808.04	20583
808.182	20495
808.324	20571
808.465	20636
808.607	20697
808.749	20921
808.891	20975
809.033	20952
809.174	20921
809.316	20708
809.458	20845
809.6	20773
809.741	20925
809.883	20853
810.025	20994
810.166	20990
810.308	21055
810.45	20914
810.591	20868
810.733	20617
810.875	20705
811.016	20556
811.158	20526
811.299	20503
811.441	20621
811.582	20682
811.724	20644
811.865	20511
812.007	20644
812.148	20461
812.29	20686
812.431	20785
812.573	20906
812.714	20880
812.855	21131
812.997	21230
813.138	21302
813.279	21169
813.421	21154
813.562	20944
813.703	20811
813.845	20826
813.986	20415
814.127	20336
814.268	20336
814.41	20153
814.551	20062
814.692	20130
814.833	20142
814.974	20122
815.115	20100
815.256	19970
815.397	19967
815.539	19978
815.68	19986
815.821	19723
815.962	19940
816.103	19864
816.244	19643
816.385	19616
816.526	19681
816.666	19377
816.807	19206
816.948	19312
817.089	19369
817.23	19244
817.371	19244
817.512	19225
817.653	19206
817.793	19244
817.934	19335
818.075	19232
818.216	19278
818.356	19175
818.497	19187
818.638	18989
818.778	18863
818.919	18928
819.06	19038
819.2	19023
819.341	19107
819.481	19232
819.622	19312
819.762	19434
819.903	19400
820.043	19320
820.184	19133
820.324	19156
820.465	19202
820.605	19282
820.746	19297
820.886	19244
821.026	19221
821.167	19133
821.307	19270
821.447	19232
821.588	19069
821.728	18859
821.868	18783
822.008	18719
822.149	18715
822.289	18604
822.429	18376
822.569	18422
822.709	18395
822.849	18224
822.99	18205
823.13	18171
823.27	18019
823.41	17996
823.55	17878
823.69	17954
823.83	18068
823.97	17870
824.11	17752
824.25	17745
824.389	17760
824.529	17786
824.669	17786
824.809	17832
824.949	17733
825.089	17764
825.228	17668
825.368	17455
825.508	17539
825.648	17539
825.787	17608
825.927	17558
826.067	17440
826.206	17558
826.346	17535
826.485	17501
826.625	17585
826.765	17566
826.904	17520
827.044	17379
827.183	17376
827.323	17185
827.462	17334
827.601	17204
827.741	17227
827.88	17208
828.02	17174
828.159	17277
828.298	17288
828.437	17299
828.577	17227
828.716	17303
828.855	17235
828.994	17006
829.134	17048
829.273	16965
829.412	16946
829.551	16896
829.69	16881
829.829	17006
829.968	17029
830.107	16953
830.246	17041
830.385	17060
830.524	16869
830.663	16809
830.802	16748
830.941	16645
831.08	16542
831.219	16752
831.357	16618
831.496	16904
831.635	16569
831.774	16554
831.913	16440
832.051	16432
832.19	16356
832.329	16344
832.467	16333
832.606	16325
832.744	16303
832.883	16268
833.022	16226
833.16	16371
833.299	16322
833.437	16447
833.576	16306
833.714	16360
833.852	16356
833.991	16337
834.129	16394
834.267	16375
834.406	16223
834.544	16314
834.682	16428
834.821	16379
834.959	16527
835.097	16287
835.235	16432
835.373	16413
835.511	16436
835.65	16276
835.788	16303
835.926	16284
836.064	16055
836.202	16169
836.34	16291
836.478	16341
836.615	16226
836.753	16291
836.891	16394
837.029	16215
837.167	16238
837.305	16223
837.443	16219
837.58	16010
837.718	16204
837.856	16158
837.993	16150
838.131	16211
838.269	16086
838.406	16150
838.544	15964
838.681	16002
838.819	15869
838.956	15770
839.094	15675
839.231	15880
839.369	15857
839.506	16131
839.643	15945
839.781	15732
839.918	15644
840.055	15778
840.193	15652
840.33	15785
840.467	15629
840.604	15751
840.742	15880
840.879	15633
841.016	15580
841.153	15599
841.29	15850
841.427	15724
841.564	15739
841.701	15675
841.838	15679
841.975	15568
842.112	15610
842.249	15519
842.385	15367
842.522	15713
842.659	15519
842.796	15545
842.933	15534
843.069	15538
843.206	15401
843.343	15545
843.479	15523
843.616	15507
843.752	15310
843.889	15336
844.025	15397
844.162	15260
844.298	15321
844.435	15275
844.571	15321
844.708	15336
844.844	15428
844.98	15431
845.117	15447
845.253	15237
845.389	15108
845.525	15241
845.661	15241
845.798	15066
845.934	15070
846.07	15039
846.206	15150
846.342	15146
846.478	15066
846.614	14918
846.75	14838
846.886	14845
847.022	14929
847.158	14891
847.294	14963
847.429	14872
847.565	14895
847.701	14971
847.837	14667
847.972	14480
848.108	14743
848.244	14602
848.379	14438
848.515	14469
848.65	14438
848.786	14461
848.921	14514
849.057	14454
849.192	14476
849.328	14533
849.463	14400
849.598	14385
849.734	14381
849.869	14267
850.004	14328
850.14	14328
850.275	14305
850.41	14145
850.545	14161
850.68	14214
850.815	14278
850.95	14206
851.085	14400
851.22	14377
851.355	14244
851.49	14180
851.625	14145
851.76	14214
851.895	14054
852.03	14164
852.165	14278
852.299	14256
852.434	14271
852.569	14210
852.703	14278
852.838	14290
852.973	14282
853.107	14336
853.242	14161
853.376	14130
853.511	13932
853.645	13989
853.78	14164
853.914	14115
854.048	14046
854.183	14111
854.317	14100
854.451	14244
854.585	14092
854.72	14065
854.854	14096
854.988	13997
855.122	13963
855.256	14027
855.39	14126
855.524	14214
855.658	14206
855.792	14092
855.926	14153
856.06	14084
856.194	14172
856.327	13997
856.461	14077
856.595	14016
856.729	13989
856.862	14195
856.996	14195
857.13	14225
857.263	14164
857.397	14240
857.53	14157
857.664	14145
857.797	14103
857.931	14229
858.064	14214
858.197	14206
858.331	14031
858.464	14027
858.597	13917
858.731	14176
858.864	14088
858.997	14046
859.13	14081
859.263	14134
859.396	14134
859.529	14073
859.662	13986
859.795	14020
859.928	14096
860.061	14278
860.194	14248
860.327	14027
860.46	14073
860.592	14199
860.725	14229
860.858	14286
860.99	14145
861.123	14035
861.256	14020
861.388	14065
861.521	14785
861.653	14084
861.786	13925
861.918	13986
862.05	13997
862.183	14020
862.315	14024
862.447	14164
862.58	14081
862.712	13875
862.844	13814
862.976	13978
863.108	13928
863.24	14237
863.372	13902
863.504	13784
863.636	13841
863.768	14031
863.9	13894
864.032	13750
864.164	13913
864.296	13978
864.428	13883
864.559	13989
864.691	14024
864.823	13970
864.954	13947
865.086	13944
865.217	13833
865.349	13761
865.48	13807
865.612	13814
865.743	14012
865.875	13921
866.006	13795
866.137	13982
866.269	13902
866.4	13883
866.531	13852
866.662	13784
866.793	13807
866.924	13742
867.055	13875
867.186	13947
867.317	13890
867.448	13761
867.579	13849
867.71	13807
867.841	13795
867.972	13791
868.103	13818
868.233	13849
868.364	13807
868.495	13917
868.625	14058
868.756	14252
868.886	13989
869.017	14096
869.147	14237
869.278	14199
869.408	14168
869.539	14180
869.669	14218
869.799	14210
869.929	14237
870.06	14248
870.19	14442
870.32	14434
870.45	14488
870.58	14518
870.71	14648
870.84	14621
870.97	14545
871.1	14526
871.23	14708
871.36	14625
871.489	14492
871.619	14670
871.749	14705
871.879	14792
872.008	14788
872.138	14678
872.267	14716
872.397	14564
872.526	14587
872.656	14511
872.785	14594
872.915	14701
873.044	14788
873.173	14777
873.303	14891
873.432	14826
873.561	15001
873.69	14804
873.819	14701
873.948	14769
874.077	14861
874.206	14731
874.335	14830
874.464	14868
874.593	15146
874.722	15047
874.851	15222
874.979	15165
875.108	15207
875.237	15024
875.365	14960
875.494	15055
875.623	15173
875.751	15009
875.88	15142
876.008	15226
876.136	15329
876.265	15542
876.393	15557
876.521	15545
876.65	15606
876.778	15481
876.906	15454
877.034	15397
877.162	15458
877.29	15359
877.418	15519
877.546	15462
877.674	15431
877.802	15420
877.93	15538
878.058	15481
878.185	15477
878.313	15538
878.441	15420
878.568	15401
878.696	15454
878.824	15534
878.951	15587
879.079	15614
879.206	15804
879.333	15751
879.461	15545
879.588	15644
879.715	15717
879.842	15755
879.97	15564
880.097	15363
880.224	15313
880.351	15435
880.478	15367
880.605	15428
880.732	15454
880.859	15606
880.986	15359
881.112	15386
881.239	15214
881.366	15218
881.493	15081
881.619	15020
881.746	15017
881.872	14971
881.999	15039
882.125	14994
882.252	15077
882.378	14986
882.505	15138
882.631	14933
882.757	14868
882.883	14842
883.01	14872
883.136	14788
883.262	14754
883.388	14583
883.514	14899
883.64	14887
883.766	14830
883.892	14712
884.018	14602
884.143	14674
884.269	14971
884.395	14568
884.52	14503
884.646	14533
884.772	14488
884.897	14469
885.023	14625
885.148	14708
885.274	14663
885.399	14644
885.524	14526
885.65	14526
885.775	14625
885.9	14564
886.025	14697
886.15	14545
886.275	14556
886.4	14450
886.525	14465
886.65	14473
886.775	14530
886.9	14598
887.025	14796
887.149	14556
887.274	14507
887.399	14290
887.523	14282
887.648	14324
887.773	14271
887.897	14446
888.021	14469
888.146	14305
888.27	14480
888.395	14507
888.519	14545
888.643	14434
888.767	14480
888.891	14362
889.015	14244
889.139	14187
889.263	14210
889.387	14396
889.511	14480
889.635	14389
889.759	14305
889.883	14214
890.006	14305
890.13	14328
890.254	14233
890.377	14225
890.501	13997
890.624	14020
890.748	14176
890.871	14031
890.995	13879
891.118	13818
891.241	13856
891.364	13913
891.488	14084
891.611	13989
891.734	13967
891.857	13947
891.98	14012
892.103	14058
892.226	13928
892.349	13974
892.471	13727
892.594	13871
892.717	13894
892.839	13932
892.962	13917
893.085	14039
893.207	13925
893.33	13772
893.452	13791
893.575	14119
893.697	13894
893.819	14214
893.941	14126
894.064	14157
894.186	13989
894.308	13898
894.43	14058
894.552	14096
894.674	14081
894.796	14008
894.918	13913
895.04	13951
895.161	14062
895.283	14161
895.405	13982
895.526	13967
895.648	13989
895.769	14077
895.891	14161
896.012	14088
896.134	14126
896.255	14058
896.376	14024
896.498	14134
896.619	14187
896.74	14164
896.861	14244
896.982	14503
897.103	14564
897.224	14457
897.345	14396
897.466	14313
897.587	14347
897.708	14590
897.828	14446
897.949	14313
898.07	14282
898.19	14381
898.311	14617
898.431	14408
898.552	14450
898.672	14545
898.792	14518
898.913	14507
899.033	14412
899.153	14248
899.273	14225
899.393	14275
899.513	14355
899.633	14336
899.753	14408
899.873	14305
899.993	14427
900.113	14210
900.232	14282
900.352	14313
900.472	14210
900.591	14161
900.711	14225
900.83	14157
900.95	14275
901.069	14286
901.189	14161
901.308	13875
901.427	13913
901.546	13784
901.665	13856
901.784	13871
901.904	13712
902.023	13708
902.141	13544
902.26	13434
902.379	13537
902.498	13388
902.617	13411
902.735	13476
902.854	13480
902.973	13434
903.091	13084
903.21	13175
903.328	13175
903.446	13050
903.565	12981
903.683	13038
903.801	12829
903.919	12962
904.038	13034
904.156	12798
904.274	12958
904.392	12837
904.51	12768
904.627	12753
904.745	12897
904.863	13000
904.981	12593
905.098	12536
905.216	12509
905.334	12517
905.451	12483
905.569	12506
905.686	12563
905.803	12509
905.921	12323
906.038	12422
906.155	12334
906.272	12209
906.389	12266
906.506	12136
906.623	12163
906.74	12098
906.857	11950
906.974	11961
907.091	12220
907.208	12270
907.324	12216
907.441	12030
907.557	11901
907.674	11885
907.79	11741
907.907	11836
908.023	11912
908.139	11866
908.256	11847
908.372	11752
908.488	11718
908.604	11710
908.72	11596
908.836	11615
908.952	11589
909.068	11680
909.184	11676
909.3	11627
909.415	11745
909.531	11649
909.647	11414
909.762	11463
909.878	11307
909.993	11436
910.108	11284
910.224	11368
910.339	11341
910.454	11265
910.57	11261
910.685	11185
910.8	11509
910.915	11452
911.03	11391
911.145	11166
911.259	11124
911.374	11094
911.489	11083
911.604	10972
911.718	10938
911.833	10908
911.947	10759
912.062	10710
912.176	10812
912.291	10869
912.405	10828
912.519	11045
912.633	10999
912.748	10911
912.862	10904
912.976	10778
913.09	10641
913.204	10698
913.318	10801
913.431	10839
913.545	10831
913.659	10854
913.772	10752
913.886	10588
914	10599
914.113	10786
914.226	10687
914.34	10687
914.453	10554
914.566	10668
914.68	10584
914.793	10592
914.906	10405
915.019	10344
915.132	10344
915.245	10295
915.358	10432
915.47	10363
915.583	10386
915.696	10447
915.809	10512
915.921	10523
916.034	10337
916.146	10371
916.259	10325
916.371	10386
916.483	10394
916.595	10276
916.708	10249
916.82	10299
916.932	10257
917.044	10348
917.156	10257
917.268	10150
917.38	10249
917.491	10200
917.603	10257
917.715	10268
917.826	10341
917.938	10192
918.049	10090
918.161	10207
918.272	10318
918.384	10367
918.495	10230
918.606	10181
918.717	10006
918.828	10112
918.939	10135
919.05	10036
919.161	10021
919.272	9880
919.383	10055
919.494	10185
919.604	10253
919.715	10169
919.826	10006
919.936	10097
920.047	10204
920.157	10116
920.267	10314
920.378	10177
920.488	10185
920.598	10310
920.708	10493
920.818	10272
920.928	10306
921.038	10500
921.148	10436
921.258	10116
921.368	10124
921.477	10074
921.587	10002
921.697	9934
921.806	10044
921.916	9907
922.025	9717
922.134	9656
922.244	9679
922.353	9679
922.462	9576
922.571	9492
922.68	9420
922.789	9355
922.898	9443
923.007	9389
923.116	9428
923.224	9370
923.333	9389
923.442	9344
923.55	9287
923.659	9332
923.767	9393
923.876	9195
923.984	9370
924.092	9180
924.201	9329
924.309	9226
924.417	9279
924.525	9214
924.633	9230
924.741	9994
924.849	9093
924.956	9222
925.064	9104
925.172	8963
925.279	9047
925.387	9119
925.494	9089
925.602	9260
925.709	9150
925.816	8998
925.924	9093
926.031	9180
926.138	9089
926.245	9131
926.352	9013
926.459	9051
926.566	9184
926.673	8933
926.779	8914
926.886	8868
926.993	8853
927.099	8830
927.206	8708
927.312	8720
927.419	8830
927.525	8880
927.631	8872
927.737	8746
927.843	8644
927.95	8667
928.056	8659
928.162	8705
928.267	8731
928.373	9135
928.479	8815
928.585	8545
928.69	8674
928.796	8697
928.901	8560
929.007	8427
929.112	8640
929.218	8533
929.323	8503
929.428	8480
929.533	8762
929.638	8461
929.743	8499
929.848	8594
929.953	8495
930.058	8351
930.163	8317
930.267	8309
930.372	8442
930.477	8298
930.581	8465
930.685	8366
930.79	8183
930.894	8214
930.998	8187
931.103	8328
931.207	7959
931.311	7982
931.415	7898
931.519	7769
931.623	7696
