Data from test_V78500241_3081.txt Node
Date: Fri Mar 25 14:55:10 CST 2022
User: usil
Spectrometer: V785-0024
Trigger mode: 0
Integration Time (sec): 4.000000E-1
Scans to average: 1
Nonlinearity correction enabled: false
Boxcar width: 0
Storing dark spectrum: false
XAxis mode: Wavelengths
Number of Pixels in Spectrum: 1024
>>>>>Begin Spectral Data<<<<<
801.071	22093
801.214	22048
801.356	21633
801.499	21667
801.641	21587
801.783	21386
801.926	21397
802.068	21344
802.211	21408
802.353	21173
802.496	20937
802.638	20891
802.78	20948
802.923	20838
803.065	20769
803.208	20689
803.35	20743
803.492	20834
803.635	20765
803.777	20750
803.919	20948
804.061	21119
804.204	20727
804.346	20670
804.488	20640
804.63	20804
804.773	20587
804.915	20720
805.057	20670
805.199	20758
805.341	20693
805.483	20815
805.626	20754
805.768	20655
805.91	20724
806.052	20705
806.194	20552
806.336	20830
806.478	20632
806.62	20598
806.762	20861
806.904	20899
807.046	21013
807.188	20963
807.33	21070
807.472	21070
807.614	20895
807.756	20925
807.898	20769
808.04	20682
808.182	20598
808.324	20765
808.465	20823
808.607	21001
808.749	21039
808.891	21169
809.033	21161
809.174	21005
809.316	21001
809.458	21108
809.6	21013
809.741	21017
809.883	21180
810.025	21306
810.166	21116
810.308	21211
810.45	21218
810.591	21154
810.733	21032
810.875	20853
811.016	20845
811.158	20781
811.299	20933
811.441	20986
811.582	20811
811.724	20815
811.865	20746
812.007	20762
812.148	20792
812.29	20872
812.431	21024
812.573	21074
812.714	21112
812.855	21447
812.997	21424
813.138	21492
813.279	21454
813.421	21310
813.562	21291
813.703	21047
813.845	20929
813.986	20670
814.127	20442
814.268	20396
814.41	20332
814.551	20457
814.692	20377
814.833	20187
814.974	20309
815.115	20355
815.256	20180
815.397	20164
815.539	20172
815.68	20119
815.821	20001
815.962	20206
816.103	20122
816.244	20016
816.385	19936
816.526	19757
816.666	19586
816.807	19441
816.948	19635
817.089	19670
817.23	19457
817.371	19403
817.512	19499
817.653	19502
817.793	19422
817.934	19407
818.075	19567
818.216	19468
818.356	19472
818.497	19324
818.638	19084
818.778	19076
818.919	19198
819.06	19152
819.2	19381
819.341	19327
819.481	19381
819.622	19613
819.762	19776
819.903	19616
820.043	19483
820.184	19537
820.324	19392
820.465	19510
820.605	19407
820.746	19460
820.886	19373
821.026	19362
821.167	19384
821.307	19453
821.447	19476
821.588	19331
821.728	19263
821.868	18916
822.008	18993
822.149	18798
822.289	18875
822.429	18635
822.569	18483
822.709	18578
822.849	18384
822.99	18327
823.13	18426
823.27	18330
823.41	18190
823.55	18064
823.69	18167
823.83	18174
823.97	18148
824.11	17920
824.25	18003
824.389	17847
824.529	18076
824.669	17901
824.809	17954
824.949	17965
825.089	17992
825.228	17916
825.368	17737
825.508	17821
825.648	17798
825.787	17718
825.927	17729
826.067	17665
826.206	17646
826.346	17741
826.485	17642
826.625	17547
826.765	17745
826.904	17619
827.044	17402
827.183	17478
827.323	17402
827.462	17505
827.601	17421
827.741	17391
827.88	17353
828.02	17288
828.159	17417
828.298	17292
828.437	17356
828.577	17353
828.716	17535
828.855	17273
828.994	17113
829.134	17204
829.273	17220
829.412	17029
829.551	17045
829.69	17155
829.829	17143
829.968	17185
830.107	17204
830.246	17113
830.385	17060
830.524	17113
830.663	16919
830.802	16866
830.941	16729
831.08	16767
831.219	16782
831.357	16759
831.496	16915
831.635	16809
831.774	16733
831.913	16778
832.051	16565
832.19	16508
832.329	16569
832.467	16440
832.606	16405
832.744	16440
832.883	16398
833.022	16322
833.16	16421
833.299	16485
833.437	16459
833.576	16497
833.714	16485
833.852	16538
833.991	16382
834.129	16592
834.267	16603
834.406	16443
834.544	16512
834.682	16443
834.821	16405
834.959	16599
835.097	16333
835.235	16459
835.373	16561
835.511	16447
835.65	16310
835.788	16474
835.926	16223
836.064	16150
836.202	16215
836.34	16329
836.478	16443
836.615	16402
836.753	16382
836.891	16497
837.029	16478
837.167	16352
837.305	16257
837.443	16322
837.58	16226
837.718	16405
837.856	16261
837.993	16139
838.131	16185
838.269	16192
838.406	16158
838.544	16086
838.681	15876
838.819	15911
838.956	15835
839.094	15823
839.231	15861
839.369	16055
839.506	16109
839.643	15983
839.781	15823
839.918	15797
840.055	15869
840.193	15720
840.33	15698
840.467	15907
840.604	15785
840.742	15979
840.879	15629
841.016	15671
841.153	15747
841.29	15949
841.427	15781
841.564	15918
841.701	15857
841.838	15728
841.975	15720
842.112	15686
842.249	15584
842.385	15629
842.522	15709
842.659	15553
842.796	15603
842.933	15572
843.069	15568
843.206	15500
843.343	15720
843.479	15568
843.616	15622
843.752	15393
843.889	15317
844.025	15530
844.162	15302
844.298	15466
844.435	15359
844.571	15287
844.708	15351
844.844	15534
844.98	15557
845.117	15507
845.253	15367
845.389	15249
845.525	15336
845.661	15230
845.798	15131
845.934	15192
846.07	15131
846.206	15211
846.342	15291
846.478	15154
846.614	15009
846.75	14872
846.886	14887
847.022	15062
847.158	14944
847.294	14925
847.429	14883
847.565	14944
847.701	15222
847.837	14632
847.972	14632
848.108	14727
848.244	14735
848.379	14530
848.515	14564
848.65	14492
848.786	14579
848.921	14541
849.057	14720
849.192	14648
849.328	14511
849.463	14560
849.598	14526
849.734	14503
849.869	14385
850.004	14343
850.14	14317
850.275	14263
850.41	14218
850.545	14324
850.68	14328
850.815	14248
850.95	14290
851.085	14389
851.22	14343
851.355	14275
851.49	14259
851.625	14309
851.76	14271
851.895	14210
852.03	14168
852.165	14271
852.299	14374
852.434	14393
852.569	14351
852.703	14229
852.838	14415
852.973	14400
853.107	14446
853.242	14294
853.376	14202
853.511	14012
853.645	14111
853.78	14252
853.914	14084
854.048	14149
854.183	14130
854.317	14191
854.451	14347
854.585	14233
854.72	14088
854.854	14199
854.988	14149
855.122	14218
855.256	13944
855.39	14259
855.524	14244
855.658	14187
855.792	14210
855.926	14180
856.06	14259
856.194	14259
856.327	14199
856.461	14096
856.595	14164
856.729	14145
856.862	14294
856.996	14130
857.13	14233
857.263	14320
857.397	14305
857.53	14180
857.664	14263
857.797	14248
857.931	14233
858.064	14199
858.197	14298
858.331	14119
858.464	14161
858.597	14088
858.731	14103
858.864	14100
858.997	14233
859.13	14107
859.263	14218
859.396	14180
859.529	14206
859.662	14149
859.795	14176
859.928	14172
860.061	14332
860.194	14358
860.327	14157
860.46	14119
860.592	14278
860.725	14370
860.858	14336
860.99	14233
861.123	14107
861.256	14073
861.388	14149
861.521	14887
861.653	14111
861.786	13940
861.918	14035
862.05	14054
862.183	14176
862.315	14130
862.447	14233
862.58	14126
862.712	13982
862.844	13928
862.976	13982
863.108	13970
863.24	14381
863.372	13883
863.504	13947
863.636	14005
863.768	14020
863.9	13898
864.032	13845
864.164	13864
864.296	13963
864.428	14111
864.559	14027
864.691	14001
864.823	13887
864.954	13917
865.086	14027
865.217	13951
865.349	13887
865.48	13871
865.612	13932
865.743	13986
865.875	13879
866.006	13921
866.137	13830
866.269	13871
866.4	13970
866.531	13887
866.662	13742
866.793	13791
866.924	13875
867.055	13887
867.186	13856
867.317	13871
867.448	13841
867.579	13894
867.71	13841
867.841	13849
867.972	13898
868.103	13951
868.233	13849
868.364	13951
868.495	14046
868.625	14134
868.756	14347
868.886	14062
869.017	14107
869.147	14218
869.278	14278
869.408	14221
869.539	14218
869.669	14275
869.799	14206
869.929	14389
870.06	14191
870.19	14507
870.32	14423
870.45	14511
870.58	14640
870.71	14720
870.84	14796
870.97	14617
871.1	14560
871.23	14758
871.36	14804
871.489	14644
871.619	14743
871.749	14838
871.879	14853
872.008	14918
872.138	14777
872.267	14739
872.397	14682
872.526	14648
872.656	14518
872.785	14598
872.915	14754
873.044	14902
873.173	14708
873.303	14807
873.432	15005
873.561	14902
873.69	14834
873.819	14834
873.948	14914
874.077	14861
874.206	14800
874.335	15001
874.464	15005
874.593	15039
874.722	15081
874.851	15165
874.979	15066
875.108	15184
875.237	15146
875.365	15100
875.494	15138
875.623	15256
875.751	15135
875.88	15230
876.008	15214
876.136	15313
876.265	15591
876.393	15736
876.521	15595
876.65	15701
876.778	15545
876.906	15488
877.034	15587
877.162	15519
877.29	15458
877.418	15603
877.546	15568
877.674	15572
877.802	15561
877.93	15526
878.058	15519
878.185	15447
878.313	15545
878.441	15466
878.568	15389
878.696	15538
878.824	15553
878.951	15564
879.079	15724
879.206	15922
879.333	15720
879.461	15667
879.588	15751
879.715	15717
879.842	15835
879.97	15705
880.097	15408
880.224	15325
880.351	15485
880.478	15466
880.605	15397
880.732	15405
880.859	15652
880.986	15374
881.112	15397
881.239	15325
881.366	15169
881.493	15180
881.619	15024
881.746	15070
881.872	15097
881.999	15028
882.125	15119
882.252	15127
882.378	15017
882.505	15329
882.631	15051
882.757	14933
882.883	14883
883.01	14887
883.136	14819
883.262	14765
883.388	14716
883.514	14979
883.64	14849
883.766	14838
883.892	14667
884.018	14861
884.143	14830
884.269	14948
884.395	14636
884.52	14511
884.646	14655
884.772	14552
884.897	14419
885.023	14579
885.148	14705
885.274	14838
885.399	14785
885.524	14571
885.65	14617
885.775	14655
885.9	14503
886.025	14743
886.15	14663
886.275	14571
886.4	14507
886.525	14556
886.65	14571
886.775	14476
886.9	14693
887.025	14944
887.149	14465
887.274	14465
887.399	14476
887.523	14385
887.648	14404
887.773	14339
887.897	14511
888.021	14537
888.146	14305
888.27	14549
888.395	14552
888.519	14488
888.643	14530
888.767	14514
888.891	14393
889.015	14294
889.139	14275
889.263	14324
889.387	14324
889.511	14530
889.635	14377
889.759	14210
889.883	14229
890.006	14347
890.13	14400
890.254	14130
890.377	14202
890.501	14100
890.624	14065
890.748	14180
890.871	14012
890.995	14027
891.118	13978
891.241	14008
891.364	14001
891.488	14111
891.611	13963
891.734	14027
891.857	13997
891.98	14035
892.103	14027
892.226	14005
892.349	14039
892.471	13906
892.594	14008
892.717	13986
892.839	13959
892.962	13993
893.085	14107
893.207	13970
893.33	13894
893.452	13917
893.575	14035
893.697	14035
893.819	14111
893.941	14195
894.064	14168
894.186	13959
894.308	13970
894.43	14168
894.552	14161
894.674	14046
894.796	13978
894.918	14065
895.04	14008
895.161	14054
895.283	14088
895.405	14005
895.526	14062
895.648	14206
895.769	14107
895.891	14172
896.012	14206
896.134	14244
896.255	14164
896.376	14168
896.498	14195
896.619	14176
896.74	14172
896.861	14252
896.982	14442
897.103	14674
897.224	14522
897.345	14484
897.466	14377
897.587	14366
897.708	14541
897.828	14541
897.949	14457
898.07	14339
898.19	14400
898.311	14602
898.431	14438
898.552	14503
898.672	14575
898.792	14640
898.913	14556
899.033	14533
899.153	14362
899.273	14362
899.393	14381
899.513	14427
899.633	14355
899.753	14511
899.873	14317
899.993	14412
900.113	14374
900.232	14366
900.352	14324
900.472	14370
900.591	14252
900.711	14225
900.83	14107
900.95	14427
901.069	14427
901.189	14183
901.308	13978
901.427	13936
901.546	13936
901.665	13898
901.784	13955
901.904	13833
902.023	13852
902.141	13544
902.26	13563
902.379	13521
902.498	13460
902.617	13384
902.735	13575
902.854	13518
902.973	13480
903.091	13289
903.21	13285
903.328	13282
903.446	13107
903.565	13110
903.683	13065
903.801	12863
903.919	13099
904.038	12985
904.156	12867
904.274	12958
904.392	12894
904.51	12833
904.627	12897
904.745	12966
904.863	12894
904.981	12749
905.098	12566
905.216	12658
905.334	12593
905.451	12540
905.569	12460
905.686	12601
905.803	12620
905.921	12441
906.038	12532
906.155	12380
906.272	12300
906.389	12224
906.506	12182
906.623	12125
906.74	12171
906.857	11984
906.974	12049
907.091	12171
907.208	12258
907.324	12175
907.441	12178
907.557	11889
907.674	11882
907.79	11828
907.907	11984
908.023	11908
908.139	11942
908.256	11813
908.372	11927
908.488	11813
908.604	11714
908.72	11653
908.836	11684
908.952	11604
909.068	11676
909.184	11733
909.3	11703
909.415	11718
909.531	11649
909.647	11478
909.762	11490
909.878	11474
909.993	11486
910.108	11455
910.224	11421
910.339	11501
910.454	11318
910.57	11356
910.685	11208
910.8	11501
910.915	11478
911.03	11280
911.145	11094
911.259	11109
911.374	11174
911.489	11136
911.604	11029
911.718	10942
911.833	10873
911.947	10782
912.062	10759
912.176	10934
912.291	10904
912.405	10873
912.519	11064
912.633	11193
912.748	11045
912.862	10873
912.976	10778
913.09	10736
913.204	10763
913.318	10793
913.431	10831
913.545	10900
913.659	10919
913.772	10850
913.886	10653
914	10660
914.113	10828
914.226	10748
914.34	10683
914.453	10592
914.566	10714
914.68	10660
914.793	10630
914.906	10436
915.019	10443
915.132	10360
915.245	10348
915.358	10497
915.47	10409
915.583	10470
915.696	10424
915.809	10535
915.921	10573
916.034	10398
916.146	10375
916.259	10348
916.371	10512
916.483	10451
916.595	10265
916.708	10386
916.82	10303
916.932	10306
917.044	10344
917.156	10344
917.268	10166
917.38	10177
917.491	10238
917.603	10246
917.715	10375
917.826	10341
917.938	10200
918.049	10192
918.161	10268
918.272	10398
918.384	10341
918.495	10227
918.606	10143
918.717	10112
918.828	10150
918.939	10150
919.05	10010
919.161	10177
919.272	9918
919.383	9956
919.494	10207
919.604	10306
919.715	10143
919.826	10006
919.936	10124
920.047	10196
920.157	10192
920.267	10303
920.378	10139
920.488	10139
920.598	10291
920.708	10512
920.818	10382
920.928	10382
921.038	10504
921.148	10432
921.258	10150
921.368	10215
921.477	10048
921.587	10036
921.697	9937
921.806	10112
921.916	9930
922.025	9793
922.134	9759
922.244	9690
922.353	9682
922.462	9591
922.571	9568
922.68	9458
922.789	9306
922.898	9431
923.007	9382
923.116	9397
923.224	9389
923.333	9382
923.442	9329
923.55	9279
923.659	9291
923.767	9359
923.876	9173
923.984	9298
924.092	9230
924.201	9306
924.309	9253
924.417	9253
924.525	9146
924.633	9218
924.741	10135
924.849	9085
924.956	9192
925.064	9039
925.172	9047
925.279	8998
925.387	9119
925.494	9058
925.602	9165
925.709	9146
925.816	8990
925.924	9036
926.031	9157
926.138	9093
926.245	9142
926.352	8967
926.459	9150
926.566	9188
926.673	8971
926.779	8918
926.886	8918
926.993	8800
927.099	8766
927.206	8708
927.312	8758
927.419	8815
927.525	8811
927.631	8838
927.737	8705
927.843	8697
927.95	8503
928.056	8629
928.162	8735
928.267	8727
928.373	9389
928.479	8777
928.585	8568
928.69	8667
928.796	8663
928.901	8659
929.007	8457
929.112	8602
929.218	8526
929.323	8499
929.428	8541
929.533	8610
929.638	8427
929.743	8492
929.848	8583
929.953	8514
930.058	8412
930.163	8237
930.267	8305
930.372	8351
930.477	8252
930.581	8469
930.685	8358
930.79	8176
930.894	8221
930.998	8240
931.103	8396
931.207	8027
931.311	7944
931.415	7890
931.519	7708
931.623	7742
