Data from test_V78500241_2112.txt Node
Date: Fri Mar 25 14:48:25 CST 2022
User: usil
Spectrometer: V785-0024
Trigger mode: 0
Integration Time (sec): 4.000000E-1
Scans to average: 1
Nonlinearity correction enabled: false
Boxcar width: 0
Storing dark spectrum: false
XAxis mode: Wavelengths
Number of Pixels in Spectrum: 1024
>>>>>Begin Spectral Data<<<<<
801.071	22173
801.214	21953
801.356	21728
801.499	21690
801.641	21553
801.783	21374
801.926	21587
802.068	21336
802.211	21351
802.353	21264
802.496	21138
802.638	21028
802.78	20952
802.923	20838
803.065	20746
803.208	20765
803.35	20857
803.492	20906
803.635	20902
803.777	20743
803.919	20864
804.061	21161
804.204	20857
804.346	20769
804.488	20537
804.63	20872
804.773	20807
804.915	20731
805.057	20777
805.199	20659
805.341	20785
805.483	20899
805.626	20861
805.768	20796
805.91	20777
806.052	20743
806.194	20621
806.336	20857
806.478	20807
806.62	20640
806.762	20697
806.904	20929
807.046	21294
807.188	21100
807.33	20994
807.472	21154
807.614	20880
807.756	20960
807.898	20796
808.04	20838
808.182	20743
808.324	20872
808.465	20895
808.607	21066
808.749	21146
808.891	21268
809.033	21313
809.174	21138
809.316	21096
809.458	21077
809.6	21161
809.741	21291
809.883	21138
810.025	21306
810.166	21370
810.308	21233
810.45	21313
810.591	21180
810.733	21119
810.875	20956
811.016	20864
811.158	20712
811.299	21096
811.441	21070
811.582	21032
811.724	20815
811.865	20895
812.007	20895
812.148	20918
812.29	20868
812.431	21036
812.573	21218
812.714	21359
812.855	21424
812.997	21485
813.138	21633
813.279	21545
813.421	21397
813.562	21443
813.703	21230
813.845	21077
813.986	20758
814.127	20613
814.268	20511
814.41	20579
814.551	20457
814.692	20564
814.833	20393
814.974	20400
815.115	20282
815.256	20370
815.397	20248
815.539	20336
815.68	20206
815.821	20073
815.962	20210
816.103	20153
816.244	20054
816.385	19989
816.526	19818
816.666	19708
816.807	19651
816.948	19613
817.089	19807
817.23	19727
817.371	19635
817.512	19510
817.653	19609
817.793	19468
817.934	19453
818.075	19776
818.216	19624
818.356	19571
818.497	19419
818.638	19175
818.778	19206
818.919	19259
819.06	19285
819.2	19449
819.341	19502
819.481	19449
819.622	19704
819.762	19822
819.903	19643
820.043	19571
820.184	19563
820.324	19537
820.465	19635
820.605	19677
820.746	19491
820.886	19460
821.026	19567
821.167	19525
821.307	19601
821.447	19430
821.588	19460
821.728	19213
821.868	19091
822.008	18856
822.149	18935
822.289	19076
822.429	18669
822.569	18711
822.709	18677
822.849	18506
822.99	18566
823.13	18471
823.27	18410
823.41	18311
823.55	18319
823.69	18266
823.83	18292
823.97	18254
824.11	18129
824.25	17916
824.389	18148
824.529	18041
824.669	18068
824.809	18171
824.949	18159
825.089	18102
825.228	18003
825.368	17878
825.508	17813
825.648	17843
825.787	17870
825.927	17897
826.067	17805
826.206	17661
826.346	17855
826.485	17882
826.625	17847
826.765	17859
826.904	17722
827.044	17516
827.183	17653
827.323	17524
827.462	17611
827.601	17524
827.741	17547
827.88	17627
828.02	17425
828.159	17547
828.298	17570
828.437	17501
828.577	17406
828.716	17680
828.855	17421
828.994	17273
829.134	17368
829.273	17322
829.412	17216
829.551	17136
829.69	17280
829.829	17284
829.968	17303
830.107	17334
830.246	17185
830.385	17159
830.524	17162
830.663	17064
830.802	17037
830.941	16847
831.08	16862
831.219	16965
831.357	16976
831.496	17029
831.635	16809
831.774	16763
831.913	16763
832.051	16660
832.19	16653
832.329	16740
832.467	16691
832.606	16485
832.744	16588
832.883	16493
833.022	16512
833.16	16630
833.299	16630
833.437	16603
833.576	16645
833.714	16607
833.852	16736
833.991	16630
834.129	16721
834.267	16630
834.406	16626
834.544	16599
834.682	16763
834.821	16558
834.959	16957
835.097	16592
835.235	16577
835.373	16596
835.511	16569
835.65	16512
835.788	16535
835.926	16443
836.064	16352
836.202	16306
836.34	16565
836.478	16535
836.615	16565
836.753	16569
836.891	16694
837.029	16573
837.167	16462
837.305	16413
837.443	16394
837.58	16402
837.718	16531
837.856	16382
837.993	16360
838.131	16204
838.269	16337
838.406	16295
838.544	16249
838.681	16173
838.819	16040
838.956	15869
839.094	15937
839.231	15934
839.369	15987
839.506	16356
839.643	16314
839.781	15998
839.918	15987
840.055	15983
840.193	15888
840.33	16002
840.467	15979
840.604	15983
840.742	16219
840.879	15880
841.016	15960
841.153	15831
841.29	16150
841.427	15998
841.564	16082
841.701	15994
841.838	15899
841.975	15907
842.112	15972
842.249	15778
842.385	15713
842.522	15911
842.659	15724
842.796	15663
842.933	15728
843.069	15743
843.206	15644
843.343	15823
843.479	15720
843.616	15770
843.752	15450
843.889	15538
844.025	15614
844.162	15485
844.298	15481
844.435	15477
844.571	15435
844.708	15507
844.844	15720
844.98	15580
845.117	15663
845.253	15416
845.389	15412
845.525	15462
845.661	15443
845.798	15241
845.934	15382
846.07	15233
846.206	15447
846.342	15443
846.478	15302
846.614	15192
846.75	15062
846.886	15036
847.022	15135
847.158	15077
847.294	15138
847.429	15180
847.565	15104
847.701	15321
847.837	14838
847.972	14785
848.108	14914
848.244	14830
848.379	14743
848.515	14568
848.65	14697
848.786	14621
848.921	14731
849.057	14765
849.192	14720
849.328	14750
849.463	14743
849.598	14594
849.734	14545
849.869	14571
850.004	14518
850.14	14442
850.275	14389
850.41	14366
850.545	14355
850.68	14495
850.815	14465
850.95	14568
851.085	14621
851.22	14533
851.355	14438
851.49	14461
851.625	14530
851.76	14518
851.895	14336
852.03	14336
852.165	14434
852.299	14419
852.434	14632
852.569	14480
852.703	14537
852.838	14461
852.973	14564
853.107	14560
853.242	14465
853.376	14282
853.511	14233
853.645	14168
853.78	14473
853.914	14408
854.048	14385
854.183	14317
854.317	14362
854.451	14457
854.585	14370
854.72	14259
854.854	14415
854.988	14366
855.122	14244
855.256	14054
855.39	14248
855.524	14396
855.658	14381
855.792	14370
855.926	14320
856.06	14434
856.194	14469
856.327	14332
856.461	14286
856.595	14298
856.729	14313
856.862	14465
856.996	14457
857.13	14469
857.263	14408
857.397	14431
857.53	14366
857.664	14469
857.797	14347
857.931	14469
858.064	14389
858.197	14427
858.331	14358
858.464	14229
858.597	14202
858.731	14256
858.864	14259
858.997	14237
859.13	14377
859.263	14343
859.396	14415
859.529	14309
859.662	14347
859.795	14271
859.928	14404
860.061	14389
860.194	14446
860.327	14320
860.46	14362
860.592	14450
860.725	14450
860.858	14396
860.99	14377
861.123	14202
861.256	14229
861.388	14324
861.521	14887
861.653	14180
861.786	14111
861.918	14225
862.05	14252
862.183	14320
862.315	14419
862.447	14385
862.58	14336
862.712	14142
862.844	13959
862.976	14161
863.108	14142
863.24	14465
863.372	14031
863.504	14065
863.636	14142
863.768	14244
863.9	14084
864.032	13989
864.164	14088
864.296	14149
864.428	14183
864.559	14229
864.691	14180
864.823	14134
864.954	14134
865.086	14161
865.217	14115
865.349	13955
865.48	14115
865.612	14176
865.743	14240
865.875	14164
866.006	14081
866.137	14126
866.269	14062
866.4	14100
866.531	14039
866.662	13997
866.793	14043
866.924	14039
867.055	14100
867.186	14069
867.317	14103
867.448	14081
867.579	13906
867.71	13909
867.841	13978
867.972	14046
868.103	13986
868.233	14035
868.364	14027
868.495	14199
868.625	14377
868.756	14362
868.886	14275
869.017	14343
869.147	14450
869.278	14434
869.408	14469
869.539	14351
869.669	14469
869.799	14366
869.929	14499
870.06	14404
870.19	14587
870.32	14594
870.45	14712
870.58	14834
870.71	14853
870.84	14880
870.97	14670
871.1	14667
871.23	14887
871.36	14876
871.489	14826
871.619	14918
871.749	14956
871.879	14960
872.008	15055
872.138	14963
872.267	14937
872.397	14746
872.526	14735
872.656	14678
872.785	14769
872.915	14895
873.044	15131
873.173	15047
873.303	14986
873.432	14971
873.561	15119
873.69	15013
873.819	14849
873.948	15097
874.077	15089
874.206	14941
874.335	15005
874.464	15104
874.593	15233
874.722	15138
874.851	15272
874.979	15412
875.108	15249
875.237	15275
875.365	15192
875.494	15245
875.623	15382
875.751	15329
875.88	15313
876.008	15408
876.136	15481
876.265	15785
876.393	15850
876.521	15751
876.65	15770
876.778	15747
876.906	15667
877.034	15629
877.162	15675
877.29	15652
877.418	15717
877.546	15808
877.674	15713
877.802	15736
877.93	15736
878.058	15629
878.185	15663
878.313	15797
878.441	15717
878.568	15656
878.696	15648
878.824	15812
878.951	15816
879.079	15915
879.206	16131
879.333	15876
879.461	15804
879.588	15846
879.715	15937
879.842	16006
879.97	15819
880.097	15530
880.224	15633
880.351	15671
880.478	15656
880.605	15515
880.732	15584
880.859	15736
880.986	15557
881.112	15667
881.239	15454
881.366	15344
881.493	15287
881.619	15325
881.746	15268
881.872	15226
881.999	15100
882.125	15268
882.252	15283
882.378	15325
882.505	15416
882.631	15173
882.757	14994
882.883	15184
883.01	15036
883.136	15020
883.262	14906
883.388	14857
883.514	15066
883.64	15176
883.766	15020
883.892	14861
884.018	14971
884.143	14994
884.269	15222
884.395	14777
884.52	14670
884.646	14804
884.772	14602
884.897	14621
885.023	14785
885.148	14906
885.274	14887
885.399	15013
885.524	14739
885.65	14758
885.775	14785
885.9	14765
886.025	14838
886.15	14830
886.275	14644
886.4	14636
886.525	14842
886.65	14727
886.775	14632
886.9	14838
887.025	14937
887.149	14754
887.274	14606
887.399	14556
887.523	14606
887.648	14431
887.773	14446
887.897	14689
888.021	14610
888.146	14514
888.27	14659
888.395	14754
888.519	14663
888.643	14689
888.767	14781
888.891	14583
889.015	14446
889.139	14484
889.263	14495
889.387	14560
889.511	14697
889.635	14564
889.759	14446
889.883	14396
890.006	14450
890.13	14518
890.254	14419
890.377	14355
890.501	14267
890.624	14263
890.748	14301
890.871	14191
890.995	14119
891.118	14039
891.241	14157
891.364	14115
891.488	14328
891.611	14092
891.734	14168
891.857	14248
891.98	14142
892.103	14294
892.226	14229
892.349	14191
892.471	14024
892.594	14176
892.717	14062
892.839	14157
892.962	14233
893.085	14278
893.207	14039
893.33	14001
893.452	14073
893.575	14252
893.697	14168
893.819	14259
893.941	14343
894.064	14339
894.186	14084
894.308	14180
894.43	14278
894.552	14362
894.674	14294
894.796	14081
894.918	14210
895.04	14191
895.161	14313
895.283	14298
895.405	14149
895.526	14278
895.648	14214
895.769	14313
895.891	14343
896.012	14374
896.134	14377
896.255	14355
896.376	14355
896.498	14301
896.619	14339
896.74	14324
896.861	14324
896.982	14712
897.103	14815
897.224	14610
897.345	14613
897.466	14560
897.587	14625
897.708	14625
897.828	14621
897.949	14522
898.07	14492
898.19	14575
898.311	14743
898.431	14648
898.552	14621
898.672	14849
898.792	14800
898.913	14712
899.033	14632
899.153	14503
899.273	14370
899.393	14412
899.513	14556
899.633	14598
899.753	14579
899.873	14499
899.993	14549
900.113	14503
900.232	14454
900.352	14556
900.472	14374
900.591	14347
900.711	14347
900.83	14339
900.95	14454
901.069	14537
901.189	14358
901.308	14073
901.427	14016
901.546	14058
901.665	14031
901.784	14092
901.904	13993
902.023	13947
902.141	13708
902.26	13525
902.379	13700
902.498	13643
902.617	13563
902.735	13651
902.854	13685
902.973	13502
903.091	13335
903.21	13354
903.328	13400
903.446	13228
903.565	13331
903.683	13217
903.801	13061
903.919	13228
904.038	13247
904.156	12962
904.274	13133
904.392	12970
904.51	13057
904.627	13012
904.745	13133
904.863	13084
904.981	12829
905.098	12593
905.216	12749
905.334	12662
905.451	12703
905.569	12749
905.686	12703
905.803	12677
905.921	12544
906.038	12635
906.155	12566
906.272	12357
906.389	12414
906.506	12388
906.623	12285
906.74	12311
906.857	12136
906.974	12270
907.091	12346
907.208	12471
907.324	12365
907.441	12163
907.557	12186
907.674	12049
907.79	12011
907.907	12038
908.023	12011
908.139	12098
908.256	11946
908.372	12064
908.488	11897
908.604	11832
908.72	11767
908.836	11824
908.952	11714
909.068	11813
909.184	11923
909.3	11798
909.415	11824
909.531	11817
909.647	11600
909.762	11646
909.878	11528
909.993	11566
910.108	11512
910.224	11596
910.339	11551
910.454	11493
910.57	11436
910.685	11391
910.8	11649
910.915	11638
911.03	11406
911.145	11258
911.259	11227
911.374	11258
911.489	11185
911.604	11071
911.718	10984
911.833	11136
911.947	10896
912.062	10942
912.176	11003
912.291	11102
912.405	11033
912.519	11269
912.633	11250
912.748	11098
912.862	11140
912.976	10843
913.09	10816
913.204	10843
913.318	10831
913.431	11102
913.545	11048
913.659	11052
913.772	10896
913.886	10946
914	10790
914.113	10896
914.226	10908
914.34	10889
914.453	10702
914.566	10866
914.68	10675
914.793	10683
914.906	10577
915.019	10523
915.132	10459
915.245	10440
915.358	10558
915.47	10569
915.583	10538
915.696	10542
915.809	10706
915.921	10653
916.034	10565
916.146	10516
916.259	10382
916.371	10504
916.483	10443
916.595	10459
916.708	10538
916.82	10436
916.932	10493
917.044	10447
917.156	10455
917.268	10341
917.38	10352
917.491	10344
917.603	10447
917.715	10440
917.826	10440
917.938	10325
918.049	10268
918.161	10303
918.272	10481
918.384	10466
918.495	10405
918.606	10196
918.717	10154
918.828	10261
918.939	10257
919.05	10242
919.161	10120
919.272	10063
919.383	10116
919.494	10272
919.604	10455
919.715	10211
919.826	10082
919.936	10185
920.047	10360
920.157	10310
920.267	10508
920.378	10276
920.488	10249
920.598	10474
920.708	10611
920.818	10421
920.928	10432
921.038	10588
921.148	10634
921.258	10242
921.368	10207
921.477	10063
921.587	10147
921.697	9960
921.806	10101
921.916	9975
922.025	9892
922.134	9854
922.244	9812
922.353	9842
922.462	9694
922.571	9637
922.68	9458
922.789	9507
922.898	9538
923.007	9492
923.116	9614
923.224	9458
923.333	9405
923.442	9408
923.55	9405
923.659	9393
923.767	9473
923.876	9367
923.984	9431
924.092	9264
924.201	9370
924.309	9378
924.417	9359
924.525	9287
924.633	9332
924.741	10306
924.849	9093
924.956	9253
925.064	9188
925.172	9081
925.279	9104
925.387	9218
925.494	9150
925.602	9283
925.709	9245
925.816	9112
925.924	9161
926.031	9249
926.138	9154
926.245	9146
926.352	9081
926.459	9214
926.566	9264
926.673	9116
926.779	9074
926.886	9032
926.993	8914
927.099	8895
927.206	8842
927.312	8834
927.419	9009
927.525	8872
927.631	8952
927.737	8796
927.843	8773
927.95	8705
928.056	8708
928.162	8743
928.267	8823
928.373	9344
928.479	8864
928.585	8655
928.69	8746
928.796	8769
928.901	8655
929.007	8503
929.112	8735
929.218	8708
929.323	8571
929.428	8583
929.533	8769
929.638	8579
929.743	8583
929.848	8613
929.953	8564
930.058	8503
930.163	8370
930.267	8339
930.372	8537
930.477	8279
930.581	8568
930.685	8343
930.79	8233
930.894	8355
930.998	8256
931.103	8461
931.207	8050
931.311	8065
931.415	7982
931.519	7761
931.623	7822
