Data from test_V78500241_1077.txt Node
Date: Fri Mar 25 14:41:12 CST 2022
User: usil
Spectrometer: V785-0024
Trigger mode: 0
Integration Time (sec): 4.000000E-1
Scans to average: 1
Nonlinearity correction enabled: false
Boxcar width: 0
Storing dark spectrum: false
XAxis mode: Wavelengths
Number of Pixels in Spectrum: 1024
>>>>>Begin Spectral Data<<<<<
801.071	22736
801.214	22535
801.356	22375
801.499	22192
801.641	22181
801.783	22067
801.926	22101
802.068	21888
802.211	21907
802.353	21880
802.496	21591
802.638	21580
802.78	21557
802.923	21538
803.065	21481
803.208	21363
803.35	21538
803.492	21447
803.635	21538
803.777	21306
803.919	21549
804.061	21846
804.204	21454
804.346	21428
804.488	21184
804.63	21317
804.773	21302
804.915	21393
805.057	21458
805.199	21237
805.341	21469
805.483	21473
805.626	21431
805.768	21294
805.91	21389
806.052	21336
806.194	21237
806.336	21389
806.478	21389
806.62	21374
806.762	21469
806.904	21629
807.046	21842
807.188	21838
807.33	21789
807.472	21808
807.614	21865
807.756	21857
807.898	21599
808.04	21568
808.182	21675
808.324	21793
808.465	21850
808.607	22226
808.749	22246
808.891	22337
809.033	22390
809.174	22310
809.316	22219
809.458	22162
809.6	21949
809.741	22029
809.883	22017
810.025	22131
810.166	22086
810.308	21953
810.45	21907
810.591	21926
810.733	21831
810.875	21743
811.016	21576
811.158	21466
811.299	21603
811.441	21781
811.582	21808
811.724	21561
811.865	21538
812.007	21553
812.148	21576
812.29	21781
812.431	21804
812.573	21926
812.714	21991
812.855	22135
812.997	22226
813.138	22135
813.279	22158
813.421	22150
813.562	22032
813.703	21934
813.845	21736
813.986	21545
814.127	21344
814.268	21287
814.41	21256
814.551	21180
814.692	21138
814.833	21135
814.974	21028
815.115	21180
815.256	21024
815.397	21039
815.539	21020
815.68	20815
815.821	20823
815.962	21043
816.103	20807
816.244	20838
816.385	20686
816.526	20621
816.666	20457
816.807	20240
816.948	20324
817.089	20389
817.23	20396
817.371	20252
817.512	20240
817.653	20282
817.793	20214
817.934	20298
818.075	20286
818.216	20244
818.356	20214
818.497	19986
818.638	20054
818.778	19997
818.919	19917
819.06	20088
819.2	20016
819.341	20168
819.481	20103
819.622	20199
819.762	20583
819.903	20480
820.043	20396
820.184	20259
820.324	20290
820.465	20328
820.605	20343
820.746	20202
820.886	20096
821.026	20252
821.167	20298
821.307	20309
821.447	20237
821.588	20119
821.728	20016
821.868	19822
822.008	19677
822.149	19666
822.289	19605
822.429	19422
822.569	19285
822.709	19304
822.849	19213
822.99	19156
823.13	19076
823.27	19107
823.41	18989
823.55	18852
823.69	18962
823.83	19034
823.97	18787
824.11	18684
824.25	18764
824.389	18654
824.529	18776
824.669	18741
824.809	18806
824.949	18768
825.089	18837
825.228	18757
825.368	18467
825.508	18544
825.648	18631
825.787	18540
825.927	18669
826.067	18475
826.206	18460
826.346	18658
826.485	18547
826.625	18528
826.765	18616
826.904	18525
827.044	18300
827.183	18235
827.323	18197
827.462	18190
827.601	18213
827.741	18201
827.88	18239
828.02	18068
828.159	18129
828.298	18155
828.437	18239
828.577	18007
828.716	18285
828.855	18216
828.994	17996
829.134	18007
829.273	17874
829.412	17942
829.551	17923
829.69	17958
829.829	18011
829.968	18140
830.107	18121
830.246	17969
830.385	17912
830.524	17874
830.663	17874
830.802	17817
830.941	17486
831.08	17619
831.219	17649
831.357	17608
831.496	17756
831.635	17638
831.774	17505
831.913	17387
832.051	17444
832.19	17421
832.329	17417
832.467	17273
832.606	17208
832.744	17299
832.883	17162
833.022	17258
833.16	17231
833.299	17360
833.437	17284
833.576	17299
833.714	17334
833.852	17387
833.991	17402
834.129	17452
834.267	17433
834.406	17402
834.544	17360
834.682	17444
834.821	17372
834.959	17509
835.097	17299
835.235	17349
835.373	17318
835.511	17349
835.65	17330
835.788	17212
835.926	17109
836.064	17071
836.202	17109
836.34	17250
836.478	17318
836.615	17258
836.753	17280
836.891	17277
837.029	17334
837.167	17193
837.305	17113
837.443	17033
837.58	16987
837.718	17075
837.856	17113
837.993	17140
838.131	17113
838.269	17083
838.406	16995
838.544	17037
838.681	16752
838.819	16782
838.956	16713
839.094	16736
839.231	16698
839.369	16809
839.506	17029
839.643	16949
839.781	16710
839.918	16653
840.055	16546
840.193	16683
840.33	16546
840.467	16611
840.604	16588
840.742	16812
840.879	16451
841.016	16550
841.153	16573
841.29	16759
841.427	16748
841.564	16641
841.701	16706
841.838	16565
841.975	16413
842.112	16459
842.249	16398
842.385	16428
842.522	16641
842.659	16360
842.796	16402
842.933	16443
843.069	16295
843.206	16386
843.343	16561
843.479	16363
843.616	16348
843.752	16238
843.889	16257
844.025	16284
844.162	16105
844.298	16329
844.435	16109
844.571	16120
844.708	16303
844.844	16318
844.98	16405
845.117	16249
845.253	16207
845.389	16093
845.525	16272
845.661	16299
845.798	16303
845.934	16459
846.07	16527
846.206	16645
846.342	16626
846.478	16303
846.614	16013
846.75	15835
846.886	15736
847.022	15793
847.158	15823
847.294	15762
847.429	15709
847.565	15724
847.701	16013
847.837	15401
847.972	15458
848.108	15614
848.244	15549
848.379	15336
848.515	15264
848.65	15256
848.786	15389
848.921	15378
849.057	15488
849.192	15401
849.328	15351
849.463	15188
849.598	15332
849.734	15218
849.869	15233
850.004	15077
850.14	15123
850.275	15097
850.41	14990
850.545	15081
850.68	15039
850.815	15207
850.95	15127
851.085	15317
851.22	15157
851.355	15055
851.49	15131
851.625	15100
851.76	15017
851.895	15001
852.03	14956
852.165	15108
852.299	15195
852.434	15089
852.569	15180
852.703	15218
852.838	15116
852.973	15218
853.107	15279
853.242	15077
853.376	14883
853.511	14899
853.645	14921
853.78	15116
853.914	15036
854.048	14906
854.183	14956
854.317	14937
854.451	15127
854.585	14956
854.72	14868
854.854	15001
854.988	14960
855.122	14910
855.256	14842
855.39	14876
855.524	15039
855.658	15062
855.792	14998
855.926	15013
856.06	15001
856.194	15150
856.327	15013
856.461	14948
856.595	15077
856.729	15009
856.862	15017
856.996	15020
857.13	14998
857.263	15085
857.397	15116
857.53	14979
857.664	15081
857.797	15085
857.931	15058
858.064	14967
858.197	15051
858.331	14857
858.464	14868
858.597	14826
858.731	15017
858.864	15005
858.997	14925
859.13	15039
859.263	14918
859.396	15089
859.529	14971
859.662	14895
859.795	14823
859.928	14979
860.061	15074
860.194	15146
860.327	15108
860.46	14975
860.592	15077
860.725	15100
860.858	15039
860.99	14941
861.123	14883
861.256	14891
861.388	14937
861.521	15671
861.653	14891
861.786	14864
861.918	14887
862.05	14902
862.183	14937
862.315	14929
862.447	15074
862.58	14941
862.712	14800
862.844	14632
862.976	14800
863.108	14823
863.24	15192
863.372	14838
863.504	14754
863.636	14659
863.768	14834
863.9	14712
864.032	14655
864.164	14708
864.296	14682
864.428	14800
864.559	14826
864.691	14781
864.823	14762
864.954	14670
865.086	14689
865.217	14785
865.349	14644
865.48	14712
865.612	14705
865.743	14815
865.875	14792
866.006	14655
866.137	14705
866.269	14746
866.4	14743
866.531	14583
866.662	14716
866.793	14598
866.924	14682
867.055	14655
867.186	14636
867.317	14625
867.448	14682
867.579	14629
867.71	14560
867.841	14644
867.972	14644
868.103	14708
868.233	14769
868.364	14712
868.495	14796
868.625	14986
868.756	15085
868.886	14857
869.017	14834
869.147	15135
869.278	15104
869.408	15089
869.539	14941
869.669	15036
869.799	15017
869.929	15123
870.06	15013
870.19	15287
870.32	15195
870.45	15230
870.58	15317
870.71	15443
870.84	15462
870.97	15363
871.1	15359
871.23	15534
871.36	15553
871.489	15397
871.619	15469
871.749	15500
871.879	15504
872.008	15667
872.138	15656
872.267	15603
872.397	15507
872.526	15386
872.656	15462
872.785	15424
872.915	15466
873.044	15629
873.173	15614
873.303	15663
873.432	15675
873.561	15633
873.69	15603
873.819	15549
873.948	15603
874.077	15679
874.206	15568
874.335	15564
874.464	15663
874.593	15934
874.722	15850
874.851	15876
874.979	16013
875.108	15895
875.237	15903
875.365	15846
875.494	16036
875.623	16032
875.751	15918
875.88	15975
876.008	16116
876.136	16029
876.265	16287
876.393	16379
876.521	16417
876.65	16371
876.778	16333
876.906	16322
877.034	16322
877.162	16253
877.29	16306
877.418	16363
877.546	16398
877.674	16344
877.802	16405
877.93	16440
878.058	16166
878.185	16207
878.313	16356
878.441	16390
878.568	16287
878.696	16310
878.824	16276
878.951	16432
879.079	16740
879.206	16744
879.333	16531
879.461	16656
879.588	16759
879.715	16820
879.842	16869
879.97	16565
880.097	16371
880.224	16348
880.351	16356
880.478	16333
880.605	16303
880.732	16246
880.859	16462
880.986	16280
881.112	16257
881.239	16135
881.366	16044
881.493	15892
881.619	15831
881.746	15873
881.872	15869
881.999	15873
882.125	15819
882.252	15930
882.378	15873
882.505	16002
882.631	15838
882.757	15724
882.883	15751
883.01	15675
883.136	15686
883.262	15610
883.388	15500
883.514	15751
883.64	15762
883.766	15656
883.892	15416
884.018	15656
884.143	15667
884.269	15876
884.395	15458
884.52	15367
884.646	15408
884.772	15336
884.897	15268
885.023	15355
885.148	15500
885.274	15679
885.399	15545
885.524	15355
885.65	15477
885.775	15336
885.9	15405
886.025	15488
886.15	15397
886.275	15382
886.4	15264
886.525	15363
886.65	15199
886.775	15332
886.9	15389
887.025	15667
887.149	15416
887.274	15176
887.399	15123
887.523	15230
887.648	15165
887.773	15127
887.897	15302
888.021	15291
888.146	15161
888.27	15245
888.395	15363
888.519	15226
888.643	15135
888.767	15329
888.891	15150
889.015	14982
889.139	15058
889.263	15032
889.387	15127
889.511	15272
889.635	15089
889.759	14887
889.883	15005
890.006	15123
890.13	15169
890.254	14887
890.377	15017
890.501	14804
890.624	14796
890.748	14921
890.871	14693
890.995	14602
891.118	14530
891.241	14811
891.364	14739
891.488	14800
891.611	14667
891.734	14708
891.857	14857
891.98	14746
892.103	14811
892.226	14743
892.349	14568
892.471	14533
892.594	14648
892.717	14655
892.839	14583
892.962	14746
893.085	14834
893.207	14648
893.33	14530
893.452	14602
893.575	14708
893.697	14674
893.819	14823
893.941	14823
894.064	14834
894.186	14724
894.308	14648
894.43	14845
894.552	14876
894.674	14895
894.796	14674
894.918	14788
895.04	14701
895.161	14883
895.283	14781
895.405	14705
895.526	14716
895.648	14773
895.769	14773
895.891	14796
896.012	14906
896.134	14857
896.255	14872
896.376	14826
896.498	14807
896.619	14948
896.74	14823
896.861	14956
896.982	15218
897.103	15321
897.224	15154
897.345	15085
897.466	15013
897.587	15180
897.708	15237
897.828	15131
897.949	15135
898.07	14925
898.19	15047
898.311	15370
898.431	15085
898.552	15058
898.672	15207
898.792	15298
898.913	15310
899.033	15097
899.153	15009
899.273	14849
899.393	14994
899.513	15024
899.633	14990
899.753	14975
899.873	14967
899.993	15085
900.113	14956
900.232	15055
900.352	14921
900.472	14849
900.591	14929
900.711	14986
900.83	14880
900.95	14941
901.069	14941
901.189	14762
901.308	14686
901.427	14610
901.546	14613
901.665	14533
901.784	14568
901.904	14469
902.023	14339
902.141	14096
902.26	14138
902.379	14046
902.498	14199
902.617	14035
902.735	14195
902.854	14046
902.973	14069
903.091	13776
903.21	13845
903.328	13837
903.446	13723
903.565	13685
903.683	13700
903.801	13582
903.919	13655
904.038	13510
904.156	13502
904.274	13559
904.392	13438
904.51	13434
904.627	13434
904.745	13563
904.863	13506
904.981	13335
905.098	13069
905.216	13213
905.334	13202
905.451	13164
905.569	13110
905.686	13228
905.803	13240
905.921	13046
906.038	13034
906.155	12993
906.272	12951
906.389	12859
906.506	12787
906.623	12840
906.74	12673
906.857	12627
906.974	12620
907.091	12829
907.208	12859
907.324	12802
907.441	12646
907.557	12483
907.674	12486
907.79	12353
907.907	12498
908.023	12384
908.139	12486
908.256	12475
908.372	12437
908.488	12399
908.604	12239
908.72	12270
908.836	12266
908.952	12254
909.068	12292
909.184	12353
909.3	12262
909.415	12334
909.531	12201
909.647	11984
909.762	11977
909.878	12083
909.993	12041
910.108	11946
910.224	11992
910.339	12022
910.454	11954
910.57	11882
910.685	11767
910.8	12098
910.915	12007
911.03	11901
911.145	11653
911.259	11688
911.374	11752
911.489	11707
911.604	11570
911.718	11410
911.833	11474
911.947	11379
912.062	11216
912.176	11444
912.291	11490
912.405	11406
912.519	11630
912.633	11589
912.748	11490
912.862	11421
912.976	11368
913.09	11197
913.204	11239
913.318	11322
913.431	11303
913.545	11452
913.659	11414
913.772	11376
913.886	11189
914	11151
914.113	11334
914.226	11322
914.34	11360
914.453	11121
914.566	11277
914.68	11128
914.793	11132
914.906	10953
915.019	10858
915.132	10774
915.245	10896
915.358	10965
915.47	10919
915.583	10915
915.696	11037
915.809	11003
915.921	11075
916.034	10889
916.146	10820
916.259	10793
916.371	10980
916.483	10949
916.595	10771
916.708	10835
916.82	10835
916.932	10915
917.044	10809
917.156	10820
917.268	10733
917.38	10729
917.491	10630
917.603	10622
917.715	10835
917.826	10828
917.938	10683
918.049	10656
918.161	10744
918.272	10824
918.384	10858
918.495	10691
918.606	10626
918.717	10523
918.828	10630
918.939	10641
919.05	10497
919.161	10698
919.272	10451
919.383	10466
919.494	10672
919.604	10869
919.715	10611
919.826	10558
919.936	10558
920.047	10725
920.157	10603
920.267	10771
920.378	10656
920.488	10523
920.598	10790
920.708	10949
920.818	10881
920.928	10828
921.038	10919
921.148	10927
921.258	10687
921.368	10546
921.477	10424
921.587	10379
921.697	10337
921.806	10554
921.916	10386
922.025	10196
922.134	10120
922.244	10124
922.353	10162
922.462	10002
922.571	9934
922.68	9869
922.789	9785
922.898	9835
923.007	9812
923.116	9857
923.224	9850
923.333	9892
923.442	9713
923.55	9679
923.659	9728
923.767	9759
923.876	9671
923.984	9713
924.092	9637
924.201	9679
924.309	9724
924.417	9682
924.525	9679
924.633	9690
924.741	10569
924.849	9435
924.956	9599
925.064	9504
925.172	9378
925.279	9542
925.387	9523
925.494	9439
925.602	9606
925.709	9450
925.816	9458
925.924	9488
926.031	9549
926.138	9450
926.245	9519
926.352	9302
926.459	9523
926.566	9584
926.673	9424
926.779	9294
926.886	9329
926.993	9199
927.099	9119
927.206	9081
927.312	9116
927.419	9207
927.525	9192
927.631	9176
927.737	9119
927.843	9070
927.95	9039
928.056	9135
928.162	9055
928.267	9135
928.373	9720
928.479	9146
928.585	8887
928.69	9051
928.796	9104
928.901	8979
929.007	8842
929.112	8925
929.218	8929
929.323	8861
929.428	8910
929.533	9032
929.638	8754
929.743	8902
929.848	8906
929.953	8883
930.058	8788
930.163	8602
930.267	8636
930.372	8796
930.477	8632
930.581	8819
930.685	8739
930.79	8621
930.894	8629
930.998	8610
931.103	8705
931.207	8404
931.311	8305
931.415	8225
931.519	8123
931.623	8084
