Data from test_V78500241_2778.txt Node
Date: Fri Mar 25 14:53:03 CST 2022
User: usil
Spectrometer: V785-0024
Trigger mode: 0
Integration Time (sec): 4.000000E-1
Scans to average: 1
Nonlinearity correction enabled: false
Boxcar width: 0
Storing dark spectrum: false
XAxis mode: Wavelengths
Number of Pixels in Spectrum: 1024
>>>>>Begin Spectral Data<<<<<
801.071	22017
801.214	21975
801.356	21774
801.499	21625
801.641	21370
801.783	21367
801.926	21374
802.068	21439
802.211	21245
802.353	21272
802.496	20998
802.638	20861
802.78	20842
802.923	20838
803.065	20689
803.208	20697
803.35	20686
803.492	20800
803.635	20899
803.777	20834
803.919	20849
804.061	21135
804.204	20746
804.346	20686
804.488	20556
804.63	20689
804.773	20644
804.915	20667
805.057	20693
805.199	20560
805.341	20727
805.483	20727
805.626	20804
805.768	20613
805.91	20712
806.052	20594
806.194	20564
806.336	20849
806.478	20670
806.62	20564
806.762	20655
806.904	20880
807.046	21024
807.188	21032
807.33	20948
807.472	21051
807.614	20887
807.756	20929
807.898	20750
808.04	20701
808.182	20693
808.324	20777
808.465	20826
808.607	20842
808.749	21085
808.891	21123
809.033	21211
809.174	21032
809.316	21020
809.458	21055
809.6	20899
809.741	21020
809.883	21104
810.025	21074
810.166	21135
810.308	21085
810.45	21058
810.591	21017
810.733	20986
810.875	20853
811.016	20750
811.158	20682
811.299	20746
811.441	20960
811.582	20743
811.724	20746
811.865	20762
812.007	20644
812.148	20731
812.29	20746
812.431	20971
812.573	21165
812.714	21226
812.855	21245
812.997	21302
813.138	21595
813.279	21389
813.421	21252
813.562	21093
813.703	21032
813.845	20853
813.986	20724
814.127	20442
814.268	20278
814.41	20408
814.551	20301
814.692	20366
814.833	20286
814.974	20362
815.115	20286
815.256	20202
815.397	20214
815.539	20214
815.68	20016
815.821	19963
815.962	20073
816.103	19959
816.244	19902
816.385	19841
816.526	19791
816.666	19609
816.807	19487
816.948	19563
817.089	19620
817.23	19491
817.371	19434
817.512	19510
817.653	19358
817.793	19453
817.934	19365
818.075	19445
818.216	19438
818.356	19354
818.497	19324
818.638	19160
818.778	19126
818.919	19072
819.06	19122
819.2	19255
819.341	19434
819.481	19346
819.622	19544
819.762	19571
819.903	19556
820.043	19468
820.184	19327
820.324	19373
820.465	19487
820.605	19457
820.746	19411
820.886	19263
821.026	19369
821.167	19346
821.307	19415
821.447	19449
821.588	19285
821.728	19114
821.868	18958
822.008	18863
822.149	18844
822.289	18844
822.429	18593
822.569	18547
822.709	18532
822.849	18391
822.99	18407
823.13	18308
823.27	18350
823.41	18148
823.55	18053
823.69	18106
823.83	18178
823.97	18117
824.11	17828
824.25	17935
824.389	17920
824.529	18038
824.669	17916
824.809	17958
824.949	17893
825.089	18079
825.228	17771
825.368	17809
825.508	17657
825.648	17813
825.787	17646
825.927	17745
826.067	17722
826.206	17695
826.346	17726
826.485	17748
826.625	17634
826.765	17794
826.904	17783
827.044	17520
827.183	17395
827.323	17379
827.462	17509
827.601	17459
827.741	17440
827.88	17417
828.02	17265
828.159	17387
828.298	17398
828.437	17490
828.577	17444
828.716	17429
828.855	17402
828.994	17132
829.134	17147
829.273	17147
829.412	17117
829.551	17022
829.69	17048
829.829	17166
829.968	17227
830.107	17235
830.246	17155
830.385	17067
830.524	17102
830.663	16911
830.802	16896
830.941	16763
831.08	16706
831.219	16877
831.357	16908
831.496	17003
831.635	16820
831.774	16561
831.913	16660
832.051	16577
832.19	16474
832.329	16569
832.467	16554
832.606	16398
832.744	16447
832.883	16375
833.022	16500
833.16	16508
833.299	16561
833.437	16466
833.576	16592
833.714	16497
833.852	16504
833.991	16626
834.129	16702
834.267	16645
834.406	16519
834.544	16531
834.682	16641
834.821	16497
834.959	16618
835.097	16500
835.235	16637
835.373	16542
835.511	16413
835.65	16367
835.788	16413
835.926	16337
836.064	16196
836.202	16390
836.34	16428
836.478	16550
836.615	16436
836.753	16497
836.891	16493
837.029	16485
837.167	16447
837.305	16398
837.443	16265
837.58	16318
837.718	16356
837.856	16234
837.993	16253
838.131	16363
838.269	16265
838.406	16276
838.544	16124
838.681	16067
838.819	15964
838.956	15827
839.094	15873
839.231	15934
839.369	15930
839.506	16249
839.643	16059
839.781	15899
839.918	15838
840.055	15892
840.193	15922
840.33	15846
840.467	15934
840.604	15899
840.742	16109
840.879	15705
841.016	15667
841.153	15739
841.29	16017
841.427	15956
841.564	15903
841.701	15812
841.838	15922
841.975	15739
842.112	15793
842.249	15682
842.385	15504
842.522	15876
842.659	15648
842.796	15637
842.933	15705
843.069	15625
843.206	15610
843.343	15857
843.479	15580
843.616	15701
843.752	15466
843.889	15454
844.025	15587
844.162	15515
844.298	15663
844.435	15393
844.571	15374
844.708	15511
844.844	15595
844.98	15473
845.117	15606
845.253	15408
845.389	15302
845.525	15428
845.661	15329
845.798	15199
845.934	15249
846.07	15199
846.206	15367
846.342	15260
846.478	15260
846.614	15127
846.75	14952
846.886	14948
847.022	15157
847.158	14960
847.294	14952
847.429	15070
847.565	14979
847.701	15207
847.837	14712
847.972	14682
848.108	14777
848.244	14777
848.379	14640
848.515	14568
848.65	14629
848.786	14632
848.921	14617
849.057	14758
849.192	14705
849.328	14632
849.463	14731
849.598	14575
849.734	14587
849.869	14396
850.004	14526
850.14	14415
850.275	14324
850.41	14275
850.545	14320
850.68	14332
850.815	14446
850.95	14408
851.085	14545
851.22	14507
851.355	14366
851.49	14282
851.625	14305
851.76	14339
851.895	14309
852.03	14259
852.165	14377
852.299	14366
852.434	14473
852.569	14381
852.703	14362
852.838	14351
852.973	14473
853.107	14492
853.242	14366
853.376	14214
853.511	14149
853.645	14214
853.78	14332
853.914	14259
854.048	14123
854.183	14240
854.317	14294
854.451	14385
854.585	14187
854.72	14176
854.854	14294
854.988	14263
855.122	14119
855.256	14054
855.39	14183
855.524	14320
855.658	14343
855.792	14252
855.926	14256
856.06	14362
856.194	14374
856.327	14153
856.461	14153
856.595	14195
856.729	14115
856.862	14347
856.996	14347
857.13	14347
857.263	14309
857.397	14362
857.53	14294
857.664	14278
857.797	14294
857.931	14438
858.064	14214
858.197	14366
858.331	14202
858.464	14244
858.597	14107
858.731	14202
858.864	14221
858.997	14168
859.13	14286
859.263	14237
859.396	14278
859.529	14309
859.662	14229
859.795	14202
859.928	14248
860.061	14450
860.194	14454
860.327	14298
860.46	14263
860.592	14313
860.725	14320
860.858	14377
860.99	14248
861.123	14134
861.256	14096
861.388	14214
861.521	14861
861.653	14100
861.786	14149
861.918	14046
862.05	14065
862.183	14183
862.315	14282
862.447	14259
862.58	14183
862.712	13978
862.844	13982
862.976	14115
863.108	14001
863.24	14366
863.372	13932
863.504	14058
863.636	13970
863.768	13982
863.9	14035
864.032	14065
864.164	13955
864.296	13925
864.428	14176
864.559	14138
864.691	14134
864.823	14088
864.954	14115
865.086	14024
865.217	14016
865.349	13921
865.48	13894
865.612	13993
865.743	14233
865.875	13932
866.006	14008
866.137	14016
866.269	14077
866.4	13982
866.531	14054
866.662	14039
866.793	13974
866.924	13925
867.055	13951
867.186	13982
867.317	13978
867.448	13845
867.579	13856
867.71	13921
867.841	13925
867.972	14046
868.103	13963
868.233	13959
868.364	14020
868.495	14115
868.625	14225
868.756	14336
868.886	14145
869.017	14210
869.147	14465
869.278	14400
869.408	14259
869.539	14267
869.669	14374
869.799	14240
869.929	14324
870.06	14408
870.19	14495
870.32	14507
870.45	14640
870.58	14667
870.71	14769
870.84	14838
870.97	14514
871.1	14579
871.23	14838
871.36	14792
871.489	14773
871.619	14788
871.749	14804
871.879	14815
872.008	14887
872.138	14857
872.267	14785
872.397	14750
872.526	14617
872.656	14522
872.785	14667
872.915	14887
873.044	14857
873.173	14986
873.303	14861
873.432	14853
873.561	14979
873.69	14880
873.819	14876
873.948	14830
874.077	14941
874.206	14944
874.335	14925
874.464	15001
874.593	15093
874.722	15135
874.851	15184
874.979	15199
875.108	15245
875.237	15195
875.365	15081
875.494	15252
875.623	15272
875.751	15207
875.88	15252
876.008	15340
876.136	15454
876.265	15599
876.393	15762
876.521	15641
876.65	15652
876.778	15644
876.906	15561
877.034	15641
877.162	15572
877.29	15564
877.418	15595
877.546	15610
877.674	15637
877.802	15713
877.93	15526
878.058	15629
878.185	15439
878.313	15519
878.441	15625
878.568	15462
878.696	15504
878.824	15599
878.951	15747
879.079	15808
879.206	15895
879.333	15717
879.461	15686
879.588	15648
879.715	15793
879.842	15838
879.97	15762
880.097	15519
880.224	15504
880.351	15549
880.478	15507
880.605	15443
880.732	15401
880.859	15770
880.986	15534
881.112	15462
881.239	15416
881.366	15268
881.493	15138
881.619	15104
881.746	15116
881.872	15100
881.999	15116
882.125	15047
882.252	15192
882.378	15180
882.505	15245
882.631	15165
882.757	14952
882.883	15013
883.01	15013
883.136	14819
883.262	14819
883.388	14773
883.514	14914
883.64	14971
883.766	14967
883.892	14750
884.018	14804
884.143	14929
884.269	14986
884.395	14716
884.52	14693
884.646	14689
884.772	14682
884.897	14495
885.023	14590
885.148	14708
885.274	14788
885.399	14750
885.524	14678
885.65	14625
885.775	14602
885.9	14640
886.025	14716
886.15	14670
886.275	14598
886.4	14495
886.525	14564
886.65	14465
886.775	14571
886.9	14815
887.025	14804
887.149	14674
887.274	14434
887.399	14465
887.523	14427
887.648	14503
887.773	14366
887.897	14579
888.021	14556
888.146	14419
888.27	14613
888.395	14636
888.519	14533
888.643	14560
888.767	14541
888.891	14366
889.015	14282
889.139	14377
889.263	14301
889.387	14434
889.511	14587
889.635	14511
889.759	14343
889.883	14366
890.006	14309
890.13	14450
890.254	14263
890.377	14286
890.501	14153
890.624	14092
890.748	14180
890.871	14096
890.995	14073
891.118	13989
891.241	14092
891.364	14027
891.488	14294
891.611	14096
891.734	14027
891.857	14145
891.98	14043
892.103	14058
892.226	14054
892.349	14027
892.471	13906
892.594	13887
892.717	14123
892.839	13989
892.962	14149
893.085	14062
893.207	14077
893.33	13959
893.452	13955
893.575	14176
893.697	13997
893.819	14138
893.941	14263
894.064	14206
894.186	14043
894.308	14046
894.43	14225
894.552	14191
894.674	14176
894.796	14016
894.918	14039
895.04	14138
895.161	14069
895.283	14138
895.405	14088
895.526	14050
895.648	14077
895.769	14134
895.891	14259
896.012	14256
896.134	14214
896.255	14168
896.376	14164
896.498	14221
896.619	14271
896.74	14153
896.861	14377
896.982	14530
897.103	14651
897.224	14568
897.345	14385
897.466	14408
897.587	14473
897.708	14632
897.828	14427
897.949	14442
898.07	14370
898.19	14571
898.311	14686
898.431	14522
898.552	14484
898.672	14636
898.792	14583
898.913	14697
899.033	14587
899.153	14526
899.273	14286
899.393	14336
899.513	14533
899.633	14412
899.753	14484
899.873	14396
899.993	14442
900.113	14389
900.232	14556
900.352	14412
900.472	14339
900.591	14248
900.711	14339
900.83	14187
900.95	14396
901.069	14324
901.189	14138
901.308	13932
901.427	13928
901.546	14046
901.665	14012
901.784	13997
901.904	13871
902.023	13734
902.141	13578
902.26	13441
902.379	13696
902.498	13552
902.617	13495
902.735	13559
902.854	13518
902.973	13480
903.091	13278
903.21	13308
903.328	13221
903.446	13209
903.565	13209
903.683	13206
903.801	13038
903.919	13168
904.038	13145
904.156	12890
904.274	13012
904.392	12920
904.51	12924
904.627	12916
904.745	13027
904.863	13061
904.981	12719
905.098	12551
905.216	12551
905.334	12707
905.451	12646
905.569	12631
905.686	12719
905.803	12547
905.921	12490
906.038	12574
906.155	12429
906.272	12277
906.389	12361
906.506	12163
906.623	12247
906.74	12262
906.857	12049
906.974	12262
907.091	12251
907.208	12346
907.324	12213
907.441	12098
907.557	11954
907.674	11965
907.79	11866
907.907	12003
908.023	11950
908.139	11946
908.256	11954
908.372	11897
908.488	11882
908.604	11707
908.72	11760
908.836	11805
908.952	11665
909.068	11733
909.184	11840
909.3	11710
909.415	11729
909.531	11726
909.647	11547
909.762	11440
909.878	11429
909.993	11497
910.108	11539
910.224	11493
910.339	11440
910.454	11410
910.57	11322
910.685	11269
910.8	11646
910.915	11497
911.03	11296
911.145	11239
911.259	11159
911.374	11159
911.489	11216
911.604	11067
911.718	10995
911.833	10885
911.947	10885
912.062	10771
912.176	10965
912.291	11064
912.405	10987
912.519	11162
912.633	11045
912.748	10942
912.862	10889
912.976	10892
913.09	10656
913.204	10755
913.318	10782
913.431	10972
913.545	10930
913.659	10839
913.772	10858
913.886	10824
914	10733
914.113	10717
914.226	10740
914.34	10809
914.453	10584
914.566	10755
914.68	10641
914.793	10580
914.906	10462
915.019	10443
915.132	10352
915.245	10470
915.358	10360
915.47	10462
915.583	10481
915.696	10493
915.809	10535
915.921	10558
916.034	10409
916.146	10375
916.259	10405
916.371	10474
916.483	10538
916.595	10291
916.708	10398
916.82	10363
916.932	10360
917.044	10417
917.156	10436
917.268	10223
917.38	10322
917.491	10318
917.603	10246
917.715	10341
917.826	10443
917.938	10234
918.049	10200
918.161	10268
918.272	10440
918.384	10405
918.495	10333
918.606	10181
918.717	10082
918.828	10253
918.939	10158
919.05	10051
919.161	10162
919.272	9991
919.383	10124
919.494	10234
919.604	10322
919.715	10192
919.826	10059
919.936	10207
920.047	10234
920.157	10173
920.267	10375
920.378	10272
920.488	10071
920.598	10280
920.708	10527
920.818	10436
920.928	10367
921.038	10478
921.148	10417
921.258	10177
921.368	10162
921.477	10067
921.587	10032
921.697	9945
921.806	10086
921.916	9903
922.025	9816
922.134	9717
922.244	9747
922.353	9743
922.462	9618
922.571	9599
922.68	9416
922.789	9424
922.898	9466
923.007	9393
923.116	9511
923.224	9450
923.333	9450
923.442	9302
923.55	9374
923.659	9332
923.767	9378
923.876	9260
923.984	9378
924.092	9195
924.201	9275
924.309	9298
924.417	9329
924.525	9268
924.633	9298
924.741	10071
924.849	9032
924.956	9222
925.064	9116
925.172	8982
925.279	9074
925.387	9154
925.494	9108
925.602	9199
925.709	9135
925.816	9028
925.924	9005
926.031	9161
926.138	9043
926.245	9100
926.352	9043
926.459	9154
926.566	9184
926.673	9013
926.779	8979
926.886	8914
926.993	8849
927.099	8819
927.206	8716
927.312	8743
927.419	8868
927.525	8842
927.631	8921
927.737	8686
927.843	8678
927.95	8575
928.056	8636
928.162	8651
928.267	8773
928.373	9344
928.479	8788
928.585	8583
928.69	8648
928.796	8758
928.901	8629
929.007	8434
929.112	8583
929.218	8682
929.323	8522
929.428	8541
929.533	8716
929.638	8473
929.743	8480
929.848	8587
929.953	8514
930.058	8465
930.163	8328
930.267	8301
930.372	8454
930.477	8290
930.581	8552
930.685	8339
930.79	8240
930.894	8339
930.998	8218
931.103	8377
931.207	8043
931.311	7993
931.415	7951
931.519	7753
931.623	7753
