Data from test_V78500241_1467.txt Node
Date: Fri Mar 25 14:43:55 CST 2022
User: usil
Spectrometer: V785-0024
Trigger mode: 0
Integration Time (sec): 4.000000E-1
Scans to average: 1
Nonlinearity correction enabled: false
Boxcar width: 0
Storing dark spectrum: false
XAxis mode: Wavelengths
Number of Pixels in Spectrum: 1024
>>>>>Begin Spectral Data<<<<<
801.071	22459
801.214	22306
801.356	22074
801.499	21876
801.641	21705
801.783	21732
801.926	21728
802.068	21610
802.211	21720
802.353	21519
802.496	21336
802.638	21329
802.78	21298
802.923	21211
803.065	21112
803.208	20963
803.35	21058
803.492	21218
803.635	21256
803.777	21119
803.919	21154
804.061	21424
804.204	21165
804.346	21055
804.488	20979
804.63	21123
804.773	21009
804.915	20994
805.057	21116
805.199	21108
805.341	21089
805.483	21169
805.626	21123
805.768	20982
805.91	21024
806.052	21009
806.194	20876
806.336	21195
806.478	21093
806.62	21032
806.762	21039
806.904	21211
807.046	21454
807.188	21401
807.33	21302
807.472	21443
807.614	21344
807.756	21344
807.898	21176
808.04	21131
808.182	21173
808.324	21287
808.465	21287
808.607	21595
808.749	21519
808.891	21747
809.033	21911
809.174	21770
809.316	21549
809.458	21648
809.6	21454
809.741	21557
809.883	21606
810.025	21686
810.166	21709
810.308	21641
810.45	21603
810.591	21492
810.733	21348
810.875	21214
811.016	21264
811.158	21161
811.299	21245
811.441	21488
811.582	21291
811.724	21199
811.865	21230
812.007	21150
812.148	21096
812.29	21351
812.431	21367
812.573	21492
812.714	21599
812.855	21747
812.997	21724
813.138	21865
813.279	21781
813.421	21739
813.562	21717
813.703	21538
813.845	21344
813.986	21077
814.127	21043
814.268	20944
814.41	20800
814.551	20765
814.692	20876
814.833	20655
814.974	20826
815.115	20693
815.256	20480
815.397	20640
815.539	20556
815.68	20514
815.821	20419
815.962	20514
816.103	20499
816.244	20381
816.385	20202
816.526	20214
816.666	20122
816.807	20001
816.948	20008
817.089	20008
817.23	19982
817.371	19917
817.512	19833
817.653	19894
817.793	19807
817.934	19826
818.075	19963
818.216	19913
818.356	19814
818.497	19715
818.638	19590
818.778	19677
818.919	19594
819.06	19624
819.2	19609
819.341	19799
819.481	19887
819.622	20039
819.762	20119
819.903	19902
820.043	19959
820.184	19845
820.324	19970
820.465	19879
820.605	19883
820.746	19837
820.886	19715
821.026	19921
821.167	19841
821.307	19963
821.447	19727
821.588	19674
821.728	19674
821.868	19567
822.008	19228
822.149	19190
822.289	19228
822.429	18970
822.569	19069
822.709	18848
822.849	18795
822.99	18798
823.13	18772
823.27	18696
823.41	18589
823.55	18452
823.69	18642
823.83	18696
823.97	18479
824.11	18410
824.25	18407
824.389	18334
824.529	18479
824.669	18281
824.809	18498
824.949	18380
825.089	18372
825.228	18380
825.368	18144
825.508	18251
825.648	18239
825.787	18292
825.927	18239
826.067	18011
826.206	18129
826.346	18133
826.485	18129
826.625	18152
826.765	18300
826.904	18243
827.044	17878
827.183	17893
827.323	17866
827.462	17973
827.601	17961
827.741	17836
827.88	17908
828.02	17714
828.159	17767
828.298	17809
828.437	17901
828.577	17790
828.716	18079
828.855	17752
828.994	17680
829.134	17684
829.273	17600
829.412	17562
829.551	17436
829.69	17680
829.829	17710
829.968	17642
830.107	17722
830.246	17585
830.385	17448
830.524	17486
830.663	17452
830.802	17349
830.941	17181
831.08	17193
831.219	17322
831.357	17269
831.496	17524
831.635	17246
831.774	17204
831.913	17117
832.051	16930
832.19	16999
832.329	16930
832.467	16949
832.606	16911
832.744	16847
832.883	16999
833.022	16885
833.16	16911
833.299	16889
833.437	16968
833.576	16927
833.714	17037
833.852	16968
833.991	17010
834.129	16957
834.267	17033
834.406	16900
834.544	17083
834.682	17048
834.821	16968
834.959	17105
835.097	16927
835.235	17079
835.373	17014
835.511	17090
835.65	16934
835.788	16850
835.926	16729
836.064	16691
836.202	16607
836.34	16889
836.478	16885
836.615	16839
836.753	16904
836.891	16991
837.029	16900
837.167	16858
837.305	16816
837.443	16706
837.58	16721
837.718	16801
837.856	16812
837.993	16660
838.131	16763
838.269	16630
838.406	16626
838.544	16516
838.681	16424
838.819	16379
838.956	16265
839.094	16348
839.231	16318
839.369	16481
839.506	16634
839.643	16500
839.781	16303
839.918	16234
840.055	16360
840.193	16211
840.33	16173
840.467	16333
840.604	16291
840.742	16432
840.879	16143
841.016	16158
841.153	16188
841.29	16337
841.427	16265
841.564	16386
841.701	16333
841.838	16185
841.975	16200
842.112	16173
842.249	16055
842.385	16051
842.522	16291
842.659	16055
842.796	16025
842.933	16021
843.069	15964
843.206	15964
843.343	16120
843.479	16025
843.616	16029
843.752	15876
843.889	15915
844.025	15953
844.162	15812
844.298	15937
844.435	15808
844.571	15838
844.708	15930
844.844	15960
844.98	15968
845.117	15949
845.253	15732
845.389	15762
845.525	15717
845.661	15800
845.798	15823
845.934	15991
846.07	15831
846.206	15911
846.342	16010
846.478	15819
846.614	15606
846.75	15412
846.886	15431
847.022	15374
847.158	15519
847.294	15450
847.429	15428
847.565	15332
847.701	15682
847.837	15058
847.972	15100
848.108	15195
848.244	15291
848.379	14990
848.515	14982
848.65	14967
848.786	14967
848.921	15024
849.057	15070
849.192	15032
849.328	15001
849.463	15070
849.598	14944
849.734	14948
849.869	14918
850.004	14762
850.14	14788
850.275	14796
850.41	14644
850.545	14632
850.68	14629
850.815	14701
850.95	14727
851.085	14921
851.22	14902
851.355	14739
851.49	14693
851.625	14796
851.76	14644
851.895	14625
852.03	14659
852.165	14765
852.299	14724
852.434	14785
852.569	14724
852.703	14769
852.838	14857
852.973	14925
853.107	14891
853.242	14826
853.376	14693
853.511	14480
853.645	14640
853.78	14727
853.914	14712
854.048	14545
854.183	14613
854.317	14590
854.451	14769
854.585	14606
854.72	14575
854.854	14682
854.988	14537
855.122	14514
855.256	14503
855.39	14640
855.524	14670
855.658	14678
855.792	14632
855.926	14583
856.06	14636
856.194	14701
856.327	14606
856.461	14583
856.595	14617
856.729	14606
856.862	14769
856.996	14701
857.13	14712
857.263	14682
857.397	14769
857.53	14648
857.664	14606
857.797	14708
857.931	14796
858.064	14689
858.197	14610
858.331	14598
858.464	14621
858.597	14503
858.731	14590
858.864	14610
858.997	14454
859.13	14689
859.263	14678
859.396	14693
859.529	14644
859.662	14583
859.795	14613
859.928	14648
860.061	14743
860.194	14724
860.327	14617
860.46	14613
860.592	14773
860.725	14800
860.858	14804
860.99	14583
861.123	14640
861.256	14446
861.388	14533
861.521	15211
861.653	14530
861.786	14461
861.918	14427
862.05	14495
862.183	14526
862.315	14602
862.447	14598
862.58	14522
862.712	14336
862.844	14389
862.976	14511
863.108	14400
863.24	14861
863.372	14286
863.504	14351
863.636	14358
863.768	14313
863.9	14465
864.032	14370
864.164	14393
864.296	14385
864.428	14469
864.559	14492
864.691	14446
864.823	14533
864.954	14332
865.086	14362
865.217	14404
865.349	14206
865.48	14328
865.612	14332
865.743	14556
865.875	14427
866.006	14431
866.137	14442
866.269	14377
866.4	14267
866.531	14358
866.662	14248
866.793	14343
866.924	14328
867.055	14408
867.186	14309
867.317	14225
867.448	14233
867.579	14313
867.71	14199
867.841	14271
867.972	14351
868.103	14343
868.233	14427
868.364	14366
868.495	14442
868.625	14537
868.756	14602
868.886	14549
869.017	14663
869.147	14663
869.278	14716
869.408	14571
869.539	14583
869.669	14735
869.799	14667
869.929	14743
870.06	14701
870.19	14944
870.32	14880
870.45	15043
870.58	15032
870.71	15135
870.84	15112
870.97	14982
871.1	15020
871.23	15222
871.36	15157
871.489	15116
871.619	15081
871.749	15237
871.879	15321
872.008	15241
872.138	15192
872.267	15207
872.397	15138
872.526	14975
872.656	15081
872.785	15001
872.915	15252
873.044	15272
873.173	15199
873.303	15291
873.432	15336
873.561	15264
873.69	15218
873.819	15298
873.948	15272
874.077	15294
874.206	15256
874.335	15340
874.464	15416
874.593	15439
874.722	15591
874.851	15500
874.979	15625
875.108	15580
875.237	15542
875.365	15443
875.494	15515
875.623	15633
875.751	15538
875.88	15679
876.008	15827
876.136	15888
876.265	15991
876.393	16067
876.521	16090
876.65	16082
876.778	16097
876.906	15918
877.034	15926
877.162	15854
877.29	15930
877.418	15960
877.546	15960
877.674	16021
877.802	15953
877.93	15968
878.058	15994
878.185	15861
878.313	15903
878.441	15945
878.568	15861
878.696	15827
878.824	16097
878.951	16029
879.079	16169
879.206	16280
879.333	16276
879.461	16158
879.588	16185
879.715	16409
879.842	16287
879.97	16150
880.097	15869
880.224	15907
880.351	15926
880.478	15979
880.605	15876
880.732	15785
880.859	16124
880.986	15823
881.112	15838
881.239	15774
881.366	15656
881.493	15545
881.619	15603
881.746	15511
881.872	15644
881.999	15439
882.125	15469
882.252	15492
882.378	15492
882.505	15530
882.631	15519
882.757	15291
882.883	15348
883.01	15336
883.136	15317
883.262	15241
883.388	15298
883.514	15306
883.64	15424
883.766	15260
883.892	15051
884.018	15150
884.143	15287
884.269	15355
884.395	15089
884.52	14960
884.646	15081
884.772	14887
884.897	14990
885.023	14918
885.148	15074
885.274	15157
885.399	15089
885.524	14952
885.65	15013
885.775	15081
885.9	15104
886.025	15211
886.15	15100
886.275	14994
886.4	14891
886.525	15058
886.65	14971
886.775	14990
886.9	15112
887.025	15336
887.149	14979
887.274	14857
887.399	14777
887.523	14804
887.648	14686
887.773	14800
887.897	14883
888.021	14883
888.146	14792
888.27	14941
888.395	14925
888.519	14910
888.643	14868
888.767	14861
888.891	14804
889.015	14705
889.139	14682
889.263	14682
889.387	14773
889.511	14857
889.635	14762
889.759	14598
889.883	14644
890.006	14686
890.13	14785
890.254	14552
890.377	14705
890.501	14590
890.624	14450
890.748	14526
890.871	14431
890.995	14415
891.118	14256
891.241	14412
891.364	14461
891.488	14480
891.611	14339
891.734	14434
891.857	14533
891.98	14438
892.103	14385
892.226	14374
892.349	14324
892.471	14267
892.594	14282
892.717	14339
892.839	14328
892.962	14427
893.085	14514
893.207	14404
893.33	14267
893.452	14286
893.575	14434
893.697	14199
893.819	14446
893.941	14530
894.064	14476
894.186	14339
894.308	14381
894.43	14492
894.552	14575
894.674	14511
894.796	14366
894.918	14374
895.04	14393
895.161	14461
895.283	14495
895.405	14370
895.526	14396
895.648	14507
895.769	14476
895.891	14533
896.012	14533
896.134	14568
896.255	14556
896.376	14507
896.498	14476
896.619	14579
896.74	14587
896.861	14655
896.982	14975
897.103	15074
897.224	14845
897.345	14792
897.466	14701
897.587	14720
897.708	14971
897.828	14769
897.949	14758
898.07	14781
898.19	14830
898.311	14834
898.431	14792
898.552	14918
898.672	14937
898.792	14948
898.913	14883
899.033	14887
899.153	14712
899.273	14625
899.393	14701
899.513	14667
899.633	14731
899.753	14750
899.873	14674
899.993	14804
900.113	14777
900.232	14796
900.352	14686
900.472	14651
900.591	14602
900.711	14636
900.83	14560
900.95	14655
901.069	14705
901.189	14492
901.308	14275
901.427	14240
901.546	14248
901.665	14305
901.784	14385
901.904	14130
902.023	14024
902.141	14016
902.26	13811
902.379	13868
902.498	13894
902.617	13784
902.735	13955
902.854	13780
902.973	13753
903.091	13632
903.21	13578
903.328	13597
903.446	13491
903.565	13373
903.683	13544
903.801	13301
903.919	13388
904.038	13335
904.156	13202
904.274	13285
904.392	13156
904.51	13179
904.627	13152
904.745	13301
904.863	13266
904.981	13015
905.098	12916
905.216	12951
905.334	12905
905.451	12882
905.569	12924
905.686	12962
905.803	12894
905.921	12662
906.038	12734
906.155	12745
906.272	12559
906.389	12597
906.506	12437
906.623	12456
906.74	12494
906.857	12388
906.974	12376
907.091	12582
907.208	12662
907.324	12540
907.441	12452
907.557	12243
907.674	12175
907.79	12186
907.907	12209
908.023	12281
908.139	12239
908.256	12129
908.372	12148
908.488	12121
908.604	12019
908.72	11977
908.836	11988
908.952	11973
909.068	11946
909.184	12129
909.3	12007
909.415	12045
909.531	12015
909.647	11752
909.762	11710
909.878	11665
909.993	11745
910.108	11741
910.224	11767
910.339	11733
910.454	11634
910.57	11634
910.685	11463
910.8	11836
910.915	11741
911.03	11653
911.145	11501
911.259	11436
911.374	11455
911.489	11318
911.604	11284
911.718	11239
911.833	11277
911.947	11094
912.062	11052
912.176	11113
912.291	11143
912.405	11147
912.519	11364
912.633	11425
912.748	11204
912.862	11239
912.976	11140
913.09	10991
913.204	11056
913.318	11045
913.431	11166
913.545	11151
913.659	11162
913.772	11060
913.886	10972
914	10957
914.113	11071
914.226	11064
914.34	11022
914.453	10900
914.566	11056
914.68	10953
914.793	10904
914.906	10706
915.019	10588
915.132	10630
915.245	10714
915.358	10687
915.47	10694
915.583	10717
915.696	10831
915.809	10877
915.921	10828
916.034	10725
916.146	10599
916.259	10580
916.371	10645
916.483	10637
916.595	10679
916.708	10664
916.82	10622
916.932	10634
917.044	10599
917.156	10599
917.268	10538
917.38	10523
917.491	10508
917.603	10538
917.715	10618
917.826	10656
917.938	10478
918.049	10306
918.161	10584
918.272	10615
918.384	10698
918.495	10478
918.606	10382
918.717	10363
918.828	10398
918.939	10462
919.05	10242
919.161	10375
919.272	10135
919.383	10284
919.494	10508
919.604	10599
919.715	10402
919.826	10371
919.936	10337
920.047	10504
920.157	10409
920.267	10634
920.378	10356
920.488	10421
920.598	10645
920.708	10702
920.818	10618
920.928	10588
921.038	10786
921.148	10714
921.258	10390
921.368	10325
921.477	10200
921.587	10265
921.697	10200
921.806	10268
921.916	10181
922.025	9983
922.134	9968
922.244	9892
922.353	10021
922.462	9930
922.571	9823
922.68	9717
922.789	9584
922.898	9595
923.007	9595
923.116	9717
923.224	9618
923.333	9576
923.442	9572
923.55	9450
923.659	9530
923.767	9610
923.876	9485
923.984	9549
924.092	9447
924.201	9549
924.309	9462
924.417	9511
924.525	9515
924.633	9389
924.741	10299
924.849	9275
924.956	9439
925.064	9313
925.172	9218
925.279	9233
925.387	9313
925.494	9325
925.602	9439
925.709	9382
925.816	9173
925.924	9253
926.031	9313
926.138	9283
926.245	9340
926.352	9184
926.459	9332
926.566	9340
926.673	9325
926.779	9157
926.886	9127
926.993	9005
927.099	8948
927.206	8906
927.312	8963
927.419	9077
927.525	9032
927.631	9074
927.737	8918
927.843	8899
927.95	8804
928.056	8845
928.162	8956
928.267	8891
928.373	9504
928.479	9005
928.585	8739
928.69	8918
928.796	8902
928.901	8838
929.007	8693
929.112	8769
929.218	8826
929.323	8743
929.428	8731
929.533	8830
929.638	8636
929.743	8659
929.848	8731
929.953	8682
930.058	8598
930.163	8427
930.267	8476
930.372	8594
930.477	8419
930.581	8621
930.685	8514
930.79	8461
930.894	8446
930.998	8377
931.103	8545
931.207	8267
931.311	8115
931.415	8119
931.519	7970
931.623	7894
