Data from test_V78500241_605.txt Node
Date: Fri Mar 25 14:37:55 CST 2022
User: usil
Spectrometer: V785-0024
Trigger mode: 0
Integration Time (sec): 4.000000E-1
Scans to average: 1
Nonlinearity correction enabled: false
Boxcar width: 0
Storing dark spectrum: false
XAxis mode: Wavelengths
Number of Pixels in Spectrum: 1024
>>>>>Begin Spectral Data<<<<<
801.071	27930
801.214	27876
801.356	27682
801.499	27523
801.641	27401
801.783	27382
801.926	27427
802.068	27252
802.211	27237
802.353	27203
802.496	26986
802.638	26918
802.78	26910
802.923	26746
803.065	26724
803.208	26876
803.35	26979
803.492	26979
803.635	27089
803.777	26902
803.919	26998
804.061	27386
804.204	27066
804.346	27112
804.488	27032
804.63	27005
804.773	27195
804.915	27085
805.057	27154
805.199	27283
805.341	27405
805.483	27355
805.626	27416
805.768	27367
805.91	27450
806.052	27542
806.194	27580
806.336	27838
806.478	27922
806.62	28036
806.762	28333
806.904	28687
807.046	29151
807.188	29227
807.33	29379
807.472	29855
807.614	30384
807.756	31065
807.898	31750
808.04	32845
808.182	34363
808.324	36140
808.465	38221
808.607	40382
808.749	42559
808.891	43647
809.033	43727
809.174	42776
809.316	40634
809.458	38248
809.6	35828
809.741	33972
809.883	32526
810.025	31392
810.166	30783
810.308	30125
810.45	29657
810.591	29402
810.733	28824
810.875	28531
811.016	28466
811.158	28257
811.299	28215
811.441	28211
811.582	28032
811.724	27945
811.865	27800
812.007	27667
812.148	27751
812.29	27736
812.431	27701
812.573	27785
812.714	27861
812.855	27930
812.997	28006
813.138	28101
813.279	28010
813.421	27907
813.562	27781
813.703	27549
813.845	27397
813.986	27058
814.127	26994
814.268	26849
814.41	26853
814.551	26796
814.692	26830
814.833	26609
814.974	26724
815.115	26598
815.256	26427
815.397	26355
815.539	26244
815.68	26347
815.821	26183
815.962	26366
816.103	26202
816.244	26267
816.385	26012
816.526	25788
816.666	25708
816.807	25734
816.948	25731
817.089	25689
817.23	25734
817.371	25643
817.512	25563
817.653	25601
817.793	25392
817.934	25506
818.075	25594
818.216	25479
818.356	25384
818.497	25365
818.638	25263
818.778	25282
818.919	25232
819.06	25270
819.2	25407
819.341	25472
819.481	25552
819.622	25681
819.762	25753
819.903	25677
820.043	25761
820.184	25521
820.324	25483
820.465	25559
820.605	25487
820.746	25487
820.886	25304
821.026	25403
821.167	25350
821.307	25441
821.447	25266
821.588	25225
821.728	25057
821.868	24875
822.008	24681
822.149	24817
822.289	24692
822.429	24509
822.569	24292
822.709	24433
822.849	24235
822.99	24220
823.13	23984
823.27	24178
823.41	23885
823.55	23737
823.69	23893
823.83	24018
823.97	23779
824.11	23661
824.25	23748
824.389	23718
824.529	23809
824.669	23661
824.809	23752
824.949	23802
825.089	23684
825.228	23813
825.368	23501
825.508	23501
825.648	23372
825.787	23383
825.927	23505
826.067	23360
826.206	23531
826.346	23524
826.485	23516
826.625	23398
826.765	23467
826.904	23486
827.044	23162
827.183	23136
827.323	23075
827.462	23041
827.601	23136
827.741	23071
827.88	23155
828.02	22938
828.159	23075
828.298	23162
828.437	23140
828.577	22995
828.716	23200
828.855	23006
828.994	22949
829.134	22858
829.273	22778
829.412	22729
829.551	22736
829.69	22774
829.829	22824
829.968	22828
830.107	22820
830.246	22763
830.385	22675
830.524	22637
830.663	22481
830.802	22455
830.941	22390
831.08	22272
831.219	22500
831.357	22481
831.496	22653
831.635	22424
831.774	22242
831.913	22322
832.051	22185
832.19	22238
832.329	22215
832.467	22070
832.606	22166
832.744	22173
832.883	22166
833.022	22177
833.16	22287
833.299	22493
833.437	22394
833.576	22599
833.714	22664
833.852	22755
833.991	22980
834.129	23098
834.267	22900
834.406	22915
834.544	22820
834.682	22809
834.821	22710
834.959	22793
835.097	22390
835.235	22519
835.373	22367
835.511	22333
835.65	22177
835.788	21979
835.926	21861
836.064	21835
836.202	21793
836.34	21926
836.478	22002
836.615	21880
836.753	21975
836.891	21880
837.029	21857
837.167	21793
837.305	21701
837.443	21720
837.58	21603
837.718	21732
837.856	21633
837.993	21599
838.131	21694
838.269	21538
838.406	21606
838.544	21667
838.681	21443
838.819	21462
838.956	21173
839.094	21184
839.231	21165
839.369	21222
839.506	21477
839.643	21370
839.781	21180
839.918	21066
840.055	21135
840.193	21154
840.33	21066
840.467	21032
840.604	21024
840.742	21363
840.879	20910
841.016	20792
841.153	20941
841.29	21146
841.427	21001
841.564	21013
841.701	21017
841.838	20963
841.975	20857
842.112	21001
842.249	20845
842.385	20777
842.522	20937
842.659	20937
842.796	20777
842.933	20986
843.069	20682
843.206	20815
843.343	20971
843.479	20845
843.616	20956
843.752	20902
843.889	20800
844.025	20864
844.162	20724
844.298	21024
844.435	21116
844.571	21028
844.708	21325
844.844	21637
844.98	21979
845.117	22474
845.253	22927
845.389	24194
845.525	26545
845.661	30547
845.798	35269
845.934	38940
846.07	40611
846.206	39758
846.342	36403
846.478	31696
846.614	27507
846.75	24684
846.886	23033
847.022	22010
847.158	21416
847.294	21077
847.429	20895
847.565	20575
847.701	20636
847.837	20237
847.972	20024
848.108	20142
848.244	19963
848.379	19772
848.515	19807
848.65	19765
848.786	19700
848.921	19784
849.057	19898
849.192	19776
849.328	19704
849.463	19830
849.598	19563
849.734	19491
849.869	19464
850.004	19301
850.14	19438
850.275	19438
850.41	19285
850.545	19327
850.68	19422
850.815	19415
850.95	19289
851.085	19491
851.22	19388
851.355	19343
851.49	19346
851.625	19384
851.76	19373
851.895	19324
852.03	19240
852.165	19381
852.299	19396
852.434	19472
852.569	19403
852.703	19388
852.838	19426
852.973	19529
853.107	19487
853.242	19259
853.376	19221
853.511	19194
853.645	19278
853.78	19510
853.914	19346
854.048	19392
854.183	19396
854.317	19472
854.451	19632
854.585	19468
854.72	19499
854.854	19445
854.988	19350
855.122	19476
855.256	19126
855.39	19312
855.524	19411
855.658	19403
855.792	19228
855.926	19304
856.06	19236
856.194	19228
856.327	19148
856.461	19156
856.595	19099
856.729	19137
856.862	19263
856.996	19126
857.13	19221
857.263	19228
857.397	19175
857.53	19114
857.664	19213
857.797	19065
857.931	19183
858.064	19076
858.197	19187
858.331	19126
858.464	18966
858.597	18916
858.731	19103
858.864	18989
858.997	19050
859.13	19046
859.263	19122
859.396	19084
859.529	18958
859.662	19065
859.795	19023
859.928	19057
860.061	19168
860.194	19171
860.327	19057
860.46	19000
860.592	19034
860.725	19114
860.858	19206
860.99	18970
861.123	18882
861.256	18882
861.388	19061
861.521	19696
861.653	18806
861.786	18905
861.918	18844
862.05	18924
862.183	18913
862.315	19042
862.447	19076
862.58	18932
862.712	18833
862.844	18772
862.976	18875
863.108	18859
863.24	19110
863.372	18574
863.504	18722
863.636	18764
863.768	18719
863.9	18597
864.032	18669
864.164	18688
864.296	18719
864.428	18783
864.559	18776
864.691	18741
864.823	18707
864.954	18749
865.086	18783
865.217	18574
865.349	18585
865.48	18616
865.612	18574
865.743	18658
865.875	18585
866.006	18589
866.137	18620
866.269	18760
866.4	18673
866.531	18506
866.662	18441
866.793	18555
866.924	18684
867.055	18601
867.186	18616
867.317	18585
867.448	18486
867.579	18570
867.71	18506
867.841	18582
867.972	18642
868.103	18559
868.233	18585
868.364	18532
868.495	18601
868.625	18757
868.756	18966
868.886	18772
869.017	18852
869.147	18894
869.278	18989
869.408	18863
869.539	18787
869.669	18848
869.799	18867
869.929	18962
870.06	19004
870.19	19278
870.32	19133
870.45	19297
870.58	19274
870.71	19217
870.84	19354
870.97	19270
871.1	19282
871.23	19464
871.36	19491
871.489	19331
871.619	19510
871.749	19441
871.879	19567
872.008	19639
872.138	19449
872.267	19468
872.397	19499
872.526	19419
872.656	19453
872.785	19400
872.915	19559
873.044	19769
873.173	19571
873.303	19651
873.432	19616
873.561	19784
873.69	19708
873.819	19894
873.948	19849
874.077	19807
874.206	19795
874.335	19677
874.464	19947
874.593	20073
874.722	20012
874.851	20214
874.979	20176
875.108	20263
875.237	20119
875.365	20176
875.494	20240
875.623	20362
875.751	20225
875.88	20324
876.008	20526
876.136	20503
876.265	20819
876.393	20963
876.521	21058
876.65	20944
876.778	20956
876.906	20948
877.034	21051
877.162	21009
877.29	21066
877.418	21119
877.546	21249
877.674	21233
877.802	21435
877.93	21412
878.058	21557
878.185	21656
878.313	21930
878.441	22207
878.568	22303
878.696	22755
878.824	23337
878.951	24182
879.079	25278
879.206	26587
879.333	28276
879.461	29395
879.588	30213
879.715	30190
879.842	29528
879.97	28238
880.097	26655
880.224	25415
880.351	24604
880.478	24178
880.605	23710
880.732	23402
880.859	23448
880.986	23159
881.112	23102
881.239	22786
881.366	22809
881.493	22656
881.619	22573
881.746	22786
881.872	22672
881.999	22550
882.125	22656
882.252	22793
882.378	22839
882.505	22820
882.631	22596
882.757	22641
882.883	22618
883.01	22626
883.136	22455
883.262	22432
883.388	22356
883.514	22554
883.64	22470
883.766	22428
883.892	22280
884.018	22276
884.143	22481
884.269	22569
884.395	22322
884.52	22207
884.646	22230
884.772	22154
884.897	22150
885.023	22196
885.148	22246
885.274	22147
885.399	22139
885.524	21972
885.65	21907
885.775	21789
885.9	21698
886.025	21812
886.15	21614
886.275	21428
886.4	21264
886.525	21245
886.65	21066
886.775	21150
886.9	21157
887.025	21222
887.149	20788
887.274	20724
887.399	20602
887.523	20518
887.648	20377
887.773	20267
887.897	20503
888.021	20355
888.146	20244
888.27	20389
888.395	20282
888.519	20180
888.643	20214
888.767	20145
888.891	19982
889.015	19902
889.139	19868
889.263	19772
889.387	19978
889.511	19947
889.635	19909
889.759	19605
889.883	19609
890.006	19643
890.13	19795
890.254	19529
890.377	19403
890.501	19362
890.624	19362
890.748	19346
890.871	19270
890.995	19084
891.118	18989
891.241	19141
891.364	19145
891.488	19289
891.611	19107
891.734	19008
891.857	19042
891.98	18890
892.103	18970
892.226	19000
892.349	18882
892.471	18688
892.594	18821
892.717	18859
892.839	18715
892.962	18783
893.085	18764
893.207	18776
893.33	18620
893.452	18703
893.575	18681
893.697	18498
893.819	18741
893.941	18871
894.064	18665
894.186	18464
894.308	18479
894.43	18585
894.552	18715
894.674	18559
894.796	18471
894.918	18513
895.04	18289
895.161	18578
895.283	18544
895.405	18304
895.526	18498
895.648	18448
895.769	18475
895.891	18498
896.012	18513
896.134	18441
896.255	18437
896.376	18490
896.498	18407
896.619	18441
896.74	18395
896.861	18517
896.982	18696
897.103	18928
897.224	18681
897.345	18627
897.466	18502
897.587	18623
897.708	18684
897.828	18631
897.949	18475
898.07	18479
898.19	18426
898.311	18669
898.431	18570
898.552	18566
898.672	18681
898.792	18734
898.913	18555
899.033	18483
899.153	18395
899.273	18323
899.393	18319
899.513	18346
899.633	18410
899.753	18475
899.873	18350
899.993	18258
900.113	18300
900.232	18327
900.352	18410
900.472	18178
900.591	18186
900.711	18190
900.83	18178
900.95	18285
901.069	18372
901.189	18117
901.308	17771
901.427	17710
901.546	17859
901.665	17809
901.784	17729
901.904	17657
902.023	17501
902.141	17284
902.26	17322
902.379	17208
902.498	17197
902.617	17170
902.735	17220
902.854	17189
902.973	17083
903.091	16854
903.21	16889
903.328	16877
903.446	16847
903.565	16706
903.683	16691
903.801	16485
903.919	16622
904.038	16584
904.156	16402
904.274	16550
904.392	16356
904.51	16360
904.627	16363
904.745	16356
904.863	16375
904.981	16249
905.098	16021
905.216	16063
905.334	16162
905.451	16067
905.569	15998
905.686	15998
905.803	16124
905.921	15751
906.038	15884
906.155	15850
906.272	15778
906.389	15709
906.506	15519
906.623	15618
906.74	15488
906.857	15610
906.974	15469
907.091	15591
907.208	15720
907.324	15526
907.441	15530
907.557	15214
907.674	15211
907.79	15207
907.907	15169
908.023	15249
908.139	15275
908.256	15119
908.372	15188
908.488	15074
908.604	15020
908.72	14979
908.836	14971
908.952	14906
909.068	14952
909.184	15028
909.3	14868
909.415	15020
909.531	15020
909.647	14663
909.762	14674
909.878	14629
909.993	14686
910.108	14625
910.224	14632
910.339	14594
910.454	14556
910.57	14575
910.685	14389
910.8	14693
910.915	14590
911.03	14492
911.145	14298
911.259	14309
911.374	14324
911.489	14176
911.604	14138
911.718	14031
911.833	14180
911.947	13830
912.062	13909
912.176	14005
912.291	14062
912.405	14024
912.519	14191
912.633	14259
912.748	14183
912.862	14054
912.976	13959
913.09	13746
913.204	13883
913.318	13852
913.431	13989
913.545	13925
913.659	14020
913.772	13871
913.886	13849
914	13620
914.113	13799
914.226	13883
914.34	13814
914.453	13586
914.566	13795
914.68	13662
914.793	13628
914.906	13480
915.019	13400
915.132	13274
915.245	13362
915.358	13362
915.47	13411
915.583	13441
915.696	13403
915.809	13552
915.921	13548
916.034	13392
916.146	13293
916.259	13320
916.371	13464
916.483	13335
916.595	13316
916.708	13327
916.82	13304
916.932	13244
917.044	13346
917.156	13164
917.268	13114
917.38	13206
917.491	13175
917.603	13099
917.715	13194
917.826	13187
917.938	13057
918.049	12943
918.161	13038
918.272	13244
918.384	13133
918.495	13072
918.606	12901
918.717	12776
918.828	12966
918.939	12901
919.05	12833
919.161	12867
919.272	12654
919.383	12662
919.494	12875
919.604	13110
919.715	12966
919.826	12719
919.936	12768
920.047	12909
920.157	12825
920.267	13004
920.378	12924
920.488	12791
920.598	13034
920.708	13194
920.818	12981
920.928	13008
921.038	13145
921.148	13110
921.258	12817
921.368	12696
921.477	12665
921.587	12593
921.697	12494
921.806	12658
921.916	12414
922.025	12300
922.134	12251
922.244	12216
922.353	12327
922.462	12083
922.571	12117
922.68	12015
922.789	11828
922.898	11901
923.007	11843
923.116	11973
923.224	11939
923.333	11878
923.442	11737
923.55	11756
923.659	11805
923.767	11783
923.876	11642
923.984	11798
924.092	11737
924.201	11756
924.309	11741
924.417	11653
924.525	11665
924.633	11577
924.741	12399
924.849	11425
924.956	11619
925.064	11448
925.172	11387
925.279	11387
925.387	11429
925.494	11463
925.602	11577
925.709	11539
925.816	11379
925.924	11383
926.031	11436
926.138	11379
926.245	11425
926.352	11296
926.459	11337
926.566	11459
926.673	11341
926.779	11223
926.886	11147
926.993	11128
927.099	11048
927.206	10984
927.312	10934
927.419	11041
927.525	11098
927.631	11086
927.737	10873
927.843	10854
927.95	10778
928.056	10885
928.162	10930
928.267	10987
928.373	11463
928.479	10915
928.585	10729
928.69	10835
928.796	10877
928.901	10786
929.007	10584
929.112	10767
929.218	10752
929.323	10630
929.428	10694
929.533	10767
929.638	10630
929.743	10622
929.848	10668
929.953	10656
930.058	10546
930.163	10390
930.267	10386
930.372	10516
930.477	10303
930.581	10542
930.685	10436
930.79	10333
930.894	10310
930.998	10284
931.103	10363
931.207	10063
931.311	9998
931.415	9888
931.519	9682
931.623	9709
