Data from test_V78500241_2452.txt Node
Date: Fri Mar 25 14:50:47 CST 2022
User: usil
Spectrometer: V785-0024
Trigger mode: 0
Integration Time (sec): 4.000000E-1
Scans to average: 1
Nonlinearity correction enabled: false
Boxcar width: 0
Storing dark spectrum: false
XAxis mode: Wavelengths
Number of Pixels in Spectrum: 1024
>>>>>Begin Spectral Data<<<<<
801.071	22139
801.214	21930
801.356	21747
801.499	21618
801.641	21587
801.783	21454
801.926	21519
802.068	21515
802.211	21237
802.353	21169
802.496	21039
802.638	20952
802.78	20971
802.923	20906
803.065	20659
803.208	20663
803.35	20815
803.492	20895
803.635	20880
803.777	20811
803.919	20933
804.061	21058
804.204	20792
804.346	20727
804.488	20712
804.63	20705
804.773	20746
804.915	20735
805.057	20804
805.199	20800
805.341	20727
805.483	20792
805.626	20845
805.768	20587
805.91	20769
806.052	20731
806.194	20670
806.336	20883
806.478	20594
806.62	20663
806.762	20705
806.904	20998
807.046	21039
807.188	21108
807.33	21154
807.472	21066
807.614	20960
807.756	20864
807.898	20849
808.04	20735
808.182	20750
808.324	20754
808.465	20899
808.607	20998
808.749	21028
808.891	21169
809.033	21218
809.174	21161
809.316	21119
809.458	21093
809.6	21135
809.741	21150
809.883	21135
810.025	21298
810.166	21313
810.308	21199
810.45	21268
810.591	21203
810.733	20918
810.875	20815
811.016	20655
811.158	20815
811.299	20914
811.441	20937
811.582	20990
811.724	20746
811.865	20861
812.007	20918
812.148	20769
812.29	20807
812.431	21165
812.573	21192
812.714	21291
812.855	21192
812.997	21523
813.138	21618
813.279	21504
813.421	21386
813.562	21302
813.703	21138
813.845	21051
813.986	20857
814.127	20549
814.268	20450
814.41	20545
814.551	20408
814.692	20507
814.833	20362
814.974	20259
815.115	20332
815.256	20336
815.397	20271
815.539	20195
815.68	20126
815.821	20069
815.962	20103
816.103	20134
816.244	19928
816.385	19864
816.526	19826
816.666	19658
816.807	19521
816.948	19567
817.089	19742
817.23	19559
817.371	19472
817.512	19506
817.653	19468
817.793	19540
817.934	19548
818.075	19571
818.216	19556
818.356	19514
818.497	19422
818.638	19198
818.778	19152
818.919	19175
819.06	19278
819.2	19274
819.341	19369
819.481	19441
819.622	19453
819.762	19784
819.903	19582
820.043	19590
820.184	19483
820.324	19571
820.465	19681
820.605	19502
820.746	19396
820.886	19289
821.026	19396
821.167	19312
821.307	19457
821.447	19506
821.588	19392
821.728	19202
821.868	19027
822.008	18920
822.149	18932
822.289	18947
822.429	18650
822.569	18559
822.709	18669
822.849	18448
822.99	18388
823.13	18418
823.27	18399
823.41	18213
823.55	18201
823.69	18338
823.83	18163
823.97	18186
824.11	17954
824.25	17984
824.389	17935
824.529	18095
824.669	17996
824.809	18068
824.949	18030
825.089	17965
825.228	17969
825.368	17805
825.508	17699
825.648	17786
825.787	17847
825.927	17836
826.067	17687
826.206	17684
826.346	17691
826.485	17764
826.625	17668
826.765	17809
826.904	17775
827.044	17524
827.183	17585
827.323	17345
827.462	17543
827.601	17421
827.741	17467
827.88	17520
828.02	17334
828.159	17482
828.298	17455
828.437	17467
828.577	17463
828.716	17535
828.855	17379
828.994	17250
829.134	17200
829.273	17227
829.412	17117
829.551	17060
829.69	17151
829.829	17189
829.968	17307
830.107	17231
830.246	17216
830.385	17105
830.524	17109
830.663	16991
830.802	16885
830.941	16782
831.08	16763
831.219	16862
831.357	16991
831.496	17014
831.635	16866
831.774	16729
831.913	16759
832.051	16664
832.19	16630
832.329	16592
832.467	16451
832.606	16417
832.744	16402
832.883	16512
833.022	16485
833.16	16531
833.299	16523
833.437	16519
833.576	16527
833.714	16531
833.852	16603
833.991	16637
834.129	16622
834.267	16607
834.406	16489
834.544	16565
834.682	16527
834.821	16542
834.959	16683
835.097	16485
835.235	16710
835.373	16512
835.511	16603
835.65	16512
835.788	16390
835.926	16356
836.064	16375
836.202	16238
836.34	16519
836.478	16519
836.615	16440
836.753	16451
836.891	16538
837.029	16516
837.167	16493
837.305	16344
837.443	16341
837.58	16253
837.718	16356
837.856	16352
837.993	16303
838.131	16341
838.269	16173
838.406	16265
838.544	16200
838.681	15987
838.819	15991
838.956	15800
839.094	15903
839.231	15903
839.369	15960
839.506	16314
839.643	16112
839.781	15903
839.918	15766
840.055	15907
840.193	15888
840.33	15842
840.467	15838
840.604	15884
840.742	16154
840.879	15842
841.016	15671
841.153	15816
841.29	16017
841.427	15907
841.564	15842
841.701	15934
841.838	15861
841.975	15732
842.112	15804
842.249	15690
842.385	15595
842.522	15808
842.659	15553
842.796	15603
842.933	15644
843.069	15633
843.206	15557
843.343	15781
843.479	15679
843.616	15705
843.752	15466
843.889	15348
844.025	15625
844.162	15458
844.298	15568
844.435	15466
844.571	15477
844.708	15553
844.844	15656
844.98	15576
845.117	15526
845.253	15313
845.389	15378
845.525	15393
845.661	15268
845.798	15264
845.934	15237
846.07	15123
846.206	15275
846.342	15367
846.478	15169
846.614	15093
846.75	14975
846.886	15039
847.022	15028
847.158	15039
847.294	15157
847.429	15161
847.565	14895
847.701	15256
847.837	14800
847.972	14746
848.108	14887
848.244	14876
848.379	14720
848.515	14594
848.65	14537
848.786	14526
848.921	14587
849.057	14689
849.192	14693
849.328	14613
849.463	14625
849.598	14621
849.734	14541
849.869	14454
850.004	14400
850.14	14332
850.275	14446
850.41	14320
850.545	14374
850.68	14286
850.815	14408
850.95	14412
851.085	14495
851.22	14442
851.355	14431
851.49	14370
851.625	14309
851.76	14446
851.895	14298
852.03	14313
852.165	14370
852.299	14431
852.434	14381
852.569	14347
852.703	14473
852.838	14434
852.973	14590
853.107	14488
853.242	14313
853.376	14324
853.511	14111
853.645	14233
853.78	14320
853.914	14278
854.048	14191
854.183	14301
854.317	14271
854.451	14336
854.585	14172
854.72	14164
854.854	14309
854.988	14191
855.122	14172
855.256	14157
855.39	14275
855.524	14427
855.658	14336
855.792	14275
855.926	14309
856.06	14267
856.194	14358
856.327	14282
856.461	14233
856.595	14130
856.729	14256
856.862	14256
856.996	14233
857.13	14240
857.263	14286
857.397	14374
857.53	14259
857.664	14282
857.797	14396
857.931	14377
858.064	14343
858.197	14339
858.331	14256
858.464	14275
858.597	14225
858.731	14218
858.864	14237
858.997	14176
859.13	14229
859.263	14225
859.396	14294
859.529	14309
859.662	14225
859.795	14275
859.928	14286
860.061	14484
860.194	14434
860.327	14271
860.46	14225
860.592	14320
860.725	14282
860.858	14385
860.99	14210
861.123	14191
861.256	14244
861.388	14248
861.521	14823
861.653	14176
861.786	14077
861.918	14126
862.05	14168
862.183	14229
862.315	14134
862.447	14252
862.58	14142
862.712	13982
862.844	13967
862.976	14176
863.108	14107
863.24	14408
863.372	13917
863.504	14012
863.636	13970
863.768	14115
863.9	14020
864.032	13970
864.164	14035
864.296	14153
864.428	14183
864.559	14138
864.691	14096
864.823	14092
864.954	14058
865.086	14107
865.217	14027
865.349	14001
865.48	14065
865.612	14103
865.743	14054
865.875	13986
866.006	13967
866.137	14046
866.269	14039
866.4	13986
866.531	13997
866.662	14012
866.793	13982
866.924	13925
867.055	14065
867.186	14134
867.317	13963
867.448	13871
867.579	13993
867.71	13951
867.841	13936
867.972	14046
868.103	14005
868.233	14077
868.364	13955
868.495	14077
868.625	14206
868.756	14313
868.886	14195
869.017	14267
869.147	14408
869.278	14305
869.408	14347
869.539	14240
869.669	14351
869.799	14389
869.929	14347
870.06	14366
870.19	14629
870.32	14587
870.45	14556
870.58	14705
870.71	14785
870.84	14750
870.97	14632
871.1	14651
871.23	14883
871.36	14838
871.489	14762
871.619	14811
871.749	14864
871.879	14842
872.008	14982
872.138	14880
872.267	14823
872.397	14651
872.526	14670
872.656	14663
872.785	14705
872.915	14857
873.044	14944
873.173	14842
873.303	14880
873.432	14994
873.561	14975
873.69	14944
873.819	14864
873.948	14998
874.077	14895
874.206	14975
874.335	14891
874.464	15020
874.593	15169
874.722	15211
874.851	15249
874.979	15184
875.108	15222
875.237	15165
875.365	15249
875.494	15135
875.623	15329
875.751	15203
875.88	15268
876.008	15272
876.136	15469
876.265	15603
876.393	15759
876.521	15755
876.65	15698
876.778	15728
876.906	15618
877.034	15603
877.162	15648
877.29	15477
877.418	15739
877.546	15705
877.674	15614
877.802	15660
877.93	15637
878.058	15701
878.185	15523
878.313	15724
878.441	15610
878.568	15542
878.696	15667
878.824	15789
878.951	15667
879.079	15823
879.206	15956
879.333	15880
879.461	15675
879.588	15629
879.715	15857
879.842	15953
879.97	15873
880.097	15500
880.224	15549
880.351	15511
880.478	15500
880.605	15488
880.732	15553
880.859	15732
880.986	15462
881.112	15500
881.239	15355
881.366	15336
881.493	15176
881.619	15104
881.746	15150
881.872	15169
881.999	15188
882.125	15051
882.252	15131
882.378	15157
882.505	15275
882.631	15070
882.757	15017
882.883	15013
883.01	15024
883.136	14975
883.262	14838
883.388	14826
883.514	15009
883.64	15009
883.766	14910
883.892	14727
884.018	14864
884.143	14933
884.269	15028
884.395	14765
884.52	14621
884.646	14648
884.772	14648
884.897	14655
885.023	14674
885.148	14845
885.274	14781
885.399	14826
885.524	14705
885.65	14659
885.775	14712
885.9	14689
886.025	14785
886.15	14708
886.275	14636
886.4	14610
886.525	14594
886.65	14644
886.775	14579
886.9	14720
887.025	14918
887.149	14686
887.274	14587
887.399	14476
887.523	14457
887.648	14541
887.773	14442
887.897	14598
888.021	14575
888.146	14492
888.27	14629
888.395	14667
888.519	14499
888.643	14655
888.767	14518
888.891	14377
889.015	14358
889.139	14431
889.263	14271
889.387	14457
889.511	14564
889.635	14480
889.759	14434
889.883	14336
890.006	14366
890.13	14434
890.254	14328
890.377	14351
890.501	14225
890.624	14183
890.748	14263
890.871	14073
890.995	14035
891.118	13913
891.241	13974
891.364	13986
891.488	14123
891.611	14035
891.734	14126
891.857	14187
891.98	14161
892.103	14164
892.226	14115
892.349	14088
892.471	13833
892.594	14103
892.717	14134
892.839	14050
892.962	14096
893.085	14210
893.207	14069
893.33	13970
893.452	13978
893.575	14111
893.697	14058
893.819	14195
893.941	14294
894.064	14172
894.186	14103
894.308	13997
894.43	14195
894.552	14317
894.674	14206
894.796	14027
894.918	14054
895.04	14138
895.161	14161
895.283	14176
895.405	14202
895.526	14161
895.648	14180
895.769	14244
895.891	14225
896.012	14347
896.134	14187
896.255	14278
896.376	14214
896.498	14218
896.619	14336
896.74	14271
896.861	14237
896.982	14625
897.103	14689
897.224	14484
897.345	14484
897.466	14454
897.587	14526
897.708	14606
897.828	14476
897.949	14511
898.07	14309
898.19	14571
898.311	14655
898.431	14571
898.552	14594
898.672	14621
898.792	14743
898.913	14674
899.033	14415
899.153	14393
899.273	14370
899.393	14400
899.513	14442
899.633	14389
899.753	14366
899.873	14393
899.993	14461
900.113	14343
900.232	14473
900.352	14423
900.472	14431
900.591	14237
900.711	14404
900.83	14256
900.95	14419
901.069	14419
901.189	14259
901.308	14142
901.427	14043
901.546	13944
901.665	13978
901.784	13978
901.904	13902
902.023	13807
902.141	13613
902.26	13578
902.379	13586
902.498	13525
902.617	13453
902.735	13597
902.854	13586
902.973	13502
903.091	13392
903.21	13221
903.328	13320
903.446	13171
903.565	13251
903.683	13160
903.801	12951
903.919	13034
904.038	13038
904.156	12939
904.274	13072
904.392	12981
904.51	12970
904.627	12981
904.745	12993
904.863	12928
904.981	12760
905.098	12650
905.216	12650
905.334	12665
905.451	12639
905.569	12696
905.686	12707
905.803	12639
905.921	12441
906.038	12536
906.155	12475
906.272	12410
906.389	12384
906.506	12209
906.623	12266
906.74	12243
906.857	12098
906.974	12209
907.091	12281
907.208	12361
907.324	12190
907.441	12213
907.557	12053
907.674	11916
907.79	11885
907.907	11893
908.023	12022
908.139	11977
908.256	11821
908.372	11935
908.488	11885
908.604	11748
908.72	11623
908.836	11680
908.952	11752
909.068	11680
909.184	11748
909.3	11729
909.415	11745
909.531	11783
909.647	11573
909.762	11539
909.878	11463
909.993	11467
910.108	11558
910.224	11478
910.339	11467
910.454	11410
910.57	11417
910.685	11337
910.8	11497
910.915	11467
911.03	11391
911.145	11242
911.259	11124
911.374	11105
911.489	11140
911.604	11178
911.718	11041
911.833	10961
911.947	10850
912.062	10900
912.176	10976
912.291	10987
912.405	11003
912.519	11227
912.633	11193
912.748	11045
912.862	10995
912.976	10847
913.09	10790
913.204	10778
913.318	10831
913.431	10946
913.545	10976
913.659	10968
913.772	10915
913.886	10729
914	10714
914.113	10824
914.226	10862
914.34	10797
914.453	10687
914.566	10812
914.68	10725
914.793	10744
914.906	10493
915.019	10443
915.132	10405
915.245	10474
915.358	10478
915.47	10512
915.583	10523
915.696	10535
915.809	10664
915.921	10679
916.034	10478
916.146	10440
916.259	10352
916.371	10489
916.483	10493
916.595	10451
916.708	10424
916.82	10421
916.932	10447
917.044	10356
917.156	10314
917.268	10253
917.38	10344
917.491	10276
917.603	10310
917.715	10379
917.826	10405
917.938	10405
918.049	10223
918.161	10337
918.272	10561
918.384	10497
918.495	10356
918.606	10303
918.717	10253
918.828	10268
918.939	10230
919.05	10147
919.161	10207
919.272	10074
919.383	10109
919.494	10257
919.604	10485
919.715	10181
919.826	10192
919.936	10166
920.047	10333
920.157	10207
920.267	10459
920.378	10375
920.488	10257
920.598	10386
920.708	10508
920.818	10352
920.928	10428
921.038	10653
921.148	10584
921.258	10291
921.368	10192
921.477	10086
921.587	10006
921.697	10029
921.806	10124
921.916	10048
922.025	9831
922.134	9755
922.244	9728
922.353	9713
922.462	9728
922.571	9603
922.68	9485
922.789	9458
922.898	9473
923.007	9549
923.116	9606
923.224	9504
923.333	9485
923.442	9329
923.55	9450
923.659	9382
923.767	9412
923.876	9359
923.984	9439
924.092	9279
924.201	9317
924.309	9245
924.417	9340
924.525	9241
924.633	9321
924.741	10055
924.849	9108
924.956	9344
925.064	9119
925.172	9058
925.279	9085
925.387	9119
925.494	9165
925.602	9291
925.709	9093
925.816	9112
925.924	9112
926.031	9226
926.138	9146
926.245	9214
926.352	9100
926.459	9173
926.566	9260
926.673	9116
926.779	8952
926.886	9013
926.993	8872
927.099	8868
927.206	8842
927.312	8766
927.419	8941
927.525	8895
927.631	8921
927.737	8697
927.843	8754
927.95	8644
928.056	8762
928.162	8804
928.267	8819
928.373	9454
928.479	8823
928.585	8651
928.69	8735
928.796	8769
928.901	8716
929.007	8587
929.112	8648
929.218	8674
929.323	8560
929.428	8568
929.533	8705
929.638	8518
929.743	8549
929.848	8617
929.953	8579
930.058	8503
930.163	8298
930.267	8324
930.372	8442
930.477	8347
930.581	8495
930.685	8499
930.79	8309
930.894	8404
930.998	8279
931.103	8446
931.207	8062
931.311	8054
931.415	8012
931.519	7788
931.623	7807
