Data from test_V78500241_918.txt Node
Date: Fri Mar 25 14:40:06 CST 2022
User: usil
Spectrometer: V785-0024
Trigger mode: 0
Integration Time (sec): 4.000000E-1
Scans to average: 1
Nonlinearity correction enabled: false
Boxcar width: 0
Storing dark spectrum: false
XAxis mode: Wavelengths
Number of Pixels in Spectrum: 1024
>>>>>Begin Spectral Data<<<<<
801.071	24886
801.214	24677
801.356	24376
801.499	24292
801.641	24216
801.783	24186
801.926	24072
802.068	24102
802.211	24087
802.353	23977
802.496	23661
802.638	23722
802.78	23490
802.923	23623
803.065	23376
803.208	23288
803.35	23376
803.492	23615
803.635	23566
803.777	23478
803.919	23512
804.061	23745
804.204	23505
804.346	23277
804.488	23531
804.63	23429
804.773	23356
804.915	23520
805.057	23493
805.199	23455
805.341	23463
805.483	23672
805.626	23653
805.768	23543
805.91	23524
806.052	23577
806.194	23554
806.336	23878
806.478	23794
806.62	23573
806.762	23901
806.904	23904
807.046	24216
807.188	24216
807.33	24224
807.472	24429
807.614	24525
807.756	24658
807.898	24814
808.04	24840
808.182	25282
808.324	25708
808.465	26115
808.607	26781
808.749	27275
808.891	27648
809.033	27572
809.174	27154
809.316	26758
809.458	26305
809.6	25723
809.741	25396
809.883	25015
810.025	25088
810.166	24829
810.308	24555
810.45	24486
810.591	24395
810.733	24060
810.875	24007
811.016	23904
811.158	23901
811.299	23961
811.441	24011
811.582	23984
811.724	23874
811.865	23809
812.007	23809
812.148	23840
812.29	23843
812.431	23984
812.573	24083
812.714	24106
812.855	24216
812.997	24448
813.138	24498
813.279	24407
813.421	24285
813.562	24133
813.703	23988
813.845	23863
813.986	23608
814.127	23478
814.268	23258
814.41	23220
814.551	23242
814.692	23341
814.833	23113
814.974	23071
815.115	23265
815.256	23044
815.397	23193
815.539	23083
815.68	22961
815.821	22782
815.962	22949
816.103	23022
816.244	22862
816.385	22653
816.526	22641
816.666	22527
816.807	22363
816.948	22447
817.089	22421
817.23	22386
817.371	22360
817.512	22371
817.653	22352
817.793	22375
817.934	22348
818.075	22333
818.216	22306
818.356	22242
818.497	22048
818.638	22006
818.778	21998
818.919	21983
819.06	22154
819.2	22169
819.341	22299
819.481	22070
819.622	22226
819.762	22500
819.903	22360
820.043	22337
820.184	22242
820.324	22268
820.465	22325
820.605	22284
820.746	22188
820.886	22135
821.026	22322
821.167	22169
821.307	22303
821.447	22154
821.588	22044
821.728	21880
821.868	21762
822.008	21561
822.149	21603
822.289	21504
822.429	21313
822.569	21211
822.709	21336
822.849	21093
822.99	21146
823.13	21013
823.27	21013
823.41	20853
823.55	20716
823.69	20986
823.83	20872
823.97	20785
824.11	20705
824.25	20606
824.389	20602
824.529	20640
824.669	20571
824.809	20781
824.949	20769
825.089	20686
825.228	20788
825.368	20358
825.508	20408
825.648	20427
825.787	20499
825.927	20370
826.067	20446
826.206	20400
826.346	20530
826.485	20499
826.625	20317
826.765	20541
826.904	20495
827.044	20199
827.183	20168
827.323	20027
827.462	20119
827.601	20161
827.741	20088
827.88	20031
828.02	19970
828.159	20107
828.298	20008
828.437	20153
828.577	20005
828.716	20195
828.855	20020
828.994	19849
829.134	19795
829.273	19818
829.412	19772
829.551	19750
829.69	19738
829.829	19704
829.968	19761
830.107	19791
830.246	19822
830.385	19666
830.524	19563
830.663	19658
830.802	19457
830.941	19354
831.08	19403
831.219	19476
831.357	19510
831.496	19521
831.635	19320
831.774	19217
831.913	19198
832.051	19099
832.19	19187
832.329	19217
832.467	19122
832.606	19027
832.744	18977
832.883	19080
833.022	19107
833.16	19148
833.299	19148
833.437	19099
833.576	19263
833.714	19308
833.852	19339
833.991	19293
834.129	19430
834.267	19320
834.406	19278
834.544	19293
834.682	19282
834.821	19118
834.959	19339
835.097	19122
835.235	19217
835.373	19099
835.511	19141
835.65	18985
835.788	18981
835.926	18825
836.064	18802
836.202	18829
836.34	18878
836.478	19000
836.615	18970
836.753	18989
836.891	19065
837.029	19034
837.167	19034
837.305	18852
837.443	18757
837.58	18688
837.718	18825
837.856	18642
837.993	18859
838.131	18776
838.269	18612
838.406	18696
838.544	18532
838.681	18506
838.819	18365
838.956	18262
839.094	18292
839.231	18289
839.369	18513
839.506	18635
839.643	18547
839.781	18201
839.918	18091
840.055	18186
840.193	18258
840.33	18273
840.467	18289
840.604	18304
840.742	18540
840.879	18095
841.016	18117
841.153	18125
841.29	18338
841.427	18152
841.564	18254
841.701	18186
841.838	18235
841.975	18178
842.112	18041
842.249	18049
842.385	17874
842.522	18174
842.659	18022
842.796	17931
842.933	17965
843.069	17931
843.206	18015
843.343	18041
843.479	17893
843.616	17988
843.752	17805
843.889	17707
844.025	18045
844.162	17672
844.298	17950
844.435	17783
844.571	17813
844.708	17923
844.844	18098
844.98	18273
845.117	18243
845.253	18213
845.389	18327
845.525	18958
845.661	19727
845.798	20746
845.934	21717
846.07	22010
846.206	21953
846.342	21340
846.478	20214
846.614	19175
846.75	18315
846.886	17996
847.022	17821
847.158	17532
847.294	17535
847.429	17391
847.565	17265
847.701	17577
847.837	17075
847.972	17014
848.108	17113
848.244	16972
848.379	16965
848.515	16824
848.65	16877
848.786	16839
848.921	16923
849.057	16999
849.192	16999
849.328	16805
849.463	16927
849.598	16771
849.734	16702
849.869	16797
850.004	16538
850.14	16641
850.275	16634
850.41	16504
850.545	16596
850.68	16538
850.815	16519
850.95	16504
851.085	16713
851.22	16607
851.355	16645
851.49	16565
851.625	16542
851.76	16512
851.895	16504
852.03	16459
852.165	16622
852.299	16596
852.434	16630
852.569	16675
852.703	16561
852.838	16710
852.973	16717
853.107	16698
853.242	16546
853.376	16489
853.511	16481
853.645	16379
853.78	16519
853.914	16466
854.048	16413
854.183	16428
854.317	16508
854.451	16698
854.585	16580
854.72	16367
854.854	16558
854.988	16371
855.122	16402
855.256	16329
855.39	16504
855.524	16470
855.658	16481
855.792	16588
855.926	16497
856.06	16535
856.194	16554
856.327	16531
856.461	16493
856.595	16299
856.729	16462
856.862	16527
856.996	16363
857.13	16459
857.263	16516
857.397	16558
857.53	16485
857.664	16455
857.797	16512
857.931	16451
858.064	16405
858.197	16516
858.331	16390
858.464	16238
858.597	16344
858.731	16348
858.864	16356
858.997	16360
859.13	16447
859.263	16417
859.396	16386
859.529	16242
859.662	16371
859.795	16291
859.928	16382
860.061	16493
860.194	16493
860.327	16440
860.46	16421
860.592	16436
860.725	16538
860.858	16481
860.99	16333
861.123	16242
861.256	16261
861.388	16428
861.521	17022
861.653	16356
861.786	16219
861.918	16226
862.05	16295
862.183	16314
862.315	16363
862.447	16390
862.58	16276
862.712	16257
862.844	16059
862.976	16135
863.108	16185
863.24	16542
863.372	16071
863.504	16074
863.636	16082
863.768	16238
863.9	16101
864.032	16002
864.164	16032
864.296	16135
864.428	16268
864.559	16204
864.691	16105
864.823	16173
864.954	16097
865.086	16101
865.217	16109
865.349	16013
865.48	16090
865.612	15991
865.743	16173
865.875	16044
866.006	15975
866.137	16128
866.269	16090
866.4	16051
866.531	16029
866.662	16002
866.793	16017
866.924	16059
867.055	15994
867.186	16032
867.317	15960
867.448	15918
867.579	15975
867.71	15949
867.841	15884
867.972	15975
868.103	16067
868.233	16086
868.364	16078
868.495	16169
868.625	16303
868.756	16234
868.886	16230
869.017	16310
869.147	16394
869.278	16424
869.408	16367
869.539	16268
869.669	16348
869.799	16402
869.929	16481
870.06	16367
870.19	16599
870.32	16588
870.45	16698
870.58	16660
870.71	16778
870.84	16763
870.97	16637
871.1	16729
871.23	16835
871.36	16892
871.489	16767
871.619	16850
871.749	16927
871.879	16858
872.008	16949
872.138	16930
872.267	16919
872.397	16755
872.526	16736
872.656	16850
872.785	16740
872.915	16930
873.044	16968
873.173	16976
873.303	17060
873.432	16930
873.561	16999
873.69	17022
873.819	16953
873.948	17029
874.077	17022
874.206	16942
874.335	17064
874.464	17151
874.593	17318
874.722	17178
874.851	17318
874.979	17326
875.108	17364
875.237	17269
875.365	17212
875.494	17227
875.623	17440
875.751	17292
875.88	17341
876.008	17486
876.136	17512
876.265	17828
876.393	17836
876.521	17840
876.65	17836
876.778	17855
876.906	17737
877.034	17748
877.162	17767
877.29	17832
877.418	17863
877.546	17798
877.674	17817
877.802	17855
877.93	17920
878.058	17885
878.185	17726
878.313	17984
878.441	18011
878.568	18049
878.696	18159
878.824	18304
878.951	18570
879.079	18837
879.206	19316
879.333	19426
879.461	19746
879.588	19955
879.715	20103
879.842	19963
879.97	19502
880.097	19027
880.224	18646
880.351	18467
880.478	18399
880.605	18232
880.732	18247
880.859	18433
880.986	18163
881.112	18144
881.239	18091
881.366	17923
881.493	17847
881.619	17695
881.746	17771
881.872	17729
881.999	17764
882.125	17710
882.252	17840
882.378	17707
882.505	17969
882.631	17790
882.757	17577
882.883	17623
883.01	17589
883.136	17467
883.262	17543
883.388	17406
883.514	17646
883.64	17748
883.766	17429
883.892	17368
884.018	17353
884.143	17615
884.269	17505
884.395	17296
884.52	17341
884.646	17299
884.772	17204
884.897	17204
885.023	17174
885.148	17379
885.274	17387
885.399	17265
885.524	17223
885.65	17265
885.775	17185
885.9	17197
886.025	17242
886.15	17189
886.275	17064
886.4	16896
886.525	17083
886.65	16957
886.775	17041
886.9	17132
887.025	17299
887.149	17067
887.274	16858
887.399	16740
887.523	16725
887.648	16592
887.773	16672
887.897	16698
888.021	16691
888.146	16713
888.27	16809
888.395	16778
888.519	16679
888.643	16736
888.767	16725
888.891	16573
889.015	16550
889.139	16535
889.263	16436
889.387	16459
889.511	16755
889.635	16535
889.759	16459
889.883	16519
890.006	16459
890.13	16527
890.254	16409
890.377	16375
890.501	16223
890.624	16238
890.748	16356
890.871	16101
890.995	16029
891.118	15903
891.241	15979
891.364	16071
891.488	16124
891.611	16101
891.734	16128
891.857	16086
891.98	16090
892.103	16120
892.226	16036
892.349	16017
892.471	15835
892.594	15972
892.717	15968
892.839	15956
892.962	16029
893.085	16162
893.207	15861
893.33	15861
893.452	15930
893.575	16010
893.697	15983
893.819	16082
893.941	16135
894.064	16154
894.186	15972
894.308	15907
894.43	16124
894.552	16067
894.674	16078
894.796	15911
894.918	15907
895.04	15998
895.161	16135
895.283	16071
895.405	15808
895.526	16036
895.648	16006
895.769	15983
895.891	15991
896.012	16128
896.134	16162
896.255	15918
896.376	15945
896.498	16032
896.619	16029
896.74	16040
896.861	16051
896.982	16382
897.103	16432
897.224	16371
897.345	16230
897.466	16291
897.587	16352
897.708	16516
897.828	16344
897.949	16261
898.07	16246
898.19	16379
898.311	16436
898.431	16306
898.552	16382
898.672	16402
898.792	16485
898.913	16382
899.033	16356
899.153	16242
899.273	16166
899.393	16215
899.513	16162
899.633	16261
899.753	16344
899.873	16173
899.993	16238
900.113	16215
900.232	16226
900.352	16185
900.472	16230
900.591	16006
900.711	16078
900.83	16044
900.95	16078
901.069	16166
901.189	15979
901.308	15907
901.427	15694
901.546	15671
901.665	15701
901.784	15724
901.904	15542
902.023	15515
902.141	15279
902.26	15294
902.379	15351
902.498	15272
902.617	15294
902.735	15256
902.854	15203
902.973	15256
903.091	14883
903.21	14941
903.328	14899
903.446	14842
903.565	14807
903.683	14640
903.801	14549
903.919	14716
904.038	14667
904.156	14511
904.274	14594
904.392	14450
904.51	14526
904.627	14446
904.745	14556
904.863	14537
904.981	14271
905.098	14271
905.216	14199
905.334	14225
905.451	14126
905.569	14176
905.686	14111
905.803	14282
905.921	13997
906.038	13986
906.155	13970
906.272	13898
906.389	13883
906.506	13731
906.623	13753
906.74	13750
906.857	13628
906.974	13670
907.091	13776
907.208	13830
907.324	13765
907.441	13567
907.557	13434
907.674	13403
907.79	13369
907.907	13460
908.023	13483
908.139	13502
908.256	13278
908.372	13354
908.488	13308
908.604	13164
908.72	13251
908.836	13114
908.952	13175
909.068	13114
909.184	13301
909.3	13103
909.415	13206
909.531	13152
909.647	12859
909.762	12856
909.878	12878
909.993	12916
910.108	12977
910.224	12837
910.339	12859
910.454	12715
910.57	12852
910.685	12616
910.8	12989
910.915	12859
911.03	12707
911.145	12513
911.259	12601
911.374	12620
911.489	12467
911.604	12426
911.718	12262
911.833	12369
911.947	12194
912.062	12216
912.176	12220
912.291	12254
912.405	12376
912.519	12403
912.633	12528
912.748	12330
912.862	12338
912.976	12190
913.09	11996
913.204	12144
913.318	12148
913.431	12152
913.545	12281
913.659	12323
913.772	12232
913.886	12167
914	12057
914.113	12117
914.226	12133
914.34	12159
914.453	11836
914.566	12076
914.68	11999
914.793	11988
914.906	11779
915.019	11672
915.132	11649
915.245	11764
915.358	11790
915.47	11771
915.583	11722
915.696	11813
915.809	11904
915.921	11851
916.034	11741
916.146	11623
916.259	11684
916.371	11771
916.483	11718
916.595	11592
916.708	11661
916.82	11748
916.932	11589
917.044	11638
917.156	11547
917.268	11520
917.38	11516
917.491	11497
917.603	11600
917.715	11608
917.826	11577
917.938	11516
918.049	11353
918.161	11463
918.272	11592
918.384	11634
918.495	11486
918.606	11425
918.717	11337
918.828	11387
918.939	11398
919.05	11220
919.161	11376
919.272	11121
919.383	11208
919.494	11493
919.604	11596
919.715	11410
919.826	11280
919.936	11315
920.047	11410
920.157	11330
920.267	11539
920.378	11417
920.488	11368
920.598	11505
920.708	11676
920.818	11493
920.928	11486
921.038	11668
921.148	11695
921.258	11421
921.368	11292
921.477	11170
921.587	11193
921.697	11075
921.806	11159
921.916	11090
922.025	10869
922.134	10877
922.244	10824
922.353	10892
922.462	10710
922.571	10679
922.68	10607
922.789	10558
922.898	10626
923.007	10474
923.116	10603
923.224	10561
923.333	10538
923.442	10409
923.55	10417
923.659	10379
923.767	10489
923.876	10329
923.984	10417
924.092	10310
924.201	10447
924.309	10394
924.417	10329
924.525	10329
924.633	10318
924.741	11113
924.849	10158
924.956	10291
925.064	10093
925.172	10090
925.279	10116
925.387	10181
925.494	10143
925.602	10242
925.709	10268
925.816	10067
925.924	10166
926.031	10227
926.138	10112
926.245	10169
926.352	10078
926.459	10112
926.566	10242
926.673	10162
926.779	10013
926.886	9964
926.993	9819
927.099	9793
927.206	9759
927.312	9785
927.419	9907
927.525	9781
927.631	9819
927.737	9770
927.843	9720
927.95	9599
928.056	9701
928.162	9633
928.267	9770
928.373	10314
928.479	9759
928.585	9568
928.69	9686
928.796	9781
928.901	9561
929.007	9458
929.112	9591
929.218	9618
929.323	9485
929.428	9473
929.533	9599
929.638	9435
929.743	9473
929.848	9515
929.953	9431
930.058	9428
930.163	9237
930.267	9275
930.372	9317
930.477	9176
930.581	9454
930.685	9203
930.79	9161
930.894	9264
930.998	9093
931.103	9283
931.207	8925
931.311	8895
931.415	8746
931.519	8602
931.623	8644
