Data from test_V78500241_2980.txt Node
Date: Fri Mar 25 14:54:27 CST 2022
User: usil
Spectrometer: V785-0024
Trigger mode: 0
Integration Time (sec): 4.000000E-1
Scans to average: 1
Nonlinearity correction enabled: false
Boxcar width: 0
Storing dark spectrum: false
XAxis mode: Wavelengths
Number of Pixels in Spectrum: 1024
>>>>>Begin Spectral Data<<<<<
801.071	22063
801.214	21949
801.356	21629
801.499	21568
801.641	21401
801.783	21538
801.926	21405
802.068	21447
802.211	21329
802.353	21169
802.496	21036
802.638	20899
802.78	20807
802.923	20777
803.065	20693
803.208	20777
803.35	20834
803.492	20864
803.635	20819
803.777	20750
803.919	20807
804.061	21119
804.204	20758
804.346	20727
804.488	20701
804.63	20842
804.773	20636
804.915	20640
805.057	20762
805.199	20716
805.341	20701
805.483	20716
805.626	20739
805.768	20697
805.91	20743
806.052	20754
806.194	20598
806.336	20811
806.478	20697
806.62	20712
806.762	20716
806.904	20944
807.046	21009
807.188	21074
807.33	21142
807.472	20967
807.614	20933
807.756	20899
807.898	20845
808.04	20720
808.182	20838
808.324	20804
808.465	20826
808.607	20956
808.749	21077
808.891	21150
809.033	21321
809.174	21081
809.316	20979
809.458	21085
809.6	21062
809.741	21062
809.883	21176
810.025	21226
810.166	21249
810.308	21192
810.45	21142
810.591	21058
810.733	20956
810.875	20849
811.016	20754
811.158	20750
811.299	20861
811.441	21077
811.582	21039
811.724	20804
811.865	20811
812.007	20705
812.148	20712
812.29	20944
812.431	20956
812.573	21226
812.714	21252
812.855	21325
812.997	21321
813.138	21610
813.279	21526
813.421	21351
813.562	21302
813.703	21135
813.845	20952
813.986	20724
814.127	20438
814.268	20351
814.41	20469
814.551	20480
814.692	20499
814.833	20381
814.974	20221
815.115	20336
815.256	20183
815.397	20195
815.539	20225
815.68	20096
815.821	20024
815.962	20233
816.103	20039
816.244	19947
816.385	19715
816.526	19727
816.666	19548
816.807	19548
816.948	19544
817.089	19681
817.23	19510
817.371	19483
817.512	19586
817.653	19491
817.793	19502
817.934	19552
818.075	19635
818.216	19559
818.356	19457
818.497	19343
818.638	19316
818.778	19327
818.919	19240
819.06	19221
819.2	19403
819.341	19480
819.481	19320
819.622	19392
819.762	19696
819.903	19647
820.043	19655
820.184	19449
820.324	19635
820.465	19552
820.605	19563
820.746	19487
820.886	19293
821.026	19381
821.167	19411
821.307	19556
821.447	19540
821.588	19217
821.728	19263
821.868	19076
822.008	18951
822.149	18897
822.289	18837
822.429	18764
822.569	18608
822.709	18661
822.849	18285
822.99	18388
823.13	18342
823.27	18235
823.41	18232
823.55	18133
823.69	18106
823.83	18163
823.97	18060
824.11	18026
824.25	17980
824.389	17961
824.529	17988
824.669	17901
824.809	18045
824.949	17958
825.089	17988
825.228	17961
825.368	17786
825.508	17805
825.648	17668
825.787	17760
825.927	17729
826.067	17653
826.206	17657
826.346	17687
826.485	17661
826.625	17589
826.765	17813
826.904	17805
827.044	17566
827.183	17501
827.323	17455
827.462	17547
827.601	17493
827.741	17528
827.88	17395
828.02	17239
828.159	17383
828.298	17471
828.437	17478
828.577	17356
828.716	17608
828.855	17440
828.994	17277
829.134	17185
829.273	17193
829.412	17109
829.551	17105
829.69	17094
829.829	17227
829.968	17239
830.107	17128
830.246	17132
830.385	17025
830.524	17033
830.663	17014
830.802	16790
830.941	16809
831.08	16767
831.219	16839
831.357	16892
831.496	17037
831.635	16691
831.774	16706
831.913	16516
832.051	16535
832.19	16550
832.329	16554
832.467	16481
832.606	16478
832.744	16531
832.883	16363
833.022	16379
833.16	16462
833.299	16455
833.437	16447
833.576	16493
833.714	16470
833.852	16500
833.991	16474
834.129	16538
834.267	16485
834.406	16497
834.544	16523
834.682	16527
834.821	16478
834.959	16713
835.097	16451
835.235	16603
835.373	16577
835.511	16481
835.65	16459
835.788	16280
835.926	16363
836.064	16246
836.202	16169
836.34	16382
836.478	16512
836.615	16379
836.753	16386
836.891	16535
837.029	16447
837.167	16360
837.305	16390
837.443	16341
837.58	16211
837.718	16409
837.856	16375
837.993	16177
838.131	16356
838.269	16185
838.406	16284
838.544	16116
838.681	16036
838.819	16040
838.956	15793
839.094	15823
839.231	15850
839.369	15892
839.506	16234
839.643	16101
839.781	15838
839.918	15770
840.055	15846
840.193	15705
840.33	15728
840.467	15793
840.604	15854
840.742	16048
840.879	15690
841.016	15660
841.153	15770
841.29	15876
841.427	15861
841.564	15903
841.701	15819
841.838	15671
841.975	15701
842.112	15686
842.249	15648
842.385	15477
842.522	15694
842.659	15564
842.796	15584
842.933	15614
843.069	15545
843.206	15584
843.343	15599
843.479	15564
843.616	15561
843.752	15447
843.889	15310
844.025	15530
844.162	15325
844.298	15447
844.435	15313
844.571	15317
844.708	15435
844.844	15511
844.98	15580
845.117	15473
845.253	15348
845.389	15233
845.525	15252
845.661	15306
845.798	15135
845.934	15256
846.07	15165
846.206	15169
846.342	15321
846.478	15097
846.614	14979
846.75	14952
846.886	14868
847.022	14937
847.158	14921
847.294	15024
847.429	15001
847.565	14937
847.701	15180
847.837	14693
847.972	14552
848.108	14826
848.244	14769
848.379	14617
848.515	14473
848.65	14419
848.786	14632
848.921	14522
849.057	14644
849.192	14549
849.328	14610
849.463	14549
849.598	14541
849.734	14480
849.869	14438
850.004	14404
850.14	14400
850.275	14381
850.41	14267
850.545	14355
850.68	14256
850.815	14381
850.95	14305
851.085	14419
851.22	14434
851.355	14358
851.49	14404
851.625	14317
851.76	14248
851.895	14180
852.03	14202
852.165	14252
852.299	14374
852.434	14423
852.569	14400
852.703	14294
852.838	14404
852.973	14492
853.107	14434
853.242	14282
853.376	14164
853.511	14035
853.645	14107
853.78	14328
853.914	14233
854.048	14214
854.183	14210
854.317	14221
854.451	14412
854.585	14161
854.72	14115
854.854	14332
854.988	14145
855.122	14058
855.256	14088
855.39	14153
855.524	14256
855.658	14195
855.792	14206
855.926	14180
856.06	14180
856.194	14263
856.327	14183
856.461	14153
856.595	14206
856.729	14199
856.862	14385
856.996	14164
857.13	14275
857.263	14305
857.397	14336
857.53	14142
857.664	14240
857.797	14202
857.931	14259
858.064	14077
858.197	14324
858.331	14218
858.464	14164
858.597	14073
858.731	14138
858.864	14123
858.997	14176
859.13	14290
859.263	14248
859.396	14294
859.529	14142
859.662	14176
859.795	14111
859.928	14199
860.061	14294
860.194	14336
860.327	14191
860.46	14161
860.592	14320
860.725	14328
860.858	14294
860.99	14138
861.123	14058
861.256	14126
861.388	14183
861.521	14735
861.653	14054
861.786	14001
861.918	14077
862.05	13982
862.183	14168
862.315	14157
862.447	14199
862.58	14107
862.712	14020
862.844	13868
862.976	14031
863.108	14024
863.24	14427
863.372	13746
863.504	14012
863.636	13871
863.768	14062
863.9	13906
864.032	13974
864.164	13963
864.296	14031
864.428	14084
864.559	14092
864.691	14073
864.823	14107
864.954	14008
865.086	13978
865.217	14001
865.349	13894
865.48	13986
865.612	13917
865.743	14111
865.875	13894
866.006	13875
866.137	14058
866.269	13913
866.4	13860
866.531	13894
866.662	13917
866.793	13967
866.924	13883
867.055	13974
867.186	13864
867.317	13875
867.448	13784
867.579	13913
867.71	13917
867.841	13921
867.972	13894
868.103	13913
868.233	13940
868.364	13978
868.495	13955
868.625	14183
868.756	14248
868.886	14195
869.017	14138
869.147	14362
869.278	14259
869.408	14202
869.539	14164
869.669	14263
869.799	14301
869.929	14256
870.06	14275
870.19	14457
870.32	14484
870.45	14583
870.58	14552
870.71	14727
870.84	14678
870.97	14610
871.1	14587
871.23	14781
871.36	14811
871.489	14724
871.619	14746
871.749	14819
871.879	14765
872.008	14948
872.138	14849
872.267	14754
872.397	14758
872.526	14583
872.656	14575
872.785	14712
872.915	14735
873.044	14971
873.173	14731
873.303	14868
873.432	14906
873.561	14967
873.69	14830
873.819	14864
873.948	14864
874.077	14921
874.206	14701
874.335	14811
874.464	15009
874.593	15135
874.722	15074
874.851	15150
874.979	15272
875.108	15207
875.237	15199
875.365	15043
875.494	15188
875.623	15188
875.751	15017
875.88	15154
876.008	15416
876.136	15367
876.265	15671
876.393	15720
876.521	15667
876.65	15720
876.778	15561
876.906	15515
877.034	15572
877.162	15481
877.29	15473
877.418	15629
877.546	15542
877.674	15599
877.802	15603
877.93	15526
878.058	15450
878.185	15477
878.313	15568
878.441	15656
878.568	15401
878.696	15511
878.824	15538
878.951	15656
879.079	15778
879.206	15842
879.333	15736
879.461	15603
879.588	15641
879.715	15743
879.842	15953
879.97	15667
880.097	15389
880.224	15443
880.351	15500
880.478	15473
880.605	15420
880.732	15469
880.859	15679
880.986	15447
881.112	15458
881.239	15359
881.366	15146
881.493	15161
881.619	15112
881.746	15024
881.872	15032
881.999	15066
882.125	15093
882.252	15085
882.378	15138
882.505	15199
882.631	15009
882.757	14891
882.883	14948
883.01	14880
883.136	14743
883.262	14819
883.388	14636
883.514	14785
883.64	15039
883.766	14918
883.892	14746
884.018	14682
884.143	14845
884.269	14994
884.395	14727
884.52	14541
884.646	14625
884.772	14507
884.897	14564
885.023	14621
885.148	14762
885.274	14743
885.399	14811
885.524	14674
885.65	14579
885.775	14549
885.9	14480
886.025	14693
886.15	14686
886.275	14587
886.4	14473
886.525	14571
886.65	14473
886.775	14530
886.9	14727
887.025	14807
887.149	14507
887.274	14514
887.399	14419
887.523	14438
887.648	14347
887.773	14377
887.897	14427
888.021	14537
888.146	14431
888.27	14568
888.395	14617
888.519	14575
888.643	14457
888.767	14575
888.891	14461
889.015	14263
889.139	14339
889.263	14381
889.387	14389
889.511	14560
889.635	14415
889.759	14256
889.883	14256
890.006	14366
890.13	14438
890.254	14275
890.377	14237
890.501	14134
890.624	14039
890.748	14145
890.871	14058
890.995	13982
891.118	13970
891.241	14016
891.364	13993
891.488	14088
891.611	14046
891.734	14096
891.857	14050
891.98	13989
892.103	14062
892.226	14065
892.349	14039
892.471	13947
892.594	13955
892.717	14024
892.839	14016
892.962	14024
893.085	14183
893.207	14027
893.33	13894
893.452	13925
893.575	14046
893.697	14069
893.819	14183
893.941	14195
894.064	14073
894.186	14084
894.308	13978
894.43	14115
894.552	14267
894.674	14164
894.796	13986
894.918	14039
895.04	13974
895.161	14248
895.283	14065
895.405	14176
895.526	14199
895.648	14084
895.769	14100
895.891	14183
896.012	14248
896.134	14271
896.255	14123
896.376	14191
896.498	14202
896.619	14191
896.74	14244
896.861	14202
896.982	14564
897.103	14735
897.224	14396
897.345	14400
897.466	14427
897.587	14457
897.708	14613
897.828	14552
897.949	14454
898.07	14320
898.19	14465
898.311	14549
898.431	14442
898.552	14579
898.672	14594
898.792	14716
898.913	14587
899.033	14495
899.153	14457
899.273	14286
899.393	14294
899.513	14358
899.633	14415
899.753	14355
899.873	14427
899.993	14442
900.113	14450
900.232	14431
900.352	14336
900.472	14351
900.591	14218
900.711	14225
900.83	14210
900.95	14336
901.069	14328
901.189	14237
901.308	13989
901.427	13902
901.546	13940
901.665	14043
901.784	13967
901.904	13772
902.023	13769
902.141	13487
902.26	13483
902.379	13521
902.498	13525
902.617	13457
902.735	13521
902.854	13499
902.973	13472
903.091	13228
903.21	13171
903.328	13270
903.446	13107
903.565	13023
903.683	13091
903.801	12958
903.919	13110
904.038	13072
904.156	12886
904.274	12909
904.392	12863
904.51	13031
904.627	12932
904.745	12924
904.863	12947
904.981	12741
905.098	12452
905.216	12612
905.334	12646
905.451	12555
905.569	12517
905.686	12650
905.803	12623
905.921	12338
906.038	12513
906.155	12429
906.272	12353
906.389	12270
906.506	12232
906.623	12266
906.74	12057
906.857	12095
906.974	12076
907.091	12304
907.208	12289
907.324	12102
907.441	12049
907.557	11935
907.674	11939
907.79	11923
907.907	11874
908.023	11870
908.139	11946
908.256	11794
908.372	11775
908.488	11718
908.604	11707
908.72	11623
908.836	11676
908.952	11657
909.068	11661
909.184	11779
909.3	11627
909.415	11668
909.531	11786
909.647	11554
909.762	11436
909.878	11490
909.993	11516
910.108	11440
910.224	11512
910.339	11433
910.454	11379
910.57	11322
910.685	11242
910.8	11505
910.915	11520
911.03	11292
911.145	11242
911.259	11223
911.374	11208
911.489	11147
911.604	11102
911.718	10873
911.833	10968
911.947	10862
912.062	10809
912.176	10862
912.291	10889
912.405	10866
912.519	11162
912.633	11105
912.748	10976
912.862	10934
912.976	10839
913.09	10771
913.204	10748
913.318	10839
913.431	10961
913.545	10915
913.659	10972
913.772	10843
913.886	10653
914	10725
914.113	10820
914.226	10809
914.34	10824
914.453	10672
914.566	10862
914.68	10771
914.793	10687
914.906	10504
915.019	10432
915.132	10394
915.245	10455
915.358	10474
915.47	10474
915.583	10478
915.696	10538
915.809	10615
915.921	10577
916.034	10493
916.146	10360
916.259	10443
916.371	10512
916.483	10462
916.595	10367
916.708	10428
916.82	10325
916.932	10440
917.044	10360
917.156	10344
917.268	10207
917.38	10287
917.491	10348
917.603	10344
917.715	10413
917.826	10481
917.938	10295
918.049	10143
918.161	10341
918.272	10462
918.384	10409
918.495	10287
918.606	10196
918.717	10200
918.828	10185
918.939	10227
919.05	10063
919.161	10105
919.272	9975
919.383	10010
919.494	10246
919.604	10322
919.715	10166
919.826	10135
919.936	10276
920.047	10246
920.157	10154
920.267	10421
920.378	10223
920.488	10249
920.598	10413
920.708	10546
920.818	10371
920.928	10371
921.038	10531
921.148	10546
921.258	10253
921.368	10211
921.477	10021
921.587	10071
921.697	9987
921.806	10124
921.916	9979
922.025	9755
922.134	9755
922.244	9694
922.353	9770
922.462	9644
922.571	9572
922.68	9462
922.789	9435
922.898	9389
923.007	9466
923.116	9488
923.224	9424
923.333	9412
923.442	9336
923.55	9321
923.659	9340
923.767	9412
923.876	9241
923.984	9412
924.092	9237
924.201	9370
924.309	9313
924.417	9306
924.525	9363
924.633	9310
924.741	10234
924.849	9112
924.956	9256
925.064	9097
925.172	8925
925.279	9043
925.387	9081
925.494	9116
925.602	9176
925.709	9203
925.816	9017
925.924	9123
926.031	9249
926.138	9077
926.245	9089
926.352	9058
926.459	9184
926.566	9169
926.673	9028
926.779	9001
926.886	9051
926.993	8830
927.099	8724
927.206	8746
927.312	8705
927.419	8842
927.525	8811
927.631	8876
927.737	8716
927.843	8766
927.95	8533
928.056	8594
928.162	8746
928.267	8815
928.373	9382
928.479	8864
928.585	8552
928.69	8743
928.796	8815
928.901	8731
929.007	8526
929.112	8549
929.218	8579
929.323	8606
929.428	8507
929.533	8644
929.638	8476
929.743	8568
929.848	8632
929.953	8469
930.058	8484
930.163	8237
930.267	8282
930.372	8484
930.477	8298
930.581	8541
930.685	8450
930.79	8244
930.894	8317
930.998	8267
931.103	8362
931.207	8039
931.311	8031
931.415	7909
931.519	7742
931.623	7742
