Data from test_V78500241_2566.txt Node
Date: Fri Mar 25 14:51:34 CST 2022
User: usil
Spectrometer: V785-0024
Trigger mode: 0
Integration Time (sec): 4.000000E-1
Scans to average: 1
Nonlinearity correction enabled: false
Boxcar width: 0
Storing dark spectrum: false
XAxis mode: Wavelengths
Number of Pixels in Spectrum: 1024
>>>>>Begin Spectral Data<<<<<
801.071	21975
801.214	22006
801.356	21610
801.499	21637
801.641	21336
801.783	21351
801.926	21462
802.068	21340
802.211	21310
802.353	21291
802.496	20986
802.638	20929
802.78	20716
802.923	20788
803.065	20701
803.208	20587
803.35	20705
803.492	20906
803.635	20914
803.777	20708
803.919	20826
804.061	21047
804.204	20712
804.346	20705
804.488	20545
804.63	20682
804.773	20613
804.915	20541
805.057	20750
805.199	20568
805.341	20731
805.483	20701
805.626	20743
805.768	20629
805.91	20644
806.052	20575
806.194	20495
806.336	20796
806.478	20629
806.62	20537
806.762	20754
806.904	20826
807.046	20960
807.188	20994
807.33	20998
807.472	21081
807.614	20910
807.756	20765
807.898	20686
808.04	20735
808.182	20568
808.324	20788
808.465	20712
808.607	20883
808.749	20918
808.891	21093
809.033	21104
809.174	21028
809.316	20921
809.458	20982
809.6	20925
809.741	20933
809.883	21077
810.025	21203
810.166	21096
810.308	21081
810.45	21081
810.591	21089
810.733	20838
810.875	20758
811.016	20682
811.158	20705
811.299	20826
811.441	20952
811.582	20804
811.724	20697
811.865	20571
812.007	20674
812.148	20857
812.29	20845
812.431	20937
812.573	20982
812.714	21123
812.855	21283
812.997	21340
813.138	21504
813.279	21344
813.421	21188
813.562	21127
813.703	21096
813.845	20937
813.986	20674
814.127	20358
814.268	20202
814.41	20351
814.551	20282
814.692	20324
814.833	20271
814.974	20324
815.115	20240
815.256	20168
815.397	20168
815.539	20240
815.68	20027
815.821	20043
815.962	20020
816.103	19947
816.244	19875
816.385	19776
816.526	19833
816.666	19590
816.807	19400
816.948	19571
817.089	19556
817.23	19552
817.371	19377
817.512	19514
817.653	19388
817.793	19457
817.934	19422
818.075	19480
818.216	19426
818.356	19491
818.497	19171
818.638	19080
818.778	19076
818.919	19225
819.06	19050
819.2	19263
819.341	19304
819.481	19228
819.622	19529
819.762	19628
819.903	19670
820.043	19582
820.184	19422
820.324	19453
820.465	19464
820.605	19499
820.746	19365
820.886	19164
821.026	19468
821.167	19346
821.307	19335
821.447	19388
821.588	19232
821.728	19091
821.868	18973
822.008	18913
822.149	18817
822.289	18623
822.429	18555
822.569	18540
822.709	18486
822.849	18243
822.99	18319
823.13	18311
823.27	18251
823.41	18060
823.55	18041
823.69	18114
823.83	18064
823.97	18019
824.11	17935
824.25	17901
824.389	17916
824.529	17977
824.669	17885
824.809	18034
824.949	17988
825.089	17999
825.228	17973
825.368	17764
825.508	17707
825.648	17775
825.787	17745
825.927	17668
826.067	17649
826.206	17668
826.346	17741
826.485	17710
826.625	17680
826.765	17855
826.904	17661
827.044	17436
827.183	17425
827.323	17410
827.462	17417
827.601	17345
827.741	17440
827.88	17345
828.02	17231
828.159	17376
828.298	17398
828.437	17372
828.577	17341
828.716	17490
828.855	17318
828.994	17086
829.134	17136
829.273	17220
829.412	17003
829.551	17124
829.69	17056
829.829	17109
829.968	17223
830.107	17296
830.246	17155
830.385	17109
830.524	17014
830.663	16915
830.802	16752
830.941	16687
831.08	16694
831.219	16805
831.357	16862
831.496	17071
831.635	16744
831.774	16710
831.913	16637
832.051	16565
832.19	16565
832.329	16558
832.467	16394
832.606	16432
832.744	16432
832.883	16500
833.022	16299
833.16	16394
833.299	16493
833.437	16451
833.576	16413
833.714	16500
833.852	16561
833.991	16599
834.129	16558
834.267	16485
834.406	16341
834.544	16489
834.682	16527
834.821	16470
834.959	16710
835.097	16558
835.235	16626
835.373	16504
835.511	16561
835.65	16394
835.788	16421
835.926	16215
836.064	16261
836.202	16154
836.34	16413
836.478	16504
836.615	16344
836.753	16421
836.891	16470
837.029	16413
837.167	16348
837.305	16344
837.443	16284
837.58	16249
837.718	16394
837.856	16276
837.993	16192
838.131	16344
838.269	16169
838.406	16188
838.544	16287
838.681	16021
838.819	15934
838.956	15907
839.094	15789
839.231	15869
839.369	15979
839.506	16261
839.643	16086
839.781	15861
839.918	15842
840.055	15880
840.193	15778
840.33	15759
840.467	15854
840.604	15797
840.742	16010
840.879	15675
841.016	15739
841.153	15770
841.29	15953
841.427	15774
841.564	15903
841.701	15827
841.838	15850
841.975	15766
842.112	15671
842.249	15648
842.385	15644
842.522	15762
842.659	15641
842.796	15637
842.933	15648
843.069	15504
843.206	15492
843.343	15762
843.479	15599
843.616	15663
843.752	15435
843.889	15367
844.025	15606
844.162	15412
844.298	15610
844.435	15405
844.571	15397
844.708	15469
844.844	15595
844.98	15595
845.117	15534
845.253	15405
845.389	15268
845.525	15287
845.661	15291
845.798	15180
845.934	15218
846.07	15127
846.206	15245
846.342	15241
846.478	15195
846.614	15051
846.75	14895
846.886	15036
847.022	15001
847.158	14933
847.294	15017
847.429	15070
847.565	14895
847.701	15222
847.837	14686
847.972	14674
848.108	14804
848.244	14804
848.379	14636
848.515	14556
848.65	14552
848.786	14594
848.921	14507
849.057	14712
849.192	14724
849.328	14670
849.463	14514
849.598	14526
849.734	14454
849.869	14492
850.004	14278
850.14	14381
850.275	14377
850.41	14320
850.545	14282
850.68	14305
850.815	14377
850.95	14240
851.085	14541
851.22	14488
851.355	14434
851.49	14343
851.625	14366
851.76	14305
851.895	14332
852.03	14240
852.165	14259
852.299	14305
852.434	14480
852.569	14305
852.703	14434
852.838	14377
852.973	14438
853.107	14404
853.242	14271
853.376	14202
853.511	14111
853.645	14218
853.78	14328
853.914	14233
854.048	14202
854.183	14149
854.317	14237
854.451	14385
854.585	14214
854.72	14191
854.854	14210
854.988	14096
855.122	14103
855.256	14031
855.39	14248
855.524	14206
855.658	14313
855.792	14271
855.926	14294
856.06	14233
856.194	14362
856.327	14161
856.461	14195
856.595	14134
856.729	14157
856.862	14377
856.996	14328
857.13	14256
857.263	14298
857.397	14358
857.53	14237
857.664	14324
857.797	14320
857.931	14446
858.064	14248
858.197	14305
858.331	14168
858.464	14195
858.597	14176
858.731	14286
858.864	14214
858.997	14244
859.13	14233
859.263	14244
859.396	14339
859.529	14218
859.662	14206
859.795	14161
859.928	14263
860.061	14465
860.194	14476
860.327	14221
860.46	14237
860.592	14370
860.725	14332
860.858	14332
860.99	14183
861.123	14183
861.256	14214
861.388	14225
861.521	14910
861.653	14050
861.786	14016
861.918	14065
862.05	14149
862.183	14130
862.315	14210
862.447	14183
862.58	14275
862.712	13944
862.844	13894
862.976	14039
863.108	14130
863.24	14412
863.372	13906
863.504	13951
863.636	14043
863.768	14027
863.9	13906
864.032	13917
864.164	13986
864.296	14096
864.428	14149
864.559	14092
864.691	14138
864.823	14081
864.954	14031
865.086	14096
865.217	14058
865.349	13978
865.48	14062
865.612	13967
865.743	14229
865.875	13928
866.006	13940
866.137	13989
866.269	14050
866.4	14035
866.531	14001
866.662	13890
866.793	13833
866.924	13906
867.055	13982
867.186	14005
867.317	13928
867.448	13978
867.579	13993
867.71	13890
867.841	13902
867.972	14005
868.103	13982
868.233	13974
868.364	13932
868.495	14012
868.625	14119
868.756	14374
868.886	14164
869.017	14275
869.147	14355
869.278	14393
869.408	14214
869.539	14202
869.669	14248
869.799	14278
869.929	14309
870.06	14271
870.19	14575
870.32	14484
870.45	14469
870.58	14701
870.71	14712
870.84	14800
870.97	14651
871.1	14678
871.23	14701
871.36	14830
871.489	14678
871.619	14823
871.749	14773
871.879	14834
872.008	14994
872.138	14880
872.267	14819
872.397	14838
872.526	14632
872.656	14648
872.785	14712
872.915	14910
873.044	14990
873.173	14864
873.303	14895
873.432	14956
873.561	15058
873.69	14864
873.819	14914
873.948	14929
874.077	14899
874.206	14838
874.335	14933
874.464	15009
874.593	15195
874.722	14982
874.851	15165
874.979	15146
875.108	15279
875.237	15245
875.365	15085
875.494	15154
875.623	15302
875.751	15275
875.88	15226
876.008	15359
876.136	15386
876.265	15515
876.393	15774
876.521	15770
876.65	15637
876.778	15736
876.906	15652
877.034	15561
877.162	15618
877.29	15469
877.418	15614
877.546	15614
877.674	15633
877.802	15568
877.93	15698
878.058	15667
878.185	15614
878.313	15599
878.441	15682
878.568	15572
878.696	15526
878.824	15679
878.951	15728
879.079	15816
879.206	15945
879.333	15800
879.461	15641
879.588	15770
879.715	15850
879.842	15922
879.97	15778
880.097	15481
880.224	15485
880.351	15454
880.478	15526
880.605	15519
880.732	15500
880.859	15622
880.986	15450
881.112	15458
881.239	15420
881.366	15249
881.493	15077
881.619	15184
881.746	15138
881.872	15150
881.999	15131
882.125	15116
882.252	15283
882.378	15161
882.505	15298
882.631	15173
882.757	14960
882.883	14937
883.01	14853
883.136	14868
883.262	14815
883.388	14804
883.514	14830
883.64	14975
883.766	14979
883.892	14788
884.018	14845
884.143	14952
884.269	14906
884.395	14663
884.52	14720
884.646	14632
884.772	14537
884.897	14473
885.023	14629
885.148	14838
885.274	14777
885.399	14739
885.524	14617
885.65	14606
885.775	14610
885.9	14598
886.025	14708
886.15	14682
886.275	14678
886.4	14560
886.525	14583
886.65	14514
886.775	14617
886.9	14739
887.025	14925
887.149	14670
887.274	14427
887.399	14495
887.523	14404
887.648	14358
887.773	14389
887.897	14522
888.021	14602
888.146	14549
888.27	14602
888.395	14590
888.519	14537
888.643	14522
888.767	14594
888.891	14339
889.015	14339
889.139	14366
889.263	14317
889.387	14450
889.511	14552
889.635	14412
889.759	14343
889.883	14248
890.006	14374
890.13	14511
890.254	14362
890.377	14358
890.501	14225
890.624	14142
890.748	14286
890.871	14130
890.995	13963
891.118	13959
891.241	14092
891.364	14077
891.488	14088
891.611	14096
891.734	14107
891.857	14111
891.98	14031
892.103	14031
892.226	14024
892.349	14077
892.471	13909
892.594	13947
892.717	14123
892.839	13974
892.962	13989
893.085	14180
893.207	13955
893.33	13928
893.452	14020
893.575	14100
893.697	14077
893.819	14183
893.941	14210
894.064	14157
894.186	13997
894.308	13974
894.43	14206
894.552	14180
894.674	14161
894.796	13940
894.918	14103
895.04	14050
895.161	14248
895.283	14237
895.405	14130
895.526	14145
895.648	14210
895.769	14202
895.891	14244
896.012	14252
896.134	14233
896.255	14248
896.376	14145
896.498	14218
896.619	14202
896.74	14237
896.861	14320
896.982	14556
897.103	14689
897.224	14541
897.345	14381
897.466	14396
897.587	14522
897.708	14556
897.828	14629
897.949	14484
898.07	14320
898.19	14438
898.311	14651
898.431	14537
898.552	14545
898.672	14629
898.792	14613
898.913	14492
899.033	14537
899.153	14450
899.273	14389
899.393	14366
899.513	14404
899.633	14396
899.753	14431
899.873	14423
899.993	14526
900.113	14393
900.232	14579
900.352	14385
900.472	14301
900.591	14176
900.711	14290
900.83	14206
900.95	14385
901.069	14389
901.189	14256
901.308	14027
901.427	13875
901.546	13928
901.665	13997
901.784	13951
901.904	13921
902.023	13689
902.141	13571
902.26	13518
902.379	13567
902.498	13529
902.617	13472
902.735	13601
902.854	13567
902.973	13506
903.091	13293
903.21	13297
903.328	13259
903.446	13175
903.565	13053
903.683	13103
903.801	13023
903.919	13095
904.038	13061
904.156	12913
904.274	13046
904.392	12996
904.51	12894
904.627	12852
904.745	12958
904.863	12943
904.981	12711
905.098	12544
905.216	12506
905.334	12654
905.451	12646
905.569	12490
905.686	12646
905.803	12616
905.921	12418
906.038	12574
906.155	12494
906.272	12292
906.389	12437
906.506	12285
906.623	12270
906.74	12285
906.857	12038
906.974	12133
907.091	12243
907.208	12342
907.324	12266
907.441	12087
907.557	11992
907.674	11973
907.79	11908
907.907	11874
908.023	12072
908.139	11950
908.256	11859
908.372	11885
908.488	11779
908.604	11756
908.72	11714
908.836	11805
908.952	11665
909.068	11707
909.184	11878
909.3	11733
909.415	11802
909.531	11726
909.647	11528
909.762	11577
909.878	11440
909.993	11459
910.108	11490
910.224	11505
910.339	11433
910.454	11356
910.57	11288
910.685	11269
910.8	11657
910.915	11471
911.03	11410
911.145	11227
911.259	11147
911.374	11162
911.489	11086
911.604	10987
911.718	10957
911.833	10866
911.947	10892
912.062	10755
912.176	10877
912.291	10949
912.405	10885
912.519	11193
912.633	11136
912.748	11022
912.862	10927
912.976	10862
913.09	10702
913.204	10759
913.318	10854
913.431	10938
913.545	10957
913.659	10995
913.772	10793
913.886	10736
914	10675
914.113	10850
914.226	10889
914.34	10729
914.453	10596
914.566	10812
914.68	10649
914.793	10687
914.906	10485
915.019	10474
915.132	10310
915.245	10424
915.358	10382
915.47	10466
915.583	10489
915.696	10504
915.809	10596
915.921	10603
916.034	10481
916.146	10424
916.259	10344
916.371	10390
916.483	10493
916.595	10352
916.708	10299
916.82	10432
916.932	10390
917.044	10386
917.156	10341
917.268	10280
917.38	10325
917.491	10230
917.603	10314
917.715	10363
917.826	10375
917.938	10192
918.049	10192
918.161	10242
918.272	10481
918.384	10474
918.495	10268
918.606	10185
918.717	10162
918.828	10162
918.939	10196
919.05	10124
919.161	10196
919.272	9968
919.383	10025
919.494	10265
919.604	10394
919.715	10196
919.826	10040
919.936	10177
920.047	10230
920.157	10249
920.267	10341
920.378	10284
920.488	10166
920.598	10329
920.708	10535
920.818	10386
920.928	10417
921.038	10535
921.148	10531
921.258	10204
921.368	10105
921.477	10036
921.587	10002
921.697	9854
921.806	10036
921.916	9930
922.025	9736
922.134	9686
922.244	9743
922.353	9804
922.462	9717
922.571	9530
922.68	9466
922.789	9401
922.898	9504
923.007	9386
923.116	9515
923.224	9488
923.333	9382
923.442	9382
923.55	9317
923.659	9389
923.767	9363
923.876	9245
923.984	9340
924.092	9256
924.201	9313
924.309	9317
924.417	9306
924.525	9218
924.633	9291
924.741	10036
924.849	9093
924.956	9176
925.064	9093
925.172	9081
925.279	9001
925.387	9146
925.494	9043
925.602	9249
925.709	9100
925.816	8979
925.924	9100
926.031	9119
926.138	9070
926.245	9074
926.352	8956
926.459	9188
926.566	9146
926.673	9070
926.779	8910
926.886	8914
926.993	8842
927.099	8788
927.206	8735
927.312	8758
927.419	8842
927.525	8823
927.631	8895
927.737	8701
927.843	8689
927.95	8621
928.056	8697
928.162	8712
928.267	8705
928.373	9325
928.479	8811
928.585	8606
928.69	8621
928.796	8724
928.901	8686
929.007	8434
929.112	8629
929.218	8655
929.323	8537
929.428	8503
929.533	8663
929.638	8446
929.743	8488
929.848	8560
929.953	8530
930.058	8427
930.163	8294
930.267	8317
930.372	8431
930.477	8240
930.581	8549
930.685	8400
930.79	8202
930.894	8294
930.998	8309
931.103	8389
931.207	8027
931.311	7997
931.415	7970
931.519	7742
931.623	7719
