Data from test_V78500241_2787.txt Node
Date: Fri Mar 25 14:53:07 CST 2022
User: usil
Spectrometer: V785-0024
Trigger mode: 0
Integration Time (sec): 4.000000E-1
Scans to average: 1
Nonlinearity correction enabled: false
Boxcar width: 0
Storing dark spectrum: false
XAxis mode: Wavelengths
Number of Pixels in Spectrum: 1024
>>>>>Begin Spectral Data<<<<<
801.071	22013
801.214	22013
801.356	21739
801.499	21633
801.641	21466
801.783	21405
801.926	21389
802.068	21287
802.211	21405
802.353	21211
802.496	20933
802.638	20971
802.78	20914
802.923	20754
803.065	20670
803.208	20754
803.35	20823
803.492	20739
803.635	20876
803.777	20811
803.919	20838
804.061	21161
804.204	20815
804.346	20708
804.488	20743
804.63	20667
804.773	20625
804.915	20659
805.057	20674
805.199	20632
805.341	20667
805.483	20762
805.626	20769
805.768	20594
805.91	20655
806.052	20594
806.194	20579
806.336	20773
806.478	20636
806.62	20568
806.762	20720
806.904	20834
807.046	21108
807.188	20929
807.33	20994
807.472	21127
807.614	20762
807.756	20975
807.898	20906
808.04	20720
808.182	20792
808.324	20735
808.465	20731
808.607	20895
808.749	21058
808.891	21135
809.033	21218
809.174	21157
809.316	21001
809.458	21032
809.6	21039
809.741	20986
809.883	21001
810.025	21275
810.166	21256
810.308	21127
810.45	21058
810.591	21085
810.733	20838
810.875	20807
811.016	20606
811.158	20663
811.299	20712
811.441	21009
811.582	20948
811.724	20739
811.865	20708
812.007	20629
812.148	20853
812.29	20868
812.431	20902
812.573	21089
812.714	21195
812.855	21237
812.997	21367
813.138	21435
813.279	21351
813.421	21268
813.562	21150
813.703	20925
813.845	20906
813.986	20667
814.127	20488
814.268	20366
814.41	20374
814.551	20275
814.692	20358
814.833	20339
814.974	20233
815.115	20328
815.256	20145
815.397	20058
815.539	20153
815.68	20100
815.821	20046
815.962	20115
816.103	20107
816.244	19894
816.385	19868
816.526	19742
816.666	19677
816.807	19578
816.948	19666
817.089	19563
817.23	19441
817.371	19457
817.512	19472
817.653	19350
817.793	19358
817.934	19544
818.075	19495
818.216	19449
818.356	19403
818.497	19232
818.638	19076
818.778	19164
818.919	19091
819.06	19145
819.2	19266
819.341	19244
819.481	19403
819.622	19392
819.762	19628
819.903	19590
820.043	19502
820.184	19388
820.324	19495
820.465	19457
820.605	19480
820.746	19407
820.886	19312
821.026	19491
821.167	19358
821.307	19518
821.447	19209
821.588	19232
821.728	19084
821.868	18954
822.008	18829
822.149	18810
822.289	18859
822.429	18540
822.569	18620
822.709	18456
822.849	18380
822.99	18346
823.13	18304
823.27	18300
823.41	18197
823.55	18144
823.69	18186
823.83	18102
823.97	18049
824.11	17935
824.25	17973
824.389	17958
824.529	17973
824.669	17893
824.809	18015
824.949	17996
825.089	17984
825.228	17912
825.368	17596
825.508	17707
825.648	17634
825.787	17729
825.927	17733
826.067	17592
826.206	17748
826.346	17646
826.485	17665
826.625	17775
826.765	17687
826.904	17684
827.044	17543
827.183	17452
827.323	17258
827.462	17414
827.601	17406
827.741	17345
827.88	17372
828.02	17326
828.159	17379
828.298	17383
828.437	17425
828.577	17345
828.716	17444
828.855	17337
828.994	17090
829.134	17216
829.273	17193
829.412	17090
829.551	16968
829.69	17064
829.829	17200
829.968	17140
830.107	17197
830.246	17151
830.385	17109
830.524	17079
830.663	16995
830.802	16710
830.941	16744
831.08	16698
831.219	16786
831.357	16793
831.496	16999
831.635	16790
831.774	16797
831.913	16588
832.051	16641
832.19	16504
832.329	16630
832.467	16538
832.606	16352
832.744	16386
832.883	16409
833.022	16561
833.16	16363
833.299	16440
833.437	16440
833.576	16504
833.714	16497
833.852	16508
833.991	16489
834.129	16500
834.267	16580
834.406	16569
834.544	16550
834.682	16523
834.821	16459
834.959	16767
835.097	16512
835.235	16565
835.373	16512
835.511	16455
835.65	16436
835.788	16447
835.926	16318
836.064	16234
836.202	16242
836.34	16451
836.478	16558
836.615	16306
836.753	16379
836.891	16516
837.029	16402
837.167	16360
837.305	16371
837.443	16341
837.58	16226
837.718	16367
837.856	16299
837.993	16276
838.131	16238
838.269	16154
838.406	16192
838.544	16162
838.681	15953
838.819	15956
838.956	15812
839.094	15816
839.231	15899
839.369	16036
839.506	16192
839.643	16067
839.781	15865
839.918	15774
840.055	15808
840.193	15819
840.33	15816
840.467	15804
840.604	15831
840.742	16013
840.879	15732
841.016	15778
841.153	15800
841.29	15911
841.427	15918
841.564	15884
841.701	15888
841.838	15819
841.975	15701
842.112	15835
842.249	15591
842.385	15561
842.522	15793
842.659	15656
842.796	15511
842.933	15542
843.069	15652
843.206	15576
843.343	15644
843.479	15656
843.616	15610
843.752	15412
843.889	15439
844.025	15523
844.162	15397
844.298	15443
844.435	15408
844.571	15340
844.708	15416
844.844	15603
844.98	15473
845.117	15519
845.253	15317
845.389	15218
845.525	15435
845.661	15291
845.798	15241
845.934	15173
846.07	15268
846.206	15222
846.342	15344
846.478	15249
846.614	14979
846.75	14902
846.886	14902
847.022	15005
847.158	14979
847.294	14956
847.429	14998
847.565	14925
847.701	15218
847.837	14781
847.972	14678
848.108	14792
848.244	14746
848.379	14644
848.515	14431
848.65	14549
848.786	14590
848.921	14511
849.057	14655
849.192	14689
849.328	14571
849.463	14560
849.598	14541
849.734	14454
849.869	14446
850.004	14419
850.14	14393
850.275	14309
850.41	14206
850.545	14286
850.68	14362
850.815	14381
850.95	14385
851.085	14488
851.22	14415
851.355	14389
851.49	14393
851.625	14248
851.76	14275
851.895	14092
852.03	14240
852.165	14381
852.299	14419
852.434	14309
852.569	14427
852.703	14362
852.838	14438
852.973	14507
853.107	14412
853.242	14298
853.376	14259
853.511	14096
853.645	14111
853.78	14259
853.914	14180
854.048	14100
854.183	14126
854.317	14263
854.451	14381
854.585	14229
854.72	14145
854.854	14278
854.988	14145
855.122	14218
855.256	14046
855.39	14111
855.524	14225
855.658	14225
855.792	14176
855.926	14221
856.06	14328
856.194	14328
856.327	14240
856.461	14115
856.595	14153
856.729	14199
856.862	14221
856.996	14286
857.13	14252
857.263	14305
857.397	14252
857.53	14199
857.664	14218
857.797	14332
857.931	14259
858.064	14191
858.197	14320
858.331	14107
858.464	14176
858.597	13970
858.731	14233
858.864	14221
858.997	14199
859.13	14259
859.263	14309
859.396	14343
859.529	14244
859.662	14157
859.795	14142
859.928	14225
860.061	14362
860.194	14419
860.327	14248
860.46	14134
860.592	14252
860.725	14282
860.858	14244
860.99	14195
861.123	14107
861.256	14081
861.388	14191
861.521	14990
861.653	14176
861.786	14073
861.918	13989
862.05	14111
862.183	14187
862.315	14161
862.447	14271
862.58	14123
862.712	13986
862.844	13951
862.976	14024
863.108	14046
863.24	14495
863.372	13913
863.504	13982
863.636	13921
863.768	14001
863.9	14005
864.032	13845
864.164	13963
864.296	14142
864.428	14081
864.559	14088
864.691	14081
864.823	14058
864.954	14016
865.086	14020
865.217	13944
865.349	13963
865.48	13902
865.612	13993
865.743	14092
865.875	14008
866.006	13875
866.137	14001
866.269	13875
866.4	13940
866.531	13936
866.662	13917
866.793	13845
866.924	13928
867.055	13993
867.186	13944
867.317	13860
867.448	13849
867.579	13887
867.71	13913
867.841	13909
867.972	13982
868.103	14016
868.233	13974
868.364	14035
868.495	14035
868.625	14157
868.756	14324
868.886	14161
869.017	14100
869.147	14332
869.278	14351
869.408	14313
869.539	14202
869.669	14309
869.799	14142
869.929	14286
870.06	14385
870.19	14526
870.32	14492
870.45	14552
870.58	14678
870.71	14777
870.84	14621
870.97	14636
871.1	14568
871.23	14746
871.36	14765
871.489	14773
871.619	14670
871.749	14853
871.879	14830
872.008	14906
872.138	14826
872.267	14735
872.397	14708
872.526	14689
872.656	14610
872.785	14678
872.915	14754
873.044	14834
873.173	14849
873.303	14906
873.432	14811
873.561	15005
873.69	14834
873.819	14823
873.948	14910
874.077	14895
874.206	14815
874.335	14868
874.464	15062
874.593	15036
874.722	14982
874.851	15249
874.979	15272
875.108	15279
875.237	15127
875.365	15066
875.494	15142
875.623	15344
875.751	15180
875.88	15298
876.008	15363
876.136	15450
876.265	15610
876.393	15686
876.521	15720
876.65	15793
876.778	15656
876.906	15606
877.034	15564
877.162	15652
877.29	15462
877.418	15564
877.546	15614
877.674	15622
877.802	15622
877.93	15599
878.058	15549
878.185	15496
878.313	15656
878.441	15660
878.568	15549
878.696	15568
878.824	15637
878.951	15694
879.079	15789
879.206	15869
879.333	15705
879.461	15633
879.588	15671
879.715	15816
879.842	15926
879.97	15701
880.097	15466
880.224	15397
880.351	15481
880.478	15561
880.605	15428
880.732	15500
880.859	15675
880.986	15386
881.112	15504
881.239	15317
881.366	15188
881.493	15157
881.619	15104
881.746	15180
881.872	15009
881.999	15116
882.125	15116
882.252	15138
882.378	15157
882.505	15222
882.631	15001
882.757	14937
882.883	14967
883.01	15005
883.136	14834
883.262	14735
883.388	14750
883.514	14990
883.64	14971
883.766	14998
883.892	14861
884.018	14811
884.143	14963
884.269	14998
884.395	14621
884.52	14568
884.646	14750
884.772	14537
884.897	14495
885.023	14716
885.148	14689
885.274	14788
885.399	14743
885.524	14651
885.65	14731
885.775	14659
885.9	14575
886.025	14807
886.15	14678
886.275	14587
886.4	14442
886.525	14621
886.65	14632
886.775	14514
886.9	14762
887.025	14899
887.149	14670
887.274	14560
887.399	14434
887.523	14446
887.648	14450
887.773	14374
887.897	14514
888.021	14503
888.146	14400
888.27	14480
888.395	14560
888.519	14552
888.643	14522
888.767	14549
888.891	14457
889.015	14366
889.139	14343
889.263	14320
889.387	14393
889.511	14537
889.635	14442
889.759	14282
889.883	14355
890.006	14408
890.13	14313
890.254	14252
890.377	14240
890.501	14126
890.624	14119
890.748	14202
890.871	14008
890.995	14031
891.118	13940
891.241	13993
891.364	13993
891.488	14065
891.611	14031
891.734	14157
891.857	14020
891.98	14130
892.103	14119
892.226	14107
892.349	13955
892.471	13837
892.594	14058
892.717	13986
892.839	13978
892.962	14084
893.085	14138
893.207	14077
893.33	13921
893.452	13955
893.575	14027
893.697	13902
893.819	14248
893.941	14229
894.064	14149
894.186	14016
894.308	14054
894.43	14119
894.552	14202
894.674	14096
894.796	14008
894.918	14077
895.04	14027
895.161	14096
895.283	14100
895.405	13993
895.526	14149
895.648	14123
895.769	14187
895.891	14153
896.012	14263
896.134	14267
896.255	14298
896.376	14183
896.498	14119
896.619	14164
896.74	14214
896.861	14191
896.982	14549
897.103	14625
897.224	14579
897.345	14438
897.466	14438
897.587	14442
897.708	14549
897.828	14480
897.949	14385
898.07	14465
898.19	14358
898.311	14667
898.431	14427
898.552	14644
898.672	14625
898.792	14705
898.913	14610
899.033	14473
899.153	14362
899.273	14233
899.393	14374
899.513	14427
899.633	14427
899.753	14404
899.873	14317
899.993	14507
900.113	14374
900.232	14400
900.352	14381
900.472	14355
900.591	14237
900.711	14309
900.83	14172
900.95	14370
901.069	14374
901.189	14199
901.308	14062
901.427	13894
901.546	13982
901.665	13928
901.784	13978
901.904	13871
902.023	13731
902.141	13559
902.26	13537
902.379	13582
902.498	13521
902.617	13521
902.735	13609
902.854	13521
902.973	13502
903.091	13274
903.21	13228
903.328	13225
903.446	13103
903.565	13118
903.683	13107
903.801	12970
903.919	13065
904.038	13091
904.156	12928
904.274	12882
904.392	12871
904.51	12973
904.627	12894
904.745	12989
904.863	13027
904.981	12726
905.098	12551
905.216	12570
905.334	12665
905.451	12574
905.569	12662
905.686	12669
905.803	12601
905.921	12330
906.038	12498
906.155	12414
906.272	12334
906.389	12410
906.506	12178
906.623	12125
906.74	12133
906.857	12098
906.974	12224
907.091	12247
907.208	12289
907.324	12224
907.441	12125
907.557	11969
907.674	11969
907.79	11912
907.907	12049
908.023	11923
908.139	11885
908.256	11859
908.372	11824
908.488	11798
908.604	11722
908.72	11638
908.836	11691
908.952	11710
909.068	11634
909.184	11756
909.3	11726
909.415	11809
909.531	11695
909.647	11478
909.762	11467
909.878	11398
909.993	11524
910.108	11509
910.224	11406
910.339	11372
910.454	11376
910.57	11364
910.685	11288
910.8	11505
910.915	11402
911.03	11391
911.145	11124
911.259	11166
911.374	11147
911.489	11109
911.604	11075
911.718	10961
911.833	10976
911.947	10854
912.062	10771
912.176	10915
912.291	10934
912.405	10869
912.519	11010
912.633	11117
912.748	11052
912.862	10866
912.976	10835
913.09	10786
913.204	10812
913.318	10721
913.431	10915
913.545	10908
913.659	10881
913.772	10850
913.886	10656
914	10721
914.113	10729
914.226	10790
914.34	10774
914.453	10618
914.566	10790
914.68	10558
914.793	10588
914.906	10440
915.019	10344
915.132	10405
915.245	10379
915.358	10402
915.47	10508
915.583	10485
915.696	10466
915.809	10554
915.921	10615
916.034	10489
916.146	10382
916.259	10459
916.371	10596
916.483	10470
916.595	10322
916.708	10360
916.82	10310
916.932	10371
917.044	10314
917.156	10310
917.268	10257
917.38	10257
917.491	10287
917.603	10238
917.715	10333
917.826	10440
917.938	10322
918.049	10204
918.161	10230
918.272	10436
918.384	10493
918.495	10325
918.606	10166
918.717	9991
918.828	10162
918.939	10219
919.05	10162
919.161	10196
919.272	9945
919.383	10051
919.494	10242
919.604	10314
919.715	10211
919.826	10188
919.936	10287
920.047	10329
920.157	10261
920.267	10329
920.378	10223
920.488	10162
920.598	10356
920.708	10596
920.818	10386
920.928	10470
921.038	10538
921.148	10489
921.258	10265
921.368	10105
921.477	10029
921.587	10040
921.697	10013
921.806	10044
921.916	9945
922.025	9827
922.134	9770
922.244	9751
922.353	9895
922.462	9667
922.571	9564
922.68	9473
922.789	9450
922.898	9485
923.007	9348
923.116	9504
923.224	9504
923.333	9405
923.442	9435
923.55	9298
923.659	9367
923.767	9454
923.876	9310
923.984	9492
924.092	9268
924.201	9340
924.309	9268
924.417	9355
924.525	9317
924.633	9306
924.741	10082
924.849	9036
924.956	9203
925.064	9074
925.172	9058
925.279	9032
925.387	9176
925.494	9150
925.602	9294
925.709	9211
925.816	9062
925.924	9157
926.031	9184
926.138	9207
926.245	9157
926.352	9116
926.459	9211
926.566	9230
926.673	9070
926.779	9028
926.886	9005
926.993	8883
927.099	8868
927.206	8834
927.312	8788
927.419	8925
927.525	8830
927.631	8845
927.737	8712
927.843	8750
927.95	8678
928.056	8773
928.162	8766
928.267	8815
928.373	9454
928.479	8785
928.585	8617
928.69	8773
928.796	8766
928.901	8636
929.007	8473
929.112	8659
929.218	8594
929.323	8594
929.428	8598
929.533	8697
929.638	8488
929.743	8457
929.848	8610
929.953	8564
930.058	8450
930.163	8332
930.267	8298
930.372	8446
930.477	8294
930.581	8511
930.685	8389
930.79	8267
930.894	8244
930.998	8176
931.103	8339
931.207	8058
931.311	8069
931.415	7936
931.519	7811
931.623	7761
