Data from test_V78500241_1316.txt Node
Date: Fri Mar 25 14:42:52 CST 2022
User: usil
Spectrometer: V785-0024
Trigger mode: 0
Integration Time (sec): 4.000000E-1
Scans to average: 1
Nonlinearity correction enabled: false
Boxcar width: 0
Storing dark spectrum: false
XAxis mode: Wavelengths
Number of Pixels in Spectrum: 1024
>>>>>Begin Spectral Data<<<<<
801.071	22363
801.214	22207
801.356	22032
801.499	21926
801.641	21819
801.783	21759
801.926	21747
802.068	21717
802.211	21549
802.353	21511
802.496	21367
802.638	21241
802.78	21154
802.923	21123
803.065	21055
803.208	21131
803.35	21142
803.492	21104
803.635	21348
803.777	21047
803.919	21169
804.061	21469
804.204	21218
804.346	21142
804.488	21032
804.63	21093
804.773	20929
804.915	21062
805.057	21192
805.199	21127
805.341	21032
805.483	21066
805.626	21024
805.768	20975
805.91	20990
806.052	21055
806.194	21028
806.336	21154
806.478	20979
806.62	21009
806.762	21123
806.904	21157
807.046	21431
807.188	21291
807.33	21378
807.472	21363
807.614	21340
807.756	21340
807.898	21108
808.04	21218
808.182	21123
808.324	21173
808.465	21245
808.607	21428
808.749	21663
808.891	21717
809.033	21709
809.174	21618
809.316	21542
809.458	21454
809.6	21458
809.741	21557
809.883	21557
810.025	21469
810.166	21523
810.308	21526
810.45	21450
810.591	21481
810.733	21275
810.875	21348
811.016	21017
811.158	21093
811.299	21226
811.441	21359
811.582	21344
811.724	21157
811.865	21214
812.007	21089
812.148	21275
812.29	21245
812.431	21321
812.573	21450
812.714	21614
812.855	21660
812.997	21663
813.138	21968
813.279	21804
813.421	21709
813.562	21587
813.703	21348
813.845	21302
813.986	21001
814.127	20872
814.268	20819
814.41	20708
814.551	20781
814.692	20708
814.833	20651
814.974	20864
815.115	20629
815.256	20461
815.397	20560
815.539	20533
815.68	20526
815.821	20457
815.962	20556
816.103	20446
816.244	20294
816.385	20161
816.526	20187
816.666	20218
816.807	19940
816.948	19967
817.089	20020
817.23	19822
817.371	19917
817.512	19947
817.653	19887
817.793	19769
817.934	19849
818.075	19784
818.216	19830
818.356	19765
818.497	19742
818.638	19540
818.778	19597
818.919	19556
819.06	19635
819.2	19715
819.341	19791
819.481	19742
819.622	19772
819.762	20065
819.903	19982
820.043	20001
820.184	19852
820.324	19761
820.465	19887
820.605	19894
820.746	19811
820.886	19708
821.026	19841
821.167	19822
821.307	19890
821.447	19776
821.588	19826
821.728	19582
821.868	19457
822.008	19236
822.149	19312
822.289	19240
822.429	19008
822.569	19031
822.709	18897
822.849	18776
822.99	18738
823.13	18787
823.27	18700
823.41	18612
823.55	18506
823.69	18650
823.83	18612
823.97	18555
824.11	18380
824.25	18296
824.389	18277
824.529	18369
824.669	18201
824.809	18372
824.949	18429
825.089	18330
825.228	18384
825.368	18220
825.508	18114
825.648	18076
825.787	18174
825.927	18197
826.067	18144
826.206	18129
826.346	18011
826.485	18209
826.625	18083
826.765	18178
826.904	18167
827.044	17958
827.183	17942
827.323	17794
827.462	17885
827.601	17885
827.741	17783
827.88	17851
828.02	17710
828.159	17756
828.298	17836
828.437	17874
828.577	17748
828.716	17980
828.855	17695
828.994	17627
829.134	17627
829.273	17653
829.412	17589
829.551	17467
829.69	17528
829.829	17516
829.968	17714
830.107	17562
830.246	17600
830.385	17478
830.524	17345
830.663	17372
830.802	17292
830.941	17109
831.08	17140
831.219	17269
831.357	17242
831.496	17334
831.635	17235
831.774	17098
831.913	17128
832.051	17025
832.19	17041
832.329	17018
832.467	16862
832.606	16915
832.744	16930
832.883	16896
833.022	16824
833.16	16923
833.299	16972
833.437	16858
833.576	16991
833.714	16862
833.852	17037
833.991	16980
834.129	16991
834.267	17025
834.406	16900
834.544	16999
834.682	16889
834.821	16873
834.959	17143
835.097	16892
835.235	17128
835.373	16991
835.511	16869
835.65	16869
835.788	16896
835.926	16790
836.064	16725
836.202	16653
836.34	16923
836.478	17025
836.615	16797
836.753	16881
836.891	16919
837.029	16927
837.167	16877
837.305	16755
837.443	16698
837.58	16782
837.718	16763
837.856	16885
837.993	16668
838.131	16645
838.269	16668
838.406	16660
838.544	16618
838.681	16379
838.819	16436
838.956	16185
839.094	16188
839.231	16303
839.369	16493
839.506	16626
839.643	16592
839.781	16272
839.918	16169
840.055	16257
840.193	16246
840.33	16207
840.467	16173
840.604	16341
840.742	16451
840.879	16253
841.016	16150
841.153	16128
841.29	16303
841.427	16382
841.564	16306
841.701	16268
841.838	16234
841.975	16185
842.112	16215
842.249	16051
842.385	16055
842.522	16295
842.659	16071
842.796	15991
842.933	16116
843.069	15960
843.206	15911
843.343	16116
843.479	16032
843.616	15979
843.752	15873
843.889	15751
844.025	16021
844.162	15812
844.298	15899
844.435	15789
844.571	15701
844.708	15876
844.844	16090
844.98	16002
845.117	15907
845.253	15762
845.389	15808
845.525	15884
845.661	15755
845.798	15793
845.934	15857
846.07	15816
846.206	15998
846.342	15930
846.478	15819
846.614	15507
846.75	15473
846.886	15447
847.022	15500
847.158	15386
847.294	15462
847.429	15428
847.565	15420
847.701	15614
847.837	15180
847.972	15123
848.108	15218
848.244	15188
848.379	15028
848.515	14994
848.65	14918
848.786	14933
848.921	14975
849.057	15104
849.192	15127
849.328	14971
849.463	15001
849.598	14975
849.734	14975
849.869	14963
850.004	14815
850.14	14834
850.275	14842
850.41	14701
850.545	14727
850.68	14727
850.815	14777
850.95	14785
851.085	14910
851.22	14861
851.355	14842
851.49	14796
851.625	14765
851.76	14750
851.895	14739
852.03	14708
852.165	14785
852.299	14792
852.434	14902
852.569	14777
852.703	14887
852.838	14887
852.973	14838
853.107	14933
853.242	14754
853.376	14807
853.511	14590
853.645	14625
853.78	14705
853.914	14651
854.048	14590
854.183	14644
854.317	14743
854.451	14834
854.585	14621
854.72	14598
854.854	14769
854.988	14549
855.122	14629
855.256	14442
855.39	14602
855.524	14705
855.658	14765
855.792	14758
855.926	14765
856.06	14613
856.194	14739
856.327	14746
856.461	14644
856.595	14621
856.729	14689
856.862	14800
856.996	14727
857.13	14773
857.263	14796
857.397	14800
857.53	14678
857.664	14708
857.797	14724
857.931	14807
858.064	14781
858.197	14876
858.331	14693
858.464	14629
858.597	14602
858.731	14815
858.864	14621
858.997	14689
859.13	14724
859.263	14670
859.396	14781
859.529	14610
859.662	14629
859.795	14594
859.928	14731
860.061	14777
860.194	14883
860.327	14663
860.46	14575
860.592	14731
860.725	14796
860.858	14804
860.99	14705
861.123	14560
861.256	14587
861.388	14697
861.521	15344
861.653	14590
861.786	14541
861.918	14473
862.05	14522
862.183	14632
862.315	14670
862.447	14697
862.58	14625
862.712	14393
862.844	14419
862.976	14446
863.108	14492
863.24	14857
863.372	14366
863.504	14454
863.636	14533
863.768	14457
863.9	14427
864.032	14396
864.164	14442
864.296	14526
864.428	14518
864.559	14610
864.691	14530
864.823	14541
864.954	14423
865.086	14431
865.217	14454
865.349	14347
865.48	14396
865.612	14434
865.743	14610
865.875	14412
866.006	14366
866.137	14370
866.269	14400
866.4	14393
866.531	14404
866.662	14370
866.793	14377
866.924	14396
867.055	14473
867.186	14336
867.317	14366
867.448	14290
867.579	14244
867.71	14301
867.841	14412
867.972	14438
868.103	14404
868.233	14339
868.364	14385
868.495	14499
868.625	14632
868.756	14617
868.886	14640
869.017	14598
869.147	14830
869.278	14777
869.408	14602
869.539	14697
869.669	14720
869.799	14651
869.929	14785
870.06	14754
870.19	15013
870.32	14979
870.45	15005
870.58	15028
870.71	15142
870.84	15214
870.97	15066
871.1	15081
871.23	15268
871.36	15226
871.489	15131
871.619	15218
871.749	15188
871.879	15306
872.008	15405
872.138	15222
872.267	15272
872.397	15104
872.526	15093
872.656	15017
872.785	15036
872.915	15260
873.044	15428
873.173	15214
873.303	15294
873.432	15382
873.561	15367
873.69	15401
873.819	15317
873.948	15386
874.077	15317
874.206	15245
874.335	15351
874.464	15393
874.593	15679
874.722	15561
874.851	15660
874.979	15625
875.108	15671
875.237	15584
875.365	15595
875.494	15568
875.623	15690
875.751	15595
875.88	15728
876.008	15793
876.136	15884
876.265	16036
876.393	16097
876.521	16112
876.65	16169
876.778	16063
876.906	16006
877.034	15953
877.162	16029
877.29	15991
877.418	16082
877.546	15994
877.674	16006
877.802	16082
877.93	16139
878.058	15968
878.185	15911
878.313	16040
878.441	16013
878.568	15812
878.696	15998
878.824	16139
878.951	16105
879.079	16211
879.206	16440
879.333	16204
879.461	16219
879.588	16249
879.715	16325
879.842	16413
879.97	16131
880.097	15949
880.224	15808
880.351	15930
880.478	15953
880.605	15865
880.732	15888
880.859	16223
880.986	15987
881.112	15937
881.239	15823
881.366	15675
881.493	15587
881.619	15538
881.746	15595
881.872	15576
881.999	15542
882.125	15515
882.252	15633
882.378	15591
882.505	15774
882.631	15523
882.757	15405
882.883	15416
883.01	15370
883.136	15351
883.262	15226
883.388	15256
883.514	15462
883.64	15344
883.766	15336
883.892	15173
884.018	15256
884.143	15367
884.269	15473
884.395	15138
884.52	15074
884.646	15119
884.772	14982
884.897	15001
885.023	15039
885.148	15089
885.274	15184
885.399	15112
885.524	15188
885.65	14994
885.775	15195
885.9	15051
886.025	15150
886.15	15116
886.275	15039
886.4	14899
886.525	15081
886.65	14975
886.775	15001
886.9	15066
887.025	15260
887.149	15199
887.274	14902
887.399	14823
887.523	14815
887.648	14815
887.773	14724
887.897	14929
888.021	15005
888.146	14899
888.27	14963
888.395	15017
888.519	14872
888.643	14895
888.767	14921
888.891	14815
889.015	14720
889.139	14746
889.263	14697
889.387	14853
889.511	14956
889.635	14849
889.759	14731
889.883	14712
890.006	14727
890.13	14872
890.254	14716
890.377	14686
890.501	14526
890.624	14511
890.748	14583
890.871	14347
890.995	14362
891.118	14450
891.241	14476
891.364	14446
891.488	14499
891.611	14423
891.734	14381
891.857	14541
891.98	14442
892.103	14552
892.226	14533
892.349	14332
892.471	14229
892.594	14400
892.717	14465
892.839	14457
892.962	14385
893.085	14370
893.207	14457
893.33	14320
893.452	14339
893.575	14533
893.697	14408
893.819	14606
893.941	14644
894.064	14530
894.186	14488
894.308	14347
894.43	14568
894.552	14644
894.674	14575
894.796	14362
894.918	14442
895.04	14499
895.161	14499
895.283	14476
895.405	14499
895.526	14461
895.648	14579
895.769	14480
895.891	14587
896.012	14670
896.134	14651
896.255	14720
896.376	14526
896.498	14526
896.619	14598
896.74	14648
896.861	14769
896.982	14819
897.103	15032
897.224	14887
897.345	14872
897.466	14781
897.587	14876
897.708	14895
897.828	14834
897.949	14773
898.07	14781
898.19	14853
898.311	14967
898.431	14830
898.552	14956
898.672	14986
898.792	15032
898.913	15104
899.033	14887
899.153	14807
899.273	14678
899.393	14785
899.513	14769
899.633	14788
899.753	14735
899.873	14800
899.993	14876
900.113	14849
900.232	14788
900.352	14701
900.472	14720
900.591	14610
900.711	14590
900.83	14564
900.95	14765
901.069	14682
901.189	14492
901.308	14408
901.427	14214
901.546	14275
901.665	14294
901.784	14328
901.904	14138
902.023	14096
902.141	13932
902.26	13791
902.379	13906
902.498	13833
902.617	13860
902.735	13807
902.854	13852
902.973	13826
903.091	13506
903.21	13518
903.328	13521
903.446	13571
903.565	13540
903.683	13502
903.801	13415
903.919	13445
904.038	13354
904.156	13266
904.274	13263
904.392	13198
904.51	13354
904.627	13213
904.745	13270
904.863	13324
904.981	13050
905.098	13027
905.216	12947
905.334	12962
905.451	12932
905.569	12840
905.686	13034
905.803	12821
905.921	12757
906.038	12875
906.155	12829
906.272	12593
906.389	12684
906.506	12403
906.623	12509
906.74	12547
906.857	12456
906.974	12426
907.091	12631
907.208	12631
907.324	12582
907.441	12388
907.557	12353
907.674	12216
907.79	12235
907.907	12163
908.023	12258
908.139	12228
908.256	12213
908.372	12110
908.488	12148
908.604	11999
908.72	12064
908.836	12034
908.952	12030
909.068	11996
909.184	12186
909.3	12083
909.415	12038
909.531	11950
909.647	11809
909.762	11809
909.878	11760
909.993	11847
910.108	11745
910.224	11821
910.339	11828
910.454	11710
910.57	11714
910.685	11672
910.8	11836
910.915	11760
911.03	11646
911.145	11501
911.259	11353
911.374	11547
911.489	11368
911.604	11345
911.718	11250
911.833	11280
911.947	11136
912.062	11083
912.176	11246
912.291	11292
912.405	11216
912.519	11486
912.633	11440
912.748	11334
912.862	11288
912.976	11090
913.09	10972
913.204	11109
913.318	11067
913.431	11185
913.545	11239
913.659	11231
913.772	11067
913.886	11022
914	10991
914.113	11060
914.226	11033
914.34	11117
914.453	10873
914.566	11079
914.68	10885
914.793	10953
914.906	10706
915.019	10698
915.132	10679
915.245	10637
915.358	10725
915.47	10801
915.583	10714
915.696	10805
915.809	10805
915.921	10892
916.034	10668
916.146	10698
916.259	10637
916.371	10752
916.483	10717
916.595	10694
916.708	10653
916.82	10645
916.932	10615
917.044	10649
917.156	10573
917.268	10481
917.38	10580
917.491	10504
917.603	10577
917.715	10675
917.826	10660
917.938	10489
918.049	10386
918.161	10577
918.272	10679
918.384	10649
918.495	10531
918.606	10443
918.717	10413
918.828	10489
918.939	10390
919.05	10352
919.161	10382
919.272	10238
919.383	10303
919.494	10500
919.604	10634
919.715	10421
919.826	10360
919.936	10409
920.047	10554
920.157	10466
920.267	10664
920.378	10500
920.488	10417
920.598	10588
920.708	10828
920.818	10733
920.928	10649
921.038	10839
921.148	10660
921.258	10489
921.368	10440
921.477	10276
921.587	10299
921.697	10158
921.806	10299
921.916	10150
922.025	10036
922.134	10029
922.244	9880
922.353	10071
922.462	9903
922.571	9880
922.68	9736
922.789	9686
922.898	9717
923.007	9720
923.116	9854
923.224	9720
923.333	9675
923.442	9660
923.55	9557
923.659	9660
923.767	9629
923.876	9568
923.984	9701
924.092	9462
924.201	9591
924.309	9542
924.417	9587
924.525	9492
924.633	9576
924.741	10382
924.849	9367
924.956	9526
925.064	9374
925.172	9264
925.279	9313
925.387	9336
925.494	9382
925.602	9412
925.709	9420
925.816	9313
925.924	9370
926.031	9477
926.138	9367
926.245	9401
926.352	9218
926.459	9336
926.566	9454
926.673	9321
926.779	9241
926.886	9192
926.993	9085
927.099	9097
927.206	9020
927.312	8986
927.419	9089
927.525	9013
927.631	9093
927.737	8998
927.843	8883
927.95	8849
928.056	8876
928.162	8887
928.267	9001
928.373	9595
928.479	9024
928.585	8864
928.69	8853
928.796	8971
928.901	8880
929.007	8769
929.112	8811
929.218	8823
929.323	8777
929.428	8788
929.533	8899
929.638	8743
929.743	8750
929.848	8804
929.953	8739
930.058	8640
930.163	8537
930.267	8560
930.372	8602
930.477	8473
930.581	8716
930.685	8541
930.79	8457
930.894	8526
930.998	8511
931.103	8594
931.207	8275
931.311	8275
931.415	8088
931.519	8039
931.623	8046
