Data from test_V78500241_1411.txt Node
Date: Fri Mar 25 14:43:32 CST 2022
User: usil
Spectrometer: V785-0024
Trigger mode: 0
Integration Time (sec): 4.000000E-1
Scans to average: 1
Nonlinearity correction enabled: false
Boxcar width: 0
Storing dark spectrum: false
XAxis mode: Wavelengths
Number of Pixels in Spectrum: 1024
>>>>>Begin Spectral Data<<<<<
801.071	22565
801.214	22291
801.356	21983
801.499	21937
801.641	21812
801.783	21713
801.926	21686
802.068	21675
802.211	21610
802.353	21663
802.496	21332
802.638	21192
802.78	21207
802.923	21241
803.065	20918
803.208	20990
803.35	21135
803.492	21233
803.635	21233
803.777	21119
803.919	21272
804.061	21507
804.204	21264
804.346	21062
804.488	20944
804.63	21058
804.773	21001
804.915	21074
805.057	21211
805.199	21028
805.341	21142
805.483	21089
805.626	21062
805.768	21104
805.91	21135
806.052	20956
806.194	21024
806.336	21192
806.478	21131
806.62	21207
806.762	21085
806.904	21294
807.046	21386
807.188	21359
807.33	21477
807.472	21496
807.614	21412
807.756	21382
807.898	21306
808.04	21173
808.182	21252
808.324	21279
808.465	21245
808.607	21526
808.749	21797
808.891	21808
809.033	21994
809.174	21755
809.316	21545
809.458	21690
809.6	21633
809.741	21576
809.883	21542
810.025	21819
810.166	21625
810.308	21686
810.45	21591
810.591	21515
810.733	21435
810.875	21279
811.016	21146
811.158	21176
811.299	21233
811.441	21310
811.582	21355
811.724	21332
811.865	21233
812.007	21199
812.148	21230
812.29	21222
812.431	21424
812.573	21534
812.714	21682
812.855	21850
812.997	21827
813.138	21857
813.279	21755
813.421	21804
813.562	21709
813.703	21393
813.845	21386
813.986	21195
814.127	21032
814.268	20925
814.41	20781
814.551	20735
814.692	20800
814.833	20693
814.974	20731
815.115	20708
815.256	20640
815.397	20720
815.539	20682
815.68	20511
815.821	20457
815.962	20469
816.103	20571
816.244	20419
816.385	20298
816.526	20320
816.666	19974
816.807	19974
816.948	19963
817.089	19993
817.23	20027
817.371	19917
817.512	19913
817.653	19883
817.793	19890
817.934	19906
818.075	19871
818.216	19932
818.356	19909
818.497	19696
818.638	19540
818.778	19567
818.919	19651
819.06	19628
819.2	19799
819.341	19841
819.481	19776
819.622	19875
819.762	20084
819.903	20058
820.043	20035
820.184	19936
820.324	20024
820.465	19993
820.605	19970
820.746	19864
820.886	19795
821.026	19830
821.167	19845
821.307	19978
821.447	19871
821.588	19833
821.728	19753
821.868	19480
822.008	19369
822.149	19419
822.289	19259
822.429	19023
822.569	18970
822.709	18962
822.849	18833
822.99	18848
823.13	18798
823.27	18852
823.41	18623
823.55	18532
823.69	18696
823.83	18593
823.97	18532
824.11	18342
824.25	18391
824.389	18334
824.529	18441
824.669	18399
824.809	18525
824.949	18475
825.089	18464
825.228	18437
825.368	18186
825.508	18186
825.648	18209
825.787	18201
825.927	18167
826.067	18125
826.206	18125
826.346	18197
826.485	18213
826.625	18224
826.765	18262
826.904	18262
827.044	17942
827.183	17901
827.323	17893
827.462	17920
827.601	17786
827.741	17794
827.88	17752
828.02	17745
828.159	17980
828.298	17893
828.437	17908
828.577	17878
828.716	17999
828.855	17859
828.994	17714
829.134	17630
829.273	17589
829.412	17505
829.551	17585
829.69	17452
829.829	17623
829.968	17642
830.107	17741
830.246	17634
830.385	17627
830.524	17490
830.663	17425
830.802	17284
830.941	17212
831.08	17208
831.219	17345
831.357	17261
831.496	17425
831.635	17227
831.774	17189
831.913	17029
832.051	16946
832.19	16946
832.329	16984
832.467	16889
832.606	16763
832.744	16869
832.883	16946
833.022	16976
833.16	16934
833.299	16942
833.437	16915
833.576	16995
833.714	16968
833.852	16987
833.991	17166
834.129	17079
834.267	17041
834.406	16965
834.544	17090
834.682	16987
834.821	16934
834.959	17155
835.097	16961
835.235	17166
835.373	16987
835.511	16942
835.65	16873
835.788	16911
835.926	16683
836.064	16603
836.202	16596
836.34	16889
836.478	17006
836.615	16771
836.753	16866
836.891	16991
837.029	16816
837.167	16702
837.305	16866
837.443	16710
837.58	16592
837.718	16923
837.856	16805
837.993	16649
838.131	16683
838.269	16679
838.406	16634
838.544	16508
838.681	16428
838.819	16428
838.956	16306
839.094	16219
839.231	16234
839.369	16497
839.506	16679
839.643	16405
839.781	16272
839.918	16249
840.055	16333
840.193	16173
840.33	16200
840.467	16207
840.604	16276
840.742	16588
840.879	16078
841.016	16204
841.153	16173
841.29	16360
841.427	16234
841.564	16249
841.701	16257
841.838	16291
841.975	16169
842.112	16105
842.249	16101
842.385	16128
842.522	16299
842.659	16112
842.796	15964
842.933	16112
843.069	16071
843.206	16044
843.343	16105
843.479	16051
843.616	16112
843.752	15854
843.889	15854
844.025	16055
844.162	15880
844.298	15930
844.435	15827
844.571	15793
844.708	15892
844.844	16071
844.98	16067
845.117	16017
845.253	15899
845.389	15739
845.525	15895
845.661	15838
845.798	15876
845.934	15994
846.07	16010
846.206	15922
846.342	16025
846.478	15755
846.614	15580
846.75	15466
846.886	15431
847.022	15557
847.158	15378
847.294	15351
847.429	15481
847.565	15386
847.701	15557
847.837	15165
847.972	15093
848.108	15207
848.244	15138
848.379	15131
848.515	15020
848.65	14998
848.786	15028
848.921	15062
849.057	15188
849.192	15165
849.328	15062
849.463	15051
849.598	14967
849.734	14925
849.869	14906
850.004	14887
850.14	14765
850.275	14811
850.41	14648
850.545	14731
850.68	14743
850.815	14842
850.95	14720
851.085	14963
851.22	14815
851.355	14785
851.49	14781
851.625	14632
851.76	14758
851.895	14724
852.03	14636
852.165	14754
852.299	14739
852.434	14796
852.569	14815
852.703	14788
852.838	14941
852.973	14952
853.107	15005
853.242	14697
853.376	14731
853.511	14476
853.645	14594
853.78	14693
853.914	14598
854.048	14682
854.183	14655
854.317	14655
854.451	14826
854.585	14590
854.72	14579
854.854	14667
854.988	14632
855.122	14629
855.256	14568
855.39	14583
855.524	14705
855.658	14693
855.792	14636
855.926	14674
856.06	14648
856.194	14785
856.327	14682
856.461	14617
856.595	14640
856.729	14670
856.862	14735
856.996	14689
857.13	14716
857.263	14788
857.397	14857
857.53	14651
857.664	14621
857.797	14785
857.931	14754
858.064	14655
858.197	14750
858.331	14556
858.464	14537
858.597	14537
858.731	14575
858.864	14549
858.997	14606
859.13	14636
859.263	14651
859.396	14693
859.529	14617
859.662	14632
859.795	14568
859.928	14644
860.061	14762
860.194	14845
860.327	14670
860.46	14602
860.592	14785
860.725	14826
860.858	14743
860.99	14537
861.123	14476
861.256	14560
861.388	14568
861.521	15386
861.653	14568
861.786	14419
861.918	14492
862.05	14469
862.183	14545
862.315	14571
862.447	14617
862.58	14590
862.712	14385
862.844	14377
862.976	14427
863.108	14503
863.24	14857
863.372	14339
863.504	14385
863.636	14381
863.768	14427
863.9	14324
864.032	14377
864.164	14290
864.296	14427
864.428	14545
864.559	14522
864.691	14476
864.823	14457
864.954	14492
865.086	14404
865.217	14457
865.349	14256
865.48	14351
865.612	14442
865.743	14454
865.875	14419
866.006	14324
866.137	14415
866.269	14351
866.4	14324
866.531	14282
866.662	14271
866.793	14248
866.924	14412
867.055	14267
867.186	14400
867.317	14358
867.448	14218
867.579	14332
867.71	14252
867.841	14229
867.972	14400
868.103	14313
868.233	14412
868.364	14423
868.495	14530
868.625	14556
868.756	14705
868.886	14499
869.017	14564
869.147	14655
869.278	14655
869.408	14636
869.539	14590
869.669	14674
869.799	14640
869.929	14724
870.06	14678
870.19	14914
870.32	14937
870.45	15074
870.58	15005
870.71	15142
870.84	15237
870.97	15020
871.1	15047
871.23	15169
871.36	15260
871.489	15081
871.619	15275
871.749	15180
871.879	15264
872.008	15283
872.138	15256
872.267	15192
872.397	15104
872.526	15013
872.656	14982
872.785	15116
872.915	15233
873.044	15317
873.173	15340
873.303	15218
873.432	15249
873.561	15306
873.69	15302
873.819	15340
873.948	15344
874.077	15214
874.206	15260
874.335	15321
874.464	15458
874.593	15473
874.722	15561
874.851	15629
874.979	15641
875.108	15667
875.237	15462
875.365	15526
875.494	15504
875.623	15724
875.751	15473
875.88	15610
876.008	15743
876.136	15759
876.265	16021
876.393	16120
876.521	16169
876.65	16154
876.778	15960
876.906	16006
877.034	15876
877.162	15998
877.29	15953
877.418	16002
877.546	16002
877.674	15968
877.802	15968
877.93	15991
878.058	15880
878.185	15888
878.313	15968
878.441	16032
878.568	15895
878.696	15941
878.824	16128
878.951	16207
879.079	16192
879.206	16398
879.333	16432
879.461	16169
879.588	16204
879.715	16272
879.842	16417
879.97	16128
880.097	16029
880.224	15835
880.351	16006
880.478	16029
880.605	15873
880.732	15831
880.859	16059
880.986	15937
881.112	15869
881.239	15918
881.366	15682
881.493	15587
881.619	15473
881.746	15675
881.872	15477
881.999	15542
882.125	15576
882.252	15610
882.378	15526
882.505	15682
882.631	15469
882.757	15340
882.883	15428
883.01	15408
883.136	15306
883.262	15116
883.388	15119
883.514	15367
883.64	15370
883.766	15256
883.892	15169
884.018	15237
884.143	15230
884.269	15439
884.395	15199
884.52	15154
884.646	15116
884.772	15051
884.897	14872
885.023	15085
885.148	15169
885.274	15241
885.399	15188
885.524	15074
885.65	15051
885.775	15097
885.9	15001
886.025	15127
886.15	15154
886.275	15017
886.4	14944
886.525	15081
886.65	14948
886.775	14910
886.9	15173
887.025	15268
887.149	15070
887.274	14979
887.399	14845
887.523	14815
887.648	14735
887.773	14762
887.897	14944
888.021	14876
888.146	14815
888.27	14902
888.395	14956
888.519	14826
888.643	14883
888.767	14941
888.891	14746
889.015	14693
889.139	14697
889.263	14674
889.387	14823
889.511	14876
889.635	14815
889.759	14686
889.883	14750
890.006	14746
890.13	14792
890.254	14625
890.377	14689
890.501	14518
890.624	14454
890.748	14606
890.871	14446
890.995	14396
891.118	14267
891.241	14324
891.364	14385
891.488	14488
891.611	14370
891.734	14377
891.857	14423
891.98	14476
892.103	14476
892.226	14381
892.349	14419
892.471	14233
892.594	14366
892.717	14476
892.839	14324
892.962	14366
893.085	14461
893.207	14351
893.33	14305
893.452	14419
893.575	14408
893.697	14336
893.819	14560
893.941	14533
894.064	14526
894.186	14370
894.308	14229
894.43	14495
894.552	14568
894.674	14552
894.796	14408
894.918	14358
895.04	14473
895.161	14568
895.283	14533
895.405	14419
895.526	14427
895.648	14400
895.769	14465
895.891	14590
896.012	14594
896.134	14564
896.255	14476
896.376	14514
896.498	14526
896.619	14564
896.74	14625
896.861	14606
896.982	14914
897.103	14960
897.224	14864
897.345	14750
897.466	14697
897.587	14842
897.708	14941
897.828	14819
897.949	14785
898.07	14651
898.19	14788
898.311	14982
898.431	14899
898.552	14811
898.672	14960
898.792	14990
898.913	15020
899.033	14811
899.153	14705
899.273	14689
899.393	14708
899.513	14811
899.633	14727
899.753	14731
899.873	14762
899.993	14686
900.113	14727
900.232	14716
900.352	14659
900.472	14636
900.591	14579
900.711	14556
900.83	14549
900.95	14659
901.069	14674
901.189	14590
901.308	14339
901.427	14202
901.546	14282
901.665	14294
901.784	14278
901.904	14145
902.023	14046
902.141	13963
902.26	13909
902.379	13978
902.498	13849
902.617	13772
902.735	14001
902.854	13841
902.973	13712
903.091	13575
903.21	13594
903.328	13613
903.446	13480
903.565	13381
903.683	13476
903.801	13403
903.919	13377
904.038	13426
904.156	13190
904.274	13346
904.392	13251
904.51	13206
904.627	13236
904.745	13274
904.863	13297
904.981	13080
905.098	12859
905.216	12897
905.334	12863
905.451	12909
905.569	12939
905.686	12882
905.803	12954
905.921	12821
906.038	12833
906.155	12719
906.272	12669
906.389	12631
906.506	12559
906.623	12452
906.74	12502
906.857	12311
906.974	12403
907.091	12578
907.208	12578
907.324	12544
907.441	12464
907.557	12224
907.674	12213
907.79	12167
907.907	12125
908.023	12300
908.139	12194
908.256	12171
908.372	12167
908.488	12102
908.604	12011
908.72	11969
908.836	12030
908.952	11920
909.068	12034
909.184	12136
909.3	11935
909.415	12053
909.531	11965
909.647	11798
909.762	11741
909.878	11726
909.993	11821
910.108	11741
910.224	11634
910.339	11733
910.454	11722
910.57	11611
910.685	11554
910.8	11813
910.915	11756
911.03	11653
911.145	11528
911.259	11509
911.374	11455
911.489	11448
911.604	11296
911.718	11315
911.833	11265
911.947	11098
912.062	11037
912.176	11280
912.291	11181
912.405	11124
912.519	11391
912.633	11383
912.748	11337
912.862	11246
912.976	11079
913.09	11006
913.204	11113
913.318	11071
913.431	11166
913.545	11147
913.659	11136
913.772	11037
913.886	10934
914	10908
914.113	11022
914.226	11109
914.34	11083
914.453	10877
914.566	11037
914.68	10949
914.793	10934
914.906	10778
915.019	10683
915.132	10634
915.245	10596
915.358	10740
915.47	10653
915.583	10752
915.696	10816
915.809	10771
915.921	10740
916.034	10736
916.146	10698
916.259	10584
916.371	10744
916.483	10774
916.595	10630
916.708	10664
916.82	10615
916.932	10702
917.044	10607
917.156	10660
917.268	10440
917.38	10573
917.491	10516
917.603	10588
917.715	10645
917.826	10538
917.938	10531
918.049	10466
918.161	10508
918.272	10653
918.384	10736
918.495	10577
918.606	10466
918.717	10314
918.828	10432
918.939	10443
919.05	10303
919.161	10409
919.272	10135
919.383	10230
919.494	10436
919.604	10611
919.715	10390
919.826	10295
919.936	10356
920.047	10466
920.157	10497
920.267	10573
920.378	10394
920.488	10405
920.598	10603
920.708	10752
920.818	10641
920.928	10603
921.038	10752
921.148	10660
921.258	10402
921.368	10310
921.477	10299
921.587	10284
921.697	10120
921.806	10246
921.916	10188
922.025	9987
922.134	9975
922.244	9991
922.353	10036
922.462	9854
922.571	9755
922.68	9713
922.789	9717
922.898	9667
923.007	9686
923.116	9713
923.224	9610
923.333	9648
923.442	9523
923.55	9542
923.659	9507
923.767	9584
923.876	9542
923.984	9606
924.092	9428
924.201	9443
924.309	9576
924.417	9523
924.525	9458
924.633	9458
924.741	10489
924.849	9344
924.956	9447
925.064	9348
925.172	9241
925.279	9275
925.387	9374
925.494	9325
925.602	9408
925.709	9405
925.816	9253
925.924	9287
926.031	9405
926.138	9298
926.245	9401
926.352	9157
926.459	9408
926.566	9424
926.673	9222
926.779	9157
926.886	9173
926.993	9043
927.099	8982
927.206	8941
927.312	8956
927.419	9047
927.525	8998
927.631	9074
927.737	8929
927.843	8921
927.95	8777
928.056	8872
928.162	8941
928.267	8937
928.373	9485
928.479	9017
928.585	8727
928.69	8910
928.796	8929
928.901	8739
929.007	8682
929.112	8960
929.218	8773
929.323	8746
929.428	8705
929.533	8918
929.638	8693
929.743	8716
929.848	8746
929.953	8735
930.058	8621
930.163	8465
930.267	8511
930.372	8617
930.477	8537
930.581	8720
930.685	8545
930.79	8438
930.894	8408
930.998	8366
931.103	8564
931.207	8210
931.311	8149
931.415	8092
931.519	7955
931.623	7978
