Data from test_V78500241_2194.txt Node
Date: Fri Mar 25 14:48:59 CST 2022
User: usil
Spectrometer: V785-0024
Trigger mode: 0
Integration Time (sec): 4.000000E-1
Scans to average: 1
Nonlinearity correction enabled: false
Boxcar width: 0
Storing dark spectrum: false
XAxis mode: Wavelengths
Number of Pixels in Spectrum: 1024
>>>>>Begin Spectral Data<<<<<
801.071	22230
801.214	22010
801.356	21751
801.499	21732
801.641	21549
801.783	21641
801.926	21625
802.068	21500
802.211	21530
802.353	21386
802.496	21043
802.638	21089
802.78	20925
802.923	20994
803.065	20933
803.208	20899
803.35	20918
803.492	20956
803.635	21043
803.777	20842
803.919	20967
804.061	21188
804.204	20956
804.346	20853
804.488	20762
804.63	20880
804.773	20758
804.915	20800
805.057	20849
805.199	20804
805.341	20872
805.483	20944
805.626	20891
805.768	20807
805.91	20804
806.052	20853
806.194	20811
806.336	21001
806.478	20648
806.62	20724
806.762	20830
806.904	20925
807.046	21131
807.188	21127
807.33	21146
807.472	21138
807.614	21005
807.756	21009
807.898	20956
808.04	20861
808.182	20804
808.324	20914
808.465	20902
808.607	21074
808.749	21207
808.891	21279
809.033	21252
809.174	21313
809.316	21161
809.458	21188
809.6	21108
809.741	21249
809.883	21241
810.025	21241
810.166	21340
810.308	21344
810.45	21363
810.591	21192
810.733	21074
810.875	20948
811.016	20971
811.158	20762
811.299	20948
811.441	21089
811.582	21077
811.724	20906
811.865	20838
812.007	20849
812.148	20941
812.29	20902
812.431	21119
812.573	21252
812.714	21431
812.855	21443
812.997	21355
813.138	21610
813.279	21542
813.421	21439
813.562	21317
813.703	21249
813.845	21047
813.986	20804
814.127	20651
814.268	20556
814.41	20518
814.551	20431
814.692	20609
814.833	20457
814.974	20362
815.115	20571
815.256	20328
815.397	20404
815.539	20370
815.68	20244
815.821	20237
815.962	20149
816.103	20096
816.244	20005
816.385	20027
816.526	19906
816.666	19780
816.807	19700
816.948	19860
817.089	19708
817.23	19753
817.371	19620
817.512	19590
817.653	19521
817.793	19571
817.934	19487
818.075	19666
818.216	19609
818.356	19594
818.497	19472
818.638	19179
818.778	19183
818.919	19365
819.06	19343
819.2	19403
819.341	19468
819.481	19468
819.622	19582
819.762	19655
819.903	19609
820.043	19613
820.184	19769
820.324	19616
820.465	19613
820.605	19601
820.746	19635
820.886	19441
821.026	19537
821.167	19689
821.307	19643
821.447	19548
821.588	19438
821.728	19304
821.868	19213
822.008	19042
822.149	18932
822.289	18924
822.429	18734
822.569	18696
822.709	18734
822.849	18555
822.99	18551
823.13	18471
823.27	18410
823.41	18285
823.55	18292
823.69	18277
823.83	18338
823.97	18289
824.11	18045
824.25	18064
824.389	18174
824.529	18129
824.669	17992
824.809	18235
824.949	18182
825.089	18110
825.228	18205
825.368	17904
825.508	17779
825.648	17923
825.787	17824
825.927	17901
826.067	17794
826.206	17775
826.346	17916
826.485	17942
826.625	17779
826.765	17908
826.904	17851
827.044	17691
827.183	17604
827.323	17512
827.462	17623
827.601	17497
827.741	17570
827.88	17672
828.02	17455
828.159	17566
828.298	17748
828.437	17630
828.577	17562
828.716	17676
828.855	17573
828.994	17360
829.134	17280
829.273	17235
829.412	17292
829.551	17216
829.69	17303
829.829	17349
829.968	17261
830.107	17406
830.246	17376
830.385	17204
830.524	17242
830.663	17109
830.802	17037
830.941	16904
831.08	16930
831.219	16961
831.357	16930
831.496	17033
831.635	16976
831.774	16942
831.913	16805
832.051	16713
832.19	16740
832.329	16767
832.467	16672
832.606	16554
832.744	16611
832.883	16717
833.022	16577
833.16	16637
833.299	16588
833.437	16599
833.576	16611
833.714	16683
833.852	16683
833.991	16721
834.129	16740
834.267	16630
834.406	16713
834.544	16736
834.682	16630
834.821	16733
834.959	16782
835.097	16660
835.235	16721
835.373	16740
835.511	16824
835.65	16535
835.788	16531
835.926	16451
836.064	16185
836.202	16402
836.34	16569
836.478	16668
836.615	16398
836.753	16588
836.891	16649
837.029	16607
837.167	16478
837.305	16504
837.443	16481
837.58	16440
837.718	16516
837.856	16462
837.993	16386
838.131	16584
838.269	16291
838.406	16348
838.544	16348
838.681	16181
838.819	16063
838.956	15884
839.094	16067
839.231	15987
839.369	16207
839.506	16512
839.643	16207
839.781	16082
839.918	16002
840.055	15991
840.193	16010
840.33	15899
840.467	15884
840.604	15975
840.742	16204
840.879	15793
841.016	15888
841.153	15850
841.29	16116
841.427	15979
841.564	15991
841.701	15987
841.838	16002
841.975	15850
842.112	15892
842.249	15747
842.385	15663
842.522	15880
842.659	15701
842.796	15774
842.933	15800
843.069	15682
843.206	15759
843.343	15869
843.479	15755
843.616	15751
843.752	15538
843.889	15530
844.025	15724
844.162	15526
844.298	15743
844.435	15500
844.571	15435
844.708	15504
844.844	15789
844.98	15755
845.117	15671
845.253	15466
845.389	15488
845.525	15534
845.661	15473
845.798	15321
845.934	15359
846.07	15275
846.206	15393
846.342	15477
846.478	15374
846.614	15074
846.75	15085
846.886	15154
847.022	15165
847.158	15085
847.294	15199
847.429	15127
847.565	15142
847.701	15294
847.837	14918
847.972	14724
848.108	14864
848.244	14880
848.379	14701
848.515	14762
848.65	14731
848.786	14705
848.921	14708
849.057	14796
849.192	14842
849.328	14765
849.463	14693
849.598	14667
849.734	14598
849.869	14610
850.004	14522
850.14	14446
850.275	14450
850.41	14415
850.545	14347
850.68	14434
850.815	14503
850.95	14450
851.085	14655
851.22	14564
851.355	14488
851.49	14431
851.625	14446
851.76	14476
851.895	14465
852.03	14355
852.165	14454
852.299	14431
852.434	14522
852.569	14568
852.703	14461
852.838	14560
852.973	14610
853.107	14617
853.242	14461
853.376	14309
853.511	14256
853.645	14286
853.78	14396
853.914	14366
854.048	14374
854.183	14263
854.317	14415
854.451	14457
854.585	14423
854.72	14286
854.854	14537
854.988	14233
855.122	14332
855.256	14157
855.39	14309
855.524	14480
855.658	14404
855.792	14393
855.926	14377
856.06	14446
856.194	14381
856.327	14328
856.461	14305
856.595	14461
856.729	14267
856.862	14381
856.996	14339
857.13	14370
857.263	14473
857.397	14503
857.53	14355
857.664	14408
857.797	14431
857.931	14461
858.064	14396
858.197	14560
858.331	14343
858.464	14294
858.597	14252
858.731	14225
858.864	14377
858.997	14442
859.13	14377
859.263	14267
859.396	14370
859.529	14309
859.662	14244
859.795	14305
859.928	14313
860.061	14484
860.194	14533
860.327	14332
860.46	14324
860.592	14476
860.725	14480
860.858	14503
860.99	14286
861.123	14237
861.256	14385
861.388	14374
861.521	14861
861.653	14195
861.786	14157
861.918	14195
862.05	14309
862.183	14313
862.315	14313
862.447	14339
862.58	14324
862.712	14157
862.844	13989
862.976	14111
863.108	14275
863.24	14442
863.372	14126
863.504	14145
863.636	14149
863.768	14240
863.9	13978
864.032	14016
864.164	14145
864.296	14237
864.428	14244
864.559	14294
864.691	14267
864.823	14256
864.954	14195
865.086	14202
865.217	14172
865.349	14046
865.48	14115
865.612	14065
865.743	14191
865.875	14126
866.006	14103
866.137	14081
866.269	14096
866.4	13989
866.531	14153
866.662	14069
866.793	14027
866.924	14111
867.055	14134
867.186	14161
867.317	13947
867.448	14062
867.579	14062
867.71	14096
867.841	14088
867.972	14035
868.103	14031
868.233	14100
868.364	14149
868.495	14115
868.625	14366
868.756	14450
868.886	14271
869.017	14370
869.147	14438
869.278	14469
869.408	14267
869.539	14358
869.669	14438
869.799	14415
869.929	14511
870.06	14450
870.19	14701
870.32	14712
870.45	14743
870.58	14750
870.71	14792
870.84	14864
870.97	14781
871.1	14712
871.23	14933
871.36	14925
871.489	14918
871.619	14807
871.749	14956
871.879	14982
872.008	15169
872.138	14982
872.267	14933
872.397	14765
872.526	14834
872.656	14804
872.785	14754
872.915	14944
873.044	15176
873.173	14956
873.303	15074
873.432	14956
873.561	14998
873.69	15043
873.819	15039
873.948	15074
874.077	15066
874.206	15001
874.335	14994
874.464	15146
874.593	15138
874.722	15211
874.851	15310
874.979	15355
875.108	15408
875.237	15233
875.365	15199
875.494	15268
875.623	15325
875.751	15256
875.88	15298
876.008	15443
876.136	15507
876.265	15736
876.393	15934
876.521	15857
876.65	15766
876.778	15774
876.906	15743
877.034	15682
877.162	15724
877.29	15637
877.418	15728
877.546	15663
877.674	15679
877.802	15797
877.93	15743
878.058	15766
878.185	15523
878.313	15622
878.441	15709
878.568	15515
878.696	15652
878.824	15660
878.951	15800
879.079	15816
879.206	15994
879.333	15808
879.461	15770
879.588	15812
879.715	16006
879.842	15983
879.97	15831
880.097	15591
880.224	15507
880.351	15561
880.478	15553
880.605	15519
880.732	15534
880.859	15793
880.986	15618
881.112	15591
881.239	15435
881.366	15370
881.493	15336
881.619	15173
881.746	15214
881.872	15222
881.999	15142
882.125	15104
882.252	15313
882.378	15283
882.505	15408
882.631	15184
882.757	15176
882.883	15188
883.01	15032
883.136	14979
883.262	14998
883.388	14853
883.514	15043
883.64	15070
883.766	14994
883.892	14857
884.018	14921
884.143	15005
884.269	15142
884.395	14765
884.52	14758
884.646	14739
884.772	14617
884.897	14621
885.023	14621
885.148	14864
885.274	14876
885.399	14819
885.524	14705
885.65	14735
885.775	14727
885.9	14792
886.025	14754
886.15	14743
886.275	14735
886.4	14651
886.525	14648
886.65	14587
886.775	14602
886.9	14857
887.025	14990
887.149	14693
887.274	14545
887.399	14549
887.523	14454
887.648	14454
887.773	14469
887.897	14648
888.021	14590
888.146	14545
888.27	14667
888.395	14594
888.519	14625
888.643	14625
888.767	14678
888.891	14495
889.015	14412
889.139	14484
889.263	14446
889.387	14381
889.511	14579
889.635	14556
889.759	14507
889.883	14476
890.006	14393
890.13	14564
890.254	14358
890.377	14317
890.501	14259
890.624	14157
890.748	14339
890.871	14244
890.995	14119
891.118	13951
891.241	14180
891.364	14183
891.488	14336
891.611	14149
891.734	14062
891.857	14282
891.98	14107
892.103	14229
892.226	14149
892.349	14119
892.471	14115
892.594	14153
892.717	14180
892.839	14153
892.962	14062
893.085	14248
893.207	14100
893.33	13989
893.452	14008
893.575	14168
893.697	14180
893.819	14332
893.941	14389
894.064	14320
894.186	14054
894.308	14088
894.43	14119
894.552	14320
894.674	14313
894.796	14024
894.918	14252
895.04	14138
895.161	14374
895.283	14275
895.405	14134
895.526	14240
895.648	14202
895.769	14328
895.891	14320
896.012	14301
896.134	14317
896.255	14377
896.376	14298
896.498	14278
896.619	14305
896.74	14271
896.861	14358
896.982	14610
897.103	14921
897.224	14682
897.345	14571
897.466	14450
897.587	14495
897.708	14651
897.828	14606
897.949	14469
898.07	14454
898.19	14659
898.311	14655
898.431	14488
898.552	14674
898.672	14739
898.792	14754
898.913	14655
899.033	14629
899.153	14476
899.273	14404
899.393	14438
899.513	14442
899.633	14495
899.753	14571
899.873	14484
899.993	14495
900.113	14442
900.232	14568
900.352	14564
900.472	14492
900.591	14301
900.711	14385
900.83	14324
900.95	14533
901.069	14575
901.189	14408
901.308	14077
901.427	14016
901.546	13978
901.665	14065
901.784	14115
901.904	13993
902.023	13883
902.141	13769
902.26	13666
902.379	13708
902.498	13677
902.617	13571
902.735	13620
902.854	13582
902.973	13559
903.091	13327
903.21	13331
903.328	13354
903.446	13259
903.565	13206
903.683	13221
903.801	13141
903.919	13274
904.038	13126
904.156	13008
904.274	13099
904.392	12989
904.51	12939
904.627	13000
904.745	13038
904.863	13023
904.981	12871
905.098	12719
905.216	12639
905.334	12753
905.451	12692
905.569	12840
905.686	12779
905.803	12688
905.921	12483
906.038	12635
906.155	12494
906.272	12433
906.389	12422
906.506	12353
906.623	12353
906.74	12197
906.857	12129
906.974	12175
907.091	12471
907.208	12342
907.324	12254
907.441	12121
907.557	11958
907.674	12083
907.79	11954
907.907	11969
908.023	12102
908.139	12057
908.256	11958
908.372	11836
908.488	11935
908.604	11885
908.72	11729
908.836	11802
908.952	11707
909.068	11786
909.184	11889
909.3	11821
909.415	11790
909.531	11676
909.647	11581
909.762	11589
909.878	11543
909.993	11535
910.108	11455
910.224	11509
910.339	11520
910.454	11509
910.57	11535
910.685	11372
910.8	11596
910.915	11512
911.03	11478
911.145	11315
911.259	11242
911.374	11368
911.489	11181
911.604	11121
911.718	10999
911.833	11151
911.947	10782
912.062	10850
912.176	10980
912.291	11018
912.405	11052
912.519	11239
912.633	11242
912.748	11033
912.862	11064
912.976	10896
913.09	10778
913.204	10820
913.318	10889
913.431	10934
913.545	10972
913.659	10965
913.772	10869
913.886	10843
914	10733
914.113	10824
914.226	10908
914.34	10812
914.453	10744
914.566	10908
914.68	10683
914.793	10710
914.906	10626
915.019	10466
915.132	10436
915.245	10459
915.358	10592
915.47	10569
915.583	10516
915.696	10584
915.809	10691
915.921	10706
916.034	10523
916.146	10462
916.259	10459
916.371	10645
916.483	10538
916.595	10421
916.708	10451
916.82	10500
916.932	10402
917.044	10440
917.156	10500
917.268	10390
917.38	10299
917.491	10363
917.603	10390
917.715	10447
917.826	10428
917.938	10314
918.049	10268
918.161	10379
918.272	10542
918.384	10523
918.495	10337
918.606	10295
918.717	10131
918.828	10284
918.939	10257
919.05	10188
919.161	10242
919.272	10036
919.383	10093
919.494	10230
919.604	10402
919.715	10192
919.826	10139
919.936	10204
920.047	10322
920.157	10192
920.267	10481
920.378	10352
920.488	10192
920.598	10508
920.708	10626
920.818	10436
920.928	10470
921.038	10596
921.148	10615
921.258	10337
921.368	10280
921.477	10082
921.587	10090
921.697	9991
921.806	10116
921.916	9964
922.025	9804
922.134	9797
922.244	9793
922.353	9804
922.462	9709
922.571	9690
922.68	9469
922.789	9488
922.898	9473
923.007	9439
923.116	9462
923.224	9454
923.333	9492
923.442	9378
923.55	9416
923.659	9454
923.767	9412
923.876	9340
923.984	9363
924.092	9291
924.201	9332
924.309	9287
924.417	9374
924.525	9344
924.633	9332
924.741	10154
924.849	9093
924.956	9291
925.064	9161
925.172	9108
925.279	9093
925.387	9184
925.494	9184
925.602	9306
925.709	9230
925.816	9097
925.924	9180
926.031	9233
926.138	9146
926.245	9222
926.352	9077
926.459	9165
926.566	9298
926.673	9077
926.779	9009
926.886	8956
926.993	8883
927.099	8880
927.206	8777
927.312	8781
927.419	8925
927.525	8921
927.631	8921
927.737	8811
927.843	8826
927.95	8678
928.056	8727
928.162	8750
928.267	8804
928.373	9408
928.479	8849
928.585	8590
928.69	8792
928.796	8819
928.901	8621
929.007	8518
929.112	8682
929.218	8727
929.323	8632
929.428	8583
929.533	8682
929.638	8579
929.743	8526
929.848	8583
929.953	8583
930.058	8518
930.163	8309
930.267	8381
930.372	8499
930.477	8317
930.581	8575
930.685	8434
930.79	8237
930.894	8294
930.998	8279
931.103	8423
931.207	8046
931.311	8031
931.415	7963
931.519	7788
931.623	7799
