Data from test_V78500241_989.txt Node
Date: Fri Mar 25 14:40:36 CST 2022
User: usil
Spectrometer: V785-0024
Trigger mode: 0
Integration Time (sec): 4.000000E-1
Scans to average: 1
Nonlinearity correction enabled: false
Boxcar width: 0
Storing dark spectrum: false
XAxis mode: Wavelengths
Number of Pixels in Spectrum: 1024
>>>>>Begin Spectral Data<<<<<
801.071	23273
801.214	23151
801.356	22793
801.499	22774
801.641	22687
801.783	22580
801.926	22694
802.068	22405
802.211	22443
802.353	22382
802.496	22090
802.638	21979
802.78	22025
802.923	22013
803.065	21926
803.208	21915
803.35	21895
803.492	21934
803.635	22025
803.777	21865
803.919	21899
804.061	22242
804.204	21998
804.346	21793
804.488	21861
804.63	21945
804.773	21831
804.915	21865
805.057	21941
805.199	21819
805.341	21972
805.483	21953
805.626	22013
805.768	21743
805.91	21854
806.052	21892
806.194	21949
806.336	22032
806.478	21979
806.62	22036
806.762	22078
806.904	22207
807.046	22352
807.188	22451
807.33	22459
807.472	22527
807.614	22265
807.756	22508
807.898	22470
808.04	22432
808.182	22664
808.324	22831
808.465	22949
808.607	23307
808.749	23672
808.891	23745
809.033	23882
809.174	23535
809.316	23376
809.458	23235
809.6	22911
809.741	22885
809.883	22790
810.025	22881
810.166	22752
810.308	22637
810.45	22675
810.591	22557
810.733	22318
810.875	22242
811.016	22215
811.158	22109
811.299	22409
811.441	22341
811.582	22223
811.724	22188
811.865	22059
812.007	22128
812.148	22139
812.29	22124
812.431	22291
812.573	22443
812.714	22523
812.855	22516
812.997	22675
813.138	22892
813.279	22717
813.421	22706
813.562	22580
813.703	22451
813.845	22211
813.986	22040
814.127	21724
814.268	21759
814.41	21686
814.551	21686
814.692	21724
814.833	21561
814.974	21576
815.115	21660
815.256	21420
815.397	21477
815.539	21462
815.68	21454
815.821	21260
815.962	21363
816.103	21378
816.244	21207
816.385	21074
816.526	21009
816.666	20994
816.807	20868
816.948	20921
817.089	20826
817.23	20933
817.371	20883
817.512	20739
817.653	20902
817.793	20648
817.934	20777
818.075	20792
818.216	20876
818.356	20754
818.497	20560
818.638	20355
818.778	20480
818.919	20431
819.06	20423
819.2	20560
819.341	20533
819.481	20579
819.622	20823
819.762	21005
819.903	20872
820.043	20807
820.184	20743
820.324	20845
820.465	20845
820.605	20678
820.746	20731
820.886	20625
821.026	20727
821.167	20712
821.307	20727
821.447	20625
821.588	20457
821.728	20431
821.868	20328
822.008	20233
822.149	20107
822.289	20176
822.429	19898
822.569	19761
822.709	19936
822.849	19594
822.99	19594
823.13	19586
823.27	19693
823.41	19441
823.55	19346
823.69	19529
823.83	19403
823.97	19438
824.11	19160
824.25	19247
824.389	19194
824.529	19270
824.669	19118
824.809	19335
824.949	19247
825.089	19236
825.228	19198
825.368	19015
825.508	18951
825.648	18951
825.787	19050
825.927	19019
826.067	18871
826.206	18970
826.346	18996
826.485	19053
826.625	18916
826.765	19160
826.904	19069
827.044	18715
827.183	18681
827.323	18506
827.462	18741
827.601	18631
827.741	18536
827.88	18646
828.02	18517
828.159	18661
828.298	18802
828.437	18711
828.577	18559
828.716	18802
828.855	18475
828.994	18426
829.134	18448
829.273	18502
829.412	18262
829.551	18228
829.69	18323
829.829	18414
829.968	18471
830.107	18391
830.246	18437
830.385	18254
830.524	18224
830.663	18209
830.802	18072
830.941	17980
831.08	18049
831.219	18068
831.357	18068
831.496	18220
831.635	17889
831.774	17847
831.913	17901
832.051	17847
832.19	17737
832.329	17897
832.467	17798
832.606	17775
832.744	17630
832.883	17695
833.022	17642
833.16	17665
833.299	17790
833.437	17863
833.576	17805
833.714	17775
833.852	17878
833.991	17802
834.129	17916
834.267	17851
834.406	17745
834.544	17764
834.682	17847
834.821	17828
834.959	17973
835.097	17684
835.235	17832
835.373	17786
835.511	17832
835.65	17608
835.788	17668
835.926	17524
836.064	17455
836.202	17497
836.34	17627
836.478	17684
836.615	17573
836.753	17665
836.891	17676
837.029	17687
837.167	17577
837.305	17570
837.443	17566
837.58	17436
837.718	17596
837.856	17608
837.993	17402
838.131	17558
838.269	17379
838.406	17395
838.544	17349
838.681	17189
838.819	17109
838.956	17037
839.094	17121
839.231	17128
839.369	17166
839.506	17433
839.643	17223
839.781	17117
839.918	17018
840.055	16999
840.193	16946
840.33	16889
840.467	16972
840.604	17006
840.742	17315
840.879	16877
841.016	16968
841.153	16873
841.29	17010
841.427	16946
841.564	17025
841.701	17071
841.838	16900
841.975	16869
842.112	16809
842.249	16778
842.385	16725
842.522	16957
842.659	16744
842.796	16767
842.933	16793
843.069	16786
843.206	16790
843.343	16881
843.479	16660
843.616	16805
843.752	16436
843.889	16641
844.025	16683
844.162	16443
844.298	16599
844.435	16580
844.571	16622
844.708	16588
844.844	16801
844.98	16767
845.117	16763
845.253	16645
845.389	16717
845.525	17060
845.661	17258
845.798	17592
845.934	17920
846.07	18133
846.206	17954
846.342	17923
846.478	17341
846.614	16816
846.75	16466
846.886	16211
847.022	16382
847.158	16116
847.294	16173
847.429	16211
847.565	16131
847.701	16280
847.837	16021
847.972	15857
848.108	15960
848.244	15907
848.379	15808
848.515	15762
848.65	15739
848.786	15804
848.921	15667
849.057	15713
849.192	15728
849.328	15739
849.463	15694
849.598	15701
849.734	15682
849.869	15523
850.004	15473
850.14	15485
850.275	15564
850.41	15336
850.545	15477
850.68	15355
850.815	15401
850.95	15443
851.085	15663
851.22	15500
851.355	15473
851.49	15408
851.625	15473
851.76	15416
851.895	15275
852.03	15405
852.165	15340
852.299	15412
852.434	15641
852.569	15523
852.703	15416
852.838	15485
852.973	15587
853.107	15481
853.242	15412
853.376	15393
853.511	15252
853.645	15275
853.78	15420
853.914	15310
854.048	15306
854.183	15332
854.317	15332
854.451	15443
854.585	15386
854.72	15325
854.854	15439
854.988	15226
855.122	15313
855.256	15165
855.39	15294
855.524	15348
855.658	15325
855.792	15249
855.926	15420
856.06	15374
856.194	15443
856.327	15332
856.461	15272
856.595	15264
856.729	15306
856.862	15496
856.996	15344
857.13	15420
857.263	15473
857.397	15435
857.53	15310
857.664	15370
857.797	15374
857.931	15355
858.064	15386
858.197	15382
858.331	15268
858.464	15199
858.597	15192
858.731	15351
858.864	15256
858.997	15233
859.13	15268
859.263	15279
859.396	15359
859.529	15211
859.662	15218
859.795	15203
859.928	15313
860.061	15447
860.194	15389
860.327	15226
860.46	15256
860.592	15397
860.725	15302
860.858	15443
860.99	15264
861.123	15264
861.256	15203
861.388	15176
861.521	15884
861.653	15199
861.786	15093
861.918	15218
862.05	15252
862.183	15192
862.315	15291
862.447	15374
862.58	15272
862.712	14979
862.844	14998
862.976	15116
863.108	15043
863.24	15431
863.372	14921
863.504	15032
863.636	15013
863.768	15100
863.9	15024
864.032	15020
864.164	15043
864.296	15051
864.428	15100
864.559	15138
864.691	15169
864.823	15195
864.954	15051
865.086	15165
865.217	15138
865.349	14998
865.48	15032
865.612	15039
865.743	15157
865.875	15009
866.006	14982
866.137	15039
866.269	15150
866.4	15013
866.531	14941
866.662	14872
866.793	15062
866.924	15036
867.055	14990
867.186	14914
867.317	14975
867.448	14952
867.579	14986
867.71	14933
867.841	14921
867.972	15017
868.103	15013
868.233	15074
868.364	15070
868.495	15077
868.625	15237
868.756	15302
868.886	15211
869.017	15401
869.147	15355
869.278	15351
869.408	15283
869.539	15264
869.669	15336
869.799	15256
869.929	15351
870.06	15332
870.19	15618
870.32	15542
870.45	15618
870.58	15736
870.71	15686
870.84	15751
870.97	15644
871.1	15698
871.23	15816
871.36	15888
871.489	15808
871.619	15800
871.749	15880
871.879	15876
872.008	15934
872.138	15880
872.267	15831
872.397	15667
872.526	15625
872.656	15633
872.785	15648
872.915	15873
873.044	15888
873.173	15899
873.303	15926
873.432	15911
873.561	15892
873.69	15941
873.819	15949
873.948	15949
874.077	15838
874.206	15804
874.335	16010
874.464	16074
874.593	16223
874.722	16128
874.851	16234
874.979	16306
875.108	16276
875.237	16188
875.365	16162
875.494	16223
875.623	16318
875.751	16265
875.88	16291
876.008	16352
876.136	16318
876.265	16668
876.393	16858
876.521	16664
876.65	16812
876.778	16713
876.906	16630
877.034	16531
877.162	16626
877.29	16603
877.418	16679
877.546	16717
877.674	16782
877.802	16729
877.93	16774
878.058	16771
878.185	16615
878.313	16645
878.441	16812
878.568	16622
878.696	16831
878.824	16968
878.951	17018
879.079	17181
879.206	17429
879.333	17444
879.461	17417
879.588	17608
879.715	17703
879.842	17695
879.97	17452
880.097	16938
880.224	16889
880.351	16946
880.478	16790
880.605	16736
880.732	16729
880.859	16987
880.986	16877
881.112	16706
881.239	16607
881.366	16554
881.493	16367
881.619	16352
881.746	16337
881.872	16367
881.999	16390
882.125	16276
882.252	16432
882.378	16478
882.505	16421
882.631	16257
882.757	16188
882.883	16291
883.01	16162
883.136	16040
883.262	16055
883.388	15949
883.514	16200
883.64	16169
883.766	16044
883.892	15892
884.018	16067
884.143	16120
884.269	16173
884.395	15960
884.52	15861
884.646	15937
884.772	15819
884.897	15736
885.023	15895
885.148	15918
885.274	16013
885.399	15956
885.524	15854
885.65	15895
885.775	15793
885.9	15842
886.025	15857
886.15	15899
886.275	15720
886.4	15694
886.525	15739
886.65	15717
886.775	15641
886.9	15869
887.025	15937
887.149	15789
887.274	15595
887.399	15557
887.523	15572
887.648	15488
887.773	15523
887.897	15591
888.021	15648
888.146	15450
888.27	15599
888.395	15671
888.519	15549
888.643	15610
888.767	15591
888.891	15492
889.015	15313
889.139	15458
889.263	15435
889.387	15492
889.511	15622
889.635	15500
889.759	15302
889.883	15306
890.006	15386
890.13	15564
890.254	15226
890.377	15458
890.501	15169
890.624	15085
890.748	15230
890.871	15001
890.995	14982
891.118	14998
891.241	15036
891.364	15051
891.488	15195
891.611	15070
891.734	15062
891.857	15100
891.98	15036
892.103	15085
892.226	15024
892.349	15032
892.471	14849
892.594	15001
892.717	15039
892.839	14899
892.962	14956
893.085	15028
893.207	15024
893.33	14845
893.452	14933
893.575	15097
893.697	14910
893.819	15199
893.941	15138
894.064	15089
894.186	14933
894.308	14944
894.43	15135
894.552	15184
894.674	15146
894.796	14925
894.918	15043
895.04	14937
895.161	15081
895.283	14948
895.405	14986
895.526	14990
895.648	14971
895.769	15081
895.891	15074
896.012	15131
896.134	15214
896.255	15127
896.376	15154
896.498	15058
896.619	15100
896.74	15203
896.861	15214
896.982	15496
897.103	15599
897.224	15450
897.345	15367
897.466	15268
897.587	15321
897.708	15458
897.828	15428
897.949	15317
898.07	15252
898.19	15344
898.311	15443
898.431	15443
898.552	15405
898.672	15523
898.792	15580
898.913	15515
899.033	15397
899.153	15321
899.273	15180
899.393	15378
899.513	15298
899.633	15302
899.753	15351
899.873	15332
899.993	15325
900.113	15283
900.232	15302
900.352	15374
900.472	15157
900.591	15184
900.711	15214
900.83	15230
900.95	15279
901.069	15279
901.189	15161
901.308	14929
901.427	14788
901.546	14823
901.665	14918
901.784	14868
901.904	14720
902.023	14716
902.141	14358
902.26	14385
902.379	14473
902.498	14393
902.617	14294
902.735	14370
902.854	14343
902.973	14351
903.091	14138
903.21	14119
903.328	14130
903.446	14020
903.565	13913
903.683	13883
903.801	13784
903.919	13940
904.038	13776
904.156	13776
904.274	13826
904.392	13700
904.51	13750
904.627	13624
904.745	13746
904.863	13750
904.981	13556
905.098	13346
905.216	13472
905.334	13457
905.451	13441
905.569	13282
905.686	13422
905.803	13327
905.921	13274
906.038	13365
906.155	13149
906.272	13213
906.389	13179
906.506	13027
906.623	12977
906.74	12890
906.857	12848
906.974	12905
907.091	13069
907.208	13095
907.324	13000
907.441	12890
907.557	12684
907.674	12669
907.79	12715
907.907	12677
908.023	12692
908.139	12673
908.256	12601
908.372	12719
908.488	12597
908.604	12490
908.72	12471
908.836	12490
908.952	12506
909.068	12467
909.184	12536
909.3	12448
909.415	12540
909.531	12460
909.647	12338
909.762	12235
909.878	12239
909.993	12311
910.108	12251
910.224	12182
910.339	12258
910.454	12121
910.57	12091
910.685	12057
910.8	12391
910.915	12232
911.03	12133
911.145	11897
911.259	11935
911.374	11961
911.489	11851
911.604	11893
911.718	11764
911.833	11703
911.947	11600
912.062	11551
912.176	11729
912.291	11562
912.405	11729
912.519	11809
912.633	11912
912.748	11767
912.862	11611
912.976	11585
913.09	11452
913.204	11528
913.318	11551
913.431	11646
913.545	11646
913.659	11680
913.772	11623
913.886	11463
914	11448
914.113	11512
914.226	11474
914.34	11524
914.453	11326
914.566	11478
914.68	11387
914.793	11368
914.906	11208
915.019	11170
915.132	11067
915.245	11155
915.358	11185
915.47	11178
915.583	11178
915.696	11216
915.809	11307
915.921	11303
916.034	11140
916.146	11064
916.259	11094
916.371	11162
916.483	11143
916.595	10976
916.708	11090
916.82	11067
916.932	11136
917.044	11064
917.156	10976
917.268	10984
917.38	10961
917.491	10946
917.603	10965
917.715	10991
917.826	11052
917.938	10900
918.049	10812
918.161	10968
918.272	10984
918.384	11079
918.495	10999
918.606	10866
918.717	10740
918.828	10866
918.939	10866
919.05	10748
919.161	10782
919.272	10656
919.383	10683
919.494	10877
919.604	11048
919.715	10831
919.826	10717
919.936	10755
920.047	10927
920.157	10854
920.267	10961
920.378	10892
920.488	10771
920.598	10957
920.708	11105
920.818	11025
920.928	11045
921.038	11109
921.148	11166
921.258	10824
921.368	10793
921.477	10630
921.587	10611
921.697	10596
921.806	10721
921.916	10596
922.025	10386
922.134	10329
922.244	10318
922.353	10348
922.462	10215
922.571	10139
922.68	9991
922.789	10006
922.898	10036
923.007	10010
923.116	10131
923.224	10101
923.333	10040
923.442	9903
923.55	9831
923.659	9861
923.767	10025
923.876	9903
923.984	10021
924.092	9854
924.201	9846
924.309	9915
924.417	9911
924.525	9838
924.633	9804
924.741	10812
924.849	9667
924.956	9793
925.064	9644
925.172	9587
925.279	9580
925.387	9660
925.494	9698
925.602	9774
925.709	9778
925.816	9549
925.924	9701
926.031	9774
926.138	9648
926.245	9762
926.352	9542
926.459	9675
926.566	9720
926.673	9599
926.779	9557
926.886	9481
926.993	9382
927.099	9351
927.206	9321
927.312	9355
927.419	9420
927.525	9336
927.631	9374
927.737	9260
927.843	9241
927.95	9195
928.056	9211
928.162	9241
928.267	9378
928.373	9819
928.479	9317
928.585	9150
928.69	9264
928.796	9184
928.901	9154
929.007	9032
929.112	9119
929.218	9146
929.323	9104
929.428	9108
929.533	9245
929.638	8994
929.743	9043
929.848	9062
929.953	9055
930.058	8937
930.163	8811
930.267	8861
930.372	8963
930.477	8800
930.581	8956
930.685	8902
930.79	8777
930.894	8743
930.998	8823
931.103	8883
931.207	8541
931.311	8549
931.415	8419
931.519	8332
931.623	8214
