Data from test_V78500241_175.txt Node
Date: Fri Mar 25 14:34:56 CST 2022
User: usil
Spectrometer: V785-0024
Trigger mode: 0
Integration Time (sec): 4.000000E-1
Scans to average: 1
Nonlinearity correction enabled: false
Boxcar width: 0
Storing dark spectrum: false
XAxis mode: Wavelengths
Number of Pixels in Spectrum: 1024
>>>>>Begin Spectral Data<<<<<
801.071	28634
801.214	28428
801.356	28367
801.499	28230
801.641	27972
801.783	27964
801.926	28131
802.068	27949
802.211	27918
802.353	27819
802.496	27675
802.638	27553
802.78	27603
802.923	27603
803.065	27462
803.208	27447
803.35	27530
803.492	27515
803.635	27583
803.777	27675
803.919	27774
804.061	27922
804.204	27701
804.346	27538
804.488	27386
804.63	27534
804.773	27568
804.915	27747
805.057	27713
805.199	27561
805.341	27762
805.483	27774
805.626	27736
805.768	27755
805.91	27682
806.052	27732
806.194	27606
806.336	27892
806.478	27759
806.62	27888
806.762	27922
806.904	28070
807.046	28424
807.188	28268
807.33	28443
807.472	28481
807.614	28523
807.756	28672
807.898	28489
808.04	28459
808.182	28980
808.324	29223
808.465	29509
808.607	29988
808.749	30452
808.891	30536
809.033	30570
809.174	30346
809.316	29908
809.458	29589
809.6	29436
809.741	29094
809.883	28839
810.025	28987
810.166	28850
810.308	28580
810.45	28774
810.591	28535
810.733	28333
810.875	28379
811.016	28192
811.158	28021
811.299	28154
811.441	28211
811.582	28344
811.724	28150
811.865	28120
812.007	28093
812.148	28006
812.29	28204
812.431	28177
812.573	28284
812.714	28379
812.855	28500
812.997	28725
813.138	28790
813.279	28702
813.421	28554
813.562	28531
813.703	28314
813.845	28112
813.986	27797
814.127	27671
814.268	27526
814.41	27679
814.551	27572
814.692	27671
814.833	27606
814.974	27515
815.115	27530
815.256	27439
815.397	27519
815.539	27374
815.68	27321
815.821	27260
815.962	27313
816.103	27112
816.244	27142
816.385	26971
816.526	26895
816.666	26876
816.807	26667
816.948	26796
817.089	26693
817.23	26746
817.371	26655
817.512	26587
817.653	26617
817.793	26564
817.934	26587
818.075	26670
818.216	26682
818.356	26549
818.497	26450
818.638	26495
818.778	26431
818.919	26385
819.06	26381
819.2	26461
819.341	26495
819.481	26427
819.622	26598
819.762	26823
819.903	26769
820.043	26705
820.184	26720
820.324	26648
820.465	26697
820.605	26507
820.746	26564
820.886	26541
821.026	26503
821.167	26526
821.307	26644
821.447	26571
821.588	26423
821.728	26271
821.868	26020
822.008	25807
822.149	25864
822.289	26012
822.429	25624
822.569	25734
822.709	25643
822.849	25381
822.99	25392
823.13	25320
823.27	25343
823.41	25236
823.55	25251
823.69	25141
823.83	25187
823.97	25038
824.11	24897
824.25	24928
824.389	25031
824.529	25069
824.669	24943
824.809	25050
824.949	25065
825.089	24916
825.228	25034
825.368	24875
825.508	24810
825.648	24715
825.787	24875
825.927	24791
826.067	24646
826.206	24749
826.346	24814
826.485	24795
826.625	24681
826.765	24871
826.904	24776
827.044	24597
827.183	24578
827.323	24410
827.462	24502
827.601	24338
827.741	24323
827.88	24471
828.02	24209
828.159	24372
828.298	24380
828.437	24483
828.577	24342
828.716	24502
828.855	24422
828.994	24106
829.134	24060
829.273	24174
829.412	24182
829.551	24102
829.69	24110
829.829	24167
829.968	24239
830.107	24121
830.246	24053
830.385	24049
830.524	23965
830.663	23961
830.802	23718
830.941	23802
831.08	23642
831.219	23748
831.357	23741
831.496	23802
831.635	23551
831.774	23558
831.913	23733
832.051	23421
832.19	23486
832.329	23478
832.467	23429
832.606	23395
832.744	23360
832.883	23265
833.022	23254
833.16	23646
833.299	23531
833.437	23299
833.576	23360
833.714	23433
833.852	23600
833.991	23604
834.129	23608
834.267	23600
834.406	23482
834.544	23459
834.682	23315
834.821	23368
834.959	23531
835.097	23292
835.235	23269
835.373	23223
835.511	23273
835.65	23128
835.788	23147
835.926	23033
836.064	22995
836.202	23029
836.34	23044
836.478	23181
836.615	23056
836.753	23174
836.891	23242
837.029	23117
837.167	23071
837.305	22930
837.443	23006
837.58	22843
837.718	22987
837.856	22965
837.993	22828
838.131	22892
838.269	22736
838.406	22801
838.544	22683
838.681	22596
838.819	22466
838.956	22314
839.094	22512
839.231	22356
839.369	22531
839.506	22603
839.643	22603
839.781	22238
839.918	22226
840.055	22219
840.193	22215
840.33	22207
840.467	22226
840.604	22223
840.742	22478
840.879	22090
841.016	22131
841.153	22112
841.29	22242
841.427	22284
841.564	22185
841.701	22185
841.838	22169
841.975	22109
842.112	22010
842.249	21987
842.385	21987
842.522	22139
842.659	22010
842.796	21918
842.933	21949
843.069	21975
843.206	21903
843.343	22131
843.479	22040
843.616	21934
843.752	21690
843.889	21732
844.025	21827
844.162	21774
844.298	21743
844.435	21656
844.571	21793
844.708	21876
844.844	21808
844.98	21972
845.117	22002
845.253	21960
845.389	22010
845.525	22447
845.661	22930
845.798	23611
845.934	24129
846.07	24254
846.206	24205
846.342	23885
846.478	23060
846.614	22261
846.75	21774
846.886	21473
847.022	21519
847.158	21336
847.294	21294
847.429	21275
847.565	21344
847.701	21462
847.837	20975
847.972	20857
848.108	20990
848.244	20941
848.379	20883
848.515	20686
848.65	20632
848.786	20594
848.921	20796
849.057	20674
849.192	20785
849.328	20720
849.463	20773
849.598	20571
849.734	20613
849.869	20594
850.004	20549
850.14	20465
850.275	20396
850.41	20328
850.545	20377
850.68	20438
850.815	20351
850.95	20366
851.085	20552
851.22	20454
851.355	20454
851.49	20305
851.625	20286
851.76	20358
851.895	20324
852.03	20374
852.165	20347
852.299	20434
852.434	20495
852.569	20385
852.703	20461
852.838	20434
852.973	20446
853.107	20457
853.242	20339
853.376	20309
853.511	20237
853.645	20161
853.78	20438
853.914	20278
854.048	20088
854.183	20298
854.317	20202
854.451	20377
854.585	20172
854.72	20244
854.854	20233
854.988	20031
855.122	20157
855.256	19959
855.39	20221
855.524	20282
855.658	20229
855.792	20290
855.926	20286
856.06	20339
856.194	20290
856.327	20221
856.461	20073
856.595	20180
856.729	20206
856.862	20199
856.996	20233
857.13	20130
857.263	20214
857.397	20259
857.53	20252
857.664	20180
857.797	20199
857.931	20225
858.064	20233
858.197	20229
858.331	20218
858.464	19921
858.597	19970
858.731	20157
858.864	20096
858.997	20218
859.13	20103
859.263	20218
859.396	20362
859.529	20119
859.662	20039
859.795	20107
859.928	20054
860.061	20263
860.194	20172
860.327	20115
860.46	19932
860.592	20115
860.725	20252
860.858	20187
860.99	20046
861.123	20084
861.256	19963
861.388	20062
861.521	20743
861.653	19982
861.786	19875
861.918	19864
862.05	20065
862.183	20100
862.315	20168
862.447	20229
862.58	20244
862.712	19898
862.844	19799
862.976	19909
863.108	19860
863.24	20138
863.372	19681
863.504	19696
863.636	19769
863.768	19879
863.9	19727
864.032	19677
864.164	19753
864.296	19784
864.428	19890
864.559	19837
864.691	19833
864.823	19750
864.954	19769
865.086	19693
865.217	19712
865.349	19628
865.48	19742
865.612	19681
865.743	19883
865.875	19655
866.006	19666
866.137	19666
866.269	19704
866.4	19628
866.531	19655
866.662	19590
866.793	19635
866.924	19662
867.055	19696
867.186	19601
867.317	19628
867.448	19609
867.579	19514
867.71	19415
867.841	19601
867.972	19563
868.103	19616
868.233	19556
868.364	19624
868.495	19681
868.625	19811
868.756	19894
868.886	19795
869.017	19753
869.147	19970
869.278	19955
869.408	19769
869.539	19894
869.669	20031
869.799	19845
869.929	20020
870.06	20050
870.19	20145
870.32	20305
870.45	20180
870.58	20244
870.71	20400
870.84	20313
870.97	20275
871.1	20199
871.23	20301
871.36	20366
871.489	20362
871.619	20324
871.749	20476
871.879	20522
872.008	20579
872.138	20438
872.267	20457
872.397	20339
872.526	20259
872.656	20275
872.785	20282
872.915	20518
873.044	20457
873.173	20495
873.303	20533
873.432	20575
873.561	20492
873.69	20454
873.819	20541
873.948	20648
874.077	20503
874.206	20541
874.335	20533
874.464	20731
874.593	20826
874.722	20727
874.851	20826
874.979	20819
875.108	20876
875.237	20777
875.365	20777
875.494	20845
875.623	20902
875.751	20754
875.88	20906
876.008	20990
876.136	20895
876.265	21355
876.393	21241
876.521	21104
876.65	21252
876.778	21214
876.906	21157
877.034	21283
877.162	21211
877.29	21195
877.418	21306
877.546	21359
877.674	21199
877.802	21382
877.93	21321
878.058	21363
878.185	21287
878.313	21325
878.441	21374
878.568	21188
878.696	21416
878.824	21622
878.951	21660
879.079	21903
879.206	22329
879.333	22382
879.461	22421
879.588	22622
879.715	22759
879.842	22713
879.97	22379
880.097	21968
880.224	21857
880.351	21717
880.478	21454
880.605	21397
880.732	21481
880.859	21686
880.986	21405
881.112	21397
881.239	21222
881.366	21108
881.493	21142
881.619	20963
881.746	20994
881.872	20929
881.999	21066
882.125	20948
882.252	20937
882.378	21116
882.505	21013
882.631	20902
882.757	20815
882.883	20838
883.01	20735
883.136	20727
883.262	20522
883.388	20541
883.514	20773
883.64	20819
883.766	20648
883.892	20495
884.018	20560
884.143	20792
884.269	20750
884.395	20507
884.52	20343
884.646	20442
884.772	20404
884.897	20336
885.023	20484
885.148	20461
885.274	20454
885.399	20454
885.524	20438
885.65	20393
885.775	20317
885.9	20240
886.025	20400
886.15	20412
886.275	20214
886.4	20153
886.525	20244
886.65	20214
886.775	20172
886.9	20313
887.025	20377
887.149	20202
887.274	20001
887.399	19826
887.523	19906
887.648	19864
887.773	19856
887.897	19951
888.021	19898
888.146	19898
888.27	20058
888.395	20035
888.519	20043
888.643	19807
888.767	19925
888.891	19757
889.015	19590
889.139	19712
889.263	19651
889.387	19677
889.511	19750
889.635	19776
889.759	19594
889.883	19559
890.006	19571
890.13	19677
890.254	19582
890.377	19620
890.501	19407
890.624	19274
890.748	19373
890.871	19289
890.995	19137
891.118	19118
891.241	19190
891.364	19088
891.488	19103
891.611	19164
891.734	19202
891.857	19278
891.98	19103
892.103	19175
892.226	19160
892.349	19236
892.471	18985
892.594	19164
892.717	19107
892.839	19061
892.962	19152
893.085	19069
893.207	19107
893.33	18962
893.452	19008
893.575	19038
893.697	19042
893.819	19122
893.941	19251
894.064	19209
894.186	19050
894.308	18989
894.43	19118
894.552	19164
894.674	19198
894.796	19004
894.918	18954
895.04	19012
895.161	19065
895.283	19004
895.405	18996
895.526	18989
895.648	18867
895.769	18970
895.891	19042
896.012	19145
896.134	19034
896.255	19042
896.376	18962
896.498	19084
896.619	19175
896.74	19084
896.861	19217
896.982	19350
897.103	19487
897.224	19362
897.345	19308
897.466	19266
897.587	19244
897.708	19289
897.828	19388
897.949	19251
898.07	19168
898.19	19198
898.311	19480
898.431	19304
898.552	19285
898.672	19415
898.792	19426
898.913	19244
899.033	19164
899.153	19015
899.273	18973
899.393	18966
899.513	19023
899.633	18973
899.753	19046
899.873	18928
899.993	19069
900.113	19046
900.232	19088
900.352	18920
900.472	18920
900.591	18821
900.711	18871
900.83	18776
900.95	18970
901.069	18943
901.189	18741
901.308	18623
901.427	18395
901.546	18391
901.665	18642
901.784	18479
901.904	18232
902.023	18163
902.141	18106
902.26	17935
902.379	17931
902.498	17878
902.617	17882
902.735	17969
902.854	17809
902.973	17920
903.091	17710
903.21	17604
903.328	17680
903.446	17516
903.565	17474
903.683	17478
903.801	17379
903.919	17322
904.038	17379
904.156	17231
904.274	17284
904.392	17231
904.51	17181
904.627	17227
904.745	17216
904.863	17265
904.981	16942
905.098	16843
905.216	16850
905.334	16869
905.451	16816
905.569	16759
905.686	16828
905.803	16797
905.921	16615
906.038	16679
906.155	16561
906.272	16508
906.389	16531
906.506	16440
906.623	16352
906.74	16363
906.857	16295
906.974	16204
907.091	16257
907.208	16371
907.324	16344
907.441	16306
907.557	16173
907.674	16173
907.79	15941
907.907	15945
908.023	16120
908.139	16021
908.256	16017
908.372	15880
908.488	15857
908.604	15713
908.72	15667
908.836	15774
908.952	15606
909.068	15762
909.184	15724
909.3	15732
909.415	15660
909.531	15682
909.647	15431
909.762	15526
909.878	15450
909.993	15359
910.108	15420
910.224	15359
910.339	15435
910.454	15317
910.57	15165
910.685	15135
910.8	15526
910.915	15332
911.03	15313
911.145	15039
911.259	14918
911.374	14982
911.489	14914
911.604	14971
911.718	14750
911.833	14754
911.947	14682
912.062	14659
912.176	14876
912.291	14712
912.405	14686
912.519	14876
912.633	14899
912.748	14716
912.862	14697
912.976	14533
913.09	14469
913.204	14610
913.318	14579
913.431	14575
913.545	14541
913.659	14613
913.772	14594
913.886	14484
914	14431
914.113	14454
914.226	14461
914.34	14324
914.453	14313
914.566	14389
914.68	14263
914.793	14278
914.906	14134
915.019	13982
915.132	13978
915.245	14046
915.358	14153
915.47	14027
915.583	14050
915.696	14005
915.809	14229
915.921	14256
916.034	14050
916.146	13875
916.259	13993
916.371	14088
916.483	13955
916.595	13951
916.708	13906
916.82	13841
916.932	13818
917.044	13807
917.156	13807
917.268	13719
917.38	13791
917.491	13753
917.603	13681
917.715	13731
917.826	13803
917.938	13655
918.049	13582
918.161	13715
918.272	13830
918.384	13738
918.495	13715
918.606	13518
918.717	13552
918.828	13502
918.939	13605
919.05	13381
919.161	13483
919.272	13293
919.383	13278
919.494	13620
919.604	13582
919.715	13392
919.826	13335
919.936	13419
920.047	13499
920.157	13445
920.267	13586
920.378	13384
920.488	13491
920.598	13620
920.708	13715
920.818	13575
920.928	13590
921.038	13693
921.148	13563
921.258	13449
921.368	13358
921.477	13171
921.587	13240
921.697	13027
921.806	13213
921.916	13023
922.025	12863
922.134	12920
922.244	12764
922.353	12909
922.462	12745
922.571	12669
922.68	12509
922.789	12532
922.898	12547
923.007	12506
923.116	12528
923.224	12452
923.333	12471
923.442	12399
923.55	12323
923.659	12323
923.767	12403
923.876	12175
923.984	12319
924.092	12235
924.201	12285
924.309	12277
924.417	12243
924.525	12140
924.633	12190
924.741	13042
924.849	11977
924.956	12057
925.064	11996
925.172	11889
925.279	12057
925.387	11969
925.494	11980
925.602	12038
925.709	12015
925.816	11790
925.924	11935
926.031	12038
926.138	11897
926.245	11912
926.352	11813
926.459	11874
926.566	12015
926.673	11813
926.779	11786
926.886	11756
926.993	11665
927.099	11520
927.206	11459
927.312	11448
927.419	11608
927.525	11554
927.631	11474
927.737	11471
927.843	11482
927.95	11330
928.056	11387
928.162	11501
928.267	11410
928.373	12041
928.479	11452
928.585	11261
928.69	11280
928.796	11372
928.901	11261
929.007	11178
929.112	11288
929.218	11170
929.323	11216
929.428	11140
929.533	11288
929.638	11090
929.743	11181
929.848	11166
929.953	11041
930.058	10991
930.163	10839
930.267	10911
930.372	10980
930.477	10805
930.581	11060
930.685	10854
930.79	10752
930.894	10805
930.998	10721
931.103	10805
931.207	10421
931.311	10390
931.415	10390
931.519	10181
931.623	10143
