Data from test_V78500241_2235.txt Node
Date: Fri Mar 25 14:49:16 CST 2022
User: usil
Spectrometer: V785-0024
Trigger mode: 0
Integration Time (sec): 4.000000E-1
Scans to average: 1
Nonlinearity correction enabled: false
Boxcar width: 0
Storing dark spectrum: false
XAxis mode: Wavelengths
Number of Pixels in Spectrum: 1024
>>>>>Begin Spectral Data<<<<<
801.071	22070
801.214	22101
801.356	21934
801.499	21671
801.641	21641
801.783	21644
801.926	21633
802.068	21511
802.211	21492
802.353	21287
802.496	21184
802.638	21043
802.78	21089
802.923	20910
803.065	20895
803.208	20823
803.35	20960
803.492	20937
803.635	21058
803.777	20788
803.919	20937
804.061	21199
804.204	20868
804.346	20754
804.488	20895
804.63	20876
804.773	20686
804.915	20781
805.057	20845
805.199	20811
805.341	20891
805.483	20826
805.626	20902
805.768	20781
805.91	20921
806.052	20880
806.194	20750
806.336	20948
806.478	20754
806.62	20697
806.762	20960
806.904	20994
807.046	21264
807.188	21009
807.33	21093
807.472	21043
807.614	21020
807.756	21032
807.898	20921
808.04	20880
808.182	20804
808.324	21020
808.465	20906
808.607	21123
808.749	21237
808.891	21321
809.033	21283
809.174	21256
809.316	21188
809.458	21131
809.6	21211
809.741	21142
809.883	21287
810.025	21287
810.166	21287
810.308	21348
810.45	21344
810.591	21173
810.733	21184
810.875	20979
811.016	20921
811.158	20883
811.299	21001
811.441	21017
811.582	21093
811.724	20960
811.865	20910
812.007	20902
812.148	20910
812.29	21024
812.431	21024
812.573	21214
812.714	21325
812.855	21488
812.997	21580
813.138	21743
813.279	21614
813.421	21359
813.562	21363
813.703	21138
813.845	20998
813.986	20838
814.127	20655
814.268	20541
814.41	20564
814.551	20545
814.692	20514
814.833	20469
814.974	20522
815.115	20351
815.256	20336
815.397	20301
815.539	20343
815.68	20263
815.821	20180
815.962	20305
816.103	20233
816.244	20092
816.385	20035
816.526	20054
816.666	19776
816.807	19750
816.948	19700
817.089	19776
817.23	19666
817.371	19578
817.512	19643
817.653	19575
817.793	19624
817.934	19525
818.075	19586
818.216	19700
818.356	19540
818.497	19415
818.638	19251
818.778	19346
818.919	19297
819.06	19304
819.2	19460
819.341	19525
819.481	19499
819.622	19704
819.762	19791
819.903	19715
820.043	19685
820.184	19651
820.324	19616
820.465	19681
820.605	19674
820.746	19533
820.886	19422
821.026	19499
821.167	19480
821.307	19689
821.447	19620
821.588	19438
821.728	19358
821.868	19145
822.008	19042
822.149	18996
822.289	19008
822.429	18722
822.569	18627
822.709	18684
822.849	18494
822.99	18498
823.13	18551
823.27	18403
823.41	18365
823.55	18330
823.69	18308
823.83	18319
823.97	18277
824.11	18114
824.25	18034
824.389	18079
824.529	18190
824.669	18133
824.809	18243
824.949	18182
825.089	18133
825.228	18110
825.368	17821
825.508	17897
825.648	17863
825.787	17965
825.927	17977
826.067	17798
826.206	17813
826.346	17817
826.485	17786
826.625	17726
826.765	18003
826.904	17805
827.044	17585
827.183	17554
827.323	17532
827.462	17634
827.601	17482
827.741	17619
827.88	17532
828.02	17391
828.159	17429
828.298	17551
828.437	17726
828.577	17455
828.716	17532
828.855	17516
828.994	17345
829.134	17448
829.273	17303
829.412	17204
829.551	17170
829.69	17239
829.829	17235
829.968	17417
830.107	17296
830.246	17326
830.385	17235
830.524	17159
830.663	17060
830.802	17079
830.941	16881
831.08	16942
831.219	16934
831.357	16953
831.496	17140
831.635	16896
831.774	16896
831.913	16759
832.051	16725
832.19	16672
832.329	16626
832.467	16542
832.606	16596
832.744	16535
832.883	16599
833.022	16615
833.16	16618
833.299	16637
833.437	16561
833.576	16653
833.714	16691
833.852	16565
833.991	16626
834.129	16710
834.267	16653
834.406	16634
834.544	16679
834.682	16615
834.821	16599
834.959	16904
835.097	16561
835.235	16873
835.373	16759
835.511	16694
835.65	16466
835.788	16497
835.926	16421
836.064	16386
836.202	16325
836.34	16577
836.478	16641
836.615	16481
836.753	16607
836.891	16672
837.029	16596
837.167	16481
837.305	16481
837.443	16405
837.58	16367
837.718	16558
837.856	16474
837.993	16276
838.131	16363
838.269	16265
838.406	16318
838.544	16310
838.681	16002
838.819	16002
838.956	15983
839.094	15956
839.231	15949
839.369	16200
839.506	16306
839.643	16135
839.781	15880
839.918	15865
840.055	15983
840.193	15915
840.33	15899
840.467	15930
840.604	15975
840.742	16226
840.879	15785
841.016	15865
841.153	15861
841.29	16032
841.427	15953
841.564	15873
841.701	15842
841.838	15854
841.975	15827
842.112	15888
842.249	15720
842.385	15667
842.522	15926
842.659	15724
842.796	15774
842.933	15675
843.069	15618
843.206	15561
843.343	15827
843.479	15682
843.616	15720
843.752	15557
843.889	15549
844.025	15545
844.162	15538
844.298	15648
844.435	15564
844.571	15507
844.708	15584
844.844	15641
844.98	15671
845.117	15603
845.253	15412
845.389	15511
845.525	15447
845.661	15344
845.798	15211
845.934	15355
846.07	15184
846.206	15317
846.342	15374
846.478	15279
846.614	15138
846.75	14929
846.886	15119
847.022	15085
847.158	15108
847.294	15119
847.429	15093
847.565	15028
847.701	15393
847.837	14876
847.972	14765
848.108	15024
848.244	14994
848.379	14705
848.515	14689
848.65	14583
848.786	14583
848.921	14724
849.057	14792
849.192	14781
849.328	14712
849.463	14754
849.598	14625
849.734	14587
849.869	14526
850.004	14473
850.14	14495
850.275	14370
850.41	14248
850.545	14309
850.68	14431
850.815	14396
850.95	14457
851.085	14621
851.22	14514
851.355	14556
851.49	14434
851.625	14465
851.76	14377
851.895	14362
852.03	14313
852.165	14385
852.299	14442
852.434	14431
852.569	14396
852.703	14484
852.838	14469
852.973	14552
853.107	14552
853.242	14336
853.376	14290
853.511	14157
853.645	14301
853.78	14427
853.914	14438
854.048	14294
854.183	14206
854.317	14259
854.451	14518
854.585	14286
854.72	14229
854.854	14355
854.988	14286
855.122	14358
855.256	14187
855.39	14301
855.524	14339
855.658	14366
855.792	14370
855.926	14271
856.06	14355
856.194	14431
856.327	14267
856.461	14256
856.595	14256
856.729	14237
856.862	14427
856.996	14282
857.13	14442
857.263	14366
857.397	14404
857.53	14351
857.664	14362
857.797	14400
857.931	14473
858.064	14339
858.197	14347
858.331	14248
858.464	14225
858.597	14206
858.731	14278
858.864	14298
858.997	14385
859.13	14347
859.263	14301
859.396	14355
859.529	14286
859.662	14271
859.795	14271
859.928	14328
860.061	14454
860.194	14469
860.327	14298
860.46	14301
860.592	14419
860.725	14438
860.858	14408
860.99	14282
861.123	14214
861.256	14244
861.388	14313
861.521	14872
861.653	14210
861.786	14058
861.918	14142
862.05	14138
862.183	14225
862.315	14256
862.447	14278
862.58	14176
862.712	14100
862.844	14031
862.976	14168
863.108	14123
863.24	14469
863.372	13993
863.504	14081
863.636	14043
863.768	14149
863.9	14092
864.032	13963
864.164	14054
864.296	14119
864.428	14176
864.559	14172
864.691	14248
864.823	14191
864.954	14092
865.086	14050
865.217	14008
865.349	14005
865.48	14001
865.612	14050
865.743	14256
865.875	14145
866.006	14054
866.137	13951
866.269	14005
866.4	14077
866.531	14062
866.662	14077
866.793	13978
866.924	14016
867.055	14035
867.186	14020
867.317	14092
867.448	13902
867.579	14008
867.71	14012
867.841	13879
867.972	14096
868.103	14088
868.233	14058
868.364	14103
868.495	14123
868.625	14195
868.756	14347
868.886	14195
869.017	14267
869.147	14381
869.278	14362
869.408	14237
869.539	14305
869.669	14396
869.799	14248
869.929	14427
870.06	14457
870.19	14594
870.32	14610
870.45	14492
870.58	14682
870.71	14769
870.84	14758
870.97	14705
871.1	14720
871.23	14944
871.36	14952
871.489	14750
871.619	14891
871.749	14914
871.879	14883
872.008	14994
872.138	14891
872.267	14921
872.397	14826
872.526	14708
872.656	14788
872.785	14727
872.915	14937
873.044	15074
873.173	14941
873.303	14956
873.432	14956
873.561	15058
873.69	14986
873.819	14960
873.948	14971
874.077	15020
874.206	14876
874.335	15001
874.464	15108
874.593	15272
874.722	15154
874.851	15291
874.979	15374
875.108	15329
875.237	15245
875.365	15199
875.494	15264
875.623	15363
875.751	15165
875.88	15302
876.008	15450
876.136	15488
876.265	15656
876.393	15770
876.521	15682
876.65	15785
876.778	15660
876.906	15644
877.034	15698
877.162	15633
877.29	15648
877.418	15694
877.546	15667
877.674	15625
877.802	15629
877.93	15568
878.058	15682
878.185	15515
878.313	15675
878.441	15698
878.568	15591
878.696	15595
878.824	15751
878.951	15709
879.079	15785
879.206	16032
879.333	15884
879.461	15793
879.588	15747
879.715	15850
879.842	15979
879.97	15781
880.097	15473
880.224	15481
880.351	15530
880.478	15561
880.605	15504
880.732	15530
880.859	15732
880.986	15622
881.112	15488
881.239	15428
881.366	15260
881.493	15306
881.619	15268
881.746	15093
881.872	15169
881.999	15203
882.125	15032
882.252	15165
882.378	15230
882.505	15351
882.631	15161
882.757	15005
882.883	15028
883.01	14937
883.136	15051
883.262	14800
883.388	14800
883.514	14975
883.64	14971
883.766	14979
883.892	14819
884.018	14982
884.143	15028
884.269	15036
884.395	14663
884.52	14682
884.646	14701
884.772	14667
884.897	14602
885.023	14682
885.148	14739
885.274	14876
885.399	14785
885.524	14670
885.65	14701
885.775	14632
885.9	14667
886.025	14861
886.15	14773
886.275	14674
886.4	14613
886.525	14674
886.65	14670
886.775	14663
886.9	14746
887.025	14929
887.149	14727
887.274	14564
887.399	14499
887.523	14465
887.648	14457
887.773	14446
887.897	14552
888.021	14667
888.146	14469
888.27	14621
888.395	14705
888.519	14575
888.643	14613
888.767	14549
888.891	14488
889.015	14332
889.139	14438
889.263	14351
889.387	14507
889.511	14522
889.635	14575
889.759	14427
889.883	14355
890.006	14503
890.13	14492
890.254	14305
890.377	14328
890.501	14237
890.624	14119
890.748	14263
890.871	14195
890.995	14001
891.118	13982
891.241	14107
891.364	14088
891.488	14240
891.611	14103
891.734	14073
891.857	14168
891.98	14050
892.103	14172
892.226	14115
892.349	14100
892.471	14031
892.594	14046
892.717	14077
892.839	14119
892.962	14126
893.085	14218
893.207	14119
893.33	13974
893.452	14096
893.575	14161
893.697	14103
893.819	14259
893.941	14286
894.064	14271
894.186	14134
894.308	14103
894.43	14248
894.552	14370
894.674	14305
894.796	14119
894.918	14088
895.04	14123
895.161	14259
895.283	14252
895.405	14161
895.526	14214
895.648	14271
895.769	14271
895.891	14199
896.012	14389
896.134	14298
896.255	14229
896.376	14233
896.498	14237
896.619	14271
896.74	14229
896.861	14351
896.982	14655
897.103	14830
897.224	14583
897.345	14579
897.466	14495
897.587	14583
897.708	14701
897.828	14674
897.949	14480
898.07	14503
898.19	14594
898.311	14613
898.431	14518
898.552	14602
898.672	14716
898.792	14708
898.913	14773
899.033	14537
899.153	14484
899.273	14336
899.393	14514
899.513	14545
899.633	14423
899.753	14522
899.873	14442
899.993	14507
900.113	14457
900.232	14518
900.352	14579
900.472	14377
900.591	14393
900.711	14218
900.83	14328
900.95	14488
901.069	14465
901.189	14347
901.308	14119
901.427	14046
901.546	13986
901.665	14039
901.784	14020
901.904	13925
902.023	13925
902.141	13742
902.26	13655
902.379	13761
902.498	13567
902.617	13544
902.735	13719
902.854	13510
902.973	13521
903.091	13358
903.21	13297
903.328	13441
903.446	13274
903.565	13168
903.683	13145
903.801	13069
903.919	13168
904.038	13095
904.156	13034
904.274	13103
904.392	12962
904.51	13000
904.627	12966
904.745	13072
904.863	13061
904.981	12795
905.098	12696
905.216	12669
905.334	12677
905.451	12654
905.569	12631
905.686	12711
905.803	12688
905.921	12544
906.038	12597
906.155	12486
906.272	12384
906.389	12509
906.506	12327
906.623	12201
906.74	12057
906.857	12167
906.974	12152
907.091	12296
907.208	12418
907.324	12311
907.441	12201
907.557	12049
907.674	12022
907.79	11969
907.907	11973
908.023	12057
908.139	12053
908.256	11958
908.372	11927
908.488	11920
908.604	11783
908.72	11718
908.836	11691
908.952	11710
909.068	11714
909.184	11908
909.3	11695
909.415	11851
909.531	11790
909.647	11509
909.762	11577
909.878	11486
909.993	11486
910.108	11566
910.224	11497
910.339	11512
910.454	11436
910.57	11315
910.685	11376
910.8	11608
910.915	11577
911.03	11372
911.145	11193
911.259	11250
911.374	11208
911.489	11166
911.604	11204
911.718	10984
911.833	11025
911.947	10900
912.062	10854
912.176	10961
912.291	11014
912.405	10942
912.519	11147
912.633	11140
912.748	11029
912.862	11056
912.976	10843
913.09	10786
913.204	10843
913.318	10873
913.431	11003
913.545	10991
913.659	10965
913.772	10839
913.886	10797
914	10771
914.113	10782
914.226	10949
914.34	10812
914.453	10599
914.566	10862
914.68	10710
914.793	10641
914.906	10455
915.019	10523
915.132	10451
915.245	10462
915.358	10493
915.47	10508
915.583	10455
915.696	10485
915.809	10687
915.921	10584
916.034	10428
916.146	10436
916.259	10462
916.371	10561
916.483	10535
916.595	10398
916.708	10459
916.82	10432
916.932	10382
917.044	10375
917.156	10379
917.268	10276
917.38	10295
917.491	10272
917.603	10333
917.715	10409
917.826	10409
917.938	10280
918.049	10200
918.161	10421
918.272	10504
918.384	10478
918.495	10348
918.606	10215
918.717	10093
918.828	10276
918.939	10280
919.05	10074
919.161	10257
919.272	10006
919.383	10040
919.494	10253
919.604	10474
919.715	10188
919.826	10158
919.936	10173
920.047	10314
920.157	10181
920.267	10341
920.378	10234
920.488	10173
920.598	10481
920.708	10436
920.818	10379
920.928	10447
921.038	10542
921.148	10535
921.258	10238
921.368	10166
921.477	10048
921.587	10074
921.697	9918
921.806	10086
921.916	9930
922.025	9800
922.134	9747
922.244	9686
922.353	9819
922.462	9660
922.571	9568
922.68	9443
922.789	9439
922.898	9511
923.007	9405
923.116	9496
923.224	9500
923.333	9507
923.442	9408
923.55	9291
923.659	9420
923.767	9412
923.876	9359
923.984	9405
924.092	9332
924.201	9344
924.309	9344
924.417	9283
924.525	9306
924.633	9351
924.741	10188
924.849	9089
924.956	9306
925.064	9135
925.172	9127
925.279	9028
925.387	9169
925.494	9188
925.602	9279
925.709	9157
925.816	9100
925.924	9150
926.031	9207
926.138	9077
926.245	9275
926.352	9077
926.459	9138
926.566	9253
926.673	9055
926.779	8975
926.886	8887
926.993	8941
927.099	8845
927.206	8807
927.312	8800
927.419	8838
927.525	8826
927.631	8853
927.737	8716
927.843	8750
927.95	8651
928.056	8689
928.162	8754
928.267	8792
928.373	9389
928.479	8830
928.585	8644
928.69	8731
928.796	8800
928.901	8659
929.007	8511
929.112	8667
929.218	8610
929.323	8606
929.428	8564
929.533	8686
929.638	8503
929.743	8560
929.848	8518
929.953	8537
930.058	8434
930.163	8301
930.267	8339
930.372	8412
930.477	8298
930.581	8522
930.685	8336
930.79	8305
930.894	8290
930.998	8301
931.103	8381
931.207	8073
931.311	8050
931.415	8024
931.519	7765
931.623	7822
