Data from test_V78500241_1344.txt Node
Date: Fri Mar 25 14:43:04 CST 2022
User: usil
Spectrometer: V785-0024
Trigger mode: 0
Integration Time (sec): 4.000000E-1
Scans to average: 1
Nonlinearity correction enabled: false
Boxcar width: 0
Storing dark spectrum: false
XAxis mode: Wavelengths
Number of Pixels in Spectrum: 1024
>>>>>Begin Spectral Data<<<<<
801.071	22375
801.214	22276
801.356	21994
801.499	21983
801.641	21736
801.783	21827
801.926	21850
802.068	21656
802.211	21686
802.353	21530
802.496	21272
802.638	21283
802.78	21222
802.923	21123
803.065	21051
803.208	21081
803.35	21161
803.492	21192
803.635	21275
803.777	21150
803.919	21104
804.061	21488
804.204	21176
804.346	21100
804.488	20918
804.63	21119
804.773	20929
804.915	21028
805.057	21135
805.199	21062
805.341	21169
805.483	21047
805.626	21055
805.768	20952
805.91	21028
806.052	20910
806.194	20933
806.336	21332
806.478	21135
806.62	20956
806.762	21001
806.904	21203
807.046	21466
807.188	21435
807.33	21336
807.472	21401
807.614	21287
807.756	21351
807.898	21298
808.04	21070
808.182	21154
808.324	21233
808.465	21298
808.607	21496
808.749	21717
808.891	21781
809.033	21732
809.174	21785
809.316	21519
809.458	21549
809.6	21538
809.741	21526
809.883	21504
810.025	21713
810.166	21583
810.308	21603
810.45	21576
810.591	21500
810.733	21363
810.875	21165
811.016	21093
811.158	20982
811.299	21275
811.441	21245
811.582	21268
811.724	21199
811.865	21340
812.007	21173
812.148	21211
812.29	21237
812.431	21336
812.573	21469
812.714	21549
812.855	21568
812.997	21800
813.138	22032
813.279	21838
813.421	21652
813.562	21667
813.703	21492
813.845	21230
813.986	21085
814.127	20887
814.268	20845
814.41	20834
814.551	20674
814.692	20804
814.833	20697
814.974	20682
815.115	20746
815.256	20530
815.397	20708
815.539	20606
815.68	20492
815.821	20374
815.962	20579
816.103	20385
816.244	20259
816.385	20328
816.526	20180
816.666	20111
816.807	20001
816.948	20092
817.089	20054
817.23	19887
817.371	19955
817.512	19906
817.653	19856
817.793	19890
817.934	19947
818.075	19894
818.216	19993
818.356	19860
818.497	19689
818.638	19586
818.778	19597
818.919	19616
819.06	19571
819.2	19662
819.341	19731
819.481	19753
819.622	19898
819.762	20100
819.903	20096
820.043	19898
820.184	19860
820.324	19849
820.465	20084
820.605	19879
820.746	19932
820.886	19723
821.026	19803
821.167	19807
821.307	19837
821.447	19734
821.588	19761
821.728	19605
821.868	19400
822.008	19362
822.149	19320
822.289	19373
822.429	19019
822.569	18977
822.709	18939
822.849	18802
822.99	18833
823.13	18776
823.27	18772
823.41	18528
823.55	18521
823.69	18692
823.83	18597
823.97	18498
824.11	18429
824.25	18437
824.389	18369
824.529	18513
824.669	18365
824.809	18418
824.949	18342
825.089	18429
825.228	18456
825.368	18213
825.508	18285
825.648	18155
825.787	18083
825.927	18197
826.067	18045
826.206	18087
826.346	18125
826.485	18136
826.625	18186
826.765	18262
826.904	18087
827.044	17961
827.183	17923
827.323	17771
827.462	17786
827.601	17866
827.741	17824
827.88	17821
828.02	17649
828.159	17764
828.298	17752
828.437	17977
828.577	17703
828.716	17939
828.855	17695
828.994	17589
829.134	17619
829.273	17661
829.412	17493
829.551	17539
829.69	17573
829.829	17539
829.968	17687
830.107	17649
830.246	17611
830.385	17539
830.524	17455
830.663	17429
830.802	17410
830.941	17223
831.08	17223
831.219	17410
831.357	17307
831.496	17414
831.635	17200
831.774	17170
831.913	17136
832.051	17037
832.19	17041
832.329	16976
832.467	16957
832.606	16938
832.744	16862
832.883	16991
833.022	16953
833.16	16850
833.299	16923
833.437	16908
833.576	16995
833.714	16889
833.852	17060
833.991	16972
834.129	17045
834.267	16927
834.406	16930
834.544	16934
834.682	16972
834.821	16946
834.959	17113
835.097	16786
835.235	17121
835.373	17003
835.511	16953
835.65	16900
835.788	16831
835.926	16748
836.064	16611
836.202	16679
836.34	16915
836.478	16949
836.615	16831
836.753	16911
836.891	16915
837.029	16919
837.167	16771
837.305	16847
837.443	16691
837.58	16778
837.718	16664
837.856	16763
837.993	16668
838.131	16755
838.269	16641
838.406	16603
838.544	16573
838.681	16405
838.819	16443
838.956	16200
839.094	16303
839.231	16424
839.369	16382
839.506	16706
839.643	16512
839.781	16322
839.918	16272
840.055	16314
840.193	16375
840.33	16131
840.467	16284
840.604	16314
840.742	16512
840.879	16032
841.016	16207
841.153	16162
841.29	16436
841.427	16287
841.564	16325
841.701	16310
841.838	16211
841.975	16219
842.112	16177
842.249	16021
842.385	16074
842.522	16177
842.659	16078
842.796	16055
842.933	16154
843.069	15956
843.206	15975
843.343	16082
843.479	15991
843.616	16051
843.752	15949
843.889	15751
844.025	16025
844.162	15728
844.298	15968
844.435	15835
844.571	15835
844.708	15861
844.844	16021
844.98	16082
845.117	16059
845.253	15941
845.389	15625
845.525	15835
845.661	15884
845.798	15827
845.934	15998
846.07	15873
846.206	15994
846.342	15987
846.478	15785
846.614	15511
846.75	15408
846.886	15416
847.022	15511
847.158	15416
847.294	15428
847.429	15401
847.565	15420
847.701	15705
847.837	15169
847.972	15097
848.108	15249
848.244	15306
848.379	15032
848.515	15013
848.65	15013
848.786	15039
848.921	15055
849.057	15108
849.192	15020
849.328	15020
849.463	15043
849.598	15127
849.734	14830
849.869	14773
850.004	14819
850.14	14781
850.275	14743
850.41	14724
850.545	14796
850.68	14625
850.815	14815
850.95	14769
851.085	14902
851.22	14754
851.355	14765
851.49	14697
851.625	14697
851.76	14674
851.895	14598
852.03	14686
852.165	14640
852.299	14724
852.434	14834
852.569	14815
852.703	14758
852.838	14804
852.973	15009
853.107	14944
853.242	14758
853.376	14750
853.511	14568
853.645	14651
853.78	14769
853.914	14590
854.048	14659
854.183	14434
854.317	14705
854.451	14849
854.585	14689
854.72	14530
854.854	14762
854.988	14514
855.122	14667
855.256	14412
855.39	14465
855.524	14701
855.658	14769
855.792	14651
855.926	14590
856.06	14746
856.194	14663
856.327	14655
856.461	14606
856.595	14511
856.729	14663
856.862	14720
856.996	14682
857.13	14708
857.263	14781
857.397	14724
857.53	14750
857.664	14712
857.797	14773
857.931	14773
858.064	14682
858.197	14735
858.331	14606
858.464	14579
858.597	14556
858.731	14469
858.864	14640
858.997	14659
859.13	14682
859.263	14689
859.396	14667
859.529	14636
859.662	14602
859.795	14648
859.928	14678
860.061	14830
860.194	14849
860.327	14708
860.46	14632
860.592	14731
860.725	14735
860.858	14735
860.99	14632
861.123	14625
861.256	14526
861.388	14632
861.521	15344
861.653	14556
861.786	14431
861.918	14427
862.05	14465
862.183	14568
862.315	14629
862.447	14594
862.58	14651
862.712	14408
862.844	14374
862.976	14454
863.108	14511
863.24	14842
863.372	14271
863.504	14370
863.636	14358
863.768	14488
863.9	14389
864.032	14374
864.164	14396
864.296	14404
864.428	14461
864.559	14469
864.691	14461
864.823	14415
864.954	14488
865.086	14374
865.217	14393
865.349	14339
865.48	14347
865.612	14404
865.743	14511
865.875	14381
866.006	14320
866.137	14400
866.269	14393
866.4	14320
866.531	14313
866.662	14290
866.793	14343
866.924	14351
867.055	14484
867.186	14393
867.317	14366
867.448	14343
867.579	14282
867.71	14377
867.841	14278
867.972	14362
868.103	14259
868.233	14324
868.364	14404
868.495	14514
868.625	14514
868.756	14682
868.886	14461
869.017	14644
869.147	14769
869.278	14727
869.408	14636
869.539	14663
869.669	14724
869.799	14670
869.929	14667
870.06	14689
870.19	14956
870.32	14944
870.45	14872
870.58	15165
870.71	15131
870.84	15154
870.97	14971
871.1	14967
871.23	15264
871.36	15211
871.489	15066
871.619	15116
871.749	15256
871.879	15298
872.008	15279
872.138	15226
872.267	15165
872.397	15173
872.526	15070
872.656	15032
872.785	15013
872.915	15256
873.044	15325
873.173	15279
873.303	15367
873.432	15336
873.561	15332
873.69	15260
873.819	15252
873.948	15306
874.077	15222
874.206	15218
874.335	15252
874.464	15420
874.593	15519
874.722	15458
874.851	15557
874.979	15580
875.108	15679
875.237	15481
875.365	15542
875.494	15599
875.623	15705
875.751	15587
875.88	15584
876.008	15671
876.136	15762
876.265	15930
876.393	16230
876.521	16147
876.65	16040
876.778	15964
876.906	16013
877.034	15956
877.162	16017
877.29	15926
877.418	15941
877.546	15934
877.674	16051
877.802	16063
877.93	15979
878.058	15861
878.185	15812
878.313	15934
878.441	16063
878.568	15915
878.696	15945
878.824	15991
878.951	16116
879.079	16223
879.206	16360
879.333	16329
879.461	16112
879.588	16280
879.715	16246
879.842	16382
879.97	16219
880.097	15937
880.224	15831
880.351	15968
880.478	15945
880.605	15808
880.732	15895
880.859	16147
880.986	15911
881.112	15972
881.239	15751
881.366	15682
881.493	15644
881.619	15519
881.746	15606
881.872	15542
881.999	15382
882.125	15485
882.252	15458
882.378	15542
882.505	15728
882.631	15477
882.757	15367
882.883	15367
883.01	15340
883.136	15332
883.262	15138
883.388	15233
883.514	15386
883.64	15389
883.766	15313
883.892	15154
884.018	15173
884.143	15298
884.269	15397
884.395	15188
884.52	14979
884.646	15112
884.772	14990
884.897	14990
885.023	15123
885.148	15077
885.274	15214
885.399	15127
885.524	15036
885.65	15074
885.775	15081
885.9	14971
886.025	15154
886.15	15127
886.275	15043
886.4	14864
886.525	14941
886.65	14990
886.775	14910
886.9	15302
887.025	15195
887.149	14960
887.274	14887
887.399	14845
887.523	14941
887.648	14781
887.773	14712
887.897	14975
888.021	14956
888.146	14746
888.27	15020
888.395	15005
888.519	14861
888.643	14948
888.767	14906
888.891	14758
889.015	14674
889.139	14777
889.263	14727
889.387	14781
889.511	14960
889.635	14857
889.759	14746
889.883	14758
890.006	14845
890.13	14811
890.254	14632
890.377	14640
890.501	14492
890.624	14503
890.748	14590
890.871	14400
890.995	14362
891.118	14298
891.241	14377
891.364	14442
891.488	14545
891.611	14294
891.734	14393
891.857	14461
891.98	14427
892.103	14507
892.226	14419
892.349	14343
892.471	14263
892.594	14313
892.717	14469
892.839	14351
892.962	14313
893.085	14442
893.207	14389
893.33	14286
893.452	14290
893.575	14484
893.697	14336
893.819	14495
893.941	14545
894.064	14526
894.186	14339
894.308	14240
894.43	14461
894.552	14640
894.674	14454
894.796	14396
894.918	14377
895.04	14393
895.161	14564
895.283	14541
895.405	14400
895.526	14583
895.648	14503
895.769	14461
895.891	14571
896.012	14579
896.134	14598
896.255	14480
896.376	14568
896.498	14568
896.619	14579
896.74	14556
896.861	14579
896.982	14887
897.103	15108
897.224	14914
897.345	14769
897.466	14693
897.587	14773
897.708	14918
897.828	14883
897.949	14777
898.07	14667
898.19	14765
898.311	14960
898.431	14842
898.552	14891
898.672	14982
898.792	15039
898.913	14944
899.033	14845
899.153	14762
899.273	14701
899.393	14746
899.513	14655
899.633	14781
899.753	14712
899.873	14819
899.993	14830
900.113	14716
900.232	14895
900.352	14781
900.472	14746
900.591	14488
900.711	14693
900.83	14598
900.95	14720
901.069	14720
901.189	14518
901.308	14351
901.427	14229
901.546	14317
901.665	14336
901.784	14294
901.904	14210
902.023	14073
902.141	13917
902.26	13928
902.379	13970
902.498	13818
902.617	13727
902.735	13902
902.854	13791
902.973	13757
903.091	13575
903.21	13582
903.328	13552
903.446	13449
903.565	13419
903.683	13362
903.801	13301
903.919	13449
904.038	13343
904.156	13217
904.274	13327
904.392	13221
904.51	13156
904.627	13110
904.745	13202
904.863	13217
904.981	13031
905.098	12939
905.216	12970
905.334	12947
905.451	12867
905.569	12844
905.686	12970
905.803	12920
905.921	12722
906.038	12833
906.155	12810
906.272	12597
906.389	12612
906.506	12551
906.623	12471
906.74	12536
906.857	12456
906.974	12319
907.091	12448
907.208	12589
907.324	12570
907.441	12369
907.557	12247
907.674	12186
907.79	12247
907.907	12235
908.023	12205
908.139	12232
908.256	12136
908.372	12136
908.488	12136
908.604	11939
908.72	12034
908.836	11984
908.952	12003
909.068	12011
909.184	12083
909.3	12011
909.415	12068
909.531	11980
909.647	11775
909.762	11771
909.878	11676
909.993	11783
910.108	11726
910.224	11646
910.339	11775
910.454	11649
910.57	11619
910.685	11528
910.8	11870
910.915	11767
911.03	11623
911.145	11528
911.259	11387
911.374	11516
911.489	11398
911.604	11379
911.718	11242
911.833	11273
911.947	11105
912.062	11071
912.176	11159
912.291	11273
912.405	11258
912.519	11474
912.633	11402
912.748	11299
912.862	11201
912.976	11098
913.09	10995
913.204	11071
913.318	11086
913.431	11261
913.545	11170
913.659	11181
913.772	11170
913.886	11079
914	10976
914.113	11052
914.226	11048
914.34	11185
914.453	10896
914.566	11071
914.68	10892
914.793	10965
914.906	10793
915.019	10816
915.132	10630
915.245	10752
915.358	10831
915.47	10725
915.583	10824
915.696	10828
915.809	10892
915.921	10953
916.034	10771
916.146	10710
916.259	10656
916.371	10820
916.483	10809
916.595	10702
916.708	10653
916.82	10637
916.932	10668
917.044	10706
917.156	10611
917.268	10561
917.38	10535
917.491	10573
917.603	10630
917.715	10679
917.826	10668
917.938	10538
918.049	10470
918.161	10569
918.272	10725
918.384	10755
918.495	10634
918.606	10485
918.717	10398
918.828	10417
918.939	10481
919.05	10363
919.161	10398
919.272	10310
919.383	10341
919.494	10474
919.604	10596
919.715	10428
919.826	10417
919.936	10428
920.047	10546
920.157	10474
920.267	10725
920.378	10588
920.488	10478
920.598	10611
920.708	10790
920.818	10584
920.928	10656
921.038	10908
921.148	10740
921.258	10519
921.368	10504
921.477	10299
921.587	10291
921.697	10204
921.806	10322
921.916	10219
922.025	10109
922.134	10029
922.244	10029
922.353	10013
922.462	9869
922.571	9892
922.68	9766
922.789	9671
922.898	9709
923.007	9652
923.116	9774
923.224	9652
923.333	9713
923.442	9515
923.55	9603
923.659	9603
923.767	9606
923.876	9538
923.984	9530
924.092	9530
924.201	9523
924.309	9603
924.417	9538
924.525	9359
924.633	9633
924.741	10409
924.849	9336
924.956	9511
925.064	9256
925.172	9298
925.279	9275
925.387	9382
925.494	9321
925.602	9374
925.709	9458
925.816	9310
925.924	9405
926.031	9443
926.138	9344
926.245	9431
926.352	9222
926.459	9363
926.566	9393
926.673	9272
926.779	9195
926.886	9230
926.993	9093
927.099	9081
927.206	8948
927.312	8998
927.419	9112
927.525	9047
927.631	9089
927.737	9005
927.843	8944
927.95	8872
928.056	8933
928.162	8960
928.267	8998
928.373	9534
928.479	8990
928.585	8910
928.69	8941
928.796	8971
928.901	8899
929.007	8727
929.112	8845
929.218	8754
929.323	8750
929.428	8807
929.533	8883
929.638	8720
929.743	8785
929.848	8762
929.953	8754
930.058	8651
930.163	8568
930.267	8469
930.372	8621
930.477	8499
930.581	8697
930.685	8693
930.79	8442
930.894	8476
930.998	8454
931.103	8533
931.207	8279
931.311	8187
931.415	8103
931.519	7921
931.623	7909
