Data from test_V78500241_3207.txt Node
Date: Fri Mar 25 14:56:02 CST 2022
User: usil
Spectrometer: V785-0024
Trigger mode: 0
Integration Time (sec): 4.000000E-1
Scans to average: 1
Nonlinearity correction enabled: false
Boxcar width: 0
Storing dark spectrum: false
XAxis mode: Wavelengths
Number of Pixels in Spectrum: 1024
>>>>>Begin Spectral Data<<<<<
801.071	22025
801.214	21827
801.356	21633
801.499	21595
801.641	21435
801.783	21317
801.926	21363
802.068	21329
802.211	21355
802.353	21127
802.496	20986
802.638	21028
802.78	20804
802.923	20796
803.065	20724
803.208	20678
803.35	20842
803.492	20826
803.635	20941
803.777	20739
803.919	20754
804.061	21062
804.204	20697
804.346	20667
804.488	20667
804.63	20701
804.773	20621
804.915	20564
805.057	20800
805.199	20530
805.341	20739
805.483	20724
805.626	20674
805.768	20590
805.91	20743
806.052	20735
806.194	20541
806.336	20670
806.478	20522
806.62	20587
806.762	20625
806.904	20712
807.046	21001
807.188	20944
807.33	20975
807.472	21028
807.614	20937
807.756	20823
807.898	20727
808.04	20674
808.182	20617
808.324	20651
808.465	20682
808.607	21047
808.749	21104
808.891	21112
809.033	21165
809.174	20952
809.316	20864
809.458	21039
809.6	20899
809.741	21058
809.883	20967
810.025	21066
810.166	21142
810.308	21150
810.45	21017
810.591	21032
810.733	20819
810.875	20758
811.016	20602
811.158	20667
811.299	20811
811.441	20815
811.582	20849
811.724	20762
811.865	20811
812.007	20739
812.148	20811
812.29	20785
812.431	20788
812.573	21013
812.714	21093
812.855	21207
812.997	21218
813.138	21515
813.279	21408
813.421	21321
813.562	21154
813.703	21013
813.845	21058
813.986	20735
814.127	20495
814.268	20355
814.41	20450
814.551	20412
814.692	20225
814.833	20362
814.974	20244
815.115	20271
815.256	20149
815.397	20164
815.539	20062
815.68	20115
815.821	19997
815.962	19951
816.103	19978
816.244	19909
816.385	19818
816.526	19704
816.666	19487
816.807	19544
816.948	19491
817.089	19647
817.23	19457
817.371	19529
817.512	19270
817.653	19419
817.793	19381
817.934	19537
818.075	19499
818.216	19441
818.356	19362
818.497	19251
818.638	19217
818.778	19129
818.919	19137
819.06	19148
819.2	19259
819.341	19236
819.481	19301
819.622	19358
819.762	19643
819.903	19559
820.043	19377
820.184	19468
820.324	19316
820.465	19502
820.605	19407
820.746	19327
820.886	19381
821.026	19407
821.167	19396
821.307	19460
821.447	19422
821.588	19168
821.728	19046
821.868	19027
822.008	18810
822.149	18772
822.289	18707
822.429	18521
822.569	18464
822.709	18570
822.849	18361
822.99	18311
823.13	18300
823.27	18311
823.41	18174
823.55	17946
823.69	18144
823.83	18152
823.97	17984
824.11	17931
824.25	17828
824.389	17969
824.529	17958
824.669	17863
824.809	18060
824.949	17855
825.089	17931
825.228	17870
825.368	17710
825.508	17665
825.648	17577
825.787	17661
825.927	17771
826.067	17619
826.206	17687
826.346	17684
826.485	17558
826.625	17630
826.765	17729
826.904	17661
827.044	17474
827.183	17463
827.323	17383
827.462	17364
827.601	17417
827.741	17258
827.88	17296
828.02	17220
828.159	17288
828.298	17383
828.437	17387
828.577	17330
828.716	17398
828.855	17254
828.994	17185
829.134	17216
829.273	17143
829.412	17037
829.551	17117
829.69	17094
829.829	17067
829.968	17155
830.107	17117
830.246	17079
830.385	17071
830.524	16980
830.663	16900
830.802	16904
830.941	16790
831.08	16729
831.219	16755
831.357	16736
831.496	16858
831.635	16698
831.774	16675
831.913	16531
832.051	16577
832.19	16615
832.329	16542
832.467	16402
832.606	16470
832.744	16436
832.883	16367
833.022	16352
833.16	16402
833.299	16382
833.437	16379
833.576	16504
833.714	16535
833.852	16592
833.991	16481
834.129	16512
834.267	16489
834.406	16466
834.544	16493
834.682	16527
834.821	16394
834.959	16641
835.097	16432
835.235	16672
835.373	16500
835.511	16550
835.65	16371
835.788	16318
835.926	16265
836.064	16166
836.202	16207
836.34	16402
836.478	16402
836.615	16352
836.753	16421
836.891	16470
837.029	16375
837.167	16337
837.305	16265
837.443	16291
837.58	16181
837.718	16325
837.856	16314
837.993	16093
838.131	16230
838.269	16131
838.406	16181
838.544	16067
838.681	15888
838.819	15854
838.956	15751
839.094	15728
839.231	15812
839.369	15968
839.506	16086
839.643	16036
839.781	15854
839.918	15705
840.055	15793
840.193	15686
840.33	15823
840.467	15797
840.604	15743
840.742	15979
840.879	15603
841.016	15682
841.153	15671
841.29	15956
841.427	15663
841.564	15850
841.701	15739
841.838	15679
841.975	15728
842.112	15618
842.249	15622
842.385	15572
842.522	15804
842.659	15629
842.796	15542
842.933	15576
843.069	15473
843.206	15481
843.343	15656
843.479	15629
843.616	15637
843.752	15344
843.889	15218
844.025	15469
844.162	15363
844.298	15500
844.435	15408
844.571	15283
844.708	15447
844.844	15599
844.98	15473
845.117	15397
845.253	15348
845.389	15237
845.525	15382
845.661	15176
845.798	15169
845.934	15089
846.07	15051
846.206	15211
846.342	15321
846.478	15047
846.614	14967
846.75	14906
846.886	14864
847.022	14948
847.158	14895
847.294	14895
847.429	15013
847.565	14864
847.701	15169
847.837	14640
847.972	14602
848.108	14705
848.244	14735
848.379	14636
848.515	14545
848.65	14571
848.786	14537
848.921	14568
849.057	14636
849.192	14636
849.328	14522
849.463	14541
849.598	14431
849.734	14415
849.869	14381
850.004	14362
850.14	14385
850.275	14233
850.41	14168
850.545	14221
850.68	14248
850.815	14252
850.95	14183
851.085	14427
851.22	14408
851.355	14286
851.49	14111
851.625	14324
851.76	14183
851.895	14252
852.03	14172
852.165	14282
852.299	14328
852.434	14385
852.569	14244
852.703	14328
852.838	14351
852.973	14377
853.107	14434
853.242	14191
853.376	14221
853.511	13989
853.645	14092
853.78	14336
853.914	14202
854.048	14161
854.183	14115
854.317	14275
854.451	14202
854.585	14088
854.72	14081
854.854	14244
854.988	13993
855.122	14096
855.256	14031
855.39	14111
855.524	14248
855.658	14358
855.792	14138
855.926	14221
856.06	14195
856.194	14313
856.327	14168
856.461	14065
856.595	14088
856.729	14172
856.862	14275
856.996	14199
857.13	14202
857.263	14233
857.397	14351
857.53	14168
857.664	14248
857.797	14301
857.931	14225
858.064	14286
858.197	14263
858.331	14218
858.464	14119
858.597	14138
858.731	14088
858.864	14119
858.997	14225
859.13	14126
859.263	14229
859.396	14278
859.529	14134
859.662	14111
859.795	14073
859.928	14191
860.061	14317
860.194	14438
860.327	14248
860.46	14237
860.592	14275
860.725	14267
860.858	14199
860.99	14168
861.123	14100
861.256	14130
861.388	14240
861.521	14807
861.653	14035
861.786	13955
861.918	14088
862.05	14081
862.183	14039
862.315	14073
862.447	14233
862.58	14119
862.712	13970
862.844	13860
862.976	14100
863.108	14058
863.24	14400
863.372	13864
863.504	13875
863.636	13955
863.768	14016
863.9	13997
864.032	13860
864.164	13845
864.296	13982
864.428	14081
864.559	14073
864.691	14027
864.823	14008
864.954	13978
865.086	13993
865.217	13921
865.349	13852
865.48	13936
865.612	13967
865.743	14081
865.875	13944
866.006	13986
866.137	13898
866.269	13932
866.4	13959
866.531	13883
866.662	13833
866.793	13887
866.924	13868
867.055	13947
867.186	13974
867.317	13852
867.448	13776
867.579	13837
867.71	13925
867.841	13860
867.972	13887
868.103	13913
868.233	13921
868.364	13913
868.495	14065
868.625	14210
868.756	14324
868.886	14008
869.017	14138
869.147	14324
869.278	14263
869.408	14202
869.539	14149
869.669	14275
869.799	14233
869.929	14305
870.06	14324
870.19	14530
870.32	14469
870.45	14541
870.58	14610
870.71	14705
870.84	14667
870.97	14556
871.1	14522
871.23	14815
871.36	14697
871.489	14606
871.619	14727
871.749	14724
871.879	14876
872.008	14880
872.138	14746
872.267	14731
872.397	14655
872.526	14621
872.656	14541
872.785	14716
872.915	14887
873.044	14887
873.173	14842
873.303	14918
873.432	14891
873.561	14929
873.69	14826
873.819	14872
873.948	15017
874.077	14861
874.206	14804
874.335	14925
874.464	14982
874.593	15135
874.722	15070
874.851	15211
874.979	15062
875.108	15154
875.237	15017
875.365	15036
875.494	15135
875.623	15173
875.751	15173
875.88	15112
876.008	15367
876.136	15420
876.265	15576
876.393	15637
876.521	15568
876.65	15656
876.778	15618
876.906	15519
877.034	15530
877.162	15485
877.29	15504
877.418	15500
877.546	15466
877.674	15568
877.802	15622
877.93	15656
878.058	15515
878.185	15412
878.313	15561
878.441	15561
878.568	15412
878.696	15557
878.824	15572
878.951	15610
879.079	15698
879.206	15823
879.333	15690
879.461	15625
879.588	15720
879.715	15785
879.842	15800
879.97	15580
880.097	15389
880.224	15447
880.351	15450
880.478	15553
880.605	15374
880.732	15340
880.859	15606
880.986	15401
881.112	15393
881.239	15424
881.366	15180
881.493	15127
881.619	15062
881.746	15009
881.872	14960
881.999	15043
882.125	14937
882.252	15070
882.378	15104
882.505	15222
882.631	15051
882.757	14765
882.883	14948
883.01	14823
883.136	14800
883.262	14720
883.388	14667
883.514	14929
883.64	14918
883.766	14853
883.892	14648
884.018	14705
884.143	14830
884.269	14948
884.395	14781
884.52	14610
884.646	14541
884.772	14473
884.897	14571
885.023	14537
885.148	14648
885.274	14667
885.399	14697
885.524	14610
885.65	14568
885.775	14712
885.9	14549
886.025	14663
886.15	14689
886.275	14552
886.4	14514
886.525	14533
886.65	14636
886.775	14568
886.9	14720
887.025	14872
887.149	14651
887.274	14465
887.399	14301
887.523	14492
887.648	14370
887.773	14408
887.897	14625
888.021	14499
888.146	14370
888.27	14575
888.395	14533
888.519	14412
888.643	14480
888.767	14450
888.891	14381
889.015	14263
889.139	14442
889.263	14271
889.387	14362
889.511	14571
889.635	14446
889.759	14225
889.883	14225
890.006	14362
890.13	14457
890.254	14221
890.377	14161
890.501	14016
890.624	14062
890.748	14180
890.871	13909
890.995	13944
891.118	13951
891.241	13970
891.364	14008
891.488	14134
891.611	14043
891.734	13989
891.857	14100
891.98	13993
892.103	14088
892.226	14096
892.349	13963
892.471	13860
892.594	13955
892.717	14012
892.839	13978
892.962	13993
893.085	14119
893.207	13993
893.33	13841
893.452	13890
893.575	14012
893.697	13978
893.819	14168
893.941	14176
894.064	14263
894.186	14012
894.308	14024
894.43	14199
894.552	14149
894.674	14069
894.796	13993
894.918	14054
895.04	14046
895.161	14103
895.283	14263
895.405	14092
895.526	14164
895.648	14180
895.769	14126
895.891	14214
896.012	14252
896.134	14240
896.255	14145
896.376	14058
896.498	14088
896.619	14202
896.74	14248
896.861	14202
896.982	14469
897.103	14663
897.224	14408
897.345	14393
897.466	14438
897.587	14533
897.708	14476
897.828	14583
897.949	14423
898.07	14290
898.19	14415
898.311	14560
898.431	14499
898.552	14549
898.672	14606
898.792	14606
898.913	14575
899.033	14442
899.153	14454
899.273	14320
899.393	14355
899.513	14438
899.633	14450
899.753	14454
899.873	14298
899.993	14434
900.113	14415
900.232	14385
900.352	14431
900.472	14252
900.591	14240
900.711	14248
900.83	14210
900.95	14389
901.069	14282
901.189	14225
901.308	13955
901.427	13898
901.546	13868
901.665	13989
901.784	14001
901.904	13811
902.023	13769
902.141	13499
902.26	13468
902.379	13586
902.498	13491
902.617	13476
902.735	13495
902.854	13495
902.973	13457
903.091	13232
903.21	13126
903.328	13232
903.446	13095
903.565	13149
903.683	13038
903.801	12935
903.919	13053
904.038	13023
904.156	12833
904.274	13038
904.392	12829
904.51	12886
904.627	12897
904.745	12920
904.863	12977
904.981	12646
905.098	12570
905.216	12585
905.334	12604
905.451	12650
905.569	12483
905.686	12627
905.803	12445
905.921	12391
906.038	12456
906.155	12414
906.272	12323
906.389	12350
906.506	12205
906.623	12186
906.74	12083
906.857	12083
906.974	12072
907.091	12251
907.208	12254
907.324	12232
907.441	12083
907.557	12030
907.674	11901
907.79	11832
907.907	11916
908.023	11893
908.139	11980
908.256	11832
908.372	11863
908.488	11691
908.604	11668
908.72	11623
908.836	11646
908.952	11726
909.068	11653
909.184	11691
909.3	11653
909.415	11771
909.531	11676
909.647	11406
909.762	11410
909.878	11387
909.993	11512
910.108	11406
910.224	11440
910.339	11391
910.454	11322
910.57	11277
910.685	11239
910.8	11497
910.915	11444
911.03	11315
911.145	11227
911.259	11170
911.374	11136
911.489	11067
911.604	10995
911.718	10927
911.833	10972
911.947	10725
912.062	10839
912.176	10862
912.291	10927
912.405	10968
912.519	11109
912.633	11136
912.748	10961
912.862	10919
912.976	10763
913.09	10706
913.204	10626
913.318	10805
913.431	10965
913.545	10854
913.659	10957
913.772	10847
913.886	10664
914	10596
914.113	10786
914.226	10805
914.34	10767
914.453	10615
914.566	10721
914.68	10626
914.793	10599
914.906	10424
915.019	10352
915.132	10325
915.245	10394
915.358	10462
915.47	10462
915.583	10489
915.696	10512
915.809	10527
915.921	10565
916.034	10379
916.146	10371
916.259	10440
916.371	10478
916.483	10497
916.595	10337
916.708	10402
916.82	10337
916.932	10329
917.044	10375
917.156	10280
917.268	10169
917.38	10272
917.491	10276
917.603	10268
917.715	10337
917.826	10352
917.938	10204
918.049	10128
918.161	10215
918.272	10371
918.384	10382
918.495	10405
918.606	10173
918.717	10105
918.828	10162
918.939	10154
919.05	10013
919.161	10150
919.272	9953
919.383	10059
919.494	10143
919.604	10402
919.715	10097
919.826	10025
919.936	10097
920.047	10242
920.157	10154
920.267	10325
920.378	10162
920.488	10143
920.598	10341
920.708	10466
920.818	10390
920.928	10382
921.038	10607
921.148	10489
921.258	10223
921.368	10158
921.477	9998
921.587	9994
921.697	9876
921.806	10006
921.916	9892
922.025	9759
922.134	9789
922.244	9698
922.353	9751
922.462	9606
922.571	9507
922.68	9412
922.789	9412
922.898	9458
923.007	9317
923.116	9477
923.224	9389
923.333	9370
923.442	9310
923.55	9214
923.659	9321
923.767	9351
923.876	9283
923.984	9340
924.092	9192
924.201	9275
924.309	9336
924.417	9302
924.525	9253
924.633	9150
924.741	10112
924.849	9024
924.956	9192
925.064	9100
925.172	8895
925.279	8982
925.387	9058
925.494	9032
925.602	9188
925.709	9127
925.816	8994
925.924	9116
926.031	9173
926.138	9089
926.245	9123
926.352	8975
926.459	9184
926.566	9176
926.673	9001
926.779	8967
926.886	8921
926.993	8773
927.099	8811
927.206	8712
927.312	8693
927.419	8868
927.525	8735
927.631	8796
927.737	8735
927.843	8705
927.95	8549
928.056	8659
928.162	8663
928.267	8739
928.373	9287
928.479	8785
928.585	8522
928.69	8610
928.796	8686
928.901	8602
929.007	8457
929.112	8556
929.218	8507
929.323	8549
929.428	8522
929.533	8617
929.638	8396
929.743	8518
929.848	8526
929.953	8473
930.058	8400
930.163	8305
930.267	8305
930.372	8431
930.477	8313
930.581	8469
930.685	8343
930.79	8206
930.894	8218
930.998	8199
931.103	8309
931.207	7967
931.311	7978
931.415	7967
931.519	7746
931.623	7670
