Data from test_V78500241_3529.txt Node
Date: Fri Mar 25 14:58:17 CST 2022
User: usil
Spectrometer: V785-0024
Trigger mode: 0
Integration Time (sec): 4.000000E-1
Scans to average: 1
Nonlinearity correction enabled: false
Boxcar width: 0
Storing dark spectrum: false
XAxis mode: Wavelengths
Number of Pixels in Spectrum: 1024
>>>>>Begin Spectral Data<<<<<
801.071	21915
801.214	21778
801.356	21629
801.499	21340
801.641	21264
801.783	21211
801.926	21310
802.068	21233
802.211	21154
802.353	21077
802.496	20979
802.638	20739
802.78	20750
802.923	20724
803.065	20575
803.208	20587
803.35	20674
803.492	20830
803.635	20705
803.777	20708
803.919	20720
804.061	20937
804.204	20750
804.346	20518
804.488	20404
804.63	20575
804.773	20412
804.915	20507
805.057	20655
805.199	20499
805.341	20552
805.483	20621
805.626	20552
805.768	20415
805.91	20469
806.052	20488
806.194	20484
806.336	20568
806.478	20450
806.62	20465
806.762	20609
806.904	20758
807.046	20967
807.188	20834
807.33	20853
807.472	20883
807.614	20731
807.756	20872
807.898	20667
808.04	20503
808.182	20499
808.324	20613
808.465	20670
808.607	20777
808.749	20880
808.891	20921
809.033	21024
809.174	20800
809.316	20868
809.458	20819
809.6	20777
809.741	20925
809.883	20872
810.025	20982
810.166	21112
810.308	20967
810.45	20830
810.591	20937
810.733	20792
810.875	20602
811.016	20590
811.158	20469
811.299	20693
811.441	20773
811.582	20682
811.724	20674
811.865	20541
812.007	20617
812.148	20549
812.29	20598
812.431	20899
812.573	21009
812.714	20998
812.855	21131
812.997	21218
813.138	21424
813.279	21233
813.421	21135
813.562	21131
813.703	20826
813.845	20800
813.986	20396
814.127	20336
814.268	20244
814.41	20210
814.551	20183
814.692	20176
814.833	20107
814.974	20145
815.115	20157
815.256	19989
815.397	19909
815.539	20062
815.68	19940
815.821	19811
815.962	19864
816.103	19902
816.244	19647
816.385	19643
816.526	19499
816.666	19483
816.807	19297
816.948	19381
817.089	19365
817.23	19331
817.371	19289
817.512	19331
817.653	19285
817.793	19198
817.934	19289
818.075	19339
818.216	19202
818.356	19266
818.497	19031
818.638	19012
818.778	19004
818.919	18977
819.06	18954
819.2	19042
819.341	19217
819.481	19084
819.622	19312
819.762	19582
819.903	19441
820.043	19293
820.184	19232
820.324	19285
820.465	19362
820.605	19339
820.746	19206
820.886	18993
821.026	19179
821.167	19247
821.307	19369
821.447	19236
821.588	19008
821.728	18966
821.868	18970
822.008	18745
822.149	18798
822.289	18677
822.429	18346
822.569	18426
822.709	18388
822.849	18254
822.99	18216
823.13	18098
823.27	18140
823.41	18060
823.55	17969
823.69	18030
823.83	18049
823.97	17840
824.11	17680
824.25	17798
824.389	17805
824.529	17783
824.669	17843
824.809	17836
824.949	17805
825.089	17828
825.228	17779
825.368	17547
825.508	17543
825.648	17608
825.787	17611
825.927	17581
826.067	17474
826.206	17497
826.346	17520
826.485	17577
826.625	17478
826.765	17600
826.904	17615
827.044	17280
827.183	17261
827.323	17189
827.462	17311
827.601	17220
827.741	17174
827.88	17231
828.02	17094
828.159	17337
828.298	17239
828.437	17315
828.577	17166
828.716	17273
828.855	17254
828.994	16984
829.134	17025
829.273	16942
829.412	16972
829.551	16862
829.69	16889
829.829	16972
829.968	17060
830.107	17159
830.246	17045
830.385	17018
830.524	16877
830.663	16801
830.802	16687
830.941	16637
831.08	16615
831.219	16599
831.357	16611
831.496	16729
831.635	16554
831.774	16485
831.913	16451
832.051	16561
832.19	16428
832.329	16375
832.467	16363
832.606	16352
832.744	16272
832.883	16344
833.022	16386
833.16	16310
833.299	16333
833.437	16306
833.576	16413
833.714	16341
833.852	16344
833.991	16402
834.129	16466
834.267	16474
834.406	16447
834.544	16455
834.682	16386
834.821	16325
834.959	16508
835.097	16310
835.235	16504
835.373	16428
835.511	16500
835.65	16265
835.788	16310
835.926	16158
836.064	16032
836.202	16139
836.34	16261
836.478	16360
836.615	16329
836.753	16440
836.891	16344
837.029	16314
837.167	16272
837.305	16226
837.443	16238
837.58	16147
837.718	16322
837.856	16200
837.993	16166
838.131	16147
838.269	16173
838.406	16101
838.544	15979
838.681	15781
838.819	16040
838.956	15682
839.094	15736
839.231	15789
839.369	15842
839.506	16055
839.643	15903
839.781	15747
839.918	15614
840.055	15736
840.193	15614
840.33	15648
840.467	15732
840.604	15671
840.742	15964
840.879	15542
841.016	15694
841.153	15595
841.29	15808
841.427	15713
841.564	15728
841.701	15781
841.838	15709
841.975	15641
842.112	15618
842.249	15496
842.385	15496
842.522	15622
842.659	15545
842.796	15568
842.933	15515
843.069	15534
843.206	15485
843.343	15610
843.479	15530
843.616	15435
843.752	15279
843.889	15241
844.025	15473
844.162	15249
844.298	15348
844.435	15226
844.571	15321
844.708	15348
844.844	15393
844.98	15477
845.117	15386
845.253	15264
845.389	15154
845.525	15199
845.661	15211
845.798	15119
845.934	15142
846.07	15077
846.206	15123
846.342	15180
846.478	15138
846.614	15051
846.75	14826
846.886	14815
847.022	14815
847.158	14838
847.294	14872
847.429	14929
847.565	14895
847.701	15005
847.837	14701
847.972	14625
848.108	14727
848.244	14724
848.379	14537
848.515	14404
848.65	14427
848.786	14454
848.921	14492
849.057	14629
849.192	14522
849.328	14423
849.463	14393
849.598	14442
849.734	14381
849.869	14362
850.004	14252
850.14	14214
850.275	14248
850.41	14168
850.545	14202
850.68	14317
850.815	14210
850.95	14282
851.085	14374
851.22	14328
851.355	14229
851.49	14237
851.625	14275
851.76	14214
851.895	14130
852.03	14050
852.165	14191
852.299	14278
852.434	14324
852.569	14298
852.703	14202
852.838	14290
852.973	14313
853.107	14465
853.242	14229
853.376	14096
853.511	13978
853.645	14005
853.78	14225
853.914	14096
854.048	14111
854.183	14180
854.317	14062
854.451	14320
854.585	14001
854.72	14096
854.854	14225
854.988	14077
855.122	14043
855.256	13970
855.39	14096
855.524	14202
855.658	14092
855.792	14218
855.926	14142
856.06	14081
856.194	14233
856.327	14092
856.461	14069
856.595	14073
856.729	14073
856.862	14183
856.996	14077
857.13	14240
857.263	14256
857.397	14172
857.53	14058
857.664	14054
857.797	14111
857.931	14229
858.064	14187
858.197	14142
858.331	14100
858.464	13986
858.597	14020
858.731	14149
858.864	14206
858.997	14145
859.13	14138
859.263	14092
859.396	14183
859.529	14107
859.662	14187
859.795	14107
859.928	14164
860.061	14267
860.194	14294
860.327	14130
860.46	14168
860.592	14134
860.725	14145
860.858	14214
860.99	14100
861.123	14046
861.256	14069
861.388	14145
861.521	14880
861.653	13974
861.786	13898
861.918	13944
862.05	14024
862.183	14073
862.315	14088
862.447	14058
862.58	14020
862.712	13940
862.844	13860
862.976	13925
863.108	13959
863.24	14328
863.372	13830
863.504	13803
863.636	13982
863.768	13856
863.9	13818
864.032	13803
864.164	13940
864.296	13936
864.428	14054
864.559	14065
864.691	14092
864.823	13940
864.954	13921
865.086	13772
865.217	13868
865.349	13784
865.48	13890
865.612	13883
865.743	14016
865.875	13883
866.006	13830
866.137	13906
866.269	13818
866.4	13917
866.531	13784
866.662	13791
866.793	13890
866.924	13799
867.055	14008
867.186	13906
867.317	13807
867.448	13864
867.579	13879
867.71	13811
867.841	13894
867.972	13868
868.103	13822
868.233	13811
868.364	13860
868.495	14012
868.625	14096
868.756	14180
868.886	13974
869.017	14138
869.147	14244
869.278	14328
869.408	14168
869.539	14145
869.669	14134
869.799	14225
869.929	14240
870.06	14187
870.19	14476
870.32	14381
870.45	14564
870.58	14533
870.71	14689
870.84	14621
870.97	14442
871.1	14518
871.23	14651
871.36	14735
871.489	14610
871.619	14693
871.749	14800
871.879	14739
872.008	14838
872.138	14796
872.267	14708
872.397	14571
872.526	14526
872.656	14571
872.785	14670
872.915	14781
873.044	14834
873.173	14743
873.303	14807
873.432	14872
873.561	14906
873.69	14785
873.819	14781
873.948	14800
874.077	14849
874.206	14804
874.335	14868
874.464	14914
874.593	15207
874.722	15085
874.851	15116
874.979	15195
875.108	15203
875.237	15188
875.365	15097
875.494	15097
875.623	15169
875.751	15093
875.88	15142
876.008	15203
876.136	15302
876.265	15549
876.393	15648
876.521	15580
876.65	15587
876.778	15557
876.906	15519
877.034	15408
877.162	15420
877.29	15416
877.418	15435
877.546	15542
877.674	15534
877.802	15424
877.93	15485
878.058	15511
878.185	15336
878.313	15481
878.441	15507
878.568	15382
878.696	15420
878.824	15496
878.951	15648
879.079	15732
879.206	15778
879.333	15667
879.461	15610
879.588	15603
879.715	15694
879.842	15709
879.97	15511
880.097	15401
880.224	15367
880.351	15416
880.478	15386
880.605	15340
880.732	15340
880.859	15507
880.986	15367
881.112	15488
881.239	15287
881.366	15214
881.493	15051
881.619	14982
881.746	15077
881.872	15066
881.999	15051
882.125	14902
882.252	15104
882.378	15108
882.505	15169
882.631	14971
882.757	14800
882.883	14921
883.01	14861
883.136	14773
883.262	14777
883.388	14606
883.514	14891
883.64	14842
883.766	14754
883.892	14632
884.018	14651
884.143	14929
884.269	14952
884.395	14716
884.52	14461
884.646	14507
884.772	14446
884.897	14381
885.023	14579
885.148	14602
885.274	14670
885.399	14697
885.524	14511
885.65	14587
885.775	14484
885.9	14552
886.025	14781
886.15	14686
886.275	14495
886.4	14507
886.525	14545
886.65	14469
886.775	14495
886.9	14686
887.025	14777
887.149	14484
887.274	14320
887.399	14347
887.523	14389
887.648	14199
887.773	14206
887.897	14518
888.021	14370
888.146	14282
888.27	14533
888.395	14568
888.519	14560
888.643	14465
888.767	14385
888.891	14313
889.015	14259
889.139	14225
889.263	14206
889.387	14301
889.511	14530
889.635	14336
889.759	14237
889.883	14153
890.006	14290
890.13	14393
890.254	14168
890.377	14202
890.501	14027
890.624	14039
890.748	14126
890.871	13993
890.995	13913
891.118	13959
891.241	13951
891.364	13932
891.488	14069
891.611	13940
891.734	14012
891.857	13997
891.98	14035
892.103	14134
892.226	13970
892.349	13947
892.471	13746
892.594	14054
892.717	14039
892.839	13940
892.962	13993
893.085	14107
893.207	13955
893.33	13860
893.452	13887
893.575	14065
893.697	13898
893.819	14107
893.941	14195
894.064	14134
894.186	13925
894.308	13875
894.43	14115
894.552	14259
894.674	14027
894.796	13936
894.918	13947
895.04	13959
895.161	14142
895.283	14145
895.405	13902
895.526	14039
895.648	14149
895.769	14100
895.891	14069
896.012	14199
896.134	14195
896.255	14123
896.376	14134
896.498	14050
896.619	14202
896.74	14100
896.861	14233
896.982	14518
897.103	14663
897.224	14374
897.345	14389
897.466	14271
897.587	14412
897.708	14522
897.828	14461
897.949	14366
898.07	14259
898.19	14488
898.311	14503
898.431	14415
898.552	14564
898.672	14594
898.792	14629
898.913	14526
899.033	14427
899.153	14240
899.273	14168
899.393	14305
899.513	14355
899.633	14362
899.753	14339
899.873	14332
899.993	14362
900.113	14339
900.232	14393
900.352	14237
900.472	14328
900.591	14294
900.711	14221
900.83	14111
900.95	14271
901.069	14282
901.189	14202
901.308	13871
901.427	13967
901.546	13913
901.665	13925
901.784	13871
901.904	13719
902.023	13734
902.141	13457
902.26	13419
902.379	13567
902.498	13419
902.617	13392
902.735	13639
902.854	13525
902.973	13324
903.091	13206
903.21	13118
903.328	13194
903.446	13156
903.565	12977
903.683	13042
903.801	12939
903.919	13012
904.038	12981
904.156	12833
904.274	12954
904.392	12852
904.51	12821
904.627	12897
904.745	12954
904.863	12852
904.981	12715
905.098	12563
905.216	12574
905.334	12578
905.451	12566
905.569	12544
905.686	12582
905.803	12566
905.921	12426
906.038	12471
906.155	12422
906.272	12258
906.389	12251
906.506	12186
906.623	12079
906.74	12106
906.857	11958
906.974	12057
907.091	12175
907.208	12224
907.324	12216
907.441	12064
907.557	11996
907.674	11870
907.79	11790
907.907	11764
908.023	11958
908.139	11870
908.256	11843
908.372	11756
908.488	11684
908.604	11638
908.72	11676
908.836	11638
908.952	11524
909.068	11676
909.184	11840
909.3	11703
909.415	11726
909.531	11638
909.647	11512
909.762	11452
909.878	11410
909.993	11463
910.108	11417
910.224	11376
910.339	11474
910.454	11391
910.57	11315
910.685	11193
910.8	11528
910.915	11417
911.03	11296
911.145	11193
911.259	11143
911.374	11147
911.489	11052
911.604	10946
911.718	10847
911.833	10869
911.947	10797
912.062	10733
912.176	10843
912.291	10877
912.405	10885
912.519	11079
912.633	11124
912.748	10934
912.862	10858
912.976	10774
913.09	10656
913.204	10687
913.318	10869
913.431	10847
913.545	10927
913.659	10797
913.772	10771
913.886	10694
914	10573
914.113	10805
914.226	10767
914.34	10649
914.453	10550
914.566	10717
914.68	10573
914.793	10580
914.906	10504
915.019	10348
915.132	10322
915.245	10325
915.358	10371
915.47	10413
915.583	10405
915.696	10413
915.809	10550
915.921	10462
916.034	10386
916.146	10371
916.259	10379
916.371	10413
916.483	10360
916.595	10337
916.708	10352
916.82	10284
916.932	10360
917.044	10280
917.156	10276
917.268	10215
917.38	10295
917.491	10158
917.603	10257
917.715	10325
917.826	10287
917.938	10265
918.049	10082
918.161	10200
918.272	10363
918.384	10436
918.495	10272
918.606	10093
918.717	10002
918.828	10101
918.939	10116
919.05	9998
919.161	10185
919.272	9911
919.383	9926
919.494	10211
919.604	10337
919.715	10143
919.826	10055
919.936	10097
920.047	10215
920.157	10097
920.267	10318
920.378	10120
920.488	10067
920.598	10386
920.708	10386
920.818	10356
920.928	10280
921.038	10432
921.148	10398
921.258	10223
921.368	10036
921.477	9991
921.587	9949
921.697	9835
921.806	10090
921.916	9819
922.025	9713
922.134	9743
922.244	9595
922.353	9724
922.462	9633
922.571	9587
922.68	9401
922.789	9344
922.898	9363
923.007	9397
923.116	9481
923.224	9416
923.333	9321
923.442	9230
923.55	9237
923.659	9275
923.767	9298
923.876	9199
923.984	9355
924.092	9150
924.201	9317
924.309	9214
924.417	9222
924.525	9173
924.633	9081
924.741	9937
924.849	9055
924.956	9135
925.064	9058
925.172	8975
925.279	8990
925.387	9131
925.494	9047
925.602	9218
925.709	9173
925.816	8925
925.924	8963
926.031	9214
926.138	9066
926.245	9157
926.352	9013
926.459	9112
926.566	9154
926.673	9001
926.779	9005
926.886	8937
926.993	8811
927.099	8785
927.206	8746
927.312	8689
927.419	8872
927.525	8762
927.631	8849
927.737	8720
927.843	8602
927.95	8575
928.056	8594
928.162	8648
928.267	8640
928.373	9272
928.479	8773
928.585	8511
928.69	8606
928.796	8678
928.901	8568
929.007	8541
929.112	8564
929.218	8530
929.323	8484
929.428	8438
929.533	8640
929.638	8438
929.743	8446
929.848	8583
929.953	8438
930.058	8438
930.163	8240
930.267	8290
930.372	8492
930.477	8229
930.581	8473
930.685	8305
930.79	8130
930.894	8244
930.998	8183
931.103	8320
931.207	7959
931.311	7967
931.415	7871
931.519	7719
931.623	7746
