Data from test_V78500241_1343.txt Node
Date: Fri Mar 25 14:43:04 CST 2022
User: usil
Spectrometer: V785-0024
Trigger mode: 0
Integration Time (sec): 4.000000E-1
Scans to average: 1
Nonlinearity correction enabled: false
Boxcar width: 0
Storing dark spectrum: false
XAxis mode: Wavelengths
Number of Pixels in Spectrum: 1024
>>>>>Begin Spectral Data<<<<<
801.071	22344
801.214	22261
801.356	22112
801.499	21991
801.641	21842
801.783	21759
801.926	21789
802.068	21861
802.211	21644
802.353	21561
802.496	21291
802.638	21252
802.78	21344
802.923	21195
803.065	21131
803.208	21077
803.35	21096
803.492	21173
803.635	21226
803.777	21150
803.919	21169
804.061	21538
804.204	21237
804.346	21036
804.488	21051
804.63	21017
804.773	20944
804.915	21138
805.057	21142
805.199	21138
805.341	21180
805.483	21264
805.626	21085
805.768	21017
805.91	21039
806.052	21028
806.194	20956
806.336	21173
806.478	21047
806.62	20921
806.762	21051
806.904	21146
807.046	21500
807.188	21374
807.33	21488
807.472	21534
807.614	21367
807.756	21507
807.898	21298
808.04	21119
808.182	21241
808.324	21298
808.465	21279
808.607	21591
808.749	21622
808.891	21770
809.033	21838
809.174	21671
809.316	21599
809.458	21682
809.6	21534
809.741	21583
809.883	21534
810.025	21679
810.166	21633
810.308	21622
810.45	21633
810.591	21454
810.733	21454
810.875	21256
811.016	21252
811.158	21119
811.299	21329
811.441	21348
811.582	21454
811.724	21272
811.865	21260
812.007	21218
812.148	21325
812.29	21214
812.431	21500
812.573	21591
812.714	21682
812.855	21762
812.997	21888
813.138	21819
813.279	21880
813.421	21694
813.562	21751
813.703	21420
813.845	21348
813.986	21154
814.127	20918
814.268	20769
814.41	20785
814.551	20731
814.692	20811
814.833	20834
814.974	20807
815.115	20705
815.256	20526
815.397	20518
815.539	20583
815.68	20594
815.821	20606
815.962	20480
816.103	20579
816.244	20374
816.385	20374
816.526	20176
816.666	20088
816.807	19807
816.948	20069
817.089	20111
817.23	20020
817.371	19894
817.512	19871
817.653	19932
817.793	19997
817.934	19932
818.075	19909
818.216	19936
818.356	19883
818.497	19662
818.638	19533
818.778	19601
818.919	19666
819.06	19685
819.2	19746
819.341	19875
819.481	19803
819.622	19917
819.762	20111
819.903	20031
820.043	20001
820.184	19982
820.324	19951
820.465	20031
820.605	20016
820.746	19894
820.886	19780
821.026	19784
821.167	19788
821.307	19951
821.447	19856
821.588	19845
821.728	19563
821.868	19480
822.008	19381
822.149	19297
822.289	19278
822.429	18951
822.569	18985
822.709	18966
822.849	18935
822.99	18867
823.13	18768
823.27	18787
823.41	18658
823.55	18494
823.69	18661
823.83	18703
823.97	18483
824.11	18346
824.25	18384
824.389	18433
824.529	18498
824.669	18357
824.809	18506
824.949	18460
825.089	18399
825.228	18448
825.368	18205
825.508	18262
825.648	18285
825.787	18296
825.927	18216
826.067	18254
826.206	18133
826.346	18106
826.485	18190
826.625	18228
826.765	18266
826.904	18129
827.044	17786
827.183	17908
827.323	17824
827.462	17984
827.601	17859
827.741	17760
827.88	17836
828.02	17764
828.159	17748
828.298	17874
828.437	17847
828.577	17824
828.716	18026
828.855	17775
828.994	17619
829.134	17680
829.273	17672
829.412	17585
829.551	17539
829.69	17638
829.829	17718
829.968	17703
830.107	17611
830.246	17547
830.385	17554
830.524	17520
830.663	17406
830.802	17398
830.941	17265
831.08	17223
831.219	17341
831.357	17311
831.496	17391
831.635	17292
831.774	17197
831.913	17117
832.051	17025
832.19	17018
832.329	17105
832.467	16915
832.606	16965
832.744	16995
832.883	16862
833.022	16812
833.16	16930
833.299	16938
833.437	16961
833.576	16927
833.714	17006
833.852	17037
833.991	17064
834.129	17048
834.267	17052
834.406	16938
834.544	17045
834.682	16953
834.821	16961
834.959	17029
835.097	16976
835.235	17140
835.373	17006
835.511	16968
835.65	16881
835.788	16850
835.926	16767
836.064	16702
836.202	16675
836.34	16919
836.478	16923
836.615	16919
836.753	16881
836.891	16908
837.029	16873
837.167	16938
837.305	16839
837.443	16752
837.58	16611
837.718	16904
837.856	16786
837.993	16713
838.131	16805
838.269	16630
838.406	16668
838.544	16580
838.681	16527
838.819	16474
838.956	16337
839.094	16352
839.231	16314
839.369	16421
839.506	16603
839.643	16489
839.781	16284
839.918	16242
840.055	16417
840.193	16249
840.33	16192
840.467	16375
840.604	16310
840.742	16573
840.879	16154
841.016	16131
841.153	16181
841.29	16382
841.427	16276
841.564	16246
841.701	16314
841.838	16188
841.975	16234
842.112	16040
842.249	16154
842.385	16120
842.522	16219
842.659	16112
842.796	16063
842.933	16025
843.069	16036
843.206	16013
843.343	16143
843.479	15960
843.616	16074
843.752	15770
843.889	15861
844.025	16032
844.162	15808
844.298	15994
844.435	15918
844.571	15835
844.708	15857
844.844	16040
844.98	15930
845.117	15934
845.253	15770
845.389	15785
845.525	15895
845.661	15941
845.798	15831
845.934	15949
846.07	15876
846.206	16048
846.342	16093
846.478	15827
846.614	15629
846.75	15492
846.886	15530
847.022	15568
847.158	15412
847.294	15523
847.429	15515
847.565	15378
847.701	15587
847.837	15180
847.972	15165
848.108	15260
848.244	15245
848.379	15074
848.515	15009
848.65	15024
848.786	14990
848.921	14975
849.057	15093
849.192	15074
849.328	15062
849.463	14906
849.598	15013
849.734	14944
849.869	14853
850.004	14804
850.14	14773
850.275	14708
850.41	14682
850.545	14815
850.68	14701
850.815	14792
850.95	14754
851.085	14910
851.22	14845
851.355	14815
851.49	14762
851.625	14792
851.76	14788
851.895	14648
852.03	14610
852.165	14785
852.299	14823
852.434	14895
852.569	14845
852.703	14826
852.838	14804
852.973	14937
853.107	14891
853.242	14796
853.376	14720
853.511	14480
853.645	14678
853.78	14811
853.914	14678
854.048	14724
854.183	14659
854.317	14743
854.451	14788
854.585	14667
854.72	14686
854.854	14724
854.988	14568
855.122	14495
855.256	14488
855.39	14648
855.524	14792
855.658	14712
855.792	14606
855.926	14663
856.06	14674
856.194	14792
856.327	14743
856.461	14598
856.595	14651
856.729	14606
856.862	14716
856.996	14663
857.13	14765
857.263	14819
857.397	14724
857.53	14533
857.664	14629
857.797	14701
857.931	14750
858.064	14720
858.197	14769
858.331	14663
858.464	14613
858.597	14514
858.731	14579
858.864	14598
858.997	14556
859.13	14693
859.263	14701
859.396	14682
859.529	14575
859.662	14537
859.795	14560
859.928	14651
860.061	14739
860.194	14796
860.327	14560
860.46	14659
860.592	14727
860.725	14804
860.858	14834
860.99	14602
861.123	14590
861.256	14568
861.388	14655
861.521	15439
861.653	14526
861.786	14377
861.918	14530
862.05	14575
862.183	14575
862.315	14731
862.447	14655
862.58	14575
862.712	14438
862.844	14507
862.976	14457
863.108	14503
863.24	14845
863.372	14317
863.504	14370
863.636	14412
863.768	14431
863.9	14473
864.032	14362
864.164	14313
864.296	14385
864.428	14438
864.559	14568
864.691	14469
864.823	14526
864.954	14434
865.086	14476
865.217	14347
865.349	14309
865.48	14385
865.612	14434
865.743	14442
865.875	14469
866.006	14370
866.137	14408
866.269	14377
866.4	14347
866.531	14469
866.662	14275
866.793	14339
866.924	14313
867.055	14301
867.186	14324
867.317	14317
867.448	14298
867.579	14366
867.71	14244
867.841	14377
867.972	14339
868.103	14389
868.233	14423
868.364	14427
868.495	14476
868.625	14670
868.756	14735
868.886	14602
869.017	14674
869.147	14735
869.278	14689
869.408	14648
869.539	14644
869.669	14796
869.799	14754
869.929	14758
870.06	14849
870.19	15017
870.32	14948
870.45	14975
870.58	14975
870.71	15112
870.84	15135
870.97	15032
871.1	14933
871.23	15211
871.36	15230
871.489	15119
871.619	15306
871.749	15272
871.879	15306
872.008	15336
872.138	15192
872.267	15214
872.397	15169
872.526	14944
872.656	15032
872.785	15074
872.915	15310
873.044	15401
873.173	15294
873.303	15325
873.432	15405
873.561	15241
873.69	15306
873.819	15275
873.948	15408
874.077	15313
874.206	15291
874.335	15283
874.464	15462
874.593	15526
874.722	15408
874.851	15595
874.979	15576
875.108	15701
875.237	15644
875.365	15462
875.494	15652
875.623	15838
875.751	15572
875.88	15633
876.008	15739
876.136	15895
876.265	16029
876.393	16036
876.521	16124
876.65	16067
876.778	15972
876.906	15975
877.034	15937
877.162	15964
877.29	15941
877.418	16029
877.546	16067
877.674	16029
877.802	15987
877.93	16074
878.058	15895
878.185	15804
878.313	16029
878.441	15972
878.568	15892
878.696	15949
878.824	16010
878.951	16173
879.079	16238
879.206	16382
879.333	16375
879.461	16135
879.588	16219
879.715	16211
879.842	16538
879.97	16162
880.097	15975
880.224	15949
880.351	15975
880.478	15926
880.605	15949
880.732	15880
880.859	16055
880.986	15873
881.112	15888
881.239	15804
881.366	15644
881.493	15530
881.619	15557
881.746	15648
881.872	15599
881.999	15462
882.125	15564
882.252	15591
882.378	15504
882.505	15625
882.631	15374
882.757	15370
882.883	15344
883.01	15386
883.136	15222
883.262	15218
883.388	15279
883.514	15447
883.64	15428
883.766	15283
883.892	15165
884.018	15138
884.143	15428
884.269	15435
884.395	15085
884.52	14975
884.646	15028
884.772	14971
884.897	15024
885.023	15055
885.148	15127
885.274	15283
885.399	15123
885.524	15055
885.65	15017
885.775	15032
885.9	15028
886.025	15237
886.15	15112
886.275	15032
886.4	14823
886.525	15047
886.65	15039
886.775	14960
886.9	15116
887.025	15260
887.149	15055
887.274	15005
887.399	14834
887.523	14872
887.648	14815
887.773	14754
887.897	14960
888.021	14918
888.146	14765
888.27	14906
888.395	14979
888.519	14880
888.643	14941
888.767	14910
888.891	14777
889.015	14689
889.139	14644
889.263	14716
889.387	14804
889.511	14956
889.635	14773
889.759	14762
889.883	14716
890.006	14754
890.13	14788
890.254	14727
890.377	14663
890.501	14495
890.624	14545
890.748	14629
890.871	14473
890.995	14389
891.118	14294
891.241	14404
891.364	14400
891.488	14583
891.611	14457
891.734	14431
891.857	14495
891.98	14442
892.103	14484
892.226	14480
892.349	14415
892.471	14263
892.594	14423
892.717	14484
892.839	14320
892.962	14377
893.085	14431
893.207	14461
893.33	14298
893.452	14332
893.575	14450
893.697	14389
893.819	14579
893.941	14644
894.064	14613
894.186	14374
894.308	14415
894.43	14484
894.552	14598
894.674	14545
894.796	14271
894.918	14480
895.04	14404
895.161	14514
895.283	14541
895.405	14408
895.526	14560
895.648	14484
895.769	14556
895.891	14590
896.012	14651
896.134	14613
896.255	14545
896.376	14571
896.498	14537
896.619	14560
896.74	14537
896.861	14629
896.982	14899
897.103	15070
897.224	14830
897.345	14796
897.466	14746
897.587	14807
897.708	14941
897.828	14918
897.949	14701
898.07	14735
898.19	14811
898.311	14971
898.431	14876
898.552	14880
898.672	15005
898.792	14967
898.913	14925
899.033	14887
899.153	14724
899.273	14644
899.393	14785
899.513	14739
899.633	14682
899.753	14826
899.873	14712
899.993	14807
900.113	14746
900.232	14773
900.352	14788
900.472	14651
900.591	14625
900.711	14682
900.83	14541
900.95	14746
901.069	14708
901.189	14541
901.308	14370
901.427	14347
901.546	14275
901.665	14313
901.784	14317
901.904	14153
902.023	14031
902.141	13978
902.26	13898
902.379	14016
902.498	13799
902.617	13913
902.735	13833
902.854	13776
902.973	13830
903.091	13567
903.21	13506
903.328	13571
903.446	13483
903.565	13480
903.683	13445
903.801	13377
903.919	13445
904.038	13358
904.156	13244
904.274	13297
904.392	13278
904.51	13122
904.627	13206
904.745	13217
904.863	13240
904.981	13069
905.098	12859
905.216	12943
905.334	12920
905.451	12943
905.569	12814
905.686	13004
905.803	12875
905.921	12783
906.038	12795
906.155	12745
906.272	12662
906.389	12654
906.506	12509
906.623	12540
906.74	12551
906.857	12445
906.974	12399
907.091	12635
907.208	12589
907.324	12547
907.441	12429
907.557	12292
907.674	12228
907.79	12224
907.907	12213
908.023	12270
908.139	12262
908.256	12148
908.372	12106
908.488	12155
908.604	12053
908.72	12015
908.836	12091
908.952	11946
909.068	11988
909.184	12117
909.3	12076
909.415	12068
909.531	12045
909.647	11729
909.762	11809
909.878	11733
909.993	11836
910.108	11764
910.224	11733
910.339	11767
910.454	11672
910.57	11619
910.685	11535
910.8	11851
910.915	11771
911.03	11699
911.145	11478
911.259	11414
911.374	11505
911.489	11436
911.604	11364
911.718	11277
911.833	11250
911.947	11094
912.062	11121
912.176	11292
912.291	11174
912.405	11273
912.519	11395
912.633	11448
912.748	11280
912.862	11261
912.976	11166
913.09	10965
913.204	11056
913.318	11136
913.431	11170
913.545	11159
913.659	11223
913.772	11094
913.886	10968
914	10934
914.113	11113
914.226	11060
914.34	11079
914.453	10889
914.566	11022
914.68	10923
914.793	10995
914.906	10797
915.019	10611
915.132	10618
915.245	10687
915.358	10748
915.47	10717
915.583	10691
915.696	10774
915.809	10911
915.921	10862
916.034	10733
916.146	10630
916.259	10630
916.371	10755
916.483	10763
916.595	10577
916.708	10588
916.82	10656
916.932	10592
917.044	10607
917.156	10592
917.268	10443
917.38	10634
917.491	10527
917.603	10558
917.715	10622
917.826	10630
917.938	10466
918.049	10466
918.161	10523
918.272	10660
918.384	10721
918.495	10580
918.606	10466
918.717	10348
918.828	10394
918.939	10413
919.05	10230
919.161	10379
919.272	10265
919.383	10284
919.494	10481
919.604	10611
919.715	10451
919.826	10291
919.936	10405
920.047	10577
920.157	10398
920.267	10691
920.378	10409
920.488	10459
920.598	10645
920.708	10854
920.818	10664
920.928	10660
921.038	10725
921.148	10752
921.258	10538
921.368	10409
921.477	10295
921.587	10227
921.697	10150
921.806	10306
921.916	10238
922.025	10025
922.134	9953
922.244	9945
922.353	9994
922.462	9907
922.571	9736
922.68	9713
922.789	9591
922.898	9682
923.007	9679
923.116	9652
923.224	9606
923.333	9622
923.442	9523
923.55	9618
923.659	9530
923.767	9545
923.876	9542
923.984	9633
924.092	9363
924.201	9515
924.309	9485
924.417	9526
924.525	9408
924.633	9504
924.741	10424
924.849	9275
924.956	9447
925.064	9253
925.172	9237
925.279	9310
925.387	9321
925.494	9340
925.602	9450
925.709	9389
925.816	9321
925.924	9313
926.031	9420
926.138	9264
926.245	9291
926.352	9291
926.459	9405
926.566	9443
926.673	9332
926.779	9093
926.886	9135
926.993	9017
927.099	9062
927.206	8971
927.312	8941
927.419	9032
927.525	9058
927.631	9058
927.737	8933
927.843	8864
927.95	8800
928.056	8811
928.162	8883
928.267	8975
928.373	9561
928.479	9001
928.585	8739
928.69	8906
928.796	8887
928.901	8796
929.007	8670
929.112	8804
929.218	8781
929.323	8678
929.428	8667
929.533	8864
929.638	8689
929.743	8640
929.848	8727
929.953	8697
930.058	8670
930.163	8457
930.267	8499
930.372	8659
930.477	8419
930.581	8743
930.685	8514
930.79	8465
930.894	8473
930.998	8408
931.103	8552
931.207	8233
931.311	8115
931.415	8134
931.519	7955
931.623	7974
