Data from test_V78500241_1257.txt Node
Date: Fri Mar 25 14:42:28 CST 2022
User: usil
Spectrometer: V785-0024
Trigger mode: 0
Integration Time (sec): 4.000000E-1
Scans to average: 1
Nonlinearity correction enabled: false
Boxcar width: 0
Storing dark spectrum: false
XAxis mode: Wavelengths
Number of Pixels in Spectrum: 1024
>>>>>Begin Spectral Data<<<<<
801.071	22569
801.214	22375
801.356	22010
801.499	22002
801.641	21831
801.783	21766
801.926	21827
802.068	21694
802.211	21492
802.353	21523
802.496	21336
802.638	21348
802.78	21207
802.923	21131
803.065	20998
803.208	21036
803.35	21047
803.492	21161
803.635	21192
803.777	21009
803.919	21089
804.061	21534
804.204	21146
804.346	21020
804.488	20925
804.63	21036
804.773	20925
804.915	21096
805.057	21230
805.199	21001
805.341	21154
805.483	21195
805.626	21077
805.768	20933
805.91	21017
806.052	20979
806.194	21013
806.336	21150
806.478	20994
806.62	20925
806.762	20925
806.904	21203
807.046	21431
807.188	21382
807.33	21287
807.472	21355
807.614	21230
807.756	21408
807.898	21192
808.04	21020
808.182	21127
808.324	21237
808.465	21268
808.607	21329
808.749	21466
808.891	21496
809.033	21690
809.174	21557
809.316	21561
809.458	21416
809.6	21454
809.741	21515
809.883	21625
810.025	21523
810.166	21641
810.308	21629
810.45	21564
810.591	21393
810.733	21294
810.875	21298
811.016	21047
811.158	21169
811.299	21233
811.441	21233
811.582	21458
811.724	21062
811.865	21154
812.007	21222
812.148	21180
812.29	21287
812.431	21306
812.573	21561
812.714	21564
812.855	21686
812.997	21705
813.138	21884
813.279	21892
813.421	21625
813.562	21622
813.703	21488
813.845	21287
813.986	21074
814.127	20899
814.268	20872
814.41	20807
814.551	20868
814.692	20830
814.833	20716
814.974	20693
815.115	20667
815.256	20594
815.397	20651
815.539	20602
815.68	20552
815.821	20446
815.962	20488
816.103	20495
816.244	20385
816.385	20206
816.526	20206
816.666	20008
816.807	19898
816.948	19997
817.089	19997
817.23	19879
817.371	19951
817.512	19887
817.653	19875
817.793	19791
817.934	19811
818.075	19902
818.216	20035
818.356	19898
818.497	19696
818.638	19613
818.778	19540
818.919	19571
819.06	19487
819.2	19693
819.341	19769
819.481	19753
819.622	19875
819.762	20176
819.903	20126
820.043	19913
820.184	19944
820.324	19864
820.465	19883
820.605	19856
820.746	19871
820.886	19727
821.026	19765
821.167	19940
821.307	19852
821.447	19780
821.588	19731
821.728	19590
821.868	19472
822.008	19358
822.149	19282
822.289	19110
822.429	18996
822.569	18977
822.709	18894
822.849	18802
822.99	18878
823.13	18730
823.27	18760
823.41	18669
823.55	18608
823.69	18627
823.83	18608
823.97	18452
824.11	18365
824.25	18456
824.389	18315
824.529	18403
824.669	18407
824.809	18563
824.949	18448
825.089	18502
825.228	18338
825.368	18258
825.508	18247
825.648	18045
825.787	18182
825.927	18205
826.067	18011
826.206	18110
826.346	18136
826.485	18190
826.625	18148
826.765	18243
826.904	18308
827.044	17893
827.183	17931
827.323	17855
827.462	17874
827.601	17783
827.741	17809
827.88	17733
828.02	17760
828.159	17988
828.298	17779
828.437	17923
828.577	17821
828.716	18034
828.855	17832
828.994	17649
829.134	17596
829.273	17642
829.412	17535
829.551	17623
829.69	17474
829.829	17619
829.968	17691
830.107	17638
830.246	17672
830.385	17520
830.524	17463
830.663	17471
830.802	17239
830.941	17273
831.08	17132
831.219	17315
831.357	17303
831.496	17505
831.635	17265
831.774	17071
831.913	17136
832.051	16999
832.19	17014
832.329	17075
832.467	17056
832.606	16881
832.744	16961
832.883	16984
833.022	17037
833.16	16984
833.299	16904
833.437	17003
833.576	16984
833.714	16957
833.852	17037
833.991	17090
834.129	17102
834.267	17041
834.406	16980
834.544	17014
834.682	17033
834.821	16908
834.959	17178
835.097	16927
835.235	17143
835.373	16915
835.511	16961
835.65	16904
835.788	16885
835.926	16843
836.064	16729
836.202	16771
836.34	16896
836.478	17014
836.615	16885
836.753	16953
836.891	17071
837.029	16938
837.167	16877
837.305	16942
837.443	16801
837.58	16729
837.718	16885
837.856	16805
837.993	16744
838.131	16831
838.269	16790
838.406	16805
838.544	16687
838.681	16508
838.819	16535
838.956	16325
839.094	16287
839.231	16344
839.369	16478
839.506	16725
839.643	16531
839.781	16333
839.918	16261
840.055	16329
840.193	16352
840.33	16325
840.467	16363
840.604	16405
840.742	16698
840.879	16249
841.016	16185
841.153	16238
841.29	16436
841.427	16314
841.564	16344
841.701	16287
841.838	16432
841.975	16169
842.112	16242
842.249	16177
842.385	16044
842.522	16325
842.659	16105
842.796	16116
842.933	16105
843.069	15991
843.206	16067
843.343	16261
843.479	16101
843.616	16246
843.752	15987
843.889	15979
844.025	15991
844.162	15838
844.298	15930
844.435	15949
844.571	15861
844.708	15994
844.844	16032
844.98	16074
845.117	16051
845.253	15941
845.389	15869
845.525	15888
845.661	15873
845.798	15739
845.934	15907
846.07	15884
846.206	15941
846.342	16010
846.478	15766
846.614	15679
846.75	15500
846.886	15507
847.022	15538
847.158	15439
847.294	15378
847.429	15576
847.565	15454
847.701	15739
847.837	15287
847.972	15192
848.108	15332
848.244	15359
848.379	15085
848.515	14994
848.65	15055
848.786	15119
848.921	15116
849.057	15070
849.192	15131
849.328	15142
849.463	15074
849.598	15127
849.734	14975
849.869	14918
850.004	14845
850.14	14887
850.275	14925
850.41	14811
850.545	14842
850.68	14823
850.815	14807
850.95	14754
851.085	14998
851.22	14895
851.355	14906
851.49	14758
851.625	14762
851.76	14735
851.895	14701
852.03	14648
852.165	14773
852.299	14842
852.434	14849
852.569	14899
852.703	14914
852.838	14902
852.973	14994
853.107	14933
853.242	14887
853.376	14758
853.511	14587
853.645	14610
853.78	14876
853.914	14678
854.048	14670
854.183	14629
854.317	14693
854.451	14845
854.585	14648
854.72	14720
854.854	14739
854.988	14587
855.122	14655
855.256	14511
855.39	14720
855.524	14826
855.658	14712
855.792	14712
855.926	14845
856.06	14823
856.194	14773
856.327	14769
856.461	14568
856.595	14629
856.729	14716
856.862	14807
856.996	14796
857.13	14815
857.263	14804
857.397	14845
857.53	14724
857.664	14743
857.797	14754
857.931	14777
858.064	14663
858.197	14853
858.331	14625
858.464	14720
858.597	14602
858.731	14613
858.864	14625
858.997	14651
859.13	14754
859.263	14663
859.396	14762
859.529	14606
859.662	14560
859.795	14800
859.928	14804
860.061	14781
860.194	14914
860.327	14705
860.46	14758
860.592	14872
860.725	14861
860.858	14773
860.99	14785
861.123	14606
861.256	14549
861.388	14724
861.521	15374
861.653	14636
861.786	14511
861.918	14579
862.05	14610
862.183	14689
862.315	14640
862.447	14777
862.58	14670
862.712	14427
862.844	14336
862.976	14503
863.108	14511
863.24	14910
863.372	14343
863.504	14571
863.636	14476
863.768	14511
863.9	14347
864.032	14408
864.164	14484
864.296	14583
864.428	14526
864.559	14552
864.691	14613
864.823	14518
864.954	14499
865.086	14533
865.217	14366
865.349	14328
865.48	14400
865.612	14473
865.743	14590
865.875	14377
866.006	14431
866.137	14431
866.269	14374
866.4	14396
866.531	14400
866.662	14317
866.793	14370
866.924	14499
867.055	14473
867.186	14438
867.317	14431
867.448	14415
867.579	14423
867.71	14320
867.841	14286
867.972	14465
868.103	14457
868.233	14332
868.364	14495
868.495	14488
868.625	14678
868.756	14807
868.886	14659
869.017	14632
869.147	14849
869.278	14838
869.408	14670
869.539	14670
869.669	14781
869.799	14716
869.929	14746
870.06	14746
870.19	14994
870.32	14998
870.45	15047
870.58	15116
870.71	15184
870.84	15176
870.97	15127
871.1	14998
871.23	15344
871.36	15302
871.489	15142
871.619	15165
871.749	15329
871.879	15249
872.008	15397
872.138	15249
872.267	15192
872.397	15184
872.526	15070
872.656	15058
872.785	15154
872.915	15302
873.044	15462
873.173	15283
873.303	15416
873.432	15393
873.561	15473
873.69	15363
873.819	15306
873.948	15473
874.077	15351
874.206	15306
874.335	15302
874.464	15439
874.593	15606
874.722	15572
874.851	15717
874.979	15576
875.108	15717
875.237	15633
875.365	15580
875.494	15652
875.623	15644
875.751	15603
875.88	15671
876.008	15816
876.136	15888
876.265	16078
876.393	16306
876.521	16131
876.65	16131
876.778	16124
876.906	16021
877.034	15911
877.162	16067
877.29	15956
877.418	15998
877.546	16192
877.674	16067
877.802	16010
877.93	16029
878.058	16029
878.185	15892
878.313	15987
878.441	15998
878.568	15895
878.696	15987
878.824	16086
878.951	16109
879.079	16329
879.206	16341
879.333	16344
879.461	16207
879.588	16226
879.715	16382
879.842	16363
879.97	16169
880.097	15903
880.224	15934
880.351	15964
880.478	15835
880.605	15838
880.732	15937
880.859	16105
880.986	15960
881.112	15953
881.239	15838
881.366	15648
881.493	15675
881.619	15591
881.746	15641
881.872	15576
881.999	15538
882.125	15488
882.252	15591
882.378	15576
882.505	15675
882.631	15477
882.757	15348
882.883	15443
883.01	15405
883.136	15374
883.262	15214
883.388	15173
883.514	15359
883.64	15382
883.766	15393
883.892	15195
884.018	15291
884.143	15344
884.269	15488
884.395	15074
884.52	14986
884.646	15077
884.772	14986
884.897	14975
885.023	15104
885.148	15142
885.274	15260
885.399	15112
885.524	14990
885.65	15074
885.775	15058
885.9	15001
886.025	15237
886.15	15104
886.275	15043
886.4	15005
886.525	14982
886.65	15024
886.775	15100
886.9	15226
887.025	15256
887.149	15089
887.274	14895
887.399	14815
887.523	14918
887.648	14785
887.773	14804
887.897	15017
888.021	14967
888.146	14861
888.27	15051
888.395	15013
888.519	14975
888.643	14864
888.767	14933
888.891	14800
889.015	14762
889.139	14842
889.263	14724
889.387	14830
889.511	14910
889.635	14902
889.759	14731
889.883	14785
890.006	14686
890.13	14921
890.254	14735
890.377	14663
890.501	14587
890.624	14530
890.748	14667
890.871	14587
890.995	14480
891.118	14427
891.241	14499
891.364	14431
891.488	14564
891.611	14434
891.734	14442
891.857	14503
891.98	14469
892.103	14613
892.226	14446
892.349	14450
892.471	14267
892.594	14404
892.717	14442
892.839	14400
892.962	14484
893.085	14514
893.207	14473
893.33	14237
893.452	14404
893.575	14533
893.697	14381
893.819	14571
893.941	14583
894.064	14552
894.186	14415
894.308	14385
894.43	14526
894.552	14670
894.674	14590
894.796	14358
894.918	14408
895.04	14499
895.161	14579
895.283	14526
895.405	14488
895.526	14587
895.648	14514
895.769	14648
895.891	14629
896.012	14682
896.134	14674
896.255	14648
896.376	14518
896.498	14552
896.619	14613
896.74	14625
896.861	14701
896.982	14944
897.103	15039
897.224	14982
897.345	14861
897.466	14750
897.587	14960
897.708	15039
897.828	14876
897.949	14880
898.07	14731
898.19	14838
898.311	15024
898.431	14891
898.552	14838
898.672	14960
898.792	14952
898.913	14921
899.033	14918
899.153	14819
899.273	14682
899.393	14800
899.513	14788
899.633	14735
899.753	14845
899.873	14697
899.993	14765
900.113	14663
900.232	14823
900.352	14739
900.472	14686
900.591	14598
900.711	14739
900.83	14575
900.95	14716
901.069	14796
901.189	14579
901.308	14434
901.427	14195
901.546	14256
901.665	14313
901.784	14301
901.904	14225
902.023	14069
902.141	13982
902.26	13917
902.379	13913
902.498	13875
902.617	13887
902.735	13898
902.854	13887
902.973	13822
903.091	13597
903.21	13548
903.328	13578
903.446	13476
903.565	13438
903.683	13487
903.801	13358
903.919	13362
904.038	13403
904.156	13255
904.274	13381
904.392	13263
904.51	13263
904.627	13228
904.745	13263
904.863	13285
904.981	13042
905.098	12970
905.216	12909
905.334	12947
905.451	12973
905.569	12897
905.686	13015
905.803	12871
905.921	12730
906.038	12859
906.155	12859
906.272	12654
906.389	12673
906.506	12509
906.623	12639
906.74	12559
906.857	12422
906.974	12471
907.091	12635
907.208	12612
907.324	12627
907.441	12532
907.557	12338
907.674	12342
907.79	12243
907.907	12235
908.023	12407
908.139	12365
908.256	12277
908.372	12201
908.488	12182
908.604	12091
908.72	11988
908.836	12060
908.952	12041
909.068	12087
909.184	12213
909.3	12068
909.415	12064
909.531	12106
909.647	11946
909.762	11863
909.878	11790
909.993	11764
910.108	11733
910.224	11805
910.339	11790
910.454	11722
910.57	11649
910.685	11608
910.8	11870
910.915	11840
911.03	11661
911.145	11566
911.259	11497
911.374	11486
911.489	11516
911.604	11376
911.718	11227
911.833	11284
911.947	11151
912.062	11208
912.176	11296
912.291	11398
912.405	11284
912.519	11482
912.633	11478
912.748	11376
912.862	11235
912.976	11155
913.09	10999
913.204	11208
913.318	11136
913.431	11151
913.545	11254
913.659	11246
913.772	11166
913.886	11060
914	11006
914.113	11143
914.226	11098
914.34	11132
914.453	10908
914.566	11197
914.68	10991
914.793	10991
914.906	10801
915.019	10672
915.132	10649
915.245	10736
915.358	10812
915.47	10675
915.583	10816
915.696	10911
915.809	10915
915.921	10915
916.034	10653
916.146	10729
916.259	10672
916.371	10881
916.483	10740
916.595	10664
916.708	10748
916.82	10691
916.932	10729
917.044	10641
917.156	10653
917.268	10508
917.38	10622
917.491	10546
917.603	10596
917.715	10683
917.826	10675
917.938	10607
918.049	10516
918.161	10637
918.272	10725
918.384	10725
918.495	10538
918.606	10424
918.717	10352
918.828	10421
918.939	10489
919.05	10409
919.161	10424
919.272	10257
919.383	10333
919.494	10504
919.604	10687
919.715	10512
919.826	10417
919.936	10436
920.047	10512
920.157	10493
920.267	10702
920.378	10573
920.488	10462
920.598	10714
920.708	10801
920.818	10725
920.928	10634
921.038	10748
921.148	10774
921.258	10519
921.368	10375
921.477	10356
921.587	10238
921.697	10246
921.806	10306
921.916	10166
922.025	10040
922.134	10093
922.244	9968
922.353	10021
922.462	9880
922.571	9899
922.68	9728
922.789	9656
922.898	9690
923.007	9717
923.116	9732
923.224	9755
923.333	9660
923.442	9538
923.55	9545
923.659	9572
923.767	9648
923.876	9625
923.984	9705
924.092	9488
924.201	9561
924.309	9591
924.417	9644
924.525	9610
924.633	9523
924.741	10272
924.849	9367
924.956	9469
925.064	9370
925.172	9302
925.279	9397
925.387	9401
925.494	9329
925.602	9496
925.709	9420
925.816	9245
925.924	9370
926.031	9416
926.138	9386
926.245	9405
926.352	9272
926.459	9439
926.566	9481
926.673	9279
926.779	9192
926.886	9222
926.993	9066
927.099	9036
927.206	9047
927.312	9043
927.419	9108
927.525	9135
927.631	9192
927.737	9024
927.843	8937
927.95	8792
928.056	8921
928.162	9024
928.267	8998
928.373	9648
928.479	9097
928.585	8792
928.69	8929
928.796	9039
928.901	8853
929.007	8739
929.112	8883
929.218	8807
929.323	8796
929.428	8766
929.533	8876
929.638	8686
929.743	8773
929.848	8796
929.953	8743
930.058	8636
930.163	8530
930.267	8533
930.372	8621
930.477	8457
930.581	8773
930.685	8651
930.79	8454
930.894	8465
930.998	8495
931.103	8564
931.207	8214
931.311	8176
931.415	8214
931.519	7944
931.623	7936
