Data from test_V78500241_1586.txt Node
Date: Fri Mar 25 14:44:45 CST 2022
User: usil
Spectrometer: V785-0024
Trigger mode: 0
Integration Time (sec): 4.000000E-1
Scans to average: 1
Nonlinearity correction enabled: false
Boxcar width: 0
Storing dark spectrum: false
XAxis mode: Wavelengths
Number of Pixels in Spectrum: 1024
>>>>>Begin Spectral Data<<<<<
801.071	22402
801.214	22131
801.356	22067
801.499	21827
801.641	21614
801.783	21618
801.926	21812
802.068	21705
802.211	21568
802.353	21583
802.496	21325
802.638	21367
802.78	21291
802.923	21116
803.065	20906
803.208	21047
803.35	21058
803.492	21070
803.635	21222
803.777	20967
803.919	21184
804.061	21507
804.204	21127
804.346	20986
804.488	21013
804.63	20960
804.773	20838
804.915	21055
805.057	21017
805.199	21039
805.341	21047
805.483	21108
805.626	21058
805.768	21055
805.91	20910
806.052	21039
806.194	20899
806.336	21157
806.478	20994
806.62	20933
806.762	21058
806.904	21123
807.046	21393
807.188	21348
807.33	21408
807.472	21454
807.614	21294
807.756	21279
807.898	21108
808.04	21131
808.182	21104
808.324	21211
808.465	21252
808.607	21450
808.749	21488
808.891	21606
809.033	21606
809.174	21610
809.316	21340
809.458	21591
809.6	21393
809.741	21431
809.883	21473
810.025	21633
810.166	21599
810.308	21553
810.45	21538
810.591	21416
810.733	21340
810.875	21222
811.016	21131
811.158	21013
811.299	21363
811.441	21344
811.582	21131
811.724	21173
811.865	21005
812.007	21039
812.148	21116
812.29	21161
812.431	21336
812.573	21564
812.714	21519
812.855	21587
812.997	21831
813.138	21941
813.279	21819
813.421	21690
813.562	21595
813.703	21462
813.845	21363
813.986	21051
814.127	20826
814.268	20754
814.41	20944
814.551	20632
814.692	20781
814.833	20556
814.974	20739
815.115	20663
815.256	20469
815.397	20541
815.539	20549
815.68	20423
815.821	20408
815.962	20396
816.103	20438
816.244	20324
816.385	20290
816.526	20294
816.666	19970
816.807	19833
816.948	20043
817.089	20008
817.23	19871
817.371	19845
817.512	19830
817.653	19761
817.793	19712
817.934	19860
818.075	19852
818.216	19849
818.356	19837
818.497	19540
818.638	19616
818.778	19495
818.919	19563
819.06	19506
819.2	19719
819.341	19731
819.481	19750
819.622	19856
819.762	20035
819.903	20050
820.043	19879
820.184	19845
820.324	19856
820.465	19788
820.605	19765
820.746	19685
820.886	19757
821.026	19898
821.167	19769
821.307	19769
821.447	19723
821.588	19704
821.728	19643
821.868	19388
822.008	19335
822.149	19209
822.289	19225
822.429	18878
822.569	18859
822.709	18916
822.849	18829
822.99	18741
823.13	18631
823.27	18646
823.41	18627
823.55	18433
823.69	18616
823.83	18464
823.97	18448
824.11	18327
824.25	18247
824.389	18270
824.529	18418
824.669	18395
824.809	18334
824.949	18262
825.089	18350
825.228	18376
825.368	18007
825.508	18087
825.648	18125
825.787	18125
825.927	18197
826.067	18186
826.206	17916
826.346	18140
826.485	18076
826.625	18034
826.765	18102
826.904	18053
827.044	17847
827.183	17764
827.323	17710
827.462	17813
827.601	17767
827.741	17653
827.88	17813
828.02	17649
828.159	17729
828.298	17695
828.437	17832
828.577	17699
828.716	17859
828.855	17653
828.994	17558
829.134	17459
829.273	17509
829.412	17406
829.551	17524
829.69	17433
829.829	17493
829.968	17608
830.107	17554
830.246	17543
830.385	17440
830.524	17440
830.663	17258
830.802	17193
830.941	17216
831.08	17083
831.219	17216
831.357	17162
831.496	17284
831.635	17136
831.774	17041
831.913	17010
832.051	16942
832.19	16816
832.329	16885
832.467	16854
832.606	16744
832.744	16790
832.883	16839
833.022	16752
833.16	16801
833.299	16812
833.437	16812
833.576	16900
833.714	16812
833.852	16771
833.991	16892
834.129	16908
834.267	16869
834.406	16908
834.544	16934
834.682	16892
834.821	16786
834.959	16957
835.097	16683
835.235	17025
835.373	16862
835.511	16858
835.65	16824
835.788	16740
835.926	16626
836.064	16508
836.202	16516
836.34	16805
836.478	16869
836.615	16687
836.753	16752
836.891	16778
837.029	16828
837.167	16656
837.305	16573
837.443	16584
837.58	16607
837.718	16687
837.856	16668
837.993	16516
838.131	16607
838.269	16417
838.406	16569
838.544	16462
838.681	16348
838.819	16223
838.956	16109
839.094	16002
839.231	16223
839.369	16234
839.506	16535
839.643	16337
839.781	16181
839.918	16154
840.055	16120
840.193	16097
840.33	16059
840.467	16147
840.604	16230
840.742	16451
840.879	16006
841.016	16021
841.153	16044
841.29	16192
841.427	16173
841.564	16143
841.701	16200
841.838	16090
841.975	16063
842.112	15945
842.249	15960
842.385	16013
842.522	16086
842.659	15907
842.796	15941
842.933	15930
843.069	15941
843.206	15876
843.343	16032
843.479	15983
843.616	15907
843.752	15736
843.889	15781
844.025	15838
844.162	15660
844.298	15857
844.435	15663
844.571	15705
844.708	15770
844.844	15911
844.98	15816
845.117	15884
845.253	15614
845.389	15610
845.525	15778
845.661	15671
845.798	15610
845.934	15724
846.07	15671
846.206	15736
846.342	15827
846.478	15591
846.614	15393
846.75	15291
846.886	15287
847.022	15443
847.158	15272
847.294	15348
847.429	15306
847.565	15222
847.701	15481
847.837	15028
847.972	15093
848.108	15108
848.244	15097
848.379	14967
848.515	14906
848.65	14834
848.786	14876
848.921	14925
849.057	15055
849.192	15100
849.328	15009
849.463	14960
849.598	14815
849.734	14853
849.869	14781
850.004	14830
850.14	14705
850.275	14693
850.41	14659
850.545	14686
850.68	14731
850.815	14773
850.95	14724
851.085	14735
851.22	14792
851.355	14739
851.49	14708
851.625	14571
851.76	14663
851.895	14602
852.03	14499
852.165	14613
852.299	14777
852.434	14762
852.569	14735
852.703	14674
852.838	14781
852.973	14823
853.107	14910
853.242	14644
853.376	14602
853.511	14419
853.645	14533
853.78	14655
853.914	14514
854.048	14511
854.183	14480
854.317	14571
854.451	14701
854.585	14514
854.72	14495
854.854	14590
854.988	14473
855.122	14526
855.256	14366
855.39	14507
855.524	14594
855.658	14602
855.792	14526
855.926	14648
856.06	14552
856.194	14541
856.327	14594
856.461	14488
856.595	14457
856.729	14473
856.862	14636
856.996	14587
857.13	14568
857.263	14636
857.397	14644
857.53	14461
857.664	14552
857.797	14632
857.931	14651
858.064	14514
858.197	14598
858.331	14526
858.464	14579
858.597	14385
858.731	14507
858.864	14568
858.997	14495
859.13	14682
859.263	14465
859.396	14530
859.529	14492
859.662	14533
859.795	14484
859.928	14621
860.061	14697
860.194	14693
860.327	14629
860.46	14442
860.592	14674
860.725	14598
860.858	14689
860.99	14575
861.123	14476
861.256	14423
861.388	14476
861.521	15298
861.653	14473
861.786	14271
861.918	14423
862.05	14480
862.183	14465
862.315	14549
862.447	14533
862.58	14431
862.712	14343
862.844	14278
862.976	14389
863.108	14328
863.24	14785
863.372	14233
863.504	14225
863.636	14358
863.768	14347
863.9	14305
864.032	14195
864.164	14195
864.296	14362
864.428	14423
864.559	14438
864.691	14438
864.823	14339
864.954	14332
865.086	14298
865.217	14298
865.349	14225
865.48	14248
865.612	14317
865.743	14438
865.875	14313
866.006	14332
866.137	14336
866.269	14294
866.4	14282
866.531	14294
866.662	14218
866.793	14168
866.924	14263
867.055	14301
867.186	14271
867.317	14248
867.448	14267
867.579	14183
867.71	14244
867.841	14278
867.972	14252
868.103	14248
868.233	14233
868.364	14419
868.495	14347
868.625	14579
868.756	14610
868.886	14461
869.017	14374
869.147	14670
869.278	14686
869.408	14632
869.539	14583
869.669	14670
869.799	14568
869.929	14750
870.06	14590
870.19	14861
870.32	14918
870.45	14853
870.58	14937
870.71	14998
870.84	14956
870.97	14998
871.1	14975
871.23	15116
871.36	15173
871.489	15066
871.619	15123
871.749	15024
871.879	15176
872.008	15283
872.138	15203
872.267	15100
872.397	15051
872.526	14960
872.656	14986
872.785	14986
872.915	15138
873.044	15237
873.173	15173
873.303	15203
873.432	15104
873.561	15245
873.69	15165
873.819	15169
873.948	15233
874.077	15207
874.206	15252
874.335	15154
874.464	15279
874.593	15488
874.722	15386
874.851	15523
874.979	15553
875.108	15523
875.237	15443
875.365	15424
875.494	15492
875.623	15534
875.751	15367
875.88	15526
876.008	15587
876.136	15686
876.265	15934
876.393	16029
876.521	16059
876.65	15987
876.778	15964
876.906	15892
877.034	15846
877.162	15857
877.29	15854
877.418	15797
877.546	15808
877.674	15892
877.802	15907
877.93	15892
878.058	15831
878.185	15743
878.313	15850
878.441	15934
878.568	15751
878.696	15903
878.824	15964
878.951	15964
879.079	16128
879.206	16268
879.333	16131
879.461	15899
879.588	16021
879.715	16230
879.842	16215
879.97	15979
880.097	15793
880.224	15766
880.351	15747
880.478	15743
880.605	15800
880.732	15667
880.859	15956
880.986	15770
881.112	15774
881.239	15671
881.366	15504
881.493	15473
881.619	15351
881.746	15454
881.872	15454
881.999	15393
882.125	15359
882.252	15534
882.378	15515
882.505	15526
882.631	15348
882.757	15264
882.883	15275
883.01	15279
883.136	15176
883.262	15097
883.388	15131
883.514	15272
883.64	15374
883.766	15241
883.892	15009
884.018	15051
884.143	15237
884.269	15367
884.395	14963
884.52	14864
884.646	14921
884.772	14902
884.897	14815
885.023	14891
885.148	15089
885.274	15070
885.399	14891
885.524	14853
885.65	14963
885.775	14982
885.9	14826
886.025	15074
886.15	15009
886.275	14933
886.4	14811
886.525	14849
886.65	14883
886.775	14834
886.9	15070
887.025	15272
887.149	14967
887.274	14830
887.399	14655
887.523	14602
887.648	14651
887.773	14613
887.897	14746
888.021	14655
888.146	14682
888.27	14921
888.395	14914
888.519	14769
888.643	14800
888.767	14876
888.891	14686
889.015	14651
889.139	14583
889.263	14495
889.387	14670
889.511	14845
889.635	14731
889.759	14541
889.883	14541
890.006	14674
890.13	14705
890.254	14571
890.377	14560
890.501	14431
890.624	14442
890.748	14393
890.871	14415
890.995	14278
891.118	14237
891.241	14347
891.364	14347
891.488	14351
891.611	14298
891.734	14339
891.857	14385
891.98	14332
892.103	14317
892.226	14370
892.349	14233
892.471	14161
892.594	14248
892.717	14339
892.839	14256
892.962	14324
893.085	14320
893.207	14343
893.33	14130
893.452	14237
893.575	14351
893.697	14294
893.819	14473
893.941	14522
894.064	14431
894.186	14233
894.308	14202
894.43	14488
894.552	14385
894.674	14492
894.796	14313
894.918	14351
895.04	14320
895.161	14389
895.283	14434
895.405	14320
895.526	14434
895.648	14282
895.769	14469
895.891	14434
896.012	14465
896.134	14461
896.255	14537
896.376	14427
896.498	14370
896.619	14427
896.74	14575
896.861	14640
896.982	14811
897.103	14960
897.224	14739
897.345	14670
897.466	14606
897.587	14735
897.708	14902
897.828	14754
897.949	14708
898.07	14625
898.19	14708
898.311	14826
898.431	14636
898.552	14853
898.672	14880
898.792	14899
898.913	14804
899.033	14739
899.153	14674
899.273	14568
899.393	14602
899.513	14610
899.633	14644
899.753	14701
899.873	14552
899.993	14705
900.113	14655
900.232	14693
900.352	14689
900.472	14598
900.591	14469
900.711	14549
900.83	14476
900.95	14610
901.069	14571
901.189	14556
901.308	14282
901.427	14259
901.546	14119
901.665	14244
901.784	14271
901.904	14096
902.023	14012
902.141	13795
902.26	13704
902.379	13879
902.498	13811
902.617	13696
902.735	13772
902.854	13856
902.973	13742
903.091	13491
903.21	13441
903.328	13480
903.446	13445
903.565	13304
903.683	13304
903.801	13270
903.919	13270
904.038	13289
904.156	13095
904.274	13236
904.392	13187
904.51	13088
904.627	13133
904.745	13244
904.863	13152
904.981	12977
905.098	12810
905.216	12753
905.334	12840
905.451	12897
905.569	12856
905.686	12985
905.803	12833
905.921	12627
906.038	12783
906.155	12700
906.272	12585
906.389	12585
906.506	12388
906.623	12528
906.74	12365
906.857	12372
906.974	12308
907.091	12426
907.208	12498
907.324	12433
907.441	12289
907.557	12213
907.674	12186
907.79	12045
907.907	12117
908.023	12194
908.139	12133
908.256	12106
908.372	11988
908.488	12019
908.604	11992
908.72	11840
908.836	11882
908.952	11893
909.068	11882
909.184	12026
909.3	11870
909.415	11954
909.531	11935
909.647	11737
909.762	11657
909.878	11684
909.993	11649
910.108	11649
910.224	11615
910.339	11672
910.454	11573
910.57	11577
910.685	11410
910.8	11745
910.915	11600
911.03	11623
911.145	11337
911.259	11478
911.374	11471
911.489	11326
911.604	11239
911.718	11124
911.833	11155
911.947	10999
912.062	10968
912.176	11197
912.291	11143
912.405	11113
912.519	11280
912.633	11345
912.748	11208
912.862	11143
912.976	11010
913.09	10915
913.204	11014
913.318	11041
913.431	11052
913.545	11075
913.659	11181
913.772	11113
913.886	10889
914	10915
914.113	11067
914.226	11006
914.34	10904
914.453	10835
914.566	10934
914.68	10896
914.793	10839
914.906	10698
915.019	10611
915.132	10596
915.245	10618
915.358	10668
915.47	10698
915.583	10691
915.696	10706
915.809	10774
915.921	10816
916.034	10717
916.146	10675
916.259	10508
916.371	10660
916.483	10622
916.595	10481
916.708	10546
916.82	10561
916.932	10569
917.044	10611
917.156	10451
917.268	10428
917.38	10504
917.491	10512
917.603	10478
917.715	10546
917.826	10584
917.938	10474
918.049	10379
918.161	10554
918.272	10531
918.384	10630
918.495	10577
918.606	10421
918.717	10291
918.828	10405
918.939	10348
919.05	10272
919.161	10352
919.272	10162
919.383	10223
919.494	10443
919.604	10588
919.715	10409
919.826	10337
919.936	10363
920.047	10413
920.157	10405
920.267	10542
920.378	10329
920.488	10421
920.598	10599
920.708	10706
920.818	10599
920.928	10618
921.038	10816
921.148	10672
921.258	10421
921.368	10344
921.477	10272
921.587	10360
921.697	10112
921.806	10291
921.916	10082
922.025	10082
922.134	9934
922.244	9888
922.353	9903
922.462	9823
922.571	9705
922.68	9610
922.789	9648
922.898	9629
923.007	9538
923.116	9682
923.224	9618
923.333	9667
923.442	9485
923.55	9466
923.659	9492
923.767	9526
923.876	9439
923.984	9545
924.092	9416
924.201	9466
924.309	9515
924.417	9447
924.525	9389
924.633	9511
924.741	10409
924.849	9279
924.956	9462
925.064	9256
925.172	9207
925.279	9256
925.387	9306
925.494	9306
925.602	9412
925.709	9370
925.816	9245
925.924	9279
926.031	9279
926.138	9279
926.245	9321
926.352	9249
926.459	9306
926.566	9389
926.673	9226
926.779	9104
926.886	9154
926.993	9047
927.099	9013
927.206	8952
927.312	8971
927.419	9039
927.525	8921
927.631	9039
927.737	8952
927.843	8910
927.95	8743
928.056	8800
928.162	8921
928.267	8994
928.373	9447
928.479	9039
928.585	8754
928.69	8842
928.796	8963
928.901	8758
929.007	8708
929.112	8826
929.218	8701
929.323	8724
929.428	8716
929.533	8861
929.638	8686
929.743	8610
929.848	8743
929.953	8724
930.058	8598
930.163	8465
930.267	8480
930.372	8613
930.477	8419
930.581	8678
930.685	8530
930.79	8370
930.894	8450
930.998	8366
931.103	8522
931.207	8225
931.311	8180
931.415	8073
931.519	7917
931.623	7887
