Data from test_V78500241_3454.txt Node
Date: Fri Mar 25 14:57:46 CST 2022
User: usil
Spectrometer: V785-0024
Trigger mode: 0
Integration Time (sec): 4.000000E-1
Scans to average: 1
Nonlinearity correction enabled: false
Boxcar width: 0
Storing dark spectrum: false
XAxis mode: Wavelengths
Number of Pixels in Spectrum: 1024
>>>>>Begin Spectral Data<<<<<
801.071	21903
801.214	21937
801.356	21599
801.499	21507
801.641	21252
801.783	21408
801.926	21313
802.068	21233
802.211	21112
802.353	21173
802.496	20895
802.638	20845
802.78	20667
802.923	20492
803.065	20545
803.208	20533
803.35	20609
803.492	20632
803.635	20880
803.777	20655
803.919	20785
804.061	20975
804.204	20583
804.346	20720
804.488	20530
804.63	20602
804.773	20438
804.915	20609
805.057	20575
805.199	20503
805.341	20602
805.483	20575
805.626	20598
805.768	20499
805.91	20549
806.052	20629
806.194	20526
806.336	20670
806.478	20484
806.62	20526
806.762	20583
806.904	20609
807.046	20925
807.188	20853
807.33	20895
807.472	20906
807.614	20727
807.756	20750
807.898	20575
808.04	20648
808.182	20431
808.324	20602
808.465	20594
808.607	20769
808.749	20819
808.891	21020
809.033	21039
809.174	20910
809.316	20800
809.458	20834
809.6	20823
809.741	21001
809.883	20933
810.025	21119
810.166	20937
810.308	21043
810.45	20960
810.591	20845
810.733	20800
810.875	20743
811.016	20522
811.158	20632
811.299	20670
811.441	20769
811.582	20625
811.724	20583
811.865	20541
812.007	20507
812.148	20594
812.29	20609
812.431	20743
812.573	20960
812.714	20933
812.855	21283
812.997	21211
813.138	21302
813.279	21268
813.421	21077
813.562	21047
813.703	20963
813.845	20796
813.986	20488
814.127	20271
814.268	20157
814.41	20062
814.551	20157
814.692	20229
814.833	19982
814.974	20039
815.115	20111
815.256	19970
815.397	20008
815.539	20035
815.68	19955
815.821	19898
815.962	19906
816.103	19807
816.244	19799
816.385	19655
816.526	19685
816.666	19483
816.807	19377
816.948	19403
817.089	19453
817.23	19297
817.371	19270
817.512	19278
817.653	19206
817.793	19240
817.934	19316
818.075	19297
818.216	19152
818.356	19282
818.497	19198
818.638	18962
818.778	19091
818.919	18935
819.06	19031
819.2	19061
819.341	19190
819.481	19061
819.622	19354
819.762	19449
819.903	19510
820.043	19289
820.184	19381
820.324	19358
820.465	19472
820.605	19316
820.746	19255
820.886	19122
821.026	19213
821.167	19251
821.307	19282
821.447	19213
821.588	19129
821.728	19015
821.868	18795
822.008	18825
822.149	18696
822.289	18620
822.429	18441
822.569	18346
822.709	18304
822.849	18243
822.99	18216
823.13	18155
823.27	18182
823.41	18072
823.55	17992
823.69	17885
823.83	17946
823.97	18015
824.11	17672
824.25	17771
824.389	17836
824.529	17817
824.669	17824
824.809	17882
824.949	17920
825.089	17771
825.228	17676
825.368	17604
825.508	17505
825.648	17627
825.787	17619
825.927	17657
826.067	17551
826.206	17452
826.346	17452
826.485	17433
826.625	17543
826.765	17573
826.904	17497
827.044	17364
827.183	17296
827.323	17162
827.462	17326
827.601	17273
827.741	17269
827.88	17246
828.02	17151
828.159	17250
828.298	17200
828.437	17334
828.577	17204
828.716	17345
828.855	17212
828.994	17079
829.134	16953
829.273	17048
829.412	16957
829.551	16900
829.69	17041
829.829	17048
829.968	17105
830.107	16999
830.246	17018
830.385	16991
830.524	16885
830.663	16896
830.802	16622
830.941	16634
831.08	16713
831.219	16759
831.357	16694
831.496	16930
831.635	16634
831.774	16561
831.913	16580
832.051	16375
832.19	16402
832.329	16421
832.467	16246
832.606	16238
832.744	16257
832.883	16207
833.022	16226
833.16	16238
833.299	16306
833.437	16310
833.576	16402
833.714	16402
833.852	16261
833.991	16284
834.129	16348
834.267	16443
834.406	16318
834.544	16333
834.682	16436
834.821	16375
834.959	16459
835.097	16299
835.235	16466
835.373	16417
835.511	16386
835.65	16238
835.788	16363
835.926	16238
836.064	16029
836.202	16063
836.34	16280
836.478	16371
836.615	16291
836.753	16360
836.891	16390
837.029	16265
837.167	16291
837.305	16173
837.443	16188
837.58	16105
837.718	16257
837.856	16158
837.993	16150
838.131	16173
838.269	16185
838.406	16010
838.544	16044
838.681	15945
838.819	15953
838.956	15743
839.094	15660
839.231	15838
839.369	15899
839.506	16048
839.643	15926
839.781	15713
839.918	15663
840.055	15766
840.193	15774
840.33	15709
840.467	15682
840.604	15705
840.742	15926
840.879	15637
841.016	15538
841.153	15561
841.29	15895
841.427	15804
841.564	15789
841.701	15759
841.838	15637
841.975	15717
842.112	15618
842.249	15557
842.385	15466
842.522	15717
842.659	15599
842.796	15378
842.933	15401
843.069	15447
843.206	15386
843.343	15538
843.479	15523
843.616	15587
843.752	15370
843.889	15275
844.025	15435
844.162	15264
844.298	15450
844.435	15283
844.571	15222
844.708	15526
844.844	15466
844.98	15454
845.117	15424
845.253	15199
845.389	15245
845.525	15268
845.661	15241
845.798	14986
845.934	15123
846.07	15074
846.206	15119
846.342	15302
846.478	15127
846.614	15043
846.75	14868
846.886	14823
847.022	14941
847.158	14876
847.294	14895
847.429	14933
847.565	14929
847.701	15085
847.837	14674
847.972	14590
848.108	14674
848.244	14674
848.379	14465
848.515	14503
848.65	14442
848.786	14495
848.921	14423
849.057	14541
849.192	14533
849.328	14613
849.463	14423
849.598	14396
849.734	14465
849.869	14336
850.004	14370
850.14	14286
850.275	14358
850.41	14218
850.545	14161
850.68	14328
850.815	14271
850.95	14278
851.085	14377
851.22	14355
851.355	14282
851.49	14256
851.625	14149
851.76	14233
851.895	14161
852.03	14100
852.165	14168
852.299	14328
852.434	14278
852.569	14400
852.703	14351
852.838	14317
852.973	14351
853.107	14431
853.242	14187
853.376	14115
853.511	13925
853.645	14024
853.78	14199
853.914	14119
854.048	14126
854.183	14088
854.317	14157
854.451	14256
854.585	14077
854.72	14107
854.854	14183
854.988	14020
855.122	14062
855.256	13967
855.39	14100
855.524	14164
855.658	14153
855.792	14062
855.926	14145
856.06	14164
856.194	14183
856.327	14164
856.461	13997
856.595	14168
856.729	14115
856.862	14252
856.996	14088
857.13	14107
857.263	14210
857.397	14271
857.53	14111
857.664	14248
857.797	14233
857.931	14259
858.064	14161
858.197	14275
858.331	14054
858.464	13997
858.597	14062
858.731	14073
858.864	14161
858.997	14123
859.13	14134
859.263	14187
859.396	14244
859.529	14111
859.662	14092
859.795	14084
859.928	14180
860.061	14309
860.194	14305
860.327	14210
860.46	14126
860.592	14161
860.725	14168
860.858	14202
860.99	14103
861.123	13970
861.256	14126
861.388	14195
861.521	14823
861.653	13959
861.786	13928
861.918	13986
862.05	14065
862.183	14092
862.315	14103
862.447	14138
862.58	14092
862.712	13909
862.844	13830
862.976	13982
863.108	13944
863.24	14328
863.372	13887
863.504	13841
863.636	13860
863.768	13982
863.9	13986
864.032	13772
864.164	13879
864.296	13925
864.428	14020
864.559	13986
864.691	14043
864.823	13890
864.954	13909
865.086	13936
865.217	13909
865.349	13830
865.48	13883
865.612	13917
865.743	14046
865.875	13917
866.006	13830
866.137	13849
866.269	13845
866.4	13852
866.531	13845
866.662	13776
866.793	13856
866.924	13856
867.055	13913
867.186	13894
867.317	13791
867.448	13799
867.579	13837
867.71	13833
867.841	13788
867.972	13906
868.103	13909
868.233	13959
868.364	13887
868.495	13940
868.625	14077
868.756	14267
868.886	14084
869.017	14111
869.147	14278
869.278	14339
869.408	14172
869.539	14084
869.669	14298
869.799	14149
869.929	14221
870.06	14298
870.19	14476
870.32	14419
870.45	14431
870.58	14644
870.71	14670
870.84	14682
870.97	14476
871.1	14465
871.23	14640
871.36	14724
871.489	14750
871.619	14716
871.749	14800
871.879	14727
872.008	14887
872.138	14804
872.267	14731
872.397	14602
872.526	14514
872.656	14419
872.785	14617
872.915	14811
873.044	14880
873.173	14765
873.303	14838
873.432	14788
873.561	14872
873.69	14807
873.819	14842
873.948	14914
874.077	14883
874.206	14838
874.335	14933
874.464	15028
874.593	15131
874.722	15058
874.851	15188
874.979	15157
875.108	15108
875.237	15062
875.365	15070
875.494	15112
875.623	15192
875.751	15013
875.88	15165
876.008	15298
876.136	15287
876.265	15488
876.393	15751
876.521	15557
876.65	15629
876.778	15515
876.906	15519
877.034	15545
877.162	15500
877.29	15473
877.418	15614
877.546	15549
877.674	15435
877.802	15530
877.93	15587
878.058	15507
878.185	15389
878.313	15454
878.441	15519
878.568	15389
878.696	15435
878.824	15557
878.951	15561
879.079	15671
879.206	15850
879.333	15713
879.461	15606
879.588	15637
879.715	15595
879.842	15781
879.97	15580
880.097	15374
880.224	15344
880.351	15408
880.478	15367
880.605	15397
880.732	15275
880.859	15690
880.986	15412
881.112	15439
881.239	15249
881.366	15104
881.493	15066
881.619	15055
881.746	15074
881.872	14998
881.999	15074
882.125	15032
882.252	15138
882.378	15104
882.505	15184
882.631	15077
882.757	14891
882.883	14929
883.01	14746
883.136	14781
883.262	14716
883.388	14739
883.514	14823
883.64	14910
883.766	14792
883.892	14629
884.018	14678
884.143	14929
884.269	14979
884.395	14621
884.52	14670
884.646	14575
884.772	14598
884.897	14488
885.023	14575
885.148	14610
885.274	14754
885.399	14731
885.524	14610
885.65	14564
885.775	14640
885.9	14492
886.025	14689
886.15	14632
886.275	14454
886.4	14507
886.525	14564
886.65	14393
886.775	14442
886.9	14689
887.025	14762
887.149	14583
887.274	14465
887.399	14324
887.523	14438
887.648	14317
887.773	14199
887.897	14400
888.021	14495
888.146	14301
888.27	14610
888.395	14545
888.519	14511
888.643	14457
888.767	14412
888.891	14355
889.015	14313
889.139	14343
889.263	14233
889.387	14282
889.511	14381
889.635	14362
889.759	14149
889.883	14271
890.006	14358
890.13	14286
890.254	14218
890.377	14172
890.501	14138
890.624	13940
890.748	14157
890.871	14020
890.995	13913
891.118	13864
891.241	13875
891.364	13997
891.488	14065
891.611	13963
891.734	13970
891.857	13925
891.98	14035
892.103	14012
892.226	14001
892.349	13921
892.471	13833
892.594	13963
892.717	13947
892.839	13967
892.962	14027
893.085	14103
893.207	13959
893.33	13875
893.452	14012
893.575	13970
893.697	14081
893.819	14142
893.941	14130
894.064	14244
894.186	13944
894.308	13951
894.43	14050
894.552	14233
894.674	14199
894.796	13947
894.918	13913
895.04	14001
895.161	14043
895.283	14088
895.405	14008
895.526	14119
895.648	14046
895.769	14031
895.891	14111
896.012	14206
896.134	14199
896.255	14157
896.376	14164
896.498	14161
896.619	14225
896.74	14077
896.861	14172
896.982	14492
897.103	14651
897.224	14400
897.345	14495
897.466	14389
897.587	14358
897.708	14583
897.828	14545
897.949	14370
898.07	14202
898.19	14396
898.311	14606
898.431	14488
898.552	14495
898.672	14507
898.792	14648
898.913	14530
899.033	14385
899.153	14294
899.273	14199
899.393	14393
899.513	14324
899.633	14339
899.753	14400
899.873	14336
899.993	14404
900.113	14320
900.232	14343
900.352	14358
900.472	14233
900.591	14195
900.711	14320
900.83	14103
900.95	14328
901.069	14301
901.189	14157
901.308	13982
901.427	13925
901.546	13852
901.665	13944
901.784	13940
901.904	13742
902.023	13666
902.141	13453
902.26	13381
902.379	13544
902.498	13510
902.617	13419
902.735	13426
902.854	13521
902.973	13403
903.091	13149
903.21	13194
903.328	13156
903.446	13145
903.565	13023
903.683	13129
903.801	12897
903.919	13000
904.038	13012
904.156	12901
904.274	12973
904.392	12856
904.51	12920
904.627	12871
904.745	12928
904.863	12897
904.981	12684
905.098	12566
905.216	12540
905.334	12604
905.451	12551
905.569	12509
905.686	12490
905.803	12490
905.921	12296
906.038	12429
906.155	12376
906.272	12300
906.389	12251
906.506	12133
906.623	12136
906.74	12125
906.857	12015
906.974	12068
907.091	12285
907.208	12262
907.324	12190
907.441	12121
907.557	11939
907.674	11863
907.79	11748
907.907	11882
908.023	11855
908.139	11923
908.256	11783
908.372	11775
908.488	11840
908.604	11707
908.72	11707
908.836	11657
908.952	11589
909.068	11627
909.184	11714
909.3	11661
909.415	11665
909.531	11741
909.647	11501
909.762	11417
909.878	11448
909.993	11330
910.108	11452
910.224	11383
910.339	11353
910.454	11269
910.57	11242
910.685	11162
910.8	11520
910.915	11486
911.03	11265
911.145	11140
911.259	11109
911.374	11098
911.489	11056
911.604	10953
911.718	10984
911.833	10900
911.947	10748
912.062	10637
912.176	10839
912.291	10850
912.405	10801
912.519	11018
912.633	11094
912.748	10949
912.862	10801
912.976	10801
913.09	10603
913.204	10679
913.318	10717
913.431	10831
913.545	10839
913.659	10835
913.772	10733
913.886	10622
914	10611
914.113	10786
914.226	10862
914.34	10782
914.453	10580
914.566	10755
914.68	10691
914.793	10630
914.906	10398
915.019	10314
915.132	10276
915.245	10409
915.358	10360
915.47	10394
915.583	10417
915.696	10462
915.809	10607
915.921	10519
916.034	10363
916.146	10306
916.259	10417
916.371	10481
916.483	10402
916.595	10295
916.708	10382
916.82	10337
916.932	10234
917.044	10287
917.156	10314
917.268	10063
917.38	10306
917.491	10223
917.603	10242
917.715	10295
917.826	10303
917.938	10227
918.049	10109
918.161	10238
918.272	10352
918.384	10344
918.495	10333
918.606	10116
918.717	10109
918.828	10135
918.939	10204
919.05	10017
919.161	10090
919.272	9823
919.383	10013
919.494	10230
919.604	10386
919.715	10097
919.826	10097
919.936	10063
920.047	10135
920.157	10112
920.267	10379
920.378	10204
920.488	10120
920.598	10402
920.708	10478
920.818	10329
920.928	10341
921.038	10531
921.148	10485
921.258	10192
921.368	10074
921.477	10032
921.587	9918
921.697	9895
921.806	10017
921.916	9823
922.025	9759
922.134	9576
922.244	9591
922.353	9819
922.462	9542
922.571	9515
922.68	9420
922.789	9355
922.898	9431
923.007	9401
923.116	9439
923.224	9397
923.333	9351
923.442	9279
923.55	9256
923.659	9275
923.767	9378
923.876	9245
923.984	9272
924.092	9214
924.201	9253
924.309	9226
924.417	9249
924.525	9199
924.633	9218
924.741	10139
924.849	9066
924.956	9173
925.064	9036
925.172	8929
925.279	8982
925.387	9051
925.494	9100
925.602	9119
925.709	9150
925.816	9005
925.924	9013
926.031	9116
926.138	9009
926.245	9081
926.352	8994
926.459	9119
926.566	9123
926.673	9013
926.779	8960
926.886	8861
926.993	8788
927.099	8739
927.206	8762
927.312	8785
927.419	8712
927.525	8781
927.631	8842
927.737	8724
927.843	8617
927.95	8549
928.056	8632
928.162	8663
928.267	8724
928.373	9313
928.479	8766
928.585	8488
928.69	8659
928.796	8663
928.901	8556
929.007	8461
929.112	8530
929.218	8537
929.323	8488
929.428	8492
929.533	8613
929.638	8408
929.743	8431
929.848	8492
929.953	8503
930.058	8343
930.163	8225
930.267	8332
930.372	8415
930.477	8267
930.581	8499
930.685	8332
930.79	8172
930.894	8237
930.998	8172
931.103	8320
931.207	7986
931.311	7936
931.415	7841
931.519	7738
931.623	7712
