Data from test_V78500241_3058.txt Node
Date: Fri Mar 25 14:55:00 CST 2022
User: usil
Spectrometer: V785-0024
Trigger mode: 0
Integration Time (sec): 4.000000E-1
Scans to average: 1
Nonlinearity correction enabled: false
Boxcar width: 0
Storing dark spectrum: false
XAxis mode: Wavelengths
Number of Pixels in Spectrum: 1024
>>>>>Begin Spectral Data<<<<<
801.071	22154
801.214	21941
801.356	21766
801.499	21679
801.641	21500
801.783	21591
801.926	21416
802.068	21435
802.211	21367
802.353	21184
802.496	21058
802.638	20952
802.78	20902
802.923	20838
803.065	20731
803.208	20880
803.35	20845
803.492	20891
803.635	20948
803.777	20746
803.919	20838
804.061	21123
804.204	20785
804.346	20613
804.488	20667
804.63	20739
804.773	20682
804.915	20686
805.057	20651
805.199	20609
805.341	20815
805.483	20781
805.626	20731
805.768	20750
805.91	20697
806.052	20750
806.194	20625
806.336	20842
806.478	20750
806.62	20663
806.762	20689
806.904	20880
807.046	21081
807.188	21020
807.33	20994
807.472	21077
807.614	20929
807.756	21039
807.898	20849
808.04	20682
808.182	20731
808.324	20842
808.465	20811
808.607	20834
808.749	21131
808.891	21112
809.033	21230
809.174	21146
809.316	21070
809.458	21207
809.6	21051
809.741	20944
809.883	21058
810.025	21119
810.166	21283
810.308	21180
810.45	21077
810.591	21001
810.733	20861
810.875	20956
811.016	20727
811.158	20765
811.299	21047
811.441	20952
811.582	20887
811.724	20933
811.865	20758
812.007	20651
812.148	20667
812.29	20834
812.431	21047
812.573	21017
812.714	21089
812.855	21344
812.997	21439
813.138	21507
813.279	21507
813.421	21386
813.562	21233
813.703	21123
813.845	20956
813.986	20648
814.127	20492
814.268	20377
814.41	20385
814.551	20393
814.692	20450
814.833	20347
814.974	20415
815.115	20454
815.256	20233
815.397	20244
815.539	20381
815.68	20221
815.821	20043
815.962	20161
816.103	20100
816.244	19887
816.385	19906
816.526	19833
816.666	19575
816.807	19514
816.948	19662
817.089	19681
817.23	19586
817.371	19430
817.512	19563
817.653	19506
817.793	19556
817.934	19453
818.075	19586
818.216	19472
818.356	19445
818.497	19289
818.638	19118
818.778	19114
818.919	19107
819.06	19141
819.2	19308
819.341	19346
819.481	19358
819.622	19582
819.762	19723
819.903	19639
820.043	19563
820.184	19559
820.324	19491
820.465	19605
820.605	19403
820.746	19343
820.886	19263
821.026	19362
821.167	19301
821.307	19575
821.447	19384
821.588	19285
821.728	19148
821.868	18890
822.008	18817
822.149	18875
822.289	18734
822.429	18654
822.569	18513
822.709	18521
822.849	18300
822.99	18471
823.13	18285
823.27	18277
823.41	18220
823.55	18152
823.69	18209
823.83	18136
823.97	18030
824.11	17908
824.25	17969
824.389	18007
824.529	18064
824.669	17874
824.809	18102
824.949	18182
825.089	18076
825.228	17996
825.368	17821
825.508	17771
825.648	17741
825.787	17798
825.927	17809
826.067	17672
826.206	17718
826.346	17691
826.485	17703
826.625	17748
826.765	17790
826.904	17760
827.044	17558
827.183	17524
827.323	17391
827.462	17482
827.601	17425
827.741	17318
827.88	17406
828.02	17277
828.159	17292
828.298	17402
828.437	17459
828.577	17436
828.716	17554
828.855	17349
828.994	17170
829.134	17227
829.273	17128
829.412	17067
829.551	17006
829.69	17041
829.829	17231
829.968	17242
830.107	17181
830.246	17170
830.385	17273
830.524	16927
830.663	17018
830.802	16839
830.941	16725
831.08	16771
831.219	16869
831.357	16866
831.496	16938
831.635	16721
831.774	16664
831.913	16599
832.051	16519
832.19	16634
832.329	16588
832.467	16550
832.606	16421
832.744	16428
832.883	16428
833.022	16382
833.16	16436
833.299	16485
833.437	16379
833.576	16440
833.714	16523
833.852	16462
833.991	16584
834.129	16573
834.267	16538
834.406	16447
834.544	16561
834.682	16542
834.821	16443
834.959	16653
835.097	16409
835.235	16580
835.373	16516
835.511	16421
835.65	16318
835.788	16436
835.926	16337
836.064	16192
836.202	16299
836.34	16398
836.478	16504
836.615	16352
836.753	16405
836.891	16394
837.029	16455
837.167	16421
837.305	16310
837.443	16405
837.58	16192
837.718	16356
837.856	16154
837.993	16154
838.131	16272
838.269	16143
838.406	16242
838.544	16036
838.681	16067
838.819	15941
838.956	15743
839.094	15698
839.231	15766
839.369	15911
839.506	16200
839.643	16101
839.781	15793
839.918	15709
840.055	15873
840.193	15800
840.33	15816
840.467	15846
840.604	15854
840.742	16032
840.879	15622
841.016	15728
841.153	15770
841.29	15994
841.427	15819
841.564	15895
841.701	15797
841.838	15694
841.975	15713
842.112	15663
842.249	15610
842.385	15542
842.522	15713
842.659	15549
842.796	15504
842.933	15587
843.069	15496
843.206	15507
843.343	15743
843.479	15553
843.616	15774
843.752	15317
843.889	15329
844.025	15458
844.162	15355
844.298	15519
844.435	15321
844.571	15321
844.708	15408
844.844	15412
844.98	15443
845.117	15545
845.253	15294
845.389	15211
845.525	15348
845.661	15321
845.798	15207
845.934	15184
846.07	15203
846.206	15222
846.342	15195
846.478	15199
846.614	15001
846.75	14941
846.886	14876
847.022	15081
847.158	14956
847.294	14998
847.429	14963
847.565	14830
847.701	15150
847.837	14651
847.972	14537
848.108	14800
848.244	14762
848.379	14571
848.515	14533
848.65	14530
848.786	14571
848.921	14549
849.057	14689
849.192	14632
849.328	14545
849.463	14587
849.598	14640
849.734	14408
849.869	14396
850.004	14320
850.14	14271
850.275	14317
850.41	14294
850.545	14187
850.68	14180
850.815	14282
850.95	14324
851.085	14514
851.22	14332
851.355	14229
851.49	14282
851.625	14286
851.76	14278
851.895	14153
852.03	14218
852.165	14290
852.299	14256
852.434	14362
852.569	14366
852.703	14320
852.838	14324
852.973	14469
853.107	14434
853.242	14259
853.376	14210
853.511	14065
853.645	14031
853.78	14225
853.914	14145
854.048	14233
854.183	14130
854.317	14221
854.451	14294
854.585	14183
854.72	14187
854.854	14278
854.988	14062
855.122	14134
855.256	14062
855.39	14221
855.524	14240
855.658	14252
855.792	14221
855.926	14210
856.06	14267
856.194	14320
856.327	14115
856.461	14191
856.595	14115
856.729	14221
856.862	14362
856.996	14218
857.13	14252
857.263	14343
857.397	14229
857.53	14161
857.664	14256
857.797	14317
857.931	14328
858.064	14084
858.197	14278
858.331	14157
858.464	14130
858.597	14138
858.731	14103
858.864	14164
858.997	14145
859.13	14164
859.263	14183
859.396	14210
859.529	14107
859.662	14100
859.795	14081
859.928	14210
860.061	14339
860.194	14408
860.327	14153
860.46	14233
860.592	14328
860.725	14385
860.858	14290
860.99	14161
861.123	14123
861.256	14103
861.388	14282
861.521	14815
861.653	14016
861.786	14027
861.918	13936
862.05	14138
862.183	14020
862.315	14202
862.447	14115
862.58	14157
862.712	13902
862.844	13982
862.976	14107
863.108	14039
863.24	14290
863.372	13940
863.504	13947
863.636	14020
863.768	13986
863.9	13963
864.032	13921
864.164	13940
864.296	13967
864.428	14115
864.559	14012
864.691	14069
864.823	14134
864.954	14039
865.086	14001
865.217	13955
865.349	13852
865.48	13970
865.612	13909
865.743	14073
865.875	13974
866.006	13970
866.137	13974
866.269	13932
866.4	14024
866.531	13837
866.662	13986
866.793	13868
866.924	13849
867.055	13967
867.186	13925
867.317	13909
867.448	13890
867.579	13887
867.71	13902
867.841	13849
867.972	13906
868.103	13951
868.233	13951
868.364	14035
868.495	13989
868.625	14229
868.756	14233
868.886	14092
869.017	14145
869.147	14286
869.278	14305
869.408	14176
869.539	14206
869.669	14294
869.799	14244
869.929	14301
870.06	14240
870.19	14484
870.32	14514
870.45	14522
870.58	14560
870.71	14659
870.84	14693
870.97	14499
871.1	14530
871.23	14720
871.36	14750
871.489	14697
871.619	14724
871.749	14838
871.879	14800
872.008	14842
872.138	14754
872.267	14705
872.397	14659
872.526	14598
872.656	14583
872.785	14625
872.915	14819
873.044	14960
873.173	14785
873.303	14853
873.432	14914
873.561	14880
873.69	14845
873.819	14891
873.948	14971
874.077	14746
874.206	14823
874.335	14895
874.464	14994
874.593	15157
874.722	15070
874.851	15203
874.979	15252
875.108	15264
875.237	15032
875.365	15135
875.494	15249
875.623	15226
875.751	15116
875.88	15081
876.008	15325
876.136	15283
876.265	15679
876.393	15724
876.521	15671
876.65	15606
876.778	15553
876.906	15519
877.034	15568
877.162	15500
877.29	15458
877.418	15500
877.546	15549
877.674	15587
877.802	15564
877.93	15488
878.058	15606
878.185	15466
878.313	15496
878.441	15606
878.568	15389
878.696	15477
878.824	15652
878.951	15580
879.079	15774
879.206	15895
879.333	15751
879.461	15667
879.588	15686
879.715	15785
879.842	15915
879.97	15625
880.097	15485
880.224	15431
880.351	15435
880.478	15412
880.605	15344
880.732	15454
880.859	15576
880.986	15523
881.112	15526
881.239	15313
881.366	15260
881.493	15062
881.619	15047
881.746	15176
881.872	15108
881.999	15009
882.125	14963
882.252	15169
882.378	15135
882.505	15161
882.631	14960
882.757	14960
882.883	14861
883.01	14899
883.136	14800
883.262	14819
883.388	14712
883.514	14845
883.64	14906
883.766	14796
883.892	14648
884.018	14693
884.143	14918
884.269	14937
884.395	14625
884.52	14583
884.646	14674
884.772	14571
884.897	14434
885.023	14708
885.148	14648
885.274	14724
885.399	14712
885.524	14583
885.65	14651
885.775	14545
885.9	14629
886.025	14636
886.15	14651
886.275	14552
886.4	14476
886.525	14404
886.65	14488
886.775	14587
886.9	14758
887.025	14777
887.149	14533
887.274	14408
887.399	14419
887.523	14408
887.648	14298
887.773	14305
887.897	14518
888.021	14454
888.146	14355
888.27	14526
888.395	14568
888.519	14492
888.643	14473
888.767	14541
888.891	14332
889.015	14271
889.139	14347
889.263	14309
889.387	14286
889.511	14533
889.635	14389
889.759	14290
889.883	14180
890.006	14282
890.13	14366
890.254	14252
890.377	14237
890.501	14077
890.624	14100
890.748	14149
890.871	14016
890.995	13936
891.118	13936
891.241	13974
891.364	14027
891.488	14084
891.611	13921
891.734	13963
891.857	14058
891.98	14039
892.103	14020
892.226	13944
892.349	13928
892.471	13906
892.594	13902
892.717	14035
892.839	13993
892.962	13913
893.085	14062
893.207	13986
893.33	13887
893.452	13879
893.575	14031
893.697	13936
893.819	14187
893.941	14206
894.064	14164
894.186	13974
894.308	13879
894.43	14081
894.552	14221
894.674	14164
894.796	13974
894.918	14027
895.04	13974
895.161	14138
895.283	14027
895.405	14016
895.526	14119
895.648	14119
895.769	14142
895.891	14138
896.012	14256
896.134	14195
896.255	14149
896.376	14111
896.498	14336
896.619	14145
896.74	14142
896.861	14267
896.982	14434
897.103	14701
897.224	14526
897.345	14396
897.466	14404
897.587	14377
897.708	14594
897.828	14492
897.949	14347
898.07	14252
898.19	14473
898.311	14663
898.431	14488
898.552	14594
898.672	14564
898.792	14693
898.913	14541
899.033	14495
899.153	14389
899.273	14278
899.393	14320
899.513	14393
899.633	14492
899.753	14499
899.873	14431
899.993	14442
900.113	14362
900.232	14476
900.352	14393
900.472	14305
900.591	14233
900.711	14229
900.83	14157
900.95	14393
901.069	14389
901.189	14119
901.308	13951
901.427	14005
901.546	13940
901.665	13936
901.784	13868
901.904	13818
902.023	13772
902.141	13521
902.26	13464
902.379	13590
902.498	13502
902.617	13453
902.735	13578
902.854	13514
902.973	13525
903.091	13202
903.21	13278
903.328	13221
903.446	13171
903.565	13080
903.683	13080
903.801	12958
903.919	13023
904.038	13053
904.156	12962
904.274	12890
904.392	12875
904.51	12776
904.627	12875
904.745	12947
904.863	12977
904.981	12715
905.098	12604
905.216	12582
905.334	12585
905.451	12616
905.569	12506
905.686	12635
905.803	12570
905.921	12311
906.038	12475
906.155	12403
906.272	12251
906.389	12292
906.506	12136
906.623	12159
906.74	12148
906.857	11988
906.974	12114
907.091	12171
907.208	12308
907.324	12171
907.441	12148
907.557	12007
907.674	11904
907.79	11794
907.907	11904
908.023	11889
908.139	11999
908.256	11843
908.372	11798
908.488	11817
908.604	11680
908.72	11592
908.836	11634
908.952	11646
909.068	11649
909.184	11809
909.3	11726
909.415	11771
909.531	11672
909.647	11486
909.762	11448
909.878	11429
909.993	11467
910.108	11452
910.224	11448
910.339	11478
910.454	11410
910.57	11376
910.685	11220
910.8	11619
910.915	11414
911.03	11364
911.145	11208
911.259	11162
911.374	11121
911.489	11140
911.604	10984
911.718	10984
911.833	11025
911.947	10869
912.062	10824
912.176	10965
912.291	10957
912.405	10938
912.519	11162
912.633	11155
912.748	11086
912.862	11010
912.976	10812
913.09	10767
913.204	10786
913.318	10767
913.431	10831
913.545	10896
913.659	11060
913.772	10820
913.886	10694
914	10710
914.113	10793
914.226	10831
914.34	10767
914.453	10702
914.566	10824
914.68	10679
914.793	10668
914.906	10504
915.019	10341
915.132	10329
915.245	10504
915.358	10519
915.47	10558
915.583	10504
915.696	10527
915.809	10599
915.921	10607
916.034	10405
916.146	10310
916.259	10390
916.371	10451
916.483	10417
916.595	10363
916.708	10405
916.82	10382
916.932	10382
917.044	10413
917.156	10344
917.268	10242
917.38	10325
917.491	10360
917.603	10318
917.715	10382
917.826	10421
917.938	10223
918.049	10207
918.161	10276
918.272	10462
918.384	10398
918.495	10215
918.606	10242
918.717	10109
918.828	10181
918.939	10238
919.05	10002
919.161	10109
919.272	9922
919.383	10074
919.494	10257
919.604	10405
919.715	10192
919.826	10093
919.936	10128
920.047	10234
920.157	10166
920.267	10371
920.378	10139
920.488	10169
920.598	10318
920.708	10424
920.818	10402
920.928	10356
921.038	10546
921.148	10561
921.258	10223
921.368	10185
921.477	10059
921.587	9987
921.697	9956
921.806	10055
921.916	9930
922.025	9747
922.134	9823
922.244	9682
922.353	9774
922.462	9667
922.571	9576
922.68	9488
922.789	9431
922.898	9515
923.007	9454
923.116	9519
923.224	9492
923.333	9481
923.442	9283
923.55	9355
923.659	9363
923.767	9408
923.876	9317
923.984	9348
924.092	9279
924.201	9332
924.309	9359
924.417	9367
924.525	9165
924.633	9283
924.741	10158
924.849	9119
924.956	9241
925.064	9100
925.172	8990
925.279	9070
925.387	9081
925.494	9169
925.602	9253
925.709	9230
925.816	9013
925.924	9112
926.031	9188
926.138	9142
926.245	9165
926.352	9028
926.459	9146
926.566	9226
926.673	9051
926.779	9032
926.886	8914
926.993	8766
927.099	8861
927.206	8781
927.312	8796
927.419	8861
927.525	8777
927.631	8785
927.737	8746
927.843	8754
927.95	8648
928.056	8659
928.162	8678
928.267	8792
928.373	9272
928.479	8762
928.585	8610
928.69	8762
928.796	8727
928.901	8587
929.007	8427
929.112	8689
929.218	8587
929.323	8480
929.428	8518
929.533	8708
929.638	8522
929.743	8518
929.848	8564
929.953	8492
930.058	8385
930.163	8305
930.267	8317
930.372	8381
930.477	8279
930.581	8438
930.685	8332
930.79	8301
930.894	8320
930.998	8244
931.103	8454
931.207	8035
931.311	7955
931.415	7913
931.519	7784
931.623	7772
