Data from test_V78500241_3666.txt Node
Date: Fri Mar 25 14:59:14 CST 2022
User: usil
Spectrometer: V785-0024
Trigger mode: 0
Integration Time (sec): 4.000000E-1
Scans to average: 1
Nonlinearity correction enabled: false
Boxcar width: 0
Storing dark spectrum: false
XAxis mode: Wavelengths
Number of Pixels in Spectrum: 1024
>>>>>Begin Spectral Data<<<<<
801.071	21911
801.214	21751
801.356	21690
801.499	21492
801.641	21329
801.783	21218
801.926	21325
802.068	21112
802.211	21226
802.353	21119
802.496	20979
802.638	20792
802.78	20701
802.923	20701
803.065	20606
803.208	20587
803.35	20670
803.492	20655
803.635	20758
803.777	20705
803.919	20686
804.061	20941
804.204	20781
804.346	20602
804.488	20541
804.63	20602
804.773	20537
804.915	20678
805.057	20594
805.199	20377
805.341	20594
805.483	20689
805.626	20659
805.768	20412
805.91	20431
806.052	20575
806.194	20476
806.336	20648
806.478	20503
806.62	20442
806.762	20545
806.904	20705
807.046	20792
807.188	20887
807.33	20830
807.472	20845
807.614	20697
807.756	20746
807.898	20609
808.04	20655
808.182	20434
808.324	20693
808.465	20724
808.607	20853
808.749	20769
808.891	21009
809.033	20979
809.174	20910
809.316	20819
809.458	20807
809.6	20796
809.741	20880
809.883	20872
810.025	21001
810.166	21081
810.308	21009
810.45	21020
810.591	20941
810.733	20765
810.875	20625
811.016	20499
811.158	20526
811.299	20663
811.441	20785
811.582	20777
811.724	20621
811.865	20571
812.007	20587
812.148	20514
812.29	20636
812.431	20857
812.573	20849
812.714	21024
812.855	21192
812.997	21226
813.138	21359
813.279	21218
813.421	21138
813.562	20994
813.703	20887
813.845	20845
813.986	20533
814.127	20377
814.268	20206
814.41	20122
814.551	20180
814.692	20244
814.833	20153
814.974	20012
815.115	20157
815.256	20031
815.397	20046
815.539	20035
815.68	19902
815.821	19784
815.962	19974
816.103	19860
816.244	19693
816.385	19708
816.526	19674
816.666	19464
816.807	19289
816.948	19377
817.089	19483
817.23	19282
817.371	19316
817.512	19316
817.653	19209
817.793	19274
817.934	19244
818.075	19259
818.216	19274
818.356	19190
818.497	19145
818.638	18935
818.778	19080
818.919	19042
819.06	19091
819.2	19129
819.341	19221
819.481	19206
819.622	19358
819.762	19445
819.903	19411
820.043	19365
820.184	19339
820.324	19236
820.465	19445
820.605	19320
820.746	19187
820.886	19194
821.026	19346
821.167	19171
821.307	19320
821.447	19183
821.588	19107
821.728	18939
821.868	18958
822.008	18852
822.149	18745
822.289	18749
822.429	18353
822.569	18372
822.709	18410
822.849	18190
822.99	18281
823.13	18117
823.27	18148
823.41	18087
823.55	18003
823.69	18102
823.83	17984
823.97	17927
824.11	17840
824.25	17760
824.389	17722
824.529	17969
824.669	17764
824.809	17878
824.949	17847
825.089	17805
825.228	17729
825.368	17615
825.508	17570
825.648	17604
825.787	17596
825.927	17726
826.067	17497
826.206	17630
826.346	17577
826.485	17657
826.625	17566
826.765	17619
826.904	17646
827.044	17280
827.183	17326
827.323	17147
827.462	17383
827.601	17239
827.741	17242
827.88	17280
828.02	17162
828.159	17216
828.298	17212
828.437	17277
828.577	17174
828.716	17467
828.855	17292
828.994	17037
829.134	16995
829.273	17109
829.412	16999
829.551	16965
829.69	16934
829.829	16995
829.968	17064
830.107	17094
830.246	17140
830.385	16923
830.524	16923
830.663	16824
830.802	16801
830.941	16592
831.08	16478
831.219	16759
831.357	16778
831.496	16801
831.635	16626
831.774	16645
831.913	16550
832.051	16440
832.19	16451
832.329	16424
832.467	16402
832.606	16154
832.744	16329
832.883	16322
833.022	16295
833.16	16360
833.299	16405
833.437	16421
833.576	16398
833.714	16470
833.852	16421
833.991	16440
834.129	16440
834.267	16314
834.406	16363
834.544	16398
834.682	16322
834.821	16344
834.959	16554
835.097	16379
835.235	16489
835.373	16493
835.511	16462
835.65	16207
835.788	16322
835.926	16059
836.064	16181
836.202	16116
836.34	16367
836.478	16375
836.615	16356
836.753	16306
836.891	16428
837.029	16337
837.167	16371
837.305	16337
837.443	16253
837.58	16204
837.718	16200
837.856	16196
837.993	16131
838.131	16082
838.269	16101
838.406	16162
838.544	16021
838.681	15892
838.819	15880
838.956	15732
839.094	15755
839.231	15743
839.369	15857
839.506	16162
839.643	16044
839.781	15842
839.918	15705
840.055	15766
840.193	15770
840.33	15629
840.467	15857
840.604	15808
840.742	16067
840.879	15622
841.016	15641
841.153	15648
841.29	15816
841.427	15720
841.564	15751
841.701	15739
841.838	15686
841.975	15625
842.112	15675
842.249	15504
842.385	15511
842.522	15743
842.659	15576
842.796	15504
842.933	15618
843.069	15466
843.206	15466
843.343	15584
843.479	15568
843.616	15595
843.752	15325
843.889	15291
844.025	15599
844.162	15241
844.298	15454
844.435	15351
844.571	15359
844.708	15428
844.844	15557
844.98	15515
845.117	15454
845.253	15348
845.389	15195
845.525	15279
845.661	15249
845.798	15123
845.934	15176
846.07	15066
846.206	15150
846.342	15260
846.478	15176
846.614	14921
846.75	14842
846.886	14925
847.022	14998
847.158	14861
847.294	14944
847.429	14849
847.565	14906
847.701	15093
847.837	14644
847.972	14663
848.108	14716
848.244	14697
848.379	14530
848.515	14571
848.65	14511
848.786	14454
848.921	14499
849.057	14663
849.192	14606
849.328	14533
849.463	14457
849.598	14518
849.734	14423
849.869	14332
850.004	14305
850.14	14305
850.275	14248
850.41	14126
850.545	14218
850.68	14210
850.815	14336
850.95	14237
851.085	14408
851.22	14278
851.355	14267
851.49	14252
851.625	14229
851.76	14275
851.895	14130
852.03	14092
852.165	14244
852.299	14252
852.434	14343
852.569	14278
852.703	14282
852.838	14263
852.973	14526
853.107	14415
853.242	14218
853.376	14126
853.511	14008
853.645	13944
853.78	14301
853.914	14107
854.048	14123
854.183	14130
854.317	14107
854.451	14218
854.585	14157
854.72	14077
854.854	14237
854.988	14073
855.122	14096
855.256	14008
855.39	14054
855.524	14195
855.658	14138
855.792	14202
855.926	14172
856.06	14199
856.194	14225
856.327	14081
856.461	14077
856.595	14100
856.729	14092
856.862	14210
856.996	14134
857.13	14259
857.263	14267
857.397	14252
857.53	14100
857.664	14172
857.797	14240
857.931	14202
858.064	14172
858.197	14324
858.331	14168
858.464	14107
858.597	13982
858.731	14172
858.864	14062
858.997	14035
859.13	14142
859.263	14092
859.396	14324
859.529	14172
859.662	14081
859.795	14016
859.928	14119
860.061	14233
860.194	14339
860.327	14157
860.46	14206
860.592	14233
860.725	14225
860.858	14225
860.99	14176
861.123	14031
861.256	14107
861.388	14202
861.521	14834
861.653	14069
861.786	14020
861.918	13955
862.05	14016
862.183	14096
862.315	14058
862.447	14240
862.58	13947
862.712	13883
862.844	13833
862.976	13951
863.108	13963
863.24	14263
863.372	13845
863.504	14001
863.636	13837
863.768	13898
863.9	13963
864.032	13803
864.164	13856
864.296	13883
864.428	14001
864.559	14065
864.691	13993
864.823	13982
864.954	13959
865.086	13940
865.217	13925
865.349	13917
865.48	13928
865.612	13890
865.743	14005
865.875	13997
866.006	13974
866.137	13936
866.269	13845
866.4	13902
866.531	13898
866.662	13928
866.793	13833
866.924	13795
867.055	13830
867.186	13894
867.317	13845
867.448	13856
867.579	13970
867.71	13818
867.841	13833
867.972	13856
868.103	13856
868.233	13856
868.364	13932
868.495	14027
868.625	14123
868.756	14077
868.886	14043
869.017	14088
869.147	14172
869.278	14210
869.408	14233
869.539	14130
869.669	14275
869.799	14145
869.929	14195
870.06	14252
870.19	14446
870.32	14499
870.45	14427
870.58	14583
870.71	14575
870.84	14693
870.97	14530
871.1	14564
871.23	14750
871.36	14872
871.489	14670
871.619	14716
871.749	14826
871.879	14777
872.008	14872
872.138	14785
872.267	14758
872.397	14644
872.526	14564
872.656	14579
872.785	14708
872.915	14773
873.044	14830
873.173	14758
873.303	14819
873.432	14921
873.561	14906
873.69	14804
873.819	14758
873.948	14918
874.077	14819
874.206	14682
874.335	14804
874.464	14956
874.593	15028
874.722	15005
874.851	15142
874.979	15127
875.108	15150
875.237	15123
875.365	15047
875.494	15062
875.623	15180
875.751	15097
875.88	15256
876.008	15325
876.136	15386
876.265	15515
876.393	15637
876.521	15644
876.65	15618
876.778	15515
876.906	15485
877.034	15504
877.162	15492
877.29	15447
877.418	15561
877.546	15515
877.674	15599
877.802	15450
877.93	15488
878.058	15553
878.185	15469
878.313	15622
878.441	15553
878.568	15412
878.696	15428
878.824	15606
878.951	15622
879.079	15751
879.206	15747
879.333	15766
879.461	15625
879.588	15515
879.715	15698
879.842	15789
879.97	15542
880.097	15363
880.224	15416
880.351	15363
880.478	15435
880.605	15313
880.732	15405
880.859	15603
880.986	15374
881.112	15420
881.239	15275
881.366	15100
881.493	15097
881.619	14998
881.746	15135
881.872	15104
881.999	15020
882.125	15062
882.252	15001
882.378	14925
882.505	15188
882.631	14998
882.757	14842
882.883	14952
883.01	14944
883.136	14826
883.262	14712
883.388	14765
883.514	14872
883.64	14914
883.766	14754
883.892	14674
884.018	14720
884.143	14834
884.269	14895
884.395	14526
884.52	14530
884.646	14587
884.772	14442
884.897	14495
885.023	14648
885.148	14575
885.274	14720
885.399	14697
885.524	14583
885.65	14568
885.775	14507
885.9	14617
886.025	14716
886.15	14625
886.275	14503
886.4	14351
886.525	14461
886.65	14530
886.775	14499
886.9	14708
887.025	14739
887.149	14629
887.274	14298
887.399	14320
887.523	14396
887.648	14370
887.773	14267
887.897	14476
888.021	14419
888.146	14473
888.27	14446
888.395	14507
888.519	14427
888.643	14541
888.767	14412
888.891	14347
889.015	14259
889.139	14309
889.263	14248
889.387	14362
889.511	14396
889.635	14434
889.759	14191
889.883	14347
890.006	14328
890.13	14415
890.254	14199
890.377	14218
890.501	14077
890.624	14081
890.748	14191
890.871	14035
890.995	13940
891.118	13826
891.241	13978
891.364	14077
891.488	14092
891.611	14005
891.734	13906
891.857	14024
891.98	13932
892.103	14092
892.226	13936
892.349	13902
892.471	13837
892.594	14046
892.717	13974
892.839	13864
892.962	13997
893.085	13917
893.207	14012
893.33	13909
893.452	13898
893.575	14054
893.697	13978
893.819	14161
893.941	14263
894.064	14202
894.186	13978
894.308	13890
894.43	14100
894.552	14218
894.674	14069
894.796	13860
894.918	14073
895.04	13978
895.161	14123
895.283	14149
895.405	14008
895.526	14065
895.648	14115
895.769	14107
895.891	14107
896.012	14069
896.134	14195
896.255	14145
896.376	14103
896.498	14134
896.619	14218
896.74	14206
896.861	14221
896.982	14533
897.103	14621
897.224	14461
897.345	14385
897.466	14404
897.587	14446
897.708	14568
897.828	14457
897.949	14362
898.07	14328
898.19	14389
898.311	14564
898.431	14412
898.552	14457
898.672	14579
898.792	14670
898.913	14575
899.033	14381
899.153	14328
899.273	14252
899.393	14271
899.513	14408
899.633	14423
899.753	14313
899.873	14351
899.993	14434
900.113	14339
900.232	14343
900.352	14282
900.472	14161
900.591	14187
900.711	14275
900.83	14244
900.95	14347
901.069	14355
901.189	14115
901.308	14058
901.427	13811
901.546	13940
901.665	13852
901.784	13932
901.904	13788
902.023	13647
902.141	13563
902.26	13476
902.379	13586
902.498	13514
902.617	13346
902.735	13464
902.854	13369
902.973	13369
903.091	13183
903.21	13164
903.328	13187
903.446	12989
903.565	12951
903.683	13050
903.801	13000
903.919	13091
904.038	12951
904.156	12791
904.274	12939
904.392	12783
904.51	12825
904.627	12821
904.745	12920
904.863	12962
904.981	12631
905.098	12509
905.216	12623
905.334	12544
905.451	12479
905.569	12506
905.686	12608
905.803	12525
905.921	12422
906.038	12433
906.155	12395
906.272	12281
906.389	12315
906.506	12144
906.623	12167
906.74	12182
906.857	11980
906.974	12022
907.091	12243
907.208	12251
907.324	12152
907.441	12140
907.557	11923
907.674	11882
907.79	11756
907.907	11847
908.023	11863
908.139	11863
908.256	11843
908.372	11851
908.488	11756
908.604	11733
908.72	11676
908.836	11642
908.952	11600
909.068	11634
909.184	11745
909.3	11657
909.415	11695
909.531	11585
909.647	11417
909.762	11296
909.878	11299
909.993	11425
910.108	11391
910.224	11402
910.339	11429
910.454	11261
910.57	11162
910.685	11170
910.8	11505
910.915	11444
911.03	11376
911.145	11102
911.259	11037
911.374	11185
911.489	11033
911.604	11033
911.718	10816
911.833	10866
911.947	10755
912.062	10736
912.176	10786
912.291	10892
912.405	10801
912.519	11056
912.633	10999
912.748	10930
912.862	10930
912.976	10778
913.09	10691
913.204	10637
913.318	10786
913.431	10820
913.545	10850
913.659	10877
913.772	10736
913.886	10641
914	10622
914.113	10752
914.226	10771
914.34	10721
914.453	10516
914.566	10774
914.68	10615
914.793	10538
914.906	10455
915.019	10352
915.132	10314
915.245	10367
915.358	10379
915.47	10398
915.583	10455
915.696	10504
915.809	10493
915.921	10459
916.034	10322
916.146	10341
916.259	10272
916.371	10508
916.483	10421
916.595	10238
916.708	10287
916.82	10261
916.932	10348
917.044	10325
917.156	10318
917.268	10169
917.38	10227
917.491	10211
917.603	10257
917.715	10253
917.826	10287
917.938	10272
918.049	10097
918.161	10246
918.272	10470
918.384	10402
918.495	10284
918.606	10177
918.717	10063
918.828	10139
918.939	10131
919.05	10093
919.161	10025
919.272	9922
919.383	9972
919.494	10105
919.604	10329
919.715	10154
919.826	9975
919.936	10048
920.047	10116
920.157	10158
920.267	10287
920.378	10086
920.488	10112
920.598	10318
920.708	10459
920.818	10257
920.928	10356
921.038	10432
921.148	10428
921.258	10181
921.368	10074
921.477	10010
921.587	9979
921.697	9812
921.806	10063
921.916	9804
922.025	9766
922.134	9675
922.244	9629
922.353	9747
922.462	9561
922.571	9504
922.68	9370
922.789	9298
922.898	9424
923.007	9367
923.116	9370
923.224	9397
923.333	9382
923.442	9317
923.55	9241
923.659	9306
923.767	9348
923.876	9127
923.984	9370
924.092	9241
924.201	9256
924.309	9222
924.417	9272
924.525	9268
924.633	9211
924.741	9884
924.849	9036
924.956	9180
925.064	8986
925.172	8906
925.279	8933
925.387	9085
925.494	8967
925.602	9237
925.709	9138
925.816	9017
925.924	9058
926.031	9116
926.138	9055
926.245	9051
926.352	8982
926.459	9028
926.566	9188
926.673	8956
926.779	8895
926.886	8921
926.993	8739
927.099	8701
927.206	8739
927.312	8689
927.419	8849
927.525	8735
927.631	8834
927.737	8598
927.843	8613
927.95	8579
928.056	8632
928.162	8697
928.267	8667
928.373	9169
928.479	8708
928.585	8518
928.69	8659
928.796	8629
928.901	8545
929.007	8473
929.112	8598
929.218	8545
929.323	8423
929.428	8480
929.533	8644
929.638	8362
929.743	8442
929.848	8495
929.953	8511
930.058	8339
930.163	8279
930.267	8191
930.372	8396
930.477	8252
930.581	8442
930.685	8271
930.79	8214
930.894	8218
930.998	8221
931.103	8305
931.207	8001
931.311	7951
931.415	7841
931.519	7719
931.623	7723
