Data from test_V78500241_3592.txt Node
Date: Fri Mar 25 14:58:43 CST 2022
User: usil
Spectrometer: V785-0024
Trigger mode: 0
Integration Time (sec): 4.000000E-1
Scans to average: 1
Nonlinearity correction enabled: false
Boxcar width: 0
Storing dark spectrum: false
XAxis mode: Wavelengths
Number of Pixels in Spectrum: 1024
>>>>>Begin Spectral Data<<<<<
801.071	21808
801.214	21751
801.356	21458
801.499	21458
801.641	21416
801.783	21154
801.926	21294
802.068	21268
802.211	21131
802.353	21100
802.496	20967
802.638	20769
802.78	20648
802.923	20644
803.065	20533
803.208	20579
803.35	20625
803.492	20777
803.635	20811
803.777	20530
803.919	20640
804.061	21062
804.204	20644
804.346	20575
804.488	20442
804.63	20488
804.773	20511
804.915	20537
805.057	20663
805.199	20484
805.341	20587
805.483	20606
805.626	20606
805.768	20503
805.91	20473
806.052	20530
806.194	20415
806.336	20697
806.478	20503
806.62	20522
806.762	20495
806.904	20644
807.046	20899
807.188	20769
807.33	20895
807.472	20868
807.614	20648
807.756	20724
807.898	20514
808.04	20609
808.182	20651
808.324	20560
808.465	20640
808.607	20876
808.749	20872
808.891	21047
809.033	21074
809.174	20933
809.316	20807
809.458	20845
809.6	20826
809.741	20906
809.883	20880
810.025	20914
810.166	20956
810.308	20956
810.45	20777
810.591	20834
810.733	20648
810.875	20708
811.016	20393
811.158	20514
811.299	20651
811.441	20743
811.582	20686
811.724	20621
811.865	20488
812.007	20533
812.148	20648
812.29	20617
812.431	20678
812.573	20998
812.714	20979
812.855	21199
812.997	21184
813.138	21435
813.279	21310
813.421	21260
813.562	20933
813.703	20887
813.845	20773
813.986	20499
814.127	20339
814.268	20229
814.41	20168
814.551	20153
814.692	20267
814.833	20092
814.974	20115
815.115	20161
815.256	20035
815.397	19989
815.539	19974
815.68	19871
815.821	19753
815.962	19947
816.103	19849
816.244	19601
816.385	19708
816.526	19677
816.666	19495
816.807	19358
816.948	19392
817.089	19251
817.23	19358
817.371	19339
817.512	19312
817.653	19251
817.793	19270
817.934	19244
818.075	19339
818.216	19297
818.356	19278
818.497	19179
818.638	19015
818.778	18913
818.919	19057
819.06	18954
819.2	19023
819.341	19114
819.481	19156
819.622	19419
819.762	19521
819.903	19274
820.043	19320
820.184	19228
820.324	19209
820.465	19304
820.605	19282
820.746	19232
820.886	19141
821.026	19282
821.167	19175
821.307	19247
821.447	19103
821.588	19061
821.728	18920
821.868	18779
822.008	18772
822.149	18696
822.289	18627
822.429	18433
822.569	18429
822.709	18391
822.849	18235
822.99	18228
823.13	18182
823.27	18019
823.41	17980
823.55	17920
823.69	17939
823.83	18030
823.97	17923
824.11	17824
824.25	17661
824.389	17779
824.529	17813
824.669	17767
824.809	17726
824.949	17855
825.089	17805
825.228	17668
825.368	17543
825.508	17619
825.648	17608
825.787	17558
825.927	17497
826.067	17547
826.206	17436
826.346	17524
826.485	17478
826.625	17562
826.765	17592
826.904	17448
827.044	17334
827.183	17235
827.323	17231
827.462	17284
827.601	17250
827.741	17060
827.88	17284
828.02	17064
828.159	17174
828.298	17299
828.437	17334
828.577	17250
828.716	17436
828.855	17170
828.994	16995
829.134	16927
829.273	16923
829.412	16839
829.551	16930
829.69	16995
829.829	17048
829.968	16999
830.107	17064
830.246	17121
830.385	16896
830.524	16923
830.663	16759
830.802	16710
830.941	16653
831.08	16561
831.219	16706
831.357	16660
831.496	16862
831.635	16558
831.774	16421
831.913	16432
832.051	16348
832.19	16333
832.329	16375
832.467	16299
832.606	16135
832.744	16310
832.883	16242
833.022	16265
833.16	16287
833.299	16379
833.437	16375
833.576	16348
833.714	16382
833.852	16291
833.991	16337
834.129	16413
834.267	16371
834.406	16329
834.544	16344
834.682	16379
834.821	16192
834.959	16489
835.097	16238
835.235	16455
835.373	16443
835.511	16253
835.65	16211
835.788	16287
835.926	16162
836.064	16154
836.202	16120
836.34	16303
836.478	16417
836.615	16261
836.753	16344
836.891	16432
837.029	16314
837.167	16276
837.305	16219
837.443	16154
837.58	16116
837.718	16162
837.856	16238
837.993	16234
838.131	16230
838.269	16109
838.406	16078
838.544	15979
838.681	15865
838.819	15842
838.956	15774
839.094	15724
839.231	15736
839.369	15983
839.506	16169
839.643	15975
839.781	15720
839.918	15690
840.055	15698
840.193	15610
840.33	15648
840.467	15679
840.604	15827
840.742	15945
840.879	15660
841.016	15561
841.153	15625
841.29	15861
841.427	15755
841.564	15873
841.701	15724
841.838	15572
841.975	15667
842.112	15622
842.249	15534
842.385	15359
842.522	15629
842.659	15519
842.796	15477
842.933	15526
843.069	15431
843.206	15450
843.343	15622
843.479	15496
843.616	15530
843.752	15264
843.889	15374
844.025	15355
844.162	15321
844.298	15306
844.435	15222
844.571	15165
844.708	15355
844.844	15504
844.98	15344
845.117	15431
845.253	15332
845.389	15180
845.525	15173
845.661	15150
845.798	15089
845.934	15081
846.07	15009
846.206	15184
846.342	15173
846.478	15192
846.614	14891
846.75	14872
846.886	14853
847.022	14921
847.158	14864
847.294	14921
847.429	14842
847.565	14868
847.701	15093
847.837	14594
847.972	14625
848.108	14621
848.244	14644
848.379	14598
848.515	14476
848.65	14377
848.786	14488
848.921	14446
849.057	14560
849.192	14598
849.328	14511
849.463	14434
849.598	14404
849.734	14374
849.869	14339
850.004	14267
850.14	14233
850.275	14225
850.41	14237
850.545	14130
850.68	14221
850.815	14218
850.95	14202
851.085	14358
851.22	14339
851.355	14275
851.49	14081
851.625	14073
851.76	14168
851.895	14134
852.03	14168
852.165	14271
852.299	14210
852.434	14320
852.569	14385
852.703	14290
852.838	14309
852.973	14393
853.107	14408
853.242	14240
853.376	14096
853.511	14069
853.645	14119
853.78	14225
853.914	14084
854.048	14119
854.183	14058
854.317	14153
854.451	14115
854.585	14149
854.72	14058
854.854	14172
854.988	13986
855.122	14020
855.256	13928
855.39	14050
855.524	14126
855.658	14149
855.792	14111
855.926	14199
856.06	14138
856.194	14202
856.327	14191
856.461	14035
856.595	14043
856.729	14111
856.862	14183
856.996	14103
857.13	14172
857.263	14271
857.397	14210
857.53	14058
857.664	14161
857.797	14142
857.931	14221
858.064	14126
858.197	14202
858.331	14153
858.464	14031
858.597	14035
858.731	14005
858.864	13986
858.997	14050
859.13	14164
859.263	14100
859.396	14202
859.529	14054
859.662	14062
859.795	14035
859.928	14145
860.061	14271
860.194	14221
860.327	14149
860.46	14084
860.592	14195
860.725	14309
860.858	14286
860.99	14134
861.123	13906
861.256	13993
861.388	14134
861.521	14880
861.653	13902
861.786	13974
861.918	13967
862.05	13917
862.183	14081
862.315	14111
862.447	14111
862.58	14027
862.712	13849
862.844	13887
862.976	13993
863.108	13928
863.24	14206
863.372	13811
863.504	13791
863.636	13906
863.768	13974
863.9	13963
864.032	13883
864.164	13849
864.296	13864
864.428	14012
864.559	13974
864.691	14020
864.823	13898
864.954	13921
865.086	13974
865.217	13864
865.349	13830
865.48	13925
865.612	13868
865.743	14107
865.875	13921
866.006	13826
866.137	13826
866.269	13799
866.4	13864
866.531	13814
866.662	13788
866.793	13761
866.924	13818
867.055	13898
867.186	13784
867.317	13875
867.448	13887
867.579	13791
867.71	13818
867.841	13814
867.972	13875
868.103	13864
868.233	13894
868.364	13822
868.495	13936
868.625	14111
868.756	14290
868.886	14046
869.017	14035
869.147	14202
869.278	14267
869.408	14191
869.539	14145
869.669	14187
869.799	14290
869.929	14294
870.06	14218
870.19	14370
870.32	14400
870.45	14408
870.58	14590
870.71	14629
870.84	14636
870.97	14511
871.1	14427
871.23	14686
871.36	14716
871.489	14644
871.619	14678
871.749	14568
871.879	14777
872.008	14880
872.138	14785
872.267	14640
872.397	14629
872.526	14648
872.656	14518
872.785	14571
872.915	14724
873.044	14838
873.173	14739
873.303	14739
873.432	14883
873.561	14876
873.69	14758
873.819	14716
873.948	14765
874.077	14811
874.206	14727
874.335	14735
874.464	14899
874.593	14994
874.722	15043
874.851	15119
874.979	15077
875.108	15138
875.237	15032
875.365	15043
875.494	15062
875.623	15085
875.751	15081
875.88	15142
876.008	15252
876.136	15313
876.265	15416
876.393	15618
876.521	15515
876.65	15606
876.778	15599
876.906	15488
877.034	15538
877.162	15523
877.29	15393
877.418	15526
877.546	15553
877.674	15378
877.802	15511
877.93	15435
878.058	15580
878.185	15370
878.313	15481
878.441	15545
878.568	15336
878.696	15450
878.824	15523
878.951	15564
879.079	15739
879.206	15774
879.333	15709
879.461	15591
879.588	15732
879.715	15675
879.842	15823
879.97	15599
880.097	15332
880.224	15329
880.351	15393
880.478	15401
880.605	15386
880.732	15348
880.859	15603
880.986	15401
881.112	15443
881.239	15287
881.366	15112
881.493	15100
881.619	14986
881.746	15047
881.872	15020
881.999	15001
882.125	14925
882.252	15077
882.378	15070
882.505	15116
882.631	14990
882.757	14815
882.883	14921
883.01	14735
883.136	14861
883.262	14739
883.388	14632
883.514	14788
883.64	14925
883.766	14830
883.892	14640
884.018	14701
884.143	14777
884.269	14933
884.395	14590
884.52	14602
884.646	14427
884.772	14446
884.897	14499
885.023	14514
885.148	14716
885.274	14705
885.399	14617
885.524	14610
885.65	14571
885.775	14564
885.9	14522
886.025	14697
886.15	14594
886.275	14514
886.4	14503
886.525	14583
886.65	14454
886.775	14621
886.9	14663
887.025	14670
887.149	14667
887.274	14400
887.399	14305
887.523	14339
887.648	14225
887.773	14309
887.897	14434
888.021	14446
888.146	14412
888.27	14461
888.395	14526
888.519	14438
888.643	14438
888.767	14404
888.891	14377
889.015	14229
889.139	14271
889.263	14183
889.387	14389
889.511	14511
889.635	14415
889.759	14214
889.883	14229
890.006	14294
890.13	14358
890.254	14054
890.377	14195
890.501	14054
890.624	14024
890.748	14153
890.871	13951
890.995	13909
891.118	13864
891.241	13970
891.364	14016
891.488	14081
891.611	13963
891.734	14016
891.857	14050
891.98	14016
892.103	14020
892.226	14058
892.349	14065
892.471	13830
892.594	13986
892.717	13928
892.839	13883
892.962	13963
893.085	13947
893.207	14062
893.33	13864
893.452	13852
893.575	14043
893.697	13974
893.819	14153
893.941	14107
894.064	14100
894.186	13875
894.308	13925
894.43	14058
894.552	14134
894.674	14107
894.796	14008
894.918	13978
895.04	14050
895.161	14123
895.283	14096
895.405	13947
895.526	14073
895.648	14134
895.769	14065
895.891	14168
896.012	14058
896.134	14180
896.255	14157
896.376	14058
896.498	14134
896.619	14157
896.74	14134
896.861	14221
896.982	14415
897.103	14571
897.224	14530
897.345	14442
897.466	14339
897.587	14381
897.708	14476
897.828	14389
897.949	14404
898.07	14183
898.19	14355
898.311	14594
898.431	14408
898.552	14431
898.672	14594
898.792	14552
898.913	14461
899.033	14355
899.153	14324
899.273	14206
899.393	14256
899.513	14313
899.633	14339
899.753	14313
899.873	14313
899.993	14362
900.113	14336
900.232	14355
900.352	14298
900.472	14286
900.591	14126
900.711	14256
900.83	14202
900.95	14248
901.069	14202
901.189	14123
901.308	13917
901.427	13868
901.546	13868
901.665	13921
901.784	13845
901.904	13757
902.023	13674
902.141	13480
902.26	13441
902.379	13415
902.498	13415
902.617	13422
902.735	13434
902.854	13403
902.973	13388
903.091	13126
903.21	13103
903.328	13194
903.446	13080
903.565	13133
903.683	13042
903.801	12966
903.919	12981
904.038	12993
904.156	12787
904.274	12913
904.392	12871
904.51	12772
904.627	12776
904.745	12875
904.863	12905
904.981	12665
905.098	12452
905.216	12509
905.334	12528
905.451	12517
905.569	12506
905.686	12601
905.803	12479
905.921	12342
906.038	12467
906.155	12395
906.272	12258
906.389	12205
906.506	12190
906.623	12133
906.74	12098
906.857	12102
906.974	12045
907.091	12194
907.208	12235
907.324	12133
907.441	12053
907.557	11889
907.674	11866
907.79	11790
907.907	11828
908.023	11840
908.139	11893
908.256	11901
908.372	11760
908.488	11752
908.604	11722
908.72	11661
908.836	11604
908.952	11596
909.068	11554
909.184	11764
909.3	11615
909.415	11684
909.531	11646
909.647	11349
909.762	11341
909.878	11299
909.993	11493
910.108	11459
910.224	11440
910.339	11444
910.454	11307
910.57	11235
910.685	11216
910.8	11455
910.915	11501
911.03	11311
911.145	11140
911.259	11143
911.374	11174
911.489	10999
911.604	10949
911.718	10889
911.833	10919
911.947	10706
912.062	10637
912.176	10824
912.291	10847
912.405	10850
912.519	11033
912.633	11113
912.748	10957
912.862	10873
912.976	10801
913.09	10607
913.204	10664
913.318	10759
913.431	10763
913.545	10889
913.659	10771
913.772	10778
913.886	10626
914	10645
914.113	10714
914.226	10759
914.34	10683
914.453	10497
914.566	10698
914.68	10577
914.793	10523
914.906	10371
915.019	10329
915.132	10265
915.245	10386
915.358	10436
915.47	10436
915.583	10398
915.696	10409
915.809	10466
915.921	10500
916.034	10398
916.146	10299
916.259	10291
916.371	10409
916.483	10348
916.595	10303
916.708	10291
916.82	10272
916.932	10299
917.044	10268
917.156	10257
917.268	10158
917.38	10238
917.491	10063
917.603	10261
917.715	10238
917.826	10291
917.938	10181
918.049	10048
918.161	10238
918.272	10348
918.384	10318
918.495	10227
918.606	10139
918.717	10025
918.828	10128
918.939	10162
919.05	9945
919.161	10105
919.272	9854
919.383	9979
919.494	10131
919.604	10287
919.715	10105
919.826	10017
919.936	10067
920.047	10204
920.157	10135
920.267	10299
920.378	10200
920.488	10002
920.598	10246
920.708	10409
920.818	10348
920.928	10386
921.038	10558
921.148	10462
921.258	10158
921.368	10120
921.477	10032
921.587	9945
921.697	9785
921.806	10048
921.916	9865
922.025	9732
922.134	9641
922.244	9637
922.353	9660
922.462	9599
922.571	9618
922.68	9329
922.789	9340
922.898	9439
923.007	9382
923.116	9348
923.224	9351
923.333	9249
923.442	9241
923.55	9340
923.659	9268
923.767	9260
923.876	9180
923.984	9264
924.092	9074
924.201	9199
924.309	9188
924.417	9245
924.525	9161
924.633	9272
924.741	9979
924.849	8986
924.956	9157
925.064	8986
925.172	8937
925.279	8937
925.387	9085
925.494	9043
925.602	9169
925.709	9146
925.816	8944
925.924	9017
926.031	9119
926.138	9039
926.245	9100
926.352	8925
926.459	9070
926.566	9077
926.673	9032
926.779	8944
926.886	8918
926.993	8689
927.099	8724
927.206	8674
927.312	8682
927.419	8830
927.525	8796
927.631	8864
927.737	8705
927.843	8632
927.95	8583
928.056	8606
928.162	8632
928.267	8670
928.373	9135
928.479	8766
928.585	8476
928.69	8629
928.796	8773
928.901	8571
929.007	8404
929.112	8579
929.218	8579
929.323	8473
929.428	8488
929.533	8545
929.638	8415
929.743	8400
929.848	8537
929.953	8431
930.058	8328
930.163	8256
930.267	8221
930.372	8431
930.477	8271
930.581	8495
930.685	8381
930.79	8119
930.894	8267
930.998	8100
931.103	8332
931.207	7955
931.311	7890
931.415	7898
931.519	7681
931.623	7666
