Data from test_V78500241_1087.txt Node
Date: Fri Mar 25 14:41:17 CST 2022
User: usil
Spectrometer: V785-0024
Trigger mode: 0
Integration Time (sec): 4.000000E-1
Scans to average: 1
Nonlinearity correction enabled: false
Boxcar width: 0
Storing dark spectrum: false
XAxis mode: Wavelengths
Number of Pixels in Spectrum: 1024
>>>>>Begin Spectral Data<<<<<
801.071	22675
801.214	22759
801.356	22325
801.499	22173
801.641	22090
801.783	22055
801.926	22097
802.068	22002
802.211	21895
802.353	21804
802.496	21595
802.638	21545
802.78	21614
802.923	21568
803.065	21374
803.208	21431
803.35	21428
803.492	21523
803.635	21526
803.777	21367
803.919	21511
804.061	21679
804.204	21553
804.346	21313
804.488	21370
804.63	21367
804.773	21340
804.915	21355
805.057	21443
805.199	21374
805.341	21389
805.483	21450
805.626	21428
805.768	21332
805.91	21393
806.052	21492
806.194	21370
806.336	21561
806.478	21412
806.62	21287
806.762	21393
806.904	21679
807.046	21739
807.188	21713
807.33	21838
807.472	21800
807.614	21671
807.756	21774
807.898	21675
808.04	21553
808.182	21641
808.324	21610
808.465	21854
808.607	21922
808.749	22090
808.891	22287
809.033	22314
809.174	22234
809.316	22029
809.458	22116
809.6	22044
809.741	21941
809.883	21956
810.025	22055
810.166	22078
810.308	22082
810.45	21907
810.591	21907
810.733	21762
810.875	21557
811.016	21656
811.158	21644
811.299	21705
811.441	21759
811.582	21713
811.724	21663
811.865	21515
812.007	21561
812.148	21458
812.29	21637
812.431	21785
812.573	22006
812.714	22070
812.855	22185
812.997	22177
813.138	22390
813.279	22185
813.421	22185
813.562	22059
813.703	21979
813.845	21637
813.986	21595
814.127	21462
814.268	21211
814.41	21226
814.551	21112
814.692	21233
814.833	21093
814.974	21066
815.115	21066
815.256	20975
815.397	20960
815.539	20944
815.68	20773
815.821	20864
815.962	20796
816.103	20815
816.244	20804
816.385	20712
816.526	20575
816.666	20450
816.807	20290
816.948	20450
817.089	20442
817.23	20419
817.371	20275
817.512	20377
817.653	20282
817.793	20396
817.934	20256
818.075	20351
818.216	20339
818.356	20256
818.497	20069
818.638	20016
818.778	19936
818.919	19951
819.06	20096
819.2	20145
819.341	20240
819.481	20103
819.622	20328
819.762	20518
819.903	20370
820.043	20332
820.184	20347
820.324	20252
820.465	20419
820.605	20419
820.746	20313
820.886	20187
821.026	20187
821.167	20252
821.307	20244
821.447	20153
821.588	20077
821.728	20008
821.868	19887
822.008	19685
822.149	19753
822.289	19491
822.429	19422
822.569	19362
822.709	19285
822.849	19175
822.99	19270
823.13	19129
823.27	19183
823.41	18966
823.55	18890
823.69	18977
823.83	19027
823.97	18848
824.11	18787
824.25	18810
824.389	18700
824.529	18882
824.669	18867
824.809	18810
824.949	18791
825.089	18802
825.228	18741
825.368	18521
825.508	18604
825.648	18589
825.787	18631
825.927	18540
826.067	18502
826.206	18521
826.346	18528
826.485	18551
826.625	18509
826.765	18722
826.904	18498
827.044	18266
827.183	18327
827.323	18205
827.462	18323
827.601	18182
827.741	18136
827.88	18232
828.02	18060
828.159	18133
828.298	18224
828.437	18258
828.577	18163
828.716	18361
828.855	18258
828.994	18011
829.134	18053
829.273	18079
829.412	17954
829.551	17863
829.69	17961
829.829	18072
829.968	17988
830.107	18019
830.246	18034
830.385	17897
830.524	17813
830.663	17771
830.802	17714
830.941	17592
831.08	17592
831.219	17627
831.357	17600
831.496	17840
831.635	17554
831.774	17463
831.913	17463
832.051	17440
832.19	17337
832.329	17402
832.467	17299
832.606	17265
832.744	17208
832.883	17303
833.022	17246
833.16	17326
833.299	17227
833.437	17406
833.576	17436
833.714	17391
833.852	17372
833.991	17478
834.129	17459
834.267	17417
834.406	17318
834.544	17448
834.682	17440
834.821	17345
834.959	17566
835.097	17296
835.235	17436
835.373	17436
835.511	17379
835.65	17296
835.788	17261
835.926	17174
836.064	17056
836.202	17083
836.34	17227
836.478	17288
836.615	17204
836.753	17212
836.891	17318
837.029	17280
837.167	17159
837.305	17174
837.443	17117
837.58	17132
837.718	17170
837.856	17014
837.993	16984
838.131	17033
838.269	17079
838.406	16976
838.544	16908
838.681	16744
838.819	16774
838.956	16687
839.094	16660
839.231	16725
839.369	16767
839.506	17060
839.643	16877
839.781	16675
839.918	16615
840.055	16641
840.193	16637
840.33	16592
840.467	16611
840.604	16653
840.742	16873
840.879	16561
841.016	16470
841.153	16512
841.29	16702
841.427	16622
841.564	16634
841.701	16710
841.838	16645
841.975	16523
842.112	16542
842.249	16341
842.385	16363
842.522	16577
842.659	16386
842.796	16390
842.933	16386
843.069	16303
843.206	16322
843.343	16485
843.479	16405
843.616	16409
843.752	16173
843.889	16200
844.025	16306
844.162	16055
844.298	16287
844.435	16173
844.571	16128
844.708	16207
844.844	16402
844.98	16238
845.117	16325
845.253	16177
845.389	16196
845.525	16360
845.661	16398
845.798	16390
845.934	16497
846.07	16459
846.206	16550
846.342	16523
846.478	16352
846.614	15991
846.75	15816
846.886	15762
847.022	16059
847.158	15785
847.294	15759
847.429	15724
847.565	15759
847.701	15983
847.837	15424
847.972	15496
848.108	15660
848.244	15488
848.379	15420
848.515	15260
848.65	15351
848.786	15359
848.921	15287
849.057	15450
849.192	15477
849.328	15462
849.463	15374
849.598	15359
849.734	15249
849.869	15195
850.004	15154
850.14	15211
850.275	15112
850.41	15043
850.545	15020
850.68	15116
850.815	15127
850.95	15077
851.085	15351
851.22	15161
851.355	15089
851.49	15112
851.625	15157
851.76	15093
851.895	14998
852.03	14994
852.165	14998
852.299	15085
852.434	15195
852.569	15093
852.703	15211
852.838	15119
852.973	15252
853.107	15256
853.242	15005
853.376	15028
853.511	14925
853.645	14933
853.78	14990
853.914	14975
854.048	14937
854.183	14967
854.317	15017
854.451	15161
854.585	14971
854.72	15009
854.854	15070
854.988	14895
855.122	14864
855.256	14739
855.39	14979
855.524	15097
855.658	15013
855.792	15043
855.926	15047
856.06	14952
856.194	15116
856.327	14963
856.461	14906
856.595	14906
856.729	14925
856.862	15062
856.996	14963
857.13	14971
857.263	15112
857.397	15116
857.53	14967
857.664	15077
857.797	15005
857.931	15116
858.064	14967
858.197	15070
858.331	14975
858.464	14952
858.597	14899
858.731	14975
858.864	14891
858.997	14944
859.13	14975
859.263	15013
859.396	15070
859.529	14960
859.662	14895
859.795	14876
859.928	14963
860.061	15116
860.194	15135
860.327	14971
860.46	14971
860.592	15070
860.725	14998
860.858	15100
860.99	14948
861.123	14914
861.256	14895
861.388	14998
861.521	15473
861.653	14807
861.786	14781
861.918	14834
862.05	14845
862.183	14982
862.315	14937
862.447	15081
862.58	14876
862.712	14708
862.844	14705
862.976	14785
863.108	14788
863.24	15150
863.372	14724
863.504	14689
863.636	14785
863.768	14807
863.9	14792
864.032	14564
864.164	14693
864.296	14731
864.428	14868
864.559	14785
864.691	14823
864.823	14735
864.954	14769
865.086	14731
865.217	14727
865.349	14617
865.48	14632
865.612	14720
865.743	14887
865.875	14743
866.006	14640
866.137	14686
866.269	14670
866.4	14663
866.531	14667
866.662	14606
866.793	14754
866.924	14617
867.055	14659
867.186	14610
867.317	14682
867.448	14686
867.579	14750
867.71	14606
867.841	14575
867.972	14632
868.103	14655
868.233	14762
868.364	14708
868.495	14819
868.625	14910
868.756	15039
868.886	14815
869.017	14910
869.147	15066
869.278	15154
869.408	15028
869.539	14982
869.669	14979
869.799	15070
869.929	15089
870.06	15154
870.19	15298
870.32	15211
870.45	15241
870.58	15336
870.71	15481
870.84	15397
870.97	15355
871.1	15382
871.23	15530
871.36	15530
871.489	15485
871.619	15534
871.749	15473
871.879	15572
872.008	15561
872.138	15591
872.267	15534
872.397	15439
872.526	15317
872.656	15397
872.785	15447
872.915	15492
873.044	15618
873.173	15606
873.303	15603
873.432	15713
873.561	15686
873.69	15519
873.819	15603
873.948	15698
874.077	15511
874.206	15492
874.335	15652
874.464	15679
874.593	15907
874.722	15804
874.851	15892
874.979	15800
875.108	15922
875.237	15987
875.365	15854
875.494	15842
875.623	15956
875.751	15873
875.88	15888
876.008	16032
876.136	16044
876.265	16287
876.393	16421
876.521	16382
876.65	16379
876.778	16409
876.906	16284
877.034	16253
877.162	16386
877.29	16348
877.418	16310
877.546	16299
877.674	16272
877.802	16424
877.93	16360
878.058	16344
878.185	16287
878.313	16299
878.441	16363
878.568	16238
878.696	16196
878.824	16447
878.951	16436
879.079	16538
879.206	16752
879.333	16675
879.461	16683
879.588	16675
879.715	16778
879.842	16904
879.97	16558
880.097	16306
880.224	16219
880.351	16322
880.478	16196
880.605	16154
880.732	16230
880.859	16466
880.986	16230
881.112	16272
881.239	16097
881.366	16086
881.493	15953
881.619	15850
881.746	16021
881.872	15827
881.999	15873
882.125	15838
882.252	15831
882.378	15930
882.505	16006
882.631	15819
882.757	15679
882.883	15713
883.01	15679
883.136	15553
883.262	15538
883.388	15561
883.514	15682
883.64	15705
883.766	15610
883.892	15393
884.018	15488
884.143	15633
884.269	15762
884.395	15393
884.52	15348
884.646	15393
884.772	15268
884.897	15226
885.023	15458
885.148	15538
885.274	15515
885.399	15496
885.524	15325
885.65	15325
885.775	15420
885.9	15351
886.025	15443
886.15	15477
886.275	15291
886.4	15230
886.525	15260
886.65	15302
886.775	15272
886.9	15447
887.025	15530
887.149	15382
887.274	15207
887.399	15135
887.523	15233
887.648	15100
887.773	15013
887.897	15123
888.021	15176
888.146	15135
888.27	15214
888.395	15336
888.519	15218
888.643	15150
888.767	15233
888.891	15058
889.015	14937
889.139	15097
889.263	15097
889.387	15146
889.511	15279
889.635	15203
889.759	15020
889.883	14895
890.006	14979
890.13	15047
890.254	14914
890.377	15043
890.501	14746
890.624	14750
890.748	14933
890.871	14712
890.995	14686
891.118	14678
891.241	14667
891.364	14693
891.488	14750
891.611	14705
891.734	14727
891.857	14686
891.98	14716
892.103	14712
892.226	14762
892.349	14621
892.471	14492
892.594	14731
892.717	14663
892.839	14674
892.962	14629
893.085	14750
893.207	14655
893.33	14480
893.452	14629
893.575	14693
893.697	14598
893.819	14754
893.941	14788
894.064	14899
894.186	14678
894.308	14644
894.43	14743
894.552	14826
894.674	14765
894.796	14659
894.918	14807
895.04	14689
895.161	14872
895.283	14701
895.405	14731
895.526	14857
895.648	14785
895.769	14826
895.891	14895
896.012	14895
896.134	14918
896.255	14842
896.376	14781
896.498	14727
896.619	15013
896.74	14754
896.861	14838
896.982	15245
897.103	15252
897.224	15138
897.345	15066
897.466	15039
897.587	15192
897.708	15222
897.828	15074
897.949	15028
898.07	14944
898.19	15043
898.311	15207
898.431	15116
898.552	15275
898.672	15214
898.792	15294
898.913	15165
899.033	15032
899.153	15062
899.273	14868
899.393	15017
899.513	14914
899.633	14986
899.753	15116
899.873	15020
899.993	15032
900.113	14963
900.232	14998
900.352	14975
900.472	14891
900.591	14815
900.711	14971
900.83	14853
900.95	14979
901.069	15017
901.189	14815
901.308	14556
901.427	14419
901.546	14518
901.665	14613
901.784	14518
901.904	14461
902.023	14339
902.141	14084
902.26	14069
902.379	14221
902.498	14031
902.617	14134
902.735	14164
902.854	14035
902.973	14138
903.091	13814
903.21	13746
903.328	13837
903.446	13826
903.565	13670
903.683	13670
903.801	13605
903.919	13658
904.038	13666
904.156	13537
904.274	13441
904.392	13449
904.51	13457
904.627	13445
904.745	13533
904.863	13373
904.981	13312
905.098	13114
905.216	13118
905.334	13152
905.451	13190
905.569	13084
905.686	13160
905.803	13152
905.921	12943
906.038	13046
906.155	12954
906.272	12783
906.389	12935
906.506	12745
906.623	12684
906.74	12681
906.857	12662
906.974	12597
907.091	12711
907.208	12817
907.324	12814
907.441	12642
907.557	12559
907.674	12433
907.79	12346
907.907	12460
908.023	12460
908.139	12498
908.256	12460
908.372	12376
908.488	12338
908.604	12216
908.72	12205
908.836	12186
908.952	12228
909.068	12300
909.184	12296
909.3	12235
909.415	12258
909.531	12167
909.647	11999
909.762	12041
909.878	11939
909.993	12038
910.108	11889
910.224	11992
910.339	12019
910.454	11939
910.57	11824
910.685	11836
910.8	12095
910.915	11954
911.03	11897
911.145	11710
911.259	11646
911.374	11638
911.489	11608
911.604	11551
911.718	11444
911.833	11562
911.947	11364
912.062	11284
912.176	11368
912.291	11497
912.405	11356
912.519	11554
912.633	11562
912.748	11528
912.862	11486
912.976	11269
913.09	11185
913.204	11216
913.318	11284
913.431	11368
913.545	11379
913.659	11440
913.772	11315
913.886	11159
914	11208
914.113	11231
914.226	11246
914.34	11246
914.453	11197
914.566	11242
914.68	11083
914.793	11071
914.906	10938
915.019	10904
915.132	10801
915.245	10908
915.358	10889
915.47	10942
915.583	10911
915.696	10942
915.809	10999
915.921	11079
916.034	10889
916.146	10896
916.259	10850
916.371	10927
916.483	10873
916.595	10896
916.708	10790
916.82	10839
916.932	10900
917.044	10816
917.156	10736
917.268	10744
917.38	10694
917.491	10687
917.603	10778
917.715	10759
917.826	10835
917.938	10744
918.049	10561
918.161	10733
918.272	10889
918.384	10790
918.495	10771
918.606	10573
918.717	10512
918.828	10599
918.939	10607
919.05	10481
919.161	10580
919.272	10432
919.383	10382
919.494	10668
919.604	10778
919.715	10573
919.826	10478
919.936	10588
920.047	10706
920.157	10637
920.267	10771
920.378	10664
920.488	10630
920.598	10729
920.708	10968
920.818	10755
920.928	10782
921.038	10923
921.148	10862
921.258	10626
921.368	10577
921.477	10493
921.587	10459
921.697	10272
921.806	10466
921.916	10344
922.025	10169
922.134	10147
922.244	10128
922.353	10139
922.462	10097
922.571	9991
922.68	9823
922.789	9785
922.898	9778
923.007	9785
923.116	9907
923.224	9880
923.333	9831
923.442	9667
923.55	9618
923.659	9747
923.767	9816
923.876	9701
923.984	9736
924.092	9629
924.201	9686
924.309	9679
924.417	9709
924.525	9644
924.633	9629
924.741	10592
924.849	9405
924.956	9629
925.064	9443
925.172	9435
925.279	9511
925.387	9466
925.494	9431
925.602	9545
925.709	9538
925.816	9408
925.924	9458
926.031	9534
926.138	9587
926.245	9523
926.352	9355
926.459	9462
926.566	9591
926.673	9458
926.779	9359
926.886	9348
926.993	9180
927.099	9180
927.206	9085
927.312	9116
927.419	9184
927.525	9169
927.631	9199
927.737	8986
927.843	9089
927.95	8914
928.056	9043
928.162	9058
928.267	9127
928.373	9743
928.479	9131
928.585	8933
928.69	8979
928.796	9097
928.901	8921
929.007	8887
929.112	9036
929.218	9024
929.323	8834
929.428	8864
929.533	9024
929.638	8781
929.743	8857
929.848	8929
929.953	8842
930.058	8769
930.163	8549
930.267	8682
930.372	8807
930.477	8594
930.581	8861
930.685	8648
930.79	8606
930.894	8613
930.998	8560
931.103	8735
931.207	8263
931.311	8286
931.415	8214
931.519	8054
931.623	8081
