Data from test_V78500241_2103.txt Node
Date: Fri Mar 25 14:48:21 CST 2022
User: usil
Spectrometer: V785-0024
Trigger mode: 0
Integration Time (sec): 4.000000E-1
Scans to average: 1
Nonlinearity correction enabled: false
Boxcar width: 0
Storing dark spectrum: false
XAxis mode: Wavelengths
Number of Pixels in Spectrum: 1024
>>>>>Begin Spectral Data<<<<<
801.071	22029
801.214	22017
801.356	21804
801.499	21690
801.641	21603
801.783	21561
801.926	21542
802.068	21416
802.211	21382
802.353	21302
802.496	20960
802.638	20975
802.78	20899
802.923	20872
803.065	20769
803.208	20804
803.35	20811
803.492	20994
803.635	20952
803.777	20853
803.919	20842
804.061	21249
804.204	20826
804.346	20857
804.488	20792
804.63	20640
804.773	20712
804.915	20731
805.057	20838
805.199	20636
805.341	20834
805.483	20929
805.626	20834
805.768	20678
805.91	20781
806.052	20800
806.194	20549
806.336	20800
806.478	20686
806.62	20697
806.762	20887
806.904	20910
807.046	21207
807.188	21009
807.33	20944
807.472	20990
807.614	21077
807.756	20895
807.898	20899
808.04	20796
808.182	20815
808.324	20887
808.465	20906
808.607	20990
808.749	21150
808.891	21138
809.033	21237
809.174	21150
809.316	21150
809.458	21085
809.6	20979
809.741	21127
809.883	21138
810.025	21291
810.166	21310
810.308	21405
810.45	21218
810.591	21135
810.733	20982
810.875	20963
811.016	20807
811.158	20746
811.299	20914
811.441	21047
811.582	21024
811.724	20819
811.865	20857
812.007	20933
812.148	20750
812.29	20956
812.431	21036
812.573	21249
812.714	21283
812.855	21401
812.997	21481
813.138	21629
813.279	21564
813.421	21447
813.562	21363
813.703	21085
813.845	21009
813.986	20826
814.127	20530
814.268	20537
814.41	20583
814.551	20393
814.692	20415
814.833	20408
814.974	20434
815.115	20423
815.256	20294
815.397	20271
815.539	20408
815.68	20134
815.821	19978
815.962	20183
816.103	20126
816.244	20035
816.385	19940
816.526	19932
816.666	19738
816.807	19525
816.948	19689
817.089	19723
817.23	19727
817.371	19506
817.512	19582
817.653	19674
817.793	19480
817.934	19521
818.075	19529
818.216	19651
818.356	19460
818.497	19373
818.638	19278
818.778	19308
818.919	19137
819.06	19312
819.2	19324
819.341	19430
819.481	19483
819.622	19601
819.762	19769
819.903	19738
820.043	19651
820.184	19571
820.324	19537
820.465	19609
820.605	19495
820.746	19369
820.886	19335
821.026	19548
821.167	19483
821.307	19601
821.447	19407
821.588	19400
821.728	19206
821.868	19088
822.008	18966
822.149	18996
822.289	18962
822.429	18753
822.569	18563
822.709	18703
822.849	18334
822.99	18399
823.13	18361
823.27	18414
823.41	18251
823.55	18209
823.69	18239
823.83	18182
823.97	18102
824.11	18064
824.25	17988
824.389	18087
824.529	18106
824.669	17939
824.809	18228
824.949	18133
825.089	18155
825.228	17935
825.368	17920
825.508	17843
825.648	17748
825.787	17802
825.927	17870
826.067	17764
826.206	17771
826.346	17824
826.485	17840
826.625	17798
826.765	17863
826.904	17847
827.044	17520
827.183	17558
827.323	17425
827.462	17604
827.601	17520
827.741	17581
827.88	17566
828.02	17337
828.159	17436
828.298	17573
828.437	17585
828.577	17554
828.716	17623
828.855	17471
828.994	17273
829.134	17349
829.273	17277
829.412	17147
829.551	17174
829.69	17292
829.829	17261
829.968	17322
830.107	17337
830.246	17235
830.385	17090
830.524	17200
830.663	17208
830.802	17037
830.941	16911
831.08	16881
831.219	16953
831.357	16991
831.496	17102
831.635	16778
831.774	16778
831.913	16938
832.051	16767
832.19	16816
832.329	16702
832.467	16596
832.606	16622
832.744	16603
832.883	16493
833.022	16626
833.16	16584
833.299	16561
833.437	16637
833.576	16542
833.714	16672
833.852	16615
833.991	16637
834.129	16759
834.267	16733
834.406	16618
834.544	16694
834.682	16645
834.821	16649
834.959	16660
835.097	16459
835.235	16717
835.373	16672
835.511	16569
835.65	16531
835.788	16535
835.926	16390
836.064	16379
836.202	16352
836.34	16546
836.478	16565
836.615	16569
836.753	16626
836.891	16516
837.029	16569
837.167	16424
837.305	16462
837.443	16394
837.58	16459
837.718	16508
837.856	16413
837.993	16322
838.131	16405
838.269	16246
838.406	16280
838.544	16322
838.681	16166
838.819	16074
838.956	16055
839.094	15953
839.231	15998
839.369	16040
839.506	16360
839.643	16261
839.781	16006
839.918	15941
840.055	15899
840.193	15873
840.33	15918
840.467	15960
840.604	15949
840.742	16257
840.879	15816
841.016	15899
841.153	15816
841.29	16074
841.427	16032
841.564	15930
841.701	15975
841.838	15911
841.975	15842
842.112	15838
842.249	15789
842.385	15797
842.522	15861
842.659	15652
842.796	15759
842.933	15869
843.069	15595
843.206	15656
843.343	15876
843.479	15911
843.616	15717
843.752	15450
843.889	15473
844.025	15701
844.162	15545
844.298	15599
844.435	15675
844.571	15504
844.708	15572
844.844	15743
844.98	15660
845.117	15584
845.253	15515
845.389	15450
845.525	15515
845.661	15412
845.798	15272
845.934	15428
846.07	15294
846.206	15420
846.342	15466
846.478	15279
846.614	15241
846.75	15093
846.886	15097
847.022	15222
847.158	15036
847.294	15218
847.429	15051
847.565	15062
847.701	15222
847.837	14876
847.972	14868
848.108	14902
848.244	14834
848.379	14648
848.515	14762
848.65	14708
848.786	14663
848.921	14659
849.057	14807
849.192	14727
849.328	14804
849.463	14686
849.598	14648
849.734	14625
849.869	14484
850.004	14434
850.14	14507
850.275	14469
850.41	14415
850.545	14465
850.68	14366
850.815	14427
850.95	14450
851.085	14640
851.22	14602
851.355	14480
851.49	14522
851.625	14457
851.76	14408
851.895	14408
852.03	14381
852.165	14469
852.299	14511
852.434	14549
852.569	14533
852.703	14461
852.838	14552
852.973	14560
853.107	14587
853.242	14476
853.376	14282
853.511	14130
853.645	14278
853.78	14484
853.914	14355
854.048	14286
854.183	14282
854.317	14332
854.451	14514
854.585	14286
854.72	14214
854.854	14476
854.988	14332
855.122	14374
855.256	14103
855.39	14259
855.524	14381
855.658	14404
855.792	14328
855.926	14393
856.06	14480
856.194	14442
856.327	14358
856.461	14328
856.595	14229
856.729	14309
856.862	14454
856.996	14351
857.13	14362
857.263	14457
857.397	14393
857.53	14393
857.664	14343
857.797	14370
857.931	14423
858.064	14324
858.197	14446
858.331	14324
858.464	14286
858.597	14259
858.731	14332
858.864	14263
858.997	14305
859.13	14355
859.263	14317
859.396	14431
859.529	14343
859.662	14305
859.795	14275
859.928	14214
860.061	14450
860.194	14473
860.327	14336
860.46	14396
860.592	14343
860.725	14454
860.858	14431
860.99	14366
861.123	14301
861.256	14202
861.388	14328
861.521	14883
861.653	14214
861.786	14161
861.918	14214
862.05	14271
862.183	14298
862.315	14362
862.447	14343
862.58	14286
862.712	14180
862.844	13967
862.976	14256
863.108	14172
863.24	14549
863.372	14103
863.504	14142
863.636	14039
863.768	14115
863.9	14119
864.032	14176
864.164	14054
864.296	14172
864.428	14252
864.559	14183
864.691	14191
864.823	14142
864.954	14145
865.086	14237
865.217	14103
865.349	13928
865.48	14062
865.612	14123
865.743	14218
865.875	14103
866.006	14039
866.137	14134
866.269	13970
866.4	14119
866.531	14027
866.662	13986
866.793	14081
866.924	14058
867.055	14024
867.186	14157
867.317	14039
867.448	14001
867.579	13955
867.71	13986
867.841	14031
867.972	14062
868.103	14126
868.233	14221
868.364	14043
868.495	14142
868.625	14320
868.756	14530
868.886	14214
869.017	14256
869.147	14450
869.278	14511
869.408	14488
869.539	14328
869.669	14404
869.799	14469
869.929	14499
870.06	14492
870.19	14610
870.32	14617
870.45	14716
870.58	14678
870.71	14830
870.84	14842
870.97	14765
871.1	14777
871.23	14929
871.36	15051
871.489	14777
871.619	14990
871.749	14929
871.879	15047
872.008	15005
872.138	14891
872.267	14910
872.397	14891
872.526	14689
872.656	14701
872.785	14804
872.915	14948
873.044	15081
873.173	14960
873.303	14990
873.432	15157
873.561	15093
873.69	14986
873.819	15043
873.948	15085
874.077	14948
874.206	14944
874.335	15074
874.464	15146
874.593	15268
874.722	15237
874.851	15374
874.979	15367
875.108	15306
875.237	15222
875.365	15195
875.494	15180
875.623	15408
875.751	15321
875.88	15340
876.008	15450
876.136	15538
876.265	15656
876.393	15854
876.521	15812
876.65	15736
876.778	15747
876.906	15633
877.034	15667
877.162	15785
877.29	15690
877.418	15698
877.546	15759
877.674	15781
877.802	15774
877.93	15686
878.058	15603
878.185	15633
878.313	15705
878.441	15682
878.568	15545
878.696	15587
878.824	15652
878.951	15785
879.079	16017
879.206	15915
879.333	15861
879.461	15766
879.588	15785
879.715	15918
879.842	16101
879.97	15762
880.097	15614
880.224	15568
880.351	15580
880.478	15511
880.605	15622
880.732	15538
880.859	15675
880.986	15591
881.112	15633
881.239	15542
881.366	15348
881.493	15188
881.619	15249
881.746	15272
881.872	15146
881.999	15264
882.125	15230
882.252	15150
882.378	15272
882.505	15367
882.631	15203
882.757	15005
882.883	15097
883.01	14994
883.136	14979
883.262	14906
883.388	14857
883.514	15085
883.64	15055
883.766	14937
883.892	14868
884.018	14857
884.143	14998
884.269	15100
884.395	14807
884.52	14758
884.646	14796
884.772	14682
884.897	14644
885.023	14674
885.148	14925
885.274	14826
885.399	14883
885.524	14781
885.65	14724
885.775	14895
885.9	14807
886.025	14902
886.15	14796
886.275	14735
886.4	14655
886.525	14640
886.65	14724
886.775	14731
886.9	14804
887.025	14990
887.149	14674
887.274	14617
887.399	14568
887.523	14564
887.648	14518
887.773	14526
887.897	14564
888.021	14632
888.146	14564
888.27	14621
888.395	14735
888.519	14629
888.643	14556
888.767	14613
888.891	14488
889.015	14400
889.139	14511
889.263	14427
889.387	14568
889.511	14667
889.635	14522
889.759	14457
889.883	14377
890.006	14514
890.13	14495
890.254	14351
890.377	14374
890.501	14229
890.624	14168
890.748	14271
890.871	14195
890.995	14081
891.118	13925
891.241	14191
891.364	14157
891.488	14282
891.611	14100
891.734	14191
891.857	14077
891.98	14119
892.103	14183
892.226	14149
892.349	14195
892.471	13982
892.594	14153
892.717	14153
892.839	14130
892.962	14168
893.085	14210
893.207	14115
893.33	14065
893.452	14039
893.575	14214
893.697	14149
893.819	14256
893.941	14332
894.064	14282
894.186	14134
894.308	14058
894.43	14278
894.552	14442
894.674	14225
894.796	14115
894.918	14180
895.04	14134
895.161	14286
895.283	14271
895.405	14077
895.526	14313
895.648	14237
895.769	14271
895.891	14332
896.012	14332
896.134	14374
896.255	14275
896.376	14259
896.498	14328
896.619	14381
896.74	14332
896.861	14385
896.982	14651
897.103	14781
897.224	14651
897.345	14533
897.466	14545
897.587	14480
897.708	14716
897.828	14632
897.949	14568
898.07	14324
898.19	14549
898.311	14655
898.431	14651
898.552	14693
898.672	14739
898.792	14697
898.913	14659
899.033	14541
899.153	14549
899.273	14404
899.393	14419
899.513	14434
899.633	14488
899.753	14583
899.873	14480
899.993	14530
900.113	14568
900.232	14644
900.352	14537
900.472	14381
900.591	14301
900.711	14408
900.83	14385
900.95	14465
901.069	14442
901.189	14290
901.308	14149
901.427	13982
901.546	14073
901.665	13970
901.784	14058
901.904	13959
902.023	13856
902.141	13681
902.26	13677
902.379	13757
902.498	13582
902.617	13533
902.735	13723
902.854	13677
902.973	13559
903.091	13373
903.21	13266
903.328	13400
903.446	13259
903.565	13221
903.683	13164
903.801	13072
903.919	13194
904.038	13137
904.156	13057
904.274	13031
904.392	13008
904.51	12924
904.627	13027
904.745	13072
904.863	13015
904.981	12844
905.098	12715
905.216	12741
905.334	12798
905.451	12692
905.569	12662
905.686	12776
905.803	12700
905.921	12513
906.038	12525
906.155	12528
906.272	12433
906.389	12490
906.506	12228
906.623	12426
906.74	12258
906.857	12125
906.974	12178
907.091	12315
907.208	12365
907.324	12289
907.441	12232
907.557	12045
907.674	12026
907.79	11939
907.907	11992
908.023	12072
908.139	12011
908.256	12019
908.372	11904
908.488	11897
908.604	11847
908.72	11729
908.836	11882
908.952	11786
909.068	11813
909.184	11901
909.3	11821
909.415	11813
909.531	11817
909.647	11577
909.762	11543
909.878	11410
909.993	11577
910.108	11585
910.224	11539
910.339	11493
910.454	11414
910.57	11436
910.685	11356
910.8	11642
910.915	11577
911.03	11425
911.145	11239
911.259	11227
911.374	11220
911.489	11170
911.604	11204
911.718	10999
911.833	11041
911.947	10881
912.062	10938
912.176	10953
912.291	10949
912.405	10980
912.519	11181
912.633	11242
912.748	11090
912.862	11014
912.976	10862
913.09	10736
913.204	10866
913.318	10812
913.431	10991
913.545	10965
913.659	11045
913.772	10835
913.886	10812
914	10744
914.113	10862
914.226	10862
914.34	10866
914.453	10630
914.566	10991
914.68	10691
914.793	10687
914.906	10516
915.019	10440
915.132	10455
915.245	10558
915.358	10504
915.47	10626
915.583	10558
915.696	10611
915.809	10668
915.921	10630
916.034	10497
916.146	10462
916.259	10424
916.371	10588
916.483	10531
916.595	10428
916.708	10466
916.82	10322
916.932	10432
917.044	10424
917.156	10424
917.268	10280
917.38	10398
917.491	10382
917.603	10421
917.715	10409
917.826	10424
917.938	10265
918.049	10188
918.161	10360
918.272	10508
918.384	10398
918.495	10421
918.606	10272
918.717	10101
918.828	10291
918.939	10341
919.05	10204
919.161	10230
919.272	10021
919.383	10093
919.494	10215
919.604	10493
919.715	10215
919.826	10242
919.936	10192
920.047	10249
920.157	10303
920.267	10462
920.378	10227
920.488	10143
920.598	10440
920.708	10558
920.818	10443
920.928	10478
921.038	10527
921.148	10538
921.258	10265
921.368	10207
921.477	10131
921.587	10101
921.697	9926
921.806	10067
921.916	9960
922.025	9831
922.134	9797
922.244	9751
922.353	9808
922.462	9675
922.571	9660
922.68	9469
922.789	9504
922.898	9466
923.007	9481
923.116	9523
923.224	9492
923.333	9439
923.442	9431
923.55	9363
923.659	9420
923.767	9458
923.876	9310
923.984	9443
924.092	9313
924.201	9237
924.309	9313
924.417	9386
924.525	9332
924.633	9298
924.741	10253
924.849	9097
924.956	9245
925.064	9157
925.172	9051
925.279	9062
925.387	9192
925.494	9142
925.602	9294
925.709	9195
925.816	9119
925.924	9116
926.031	9218
926.138	9119
926.245	9237
926.352	9097
926.459	9188
926.566	9241
926.673	9081
926.779	9024
926.886	8982
926.993	8853
927.099	8876
927.206	8823
927.312	8823
927.419	8868
927.525	8853
927.631	8925
927.737	8769
927.843	8781
927.95	8651
928.056	8777
928.162	8693
928.267	8785
928.373	9462
928.479	8880
928.585	8610
928.69	8724
928.796	8731
928.901	8552
929.007	8533
929.112	8613
929.218	8636
929.323	8495
929.428	8617
929.533	8701
929.638	8522
929.743	8575
929.848	8610
929.953	8583
930.058	8503
930.163	8393
930.267	8358
930.372	8488
930.477	8358
930.581	8617
930.685	8461
930.79	8279
930.894	8298
930.998	8199
931.103	8412
931.207	8134
931.311	8065
931.415	8005
931.519	7811
931.623	7784
