Data from test_V78500241_3339.txt Node
Date: Fri Mar 25 14:56:57 CST 2022
User: usil
Spectrometer: V785-0024
Trigger mode: 0
Integration Time (sec): 4.000000E-1
Scans to average: 1
Nonlinearity correction enabled: false
Boxcar width: 0
Storing dark spectrum: false
XAxis mode: Wavelengths
Number of Pixels in Spectrum: 1024
>>>>>Begin Spectral Data<<<<<
801.071	21903
801.214	21747
801.356	21545
801.499	21583
801.641	21370
801.783	21310
801.926	21378
802.068	21252
802.211	21252
802.353	21116
802.496	20982
802.638	20727
802.78	20670
802.923	20556
803.065	20636
803.208	20625
803.35	20655
803.492	20697
803.635	20735
803.777	20602
803.919	20594
804.061	20963
804.204	20655
804.346	20598
804.488	20579
804.63	20503
804.773	20465
804.915	20568
805.057	20663
805.199	20511
805.341	20644
805.483	20629
805.626	20598
805.768	20358
805.91	20511
806.052	20415
806.194	20347
806.336	20678
806.478	20442
806.62	20583
806.762	20518
806.904	20804
807.046	20952
807.188	20861
807.33	20758
807.472	20796
807.614	20792
807.756	20708
807.898	20674
808.04	20488
808.182	20541
808.324	20549
808.465	20598
808.607	20735
808.749	21043
808.891	21020
809.033	21108
809.174	20845
809.316	20773
809.458	20830
809.6	20902
809.741	20982
809.883	20933
810.025	21032
810.166	21070
810.308	20979
810.45	21028
810.591	20933
810.733	20667
810.875	20701
811.016	20514
811.158	20629
811.299	20663
811.441	20826
811.582	20720
811.724	20587
811.865	20514
812.007	20564
812.148	20522
812.29	20670
812.431	20788
812.573	21089
812.714	20975
812.855	21051
812.997	21127
813.138	21310
813.279	21199
813.421	21165
813.562	21051
813.703	20826
813.845	20754
813.986	20533
814.127	20351
814.268	20218
814.41	20237
814.551	20142
814.692	20225
814.833	20100
814.974	20142
815.115	20180
815.256	19875
815.397	20031
815.539	20065
815.68	19906
815.821	19852
815.962	20058
816.103	19822
816.244	19731
816.385	19700
816.526	19613
816.666	19514
816.807	19339
816.948	19392
817.089	19533
817.23	19331
817.371	19411
817.512	19320
817.653	19270
817.793	19381
817.934	19297
818.075	19480
818.216	19327
818.356	19304
818.497	19175
818.638	18837
818.778	19099
818.919	18943
819.06	18951
819.2	19164
819.341	19103
819.481	19202
819.622	19304
819.762	19529
819.903	19400
820.043	19350
820.184	19217
820.324	19236
820.465	19377
820.605	19331
820.746	19289
820.886	19221
821.026	19209
821.167	19217
821.307	19255
821.447	19289
821.588	19099
821.728	18981
821.868	18875
822.008	18642
822.149	18757
822.289	18620
822.429	18509
822.569	18388
822.709	18521
822.849	18148
822.99	18148
823.13	18110
823.27	18117
823.41	17931
823.55	17992
823.69	18034
823.83	18007
823.97	17908
824.11	17786
824.25	17714
824.389	17710
824.529	17840
824.669	17821
824.809	17889
824.949	17851
825.089	17931
825.228	17764
825.368	17596
825.508	17516
825.648	17570
825.787	17547
825.927	17649
826.067	17509
826.206	17505
826.346	17539
826.485	17684
826.625	17520
826.765	17623
826.904	17783
827.044	17376
827.183	17345
827.323	17239
827.462	17406
827.601	17242
827.741	17318
827.88	17288
828.02	17212
828.159	17261
828.298	17284
828.437	17334
828.577	17242
828.716	17440
828.855	17292
828.994	17124
829.134	17056
829.273	17170
829.412	16995
829.551	17045
829.69	16980
829.829	17147
829.968	17105
830.107	17189
830.246	17105
830.385	17033
830.524	16930
830.663	16908
830.802	16873
830.941	16744
831.08	16618
831.219	16759
831.357	16805
831.496	16915
831.635	16626
831.774	16622
831.913	16504
832.051	16481
832.19	16440
832.329	16561
832.467	16367
832.606	16310
832.744	16272
832.883	16329
833.022	16310
833.16	16382
833.299	16386
833.437	16379
833.576	16402
833.714	16424
833.852	16531
833.991	16485
834.129	16542
834.267	16588
834.406	16512
834.544	16470
834.682	16599
834.821	16504
834.959	16588
835.097	16348
835.235	16417
835.373	16512
835.511	16443
835.65	16299
835.788	16363
835.926	16181
836.064	16090
836.202	16238
836.34	16306
836.478	16409
836.615	16390
836.753	16382
836.891	16382
837.029	16329
837.167	16341
837.305	16261
837.443	16268
837.58	16234
837.718	16268
837.856	16371
837.993	16249
838.131	16379
838.269	16135
838.406	16078
838.544	16154
838.681	16029
838.819	15892
838.956	15778
839.094	15789
839.231	15759
839.369	15892
839.506	16188
839.643	15991
839.781	15770
839.918	15671
840.055	15766
840.193	15679
840.33	15781
840.467	15755
840.604	15762
840.742	16044
840.879	15580
841.016	15717
841.153	15709
841.29	15892
841.427	15804
841.564	15751
841.701	15812
841.838	15732
841.975	15667
842.112	15709
842.249	15610
842.385	15500
842.522	15759
842.659	15644
842.796	15561
842.933	15591
843.069	15557
843.206	15500
843.343	15561
843.479	15568
843.616	15557
843.752	15367
843.889	15367
844.025	15488
844.162	15367
844.298	15587
844.435	15416
844.571	15272
844.708	15367
844.844	15473
844.98	15492
845.117	15439
845.253	15218
845.389	15245
845.525	15230
845.661	15367
845.798	15123
845.934	15199
846.07	15108
846.206	15161
846.342	15279
846.478	15150
846.614	14982
846.75	14883
846.886	14918
847.022	14921
847.158	14914
847.294	14929
847.429	14982
847.565	14899
847.701	15066
847.837	14590
847.972	14659
848.108	14689
848.244	14708
848.379	14564
848.515	14488
848.65	14556
848.786	14511
848.921	14541
849.057	14640
849.192	14606
849.328	14511
849.463	14640
849.598	14495
849.734	14511
849.869	14465
850.004	14286
850.14	14415
850.275	14301
850.41	14218
850.545	14202
850.68	14244
850.815	14290
850.95	14191
851.085	14465
851.22	14400
851.355	14263
851.49	14259
851.625	14237
851.76	14305
851.895	14183
852.03	14134
852.165	14233
852.299	14286
852.434	14442
852.569	14298
852.703	14309
852.838	14370
852.973	14484
853.107	14377
853.242	14214
853.376	14199
853.511	14020
853.645	14111
853.78	14305
853.914	14248
854.048	14069
854.183	14138
854.317	14187
854.451	14347
854.585	14218
854.72	14191
854.854	14229
854.988	14088
855.122	14168
855.256	13989
855.39	14161
855.524	14294
855.658	14225
855.792	14096
855.926	14210
856.06	14191
856.194	14199
856.327	14050
856.461	14161
856.595	14134
856.729	14180
856.862	14248
856.996	14225
857.13	14123
857.263	14286
857.397	14191
857.53	14149
857.664	14161
857.797	14221
857.931	14313
858.064	14278
858.197	14240
858.331	14107
858.464	14103
858.597	14039
858.731	14210
858.864	14115
858.997	14145
859.13	14138
859.263	14248
859.396	14164
859.529	14058
859.662	14164
859.795	14107
859.928	14145
860.061	14362
860.194	14301
860.327	14271
860.46	14161
860.592	14339
860.725	14313
860.858	14278
860.99	14130
861.123	13974
861.256	14084
861.388	14115
861.521	14921
861.653	14043
861.786	13967
861.918	14043
862.05	14058
862.183	14027
862.315	14225
862.447	14218
862.58	14069
862.712	13947
862.844	14050
862.976	13993
863.108	13982
863.24	14240
863.372	13841
863.504	13909
863.636	13913
863.768	13978
863.9	13887
864.032	13909
864.164	13875
864.296	13917
864.428	14092
864.559	14001
864.691	14020
864.823	13982
864.954	13986
865.086	14008
865.217	13864
865.349	13818
865.48	13902
865.612	13978
865.743	14081
865.875	13868
866.006	13921
866.137	13890
866.269	13936
866.4	13887
866.531	13936
866.662	13852
866.793	13890
866.924	13871
867.055	13909
867.186	13986
867.317	13894
867.448	13837
867.579	13875
867.71	13868
867.841	13856
867.972	13868
868.103	13913
868.233	13936
868.364	13951
868.495	14024
868.625	14187
868.756	14214
868.886	14088
869.017	14237
869.147	14294
869.278	14320
869.408	14191
869.539	14259
869.669	14237
869.799	14161
869.929	14415
870.06	14294
870.19	14530
870.32	14476
870.45	14514
870.58	14602
870.71	14697
870.84	14708
870.97	14518
871.1	14560
871.23	14804
871.36	14701
871.489	14667
871.619	14781
871.749	14720
871.879	14849
872.008	14902
872.138	14842
872.267	14811
872.397	14697
872.526	14667
872.656	14678
872.785	14571
872.915	14735
873.044	14861
873.173	14887
873.303	14826
873.432	14880
873.561	14933
873.69	14861
873.819	14834
873.948	14891
874.077	14826
874.206	14834
874.335	14796
874.464	15032
874.593	15039
874.722	15074
874.851	15157
874.979	15135
875.108	15241
875.237	15066
875.365	15055
875.494	15157
875.623	15233
875.751	15157
875.88	15150
876.008	15218
876.136	15370
876.265	15553
876.393	15739
876.521	15625
876.65	15663
876.778	15599
876.906	15454
877.034	15545
877.162	15564
877.29	15477
877.418	15622
877.546	15564
877.674	15538
877.802	15545
877.93	15538
878.058	15435
878.185	15507
878.313	15469
878.441	15530
878.568	15424
878.696	15580
878.824	15553
878.951	15587
879.079	15808
879.206	15911
879.333	15717
879.461	15736
879.588	15732
879.715	15675
879.842	15793
879.97	15720
880.097	15439
880.224	15363
880.351	15447
880.478	15378
880.605	15340
880.732	15313
880.859	15637
880.986	15507
881.112	15382
881.239	15302
881.366	15112
881.493	15116
881.619	15043
881.746	15180
881.872	15070
881.999	15062
882.125	15047
882.252	15146
882.378	15066
882.505	15203
882.631	15001
882.757	14872
882.883	15032
883.01	14895
883.136	14880
883.262	14693
883.388	14796
883.514	14838
883.64	14823
883.766	14861
883.892	14746
884.018	14750
884.143	14834
884.269	14906
884.395	14712
884.52	14526
884.646	14590
884.772	14526
884.897	14465
885.023	14655
885.148	14678
885.274	14758
885.399	14682
885.524	14663
885.65	14621
885.775	14651
885.9	14602
886.025	14735
886.15	14583
886.275	14621
886.4	14499
886.525	14571
886.65	14488
886.775	14412
886.9	14739
887.025	14807
887.149	14590
887.274	14465
887.399	14412
887.523	14347
887.648	14294
887.773	14271
887.897	14511
888.021	14427
888.146	14385
888.27	14469
888.395	14583
888.519	14457
888.643	14442
888.767	14400
888.891	14358
889.015	14221
889.139	14320
889.263	14233
889.387	14431
889.511	14575
889.635	14400
889.759	14309
889.883	14218
890.006	14256
890.13	14434
890.254	14320
890.377	14298
890.501	14073
890.624	14119
890.748	14172
890.871	13997
890.995	13955
891.118	13940
891.241	13993
891.364	13978
891.488	14134
891.611	14058
891.734	13974
891.857	14153
891.98	13951
892.103	14115
892.226	14027
892.349	13921
892.471	13814
892.594	13894
892.717	14065
892.839	13921
892.962	13974
893.085	14130
893.207	13997
893.33	13925
893.452	13879
893.575	14050
893.697	13951
893.819	14100
893.941	14149
894.064	14134
894.186	13993
894.308	13913
894.43	13993
894.552	14221
894.674	14123
894.796	14077
894.918	14103
895.04	14005
895.161	14111
895.283	14157
895.405	14054
895.526	14046
895.648	14145
895.769	14176
895.891	14240
896.012	14168
896.134	14157
896.255	14100
896.376	14164
896.498	14168
896.619	14237
896.74	14103
896.861	14252
896.982	14511
897.103	14644
897.224	14400
897.345	14465
897.466	14419
897.587	14377
897.708	14533
897.828	14568
897.949	14339
898.07	14366
898.19	14469
898.311	14640
898.431	14499
898.552	14480
898.672	14617
898.792	14632
898.913	14495
899.033	14530
899.153	14400
899.273	14309
899.393	14347
899.513	14320
899.633	14332
899.753	14434
899.873	14396
899.993	14370
900.113	14278
900.232	14396
900.352	14259
900.472	14328
900.591	14134
900.711	14248
900.83	14149
900.95	14393
901.069	14336
901.189	14142
901.308	14016
901.427	13871
901.546	13887
901.665	13906
901.784	14062
901.904	13822
902.023	13636
902.141	13537
902.26	13426
902.379	13628
902.498	13438
902.617	13422
902.735	13601
902.854	13487
902.973	13445
903.091	13152
903.21	13175
903.328	13228
903.446	13129
903.565	13050
903.683	13034
903.801	13000
903.919	12913
904.038	13050
904.156	12867
904.274	12958
904.392	12867
904.51	12916
904.627	12817
904.745	12905
904.863	12951
904.981	12684
905.098	12597
905.216	12578
905.334	12525
905.451	12513
905.569	12544
905.686	12608
905.803	12525
905.921	12395
906.038	12452
906.155	12437
906.272	12285
906.389	12308
906.506	12194
906.623	12079
906.74	12136
906.857	12034
906.974	11999
907.091	12311
907.208	12251
907.324	12247
907.441	12045
907.557	11885
907.674	11904
907.79	11866
907.907	11931
908.023	11939
908.139	11836
908.256	11828
908.372	11882
908.488	11859
908.604	11672
908.72	11646
908.836	11600
908.952	11608
909.068	11661
909.184	11745
909.3	11554
909.415	11691
909.531	11688
909.647	11463
909.762	11414
909.878	11376
909.993	11493
910.108	11376
910.224	11406
910.339	11524
910.454	11360
910.57	11254
910.685	11239
910.8	11512
910.915	11436
911.03	11376
911.145	11166
911.259	11231
911.374	11128
911.489	11045
911.604	10991
911.718	10915
911.833	10881
911.947	10790
912.062	10733
912.176	10873
912.291	10892
912.405	10908
912.519	11075
912.633	11159
912.748	10930
912.862	10949
912.976	10714
913.09	10733
913.204	10759
913.318	10801
913.431	10828
913.545	10854
913.659	10801
913.772	10698
913.886	10725
914	10660
914.113	10782
914.226	10755
914.34	10744
914.453	10660
914.566	10725
914.68	10649
914.793	10611
914.906	10440
915.019	10436
915.132	10280
915.245	10424
915.358	10398
915.47	10405
915.583	10436
915.696	10489
915.809	10523
915.921	10493
916.034	10360
916.146	10428
916.259	10295
916.371	10447
916.483	10424
916.595	10280
916.708	10363
916.82	10394
916.932	10314
917.044	10299
917.156	10337
917.268	10211
917.38	10382
917.491	10284
917.603	10219
917.715	10299
917.826	10310
917.938	10223
918.049	10166
918.161	10211
918.272	10348
918.384	10341
918.495	10246
918.606	10078
918.717	10074
918.828	10093
918.939	10158
919.05	10097
919.161	10082
919.272	9930
919.383	9979
919.494	10169
919.604	10379
919.715	10120
919.826	10071
919.936	10097
920.047	10207
920.157	10150
920.267	10268
920.378	10215
920.488	10116
920.598	10363
920.708	10451
920.818	10318
920.928	10398
921.038	10489
921.148	10478
921.258	10120
921.368	10071
921.477	9994
921.587	9991
921.697	9838
921.806	9987
921.916	9892
922.025	9743
922.134	9785
922.244	9682
922.353	9819
922.462	9591
922.571	9591
922.68	9447
922.789	9378
922.898	9435
923.007	9302
923.116	9428
923.224	9351
923.333	9447
923.442	9310
923.55	9264
923.659	9283
923.767	9332
923.876	9222
923.984	9302
924.092	9264
924.201	9176
924.309	9237
924.417	9283
924.525	9199
924.633	9241
924.741	10109
924.849	9093
924.956	9188
925.064	9036
925.172	8975
925.279	9081
925.387	9028
925.494	8960
925.602	9161
925.709	9207
925.816	8998
925.924	9017
926.031	9180
926.138	9066
926.245	9104
926.352	8960
926.459	9195
926.566	9146
926.673	9017
926.779	8944
926.886	8902
926.993	8686
927.099	8735
927.206	8750
927.312	8705
927.419	8800
927.525	8792
927.631	8800
927.737	8682
927.843	8712
927.95	8613
928.056	8575
928.162	8625
928.267	8689
928.373	9306
928.479	8815
928.585	8492
928.69	8670
928.796	8712
928.901	8598
929.007	8461
929.112	8518
929.218	8507
929.323	8484
929.428	8473
929.533	8545
929.638	8400
929.743	8446
929.848	8484
929.953	8488
930.058	8351
930.163	8248
930.267	8256
930.372	8484
930.477	8210
930.581	8514
930.685	8347
930.79	8202
930.894	8237
930.998	8176
931.103	8396
931.207	7986
931.311	7967
931.415	7894
931.519	7689
931.623	7746
