Data from test_V78500241_677.txt Node
Date: Fri Mar 25 14:38:25 CST 2022
User: usil
Spectrometer: V785-0024
Trigger mode: 0
Integration Time (sec): 4.000000E-1
Scans to average: 1
Nonlinearity correction enabled: false
Boxcar width: 0
Storing dark spectrum: false
XAxis mode: Wavelengths
Number of Pixels in Spectrum: 1024
>>>>>Begin Spectral Data<<<<<
801.071	28265
801.214	27892
801.356	27778
801.499	27747
801.641	27507
801.783	27629
801.926	27568
802.068	27515
802.211	27348
802.353	27291
802.496	27051
802.638	27123
802.78	27077
802.923	26963
803.065	26948
803.208	26937
803.35	26925
803.492	27222
803.635	27192
803.777	27017
803.919	27112
804.061	27469
804.204	27389
804.346	27374
804.488	27142
804.63	27458
804.773	27173
804.915	27378
805.057	27637
805.199	27515
805.341	27595
805.483	27846
805.626	27937
805.768	27793
805.91	28093
806.052	28162
806.194	28192
806.336	28603
806.478	28542
806.62	28542
806.762	29136
806.904	29433
807.046	30064
807.188	30258
807.33	30559
807.472	31259
807.614	31966
807.756	32735
807.898	33937
808.04	35307
808.182	37453
808.324	40158
808.465	42985
808.607	46318
808.749	49289
808.891	51047
809.033	50998
809.174	49464
809.316	46508
809.458	43282
809.6	39663
809.741	37000
809.883	34850
810.025	33397
810.166	32286
810.308	31556
810.45	30802
810.591	30361
810.733	29832
810.875	29395
811.016	29121
811.158	28854
811.299	28885
811.441	28854
811.582	28398
811.724	28440
811.865	28116
812.007	27994
812.148	28029
812.29	28059
812.431	28162
812.573	28230
812.714	28143
812.855	28200
812.997	28272
813.138	28344
813.279	28314
813.421	28120
813.562	27922
813.703	27793
813.845	27644
813.986	27233
814.127	27093
814.268	26948
814.41	27070
814.551	26857
814.692	27123
814.833	26902
814.974	26739
815.115	26769
815.256	26526
815.397	26476
815.539	26549
815.68	26370
815.821	26355
815.962	26377
816.103	26157
816.244	26126
816.385	25955
816.526	25837
816.666	25826
816.807	25811
816.948	25883
817.089	25917
817.23	25772
817.371	25712
817.512	25559
817.653	25552
817.793	25590
817.934	25544
818.075	25582
818.216	25582
818.356	25548
818.497	25457
818.638	25285
818.778	25266
818.919	25247
819.06	25331
819.2	25445
819.341	25491
819.481	25601
819.622	25529
819.762	25761
819.903	25643
820.043	25537
820.184	25537
820.324	25453
820.465	25464
820.605	25392
820.746	25396
820.886	25221
821.026	25304
821.167	25339
821.307	25434
821.447	25266
821.588	25095
821.728	25076
821.868	24852
822.008	24646
822.149	24749
822.289	24795
822.429	24289
822.569	24300
822.709	24243
822.849	24209
822.99	24129
823.13	24163
823.27	24068
823.41	23969
823.55	23756
823.69	23870
823.83	24102
823.97	23878
824.11	23672
824.25	23619
824.389	23661
824.529	23680
824.669	23638
824.809	23779
824.949	23752
825.089	23722
825.228	23638
825.368	23398
825.508	23535
825.648	23334
825.787	23490
825.927	23509
826.067	23478
826.206	23429
826.346	23562
826.485	23531
826.625	23478
826.765	23524
826.904	23623
827.044	23223
827.183	23159
827.323	23113
827.462	23254
827.601	23132
827.741	23014
827.88	23220
828.02	23048
828.159	22980
828.298	23067
828.437	23105
828.577	23029
828.716	23269
828.855	22968
828.994	22831
829.134	22831
829.273	22755
829.412	22793
829.551	22656
829.69	22778
829.829	22839
829.968	22896
830.107	22771
830.246	22744
830.385	22767
830.524	22752
830.663	22592
830.802	22432
830.941	22421
831.08	22280
831.219	22428
831.357	22398
831.496	22512
831.635	22234
831.774	22367
831.913	22150
832.051	22166
832.19	22131
832.329	22200
832.467	22158
832.606	22128
832.744	22116
832.883	22242
833.022	22325
833.16	22379
833.299	22607
833.437	22713
833.576	22797
833.714	22976
833.852	23056
833.991	23299
834.129	23368
834.267	23318
834.406	23318
834.544	23204
834.682	23064
834.821	22881
834.959	22900
835.097	22573
835.235	22668
835.373	22508
835.511	22363
835.65	22234
835.788	22131
835.926	22010
836.064	21835
836.202	21804
836.34	21930
836.478	21968
836.615	21827
836.753	21934
836.891	21819
837.029	21903
837.167	21717
837.305	21827
837.443	21732
837.58	21618
837.718	21724
837.856	21778
837.993	21633
838.131	21622
838.269	21614
838.406	21515
838.544	21496
838.681	21389
838.819	21355
838.956	21043
839.094	21081
839.231	21169
839.369	21252
839.506	21492
839.643	21291
839.781	21096
839.918	21039
840.055	21043
840.193	20925
840.33	21077
840.467	21081
840.604	20971
840.742	21203
840.879	20857
841.016	20994
841.153	20982
841.29	21104
841.427	21032
841.564	21161
841.701	21119
841.838	21047
841.975	20986
842.112	20944
842.249	20864
842.385	20823
842.522	21077
842.659	20914
842.796	20880
842.933	20899
843.069	20975
843.206	21005
843.343	21032
843.479	20857
843.616	21017
843.752	20804
843.889	20921
844.025	21123
844.162	21005
844.298	21302
844.435	21340
844.571	21454
844.708	21774
844.844	22268
844.98	22470
845.117	23216
845.253	24308
845.389	26050
845.525	29699
845.661	35798
845.798	42452
845.934	47539
846.07	49445
846.206	47954
846.342	43137
846.478	36258
846.614	30585
846.75	26648
846.886	24334
847.022	23067
847.158	22185
847.294	21629
847.429	21252
847.565	20906
847.701	20891
847.837	20492
847.972	20286
848.108	20358
848.244	20229
848.379	19963
848.515	19811
848.65	19902
848.786	19849
848.921	19753
849.057	19963
849.192	19860
849.328	19712
849.463	19761
849.598	19620
849.734	19651
849.869	19556
850.004	19548
850.14	19468
850.275	19377
850.41	19415
850.545	19430
850.68	19377
850.815	19495
850.95	19377
851.085	19567
851.22	19582
851.355	19510
851.49	19411
851.625	19422
851.76	19445
851.895	19244
852.03	19278
852.165	19426
852.299	19559
852.434	19499
852.569	19506
852.703	19434
852.838	19620
852.973	19681
853.107	19708
853.242	19609
853.376	19514
853.511	19400
853.645	19544
853.78	19689
853.914	19780
854.048	19632
854.183	19609
854.317	19795
854.451	20001
854.585	19674
854.72	19559
854.854	19674
854.988	19540
855.122	19571
855.256	19381
855.39	19468
855.524	19571
855.658	19514
855.792	19331
855.926	19392
856.06	19369
856.194	19468
856.327	19331
856.461	19251
856.595	19240
856.729	19194
856.862	19335
856.996	19369
857.13	19388
857.263	19487
857.397	19316
857.53	19293
857.664	19301
857.797	19331
857.931	19396
858.064	19187
858.197	19339
858.331	19270
858.464	19091
858.597	19034
858.731	19072
858.864	19069
858.997	19183
859.13	19103
859.263	19190
859.396	19209
859.529	19023
859.662	19175
859.795	18996
859.928	19061
860.061	19285
860.194	19293
860.327	19099
860.46	19050
860.592	19168
860.725	19141
860.858	19213
860.99	19042
861.123	18928
861.256	19004
861.388	19050
861.521	19674
861.653	18859
861.786	18810
861.918	18905
862.05	18890
862.183	19027
862.315	19065
862.447	19152
862.58	19050
862.712	18757
862.844	18821
862.976	18795
863.108	18711
863.24	19198
863.372	18635
863.504	18840
863.636	18776
863.768	18833
863.9	18802
864.032	18635
864.164	18658
864.296	18726
864.428	18837
864.559	18779
864.691	18734
864.823	18642
864.954	18684
865.086	18661
865.217	18677
865.349	18658
865.48	18597
865.612	18650
865.743	18791
865.875	18772
866.006	18639
866.137	18681
866.269	18555
866.4	18787
866.531	18574
866.662	18350
866.793	18639
866.924	18506
867.055	18677
867.186	18604
867.317	18566
867.448	18608
867.579	18688
867.71	18452
867.841	18471
867.972	18547
868.103	18654
868.233	18593
868.364	18719
868.495	18745
868.625	18810
868.756	19000
868.886	18795
869.017	18878
869.147	18966
869.278	18932
869.408	18996
869.539	18837
869.669	18989
869.799	18871
869.929	19034
870.06	19072
870.19	19240
870.32	19209
870.45	19274
870.58	19312
870.71	19411
870.84	19426
870.97	19331
871.1	19392
871.23	19422
871.36	19575
871.489	19430
871.619	19499
871.749	19472
871.879	19742
872.008	19567
872.138	19620
872.267	19578
872.397	19655
872.526	19445
872.656	19525
872.785	19578
872.915	19613
873.044	19849
873.173	19723
873.303	19803
873.432	19780
873.561	19890
873.69	19879
873.819	19898
873.948	19925
874.077	19864
874.206	19986
874.335	20016
874.464	20092
874.593	20301
874.722	20134
874.851	20396
874.979	20343
875.108	20339
875.237	20298
875.365	20256
875.494	20408
875.623	20560
875.751	20606
875.88	20617
876.008	20686
876.136	20853
876.265	21135
876.393	21287
876.521	21374
876.65	21431
876.778	21340
876.906	21408
877.034	21618
877.162	21572
877.29	21633
877.418	21603
877.546	21789
877.674	21880
877.802	21956
877.93	22055
878.058	22249
878.185	22310
878.313	22729
878.441	23090
878.568	23284
878.696	24098
878.824	24943
878.951	25978
879.079	27507
879.206	29604
879.333	31712
879.461	33382
879.588	34466
879.715	34599
879.842	33561
879.97	31738
880.097	29493
880.224	27953
880.351	26758
880.478	25947
880.605	25187
880.732	24863
880.859	24859
880.986	24426
881.112	24429
881.239	24159
881.366	24102
881.493	23958
881.619	23851
881.746	23965
881.872	23973
881.999	23969
882.125	23992
882.252	24213
882.378	24171
882.505	24243
882.631	24174
882.757	24140
882.883	24095
883.01	24041
883.136	23882
883.262	23821
883.388	23897
883.514	23874
883.64	23923
883.766	23802
883.892	23687
884.018	23748
884.143	23980
884.269	23950
884.395	23680
884.52	23608
884.646	23771
884.772	23646
884.897	23535
885.023	23703
885.148	23718
885.274	23733
885.399	23512
885.524	23467
885.65	23315
885.775	23178
885.9	23052
886.025	23014
886.15	22854
886.275	22557
886.4	22295
886.525	22390
886.65	22230
886.775	21975
886.9	22017
887.025	21968
887.149	21743
887.274	21424
887.399	21389
887.523	21188
887.648	21211
887.773	21074
887.897	21207
888.021	21066
888.146	20921
888.27	20982
888.395	20937
888.519	20845
888.643	20731
888.767	20663
888.891	20480
889.015	20442
889.139	20434
889.263	20161
889.387	20320
889.511	20495
889.635	20355
889.759	20180
889.883	20240
890.006	20138
890.13	20122
890.254	19936
890.377	20005
890.501	19719
890.624	19655
890.748	19750
890.871	19590
890.995	19476
891.118	19407
891.241	19422
891.364	19468
891.488	19434
891.611	19346
891.734	19350
891.857	19407
891.98	19324
892.103	19327
892.226	19228
892.349	19164
892.471	19107
892.594	19194
892.717	19148
892.839	18966
892.962	19076
893.085	19015
893.207	19004
893.33	18859
893.452	18829
893.575	18890
893.697	18772
893.819	19038
893.941	19076
894.064	18913
894.186	18810
894.308	18711
894.43	18863
894.552	18951
894.674	18707
894.796	18563
894.918	18612
895.04	18517
895.161	18722
895.283	18715
895.405	18486
895.526	18570
895.648	18570
895.769	18570
895.891	18471
896.012	18616
896.134	18494
896.255	18566
896.376	18498
896.498	18475
896.619	18479
896.74	18509
896.861	18593
896.982	18840
897.103	18932
897.224	18642
897.345	18650
897.466	18681
897.587	18623
897.708	18722
897.828	18551
897.949	18563
898.07	18456
898.19	18570
898.311	18703
898.431	18528
898.552	18688
898.672	18661
898.792	18760
898.913	18696
899.033	18601
899.153	18448
899.273	18277
899.393	18464
899.513	18346
899.633	18471
899.753	18410
899.873	18327
899.993	18559
900.113	18327
900.232	18391
900.352	18319
900.472	18281
900.591	18167
900.711	18163
900.83	18213
900.95	18350
901.069	18315
901.189	18057
901.308	17935
901.427	17847
901.546	17756
901.665	17783
901.784	17828
901.904	17665
902.023	17566
902.141	17322
902.26	17269
902.379	17372
902.498	17185
902.617	17098
902.735	17258
902.854	17242
902.973	17151
903.091	17003
903.21	16850
903.328	16961
903.446	16698
903.565	16759
903.683	16626
903.801	16538
903.919	16527
904.038	16615
904.156	16421
904.274	16421
904.392	16440
904.51	16253
904.627	16352
904.745	16489
904.863	16379
904.981	16124
905.098	16090
905.216	16166
905.334	15975
905.451	16109
905.569	15861
905.686	16101
905.803	15949
905.921	15915
906.038	15892
906.155	15873
906.272	15705
906.389	15682
906.506	15595
906.623	15496
906.74	15542
906.857	15408
906.974	15386
907.091	15526
907.208	15595
907.324	15587
907.441	15458
907.557	15344
907.674	15317
907.79	15214
907.907	15150
908.023	15199
908.139	15214
908.256	15252
908.372	15237
908.488	15108
908.604	14994
908.72	14956
908.836	14941
908.952	14868
909.068	15005
909.184	15017
909.3	14933
909.415	14918
909.531	14902
909.647	14667
909.762	14640
909.878	14727
909.993	14674
910.108	14697
910.224	14648
910.339	14640
910.454	14552
910.57	14541
910.685	14446
910.8	14785
910.915	14590
911.03	14476
911.145	14381
911.259	14199
911.374	14187
911.489	14320
911.604	14233
911.718	14058
911.833	14069
911.947	13860
912.062	13875
912.176	14005
912.291	13947
912.405	13936
912.519	14138
912.633	14168
912.748	14035
912.862	14039
912.976	13887
913.09	13776
913.204	13830
913.318	13898
913.431	13982
913.545	13894
913.659	13982
913.772	13928
913.886	13753
914	13662
914.113	13795
914.226	13913
914.34	13784
914.453	13628
914.566	13734
914.68	13597
914.793	13544
914.906	13480
915.019	13339
915.132	13259
915.245	13320
915.358	13464
915.47	13483
915.583	13346
915.696	13400
915.809	13559
915.921	13548
916.034	13335
916.146	13320
916.259	13362
916.371	13392
916.483	13320
916.595	13373
916.708	13289
916.82	13274
916.932	13278
917.044	13350
917.156	13293
917.268	13183
917.38	13145
917.491	13061
917.603	13164
917.715	13145
917.826	13213
917.938	13137
918.049	12920
918.161	13038
918.272	13183
918.384	13156
918.495	13061
918.606	12897
918.717	12886
918.828	12837
918.939	12848
919.05	12764
919.161	12817
919.272	12665
919.383	12703
919.494	12871
919.604	12977
919.715	12817
919.826	12783
919.936	12810
920.047	12920
920.157	12764
920.267	13008
920.378	12806
920.488	12840
920.598	13038
920.708	13023
920.818	13000
920.928	12886
921.038	13091
921.148	13145
921.258	12787
921.368	12681
921.477	12528
921.587	12566
921.697	12475
921.806	12696
921.916	12460
922.025	12277
922.134	12277
922.244	12235
922.353	12289
922.462	12148
922.571	12148
922.68	11950
922.789	11878
922.898	11916
923.007	11836
923.116	11950
923.224	11866
923.333	11897
923.442	11764
923.55	11726
923.659	11809
923.767	11866
923.876	11684
923.984	11828
924.092	11684
924.201	11688
924.309	11752
924.417	11714
924.525	11627
924.633	11649
924.741	12612
924.849	11486
924.956	11611
925.064	11353
925.172	11398
925.279	11356
925.387	11524
925.494	11471
925.602	11532
925.709	11471
925.816	11307
925.924	11269
926.031	11490
926.138	11341
926.245	11421
926.352	11280
926.459	11402
926.566	11341
926.673	11383
926.779	11220
926.886	11155
926.993	11124
927.099	11064
927.206	11014
927.312	10972
927.419	11086
927.525	11018
927.631	11079
927.737	10881
927.843	10953
927.95	10809
928.056	10835
928.162	10938
928.267	10896
928.373	11486
928.479	11029
928.585	10771
928.69	10850
928.796	10957
928.901	10679
929.007	10607
929.112	10820
929.218	10729
929.323	10679
929.428	10554
929.533	10744
929.638	10607
929.743	10573
929.848	10645
929.953	10561
930.058	10485
930.163	10284
930.267	10421
930.372	10497
930.477	10322
930.581	10569
930.685	10371
930.79	10314
930.894	10329
930.998	10284
931.103	10382
931.207	10036
931.311	9983
931.415	9915
931.519	9743
931.623	9660
