Data from test_V78500241_2481.txt Node
Date: Fri Mar 25 14:50:59 CST 2022
User: usil
Spectrometer: V785-0024
Trigger mode: 0
Integration Time (sec): 4.000000E-1
Scans to average: 1
Nonlinearity correction enabled: false
Boxcar width: 0
Storing dark spectrum: false
XAxis mode: Wavelengths
Number of Pixels in Spectrum: 1024
>>>>>Begin Spectral Data<<<<<
801.071	21991
801.214	21994
801.356	21751
801.499	21656
801.641	21447
801.783	21515
801.926	21523
802.068	21405
802.211	21268
802.353	21230
802.496	21104
802.638	20777
802.78	20921
802.923	20876
803.065	20754
803.208	20735
803.35	20769
803.492	20785
803.635	20948
803.777	20781
803.919	20895
804.061	21146
804.204	20826
804.346	20632
804.488	20568
804.63	20800
804.773	20716
804.915	20705
805.057	20765
805.199	20632
805.341	20811
805.483	20754
805.626	20811
805.768	20648
805.91	20758
806.052	20701
806.194	20549
806.336	20781
806.478	20651
806.62	20609
806.762	20823
806.904	20887
807.046	21081
807.188	21024
807.33	21028
807.472	21089
807.614	20876
807.756	20914
807.898	20823
808.04	20743
808.182	20785
808.324	20754
808.465	20819
808.607	20933
808.749	21077
808.891	21100
809.033	21222
809.174	21192
809.316	21051
809.458	21077
809.6	20998
809.741	21055
809.883	21207
810.025	21173
810.166	21176
810.308	21264
810.45	21123
810.591	21199
810.733	20921
810.875	20899
811.016	20743
811.158	20640
811.299	20887
811.441	20941
811.582	20998
811.724	20807
811.865	20750
812.007	20899
812.148	20754
812.29	20880
812.431	20975
812.573	21131
812.714	21199
812.855	21291
812.997	21355
813.138	21515
813.279	21389
813.421	21241
813.562	21272
813.703	21001
813.845	20956
813.986	20560
814.127	20530
814.268	20461
814.41	20396
814.551	20282
814.692	20396
814.833	20320
814.974	20442
815.115	20374
815.256	20237
815.397	20202
815.539	20263
815.68	20119
815.821	20103
815.962	20161
816.103	20069
816.244	19921
816.385	19909
816.526	19871
816.666	19499
816.807	19464
816.948	19616
817.089	19609
817.23	19578
817.371	19480
817.512	19495
817.653	19426
817.793	19460
817.934	19529
818.075	19552
818.216	19548
818.356	19476
818.497	19297
818.638	19114
818.778	19145
818.919	19198
819.06	19202
819.2	19453
819.341	19369
819.481	19441
819.622	19586
819.762	19765
819.903	19639
820.043	19552
820.184	19464
820.324	19415
820.465	19548
820.605	19483
820.746	19472
820.886	19312
821.026	19426
821.167	19419
821.307	19434
821.447	19449
821.588	19377
821.728	19175
821.868	19076
822.008	18905
822.149	18939
822.289	18787
822.429	18570
822.569	18589
822.709	18582
822.849	18361
822.99	18433
823.13	18433
823.27	18323
823.41	18235
823.55	18171
823.69	18121
823.83	18205
823.97	18076
824.11	18091
824.25	17942
824.389	17980
824.529	18068
824.669	18003
824.809	18068
824.949	18072
825.089	17908
825.228	17843
825.368	17760
825.508	17737
825.648	17745
825.787	17855
825.927	17847
826.067	17710
826.206	17649
826.346	17680
826.485	17699
826.625	17714
826.765	17760
826.904	17691
827.044	17482
827.183	17505
827.323	17551
827.462	17463
827.601	17436
827.741	17417
827.88	17383
828.02	17337
828.159	17387
828.298	17551
828.437	17429
828.577	17284
828.716	17638
828.855	17376
828.994	17029
829.134	17273
829.273	17197
829.412	17140
829.551	17181
829.69	17216
829.829	17181
829.968	17178
830.107	17284
830.246	17189
830.385	17029
830.524	17086
830.663	16965
830.802	16790
830.941	16934
831.08	16656
831.219	16946
831.357	16828
831.496	16949
831.635	16782
831.774	16752
831.913	16744
832.051	16512
832.19	16489
832.329	16691
832.467	16466
832.606	16348
832.744	16402
832.883	16405
833.022	16424
833.16	16531
833.299	16546
833.437	16447
833.576	16493
833.714	16440
833.852	16508
833.991	16596
834.129	16596
834.267	16519
834.406	16599
834.544	16558
834.682	16603
834.821	16584
834.959	16717
835.097	16554
835.235	16588
835.373	16504
835.511	16497
835.65	16466
835.788	16424
835.926	16261
836.064	16185
836.202	16272
836.34	16474
836.478	16466
836.615	16455
836.753	16504
836.891	16424
837.029	16470
837.167	16382
837.305	16306
837.443	16348
837.58	16173
837.718	16379
837.856	16284
837.993	16093
838.131	16344
838.269	16314
838.406	16238
838.544	16147
838.681	16013
838.819	16013
838.956	15854
839.094	15835
839.231	15915
839.369	16059
839.506	16215
839.643	16048
839.781	15865
839.918	15846
840.055	15915
840.193	15888
840.33	15907
840.467	15922
840.604	15941
840.742	15960
840.879	15720
841.016	15667
841.153	15770
841.29	15884
841.427	15816
841.564	15918
841.701	15945
841.838	15869
841.975	15694
842.112	15808
842.249	15595
842.385	15663
842.522	15831
842.659	15682
842.796	15660
842.933	15743
843.069	15667
843.206	15534
843.343	15679
843.479	15675
843.616	15682
843.752	15466
843.889	15481
844.025	15580
844.162	15447
844.298	15591
844.435	15313
844.571	15466
844.708	15492
844.844	15625
844.98	15633
845.117	15587
845.253	15325
845.389	15313
845.525	15340
845.661	15306
845.798	15176
845.934	15268
846.07	15226
846.206	15306
846.342	15462
846.478	15230
846.614	15112
846.75	15013
846.886	15146
847.022	15146
847.158	15024
847.294	15032
847.429	15074
847.565	14994
847.701	15233
847.837	14861
847.972	14788
848.108	14849
848.244	14777
848.379	14712
848.515	14610
848.65	14644
848.786	14617
848.921	14629
849.057	14701
849.192	14769
849.328	14705
849.463	14640
849.598	14640
849.734	14454
849.869	14518
850.004	14427
850.14	14476
850.275	14419
850.41	14358
850.545	14389
850.68	14298
850.815	14446
850.95	14358
851.085	14476
851.22	14473
851.355	14419
851.49	14495
851.625	14309
851.76	14362
851.895	14313
852.03	14301
852.165	14389
852.299	14450
852.434	14457
852.569	14332
852.703	14488
852.838	14442
852.973	14579
853.107	14606
853.242	14400
853.376	14309
853.511	14199
853.645	14221
853.78	14305
853.914	14298
854.048	14229
854.183	14305
854.317	14298
854.451	14415
854.585	14282
854.72	14214
854.854	14351
854.988	14233
855.122	14282
855.256	14180
855.39	14347
855.524	14404
855.658	14396
855.792	14328
855.926	14351
856.06	14313
856.194	14332
856.327	14157
856.461	14176
856.595	14164
856.729	14290
856.862	14309
856.996	14320
857.13	14366
857.263	14366
857.397	14389
857.53	14305
857.664	14347
857.797	14305
857.931	14381
858.064	14324
858.197	14385
858.331	14263
858.464	14187
858.597	14267
858.731	14263
858.864	14202
858.997	14214
859.13	14374
859.263	14233
859.396	14339
859.529	14294
859.662	14202
859.795	14214
859.928	14286
860.061	14518
860.194	14431
860.327	14263
860.46	14225
860.592	14374
860.725	14343
860.858	14347
860.99	14324
861.123	14088
861.256	14191
861.388	14309
861.521	14807
861.653	14199
861.786	14092
861.918	14145
862.05	14191
862.183	14263
862.315	14278
862.447	14240
862.58	14252
862.712	13986
862.844	13997
862.976	14058
863.108	14107
863.24	14419
863.372	14050
863.504	14172
863.636	14035
863.768	14073
863.9	14073
864.032	14039
864.164	13932
864.296	14058
864.428	14157
864.559	14088
864.691	14077
864.823	14088
864.954	14058
865.086	14069
865.217	14130
865.349	13955
865.48	14077
865.612	14058
865.743	14164
865.875	14084
866.006	13982
866.137	14020
866.269	14031
866.4	13982
866.531	14027
866.662	13871
866.793	13970
866.924	13955
867.055	14024
867.186	13944
867.317	14031
867.448	14054
867.579	14001
867.71	13993
867.841	13925
867.972	14020
868.103	14039
868.233	13963
868.364	14043
868.495	14103
868.625	14206
868.756	14377
868.886	14180
869.017	14286
869.147	14339
869.278	14374
869.408	14294
869.539	14320
869.669	14267
869.799	14328
869.929	14408
870.06	14381
870.19	14488
870.32	14564
870.45	14621
870.58	14697
870.71	14678
870.84	14796
870.97	14598
871.1	14670
871.23	14941
871.36	14883
871.489	14788
871.619	14811
871.749	14765
871.879	14918
872.008	14998
872.138	14933
872.267	14948
872.397	14667
872.526	14750
872.656	14838
872.785	14720
872.915	14963
873.044	15039
873.173	14952
873.303	14941
873.432	14868
873.561	15009
873.69	14944
873.819	14895
873.948	15001
874.077	14960
874.206	14956
874.335	15009
874.464	15009
874.593	15184
874.722	15180
874.851	15260
874.979	15264
875.108	15310
875.237	15272
875.365	15097
875.494	15161
875.623	15393
875.751	15226
875.88	15199
876.008	15405
876.136	15389
876.265	15732
876.393	15956
876.521	15728
876.65	15770
876.778	15743
876.906	15622
877.034	15618
877.162	15641
877.29	15625
877.418	15644
877.546	15671
877.674	15724
877.802	15724
877.93	15675
878.058	15656
878.185	15526
878.313	15603
878.441	15644
878.568	15595
878.696	15591
878.824	15739
878.951	15720
879.079	15827
879.206	15918
879.333	15873
879.461	15770
879.588	15770
879.715	15774
879.842	15884
879.97	15698
880.097	15545
880.224	15511
880.351	15515
880.478	15580
880.605	15420
880.732	15431
880.859	15739
880.986	15549
881.112	15580
881.239	15420
881.366	15298
881.493	15161
881.619	15188
881.746	15230
881.872	15230
881.999	15127
882.125	15180
882.252	15237
882.378	15146
882.505	15351
882.631	15146
882.757	14918
882.883	15100
883.01	14967
883.136	14933
883.262	14800
883.388	14849
883.514	15047
883.64	15043
883.766	15028
883.892	14815
884.018	14826
884.143	15005
884.269	15173
884.395	14811
884.52	14632
884.646	14819
884.772	14606
884.897	14640
885.023	14689
885.148	14686
885.274	14792
885.399	14792
885.524	14594
885.65	14686
885.775	14754
885.9	14667
886.025	14781
886.15	14743
886.275	14670
886.4	14511
886.525	14697
886.65	14625
886.775	14678
886.9	14785
887.025	14956
887.149	14651
887.274	14587
887.399	14541
887.523	14533
887.648	14431
887.773	14499
887.897	14636
888.021	14590
888.146	14457
888.27	14564
888.395	14678
888.519	14552
888.643	14655
888.767	14613
888.891	14438
889.015	14454
889.139	14309
889.263	14377
889.387	14518
889.511	14651
889.635	14473
889.759	14377
889.883	14343
890.006	14492
890.13	14412
890.254	14393
890.377	14454
890.501	14191
890.624	14119
890.748	14252
890.871	14202
890.995	14035
891.118	14008
891.241	14107
891.364	14084
891.488	14176
891.611	14065
891.734	14123
891.857	14183
891.98	14134
892.103	14259
892.226	14130
892.349	14081
892.471	13997
892.594	14077
892.717	14164
892.839	14088
892.962	14134
893.085	14164
893.207	14096
893.33	13868
893.452	13947
893.575	14206
893.697	14130
893.819	14187
893.941	14259
894.064	14301
894.186	14081
894.308	14043
894.43	14248
894.552	14290
894.674	14180
894.796	14077
894.918	14050
895.04	14103
895.161	14214
895.283	14252
895.405	14168
895.526	14164
895.648	14187
895.769	14301
895.891	14210
896.012	14237
896.134	14244
896.255	14191
896.376	14252
896.498	14240
896.619	14256
896.74	14301
896.861	14343
896.982	14598
897.103	14754
897.224	14556
897.345	14450
897.466	14377
897.587	14469
897.708	14651
897.828	14549
897.949	14488
898.07	14427
898.19	14476
898.311	14693
898.431	14533
898.552	14644
898.672	14739
898.792	14731
898.913	14701
899.033	14526
899.153	14461
899.273	14366
899.393	14495
899.513	14415
899.633	14454
899.753	14522
899.873	14366
899.993	14556
900.113	14389
900.232	14476
900.352	14339
900.472	14358
900.591	14244
900.711	14301
900.83	14282
900.95	14495
901.069	14431
901.189	14298
901.308	14077
901.427	13963
901.546	13993
901.665	13986
901.784	13989
901.904	13822
902.023	13841
902.141	13696
902.26	13544
902.379	13632
902.498	13548
902.617	13518
902.735	13597
902.854	13575
902.973	13514
903.091	13373
903.21	13240
903.328	13331
903.446	13198
903.565	13137
903.683	13129
903.801	13008
903.919	13171
904.038	13023
904.156	12973
904.274	13031
904.392	12894
904.51	12989
904.627	12932
904.745	13046
904.863	12882
904.981	12852
905.098	12540
905.216	12631
905.334	12734
905.451	12669
905.569	12662
905.686	12673
905.803	12635
905.921	12551
906.038	12597
906.155	12445
906.272	12330
906.389	12346
906.506	12228
906.623	12308
906.74	12205
906.857	12152
906.974	12171
907.091	12304
907.208	12308
907.324	12281
907.441	12133
907.557	12007
907.674	11961
907.79	11923
907.907	11999
908.023	11927
908.139	12007
908.256	11939
908.372	11935
908.488	11908
908.604	11824
908.72	11779
908.836	11703
908.952	11691
909.068	11760
909.184	11752
909.3	11771
909.415	11843
909.531	11718
909.647	11573
909.762	11482
909.878	11448
909.993	11684
910.108	11551
910.224	11459
910.339	11433
910.454	11402
910.57	11299
910.685	11337
910.8	11474
910.915	11467
911.03	11326
911.145	11174
911.259	11170
911.374	11311
911.489	11208
911.604	11048
911.718	10919
911.833	11045
911.947	10828
912.062	10687
912.176	10889
912.291	10980
912.405	10968
912.519	11216
912.633	11102
912.748	11048
912.862	10877
912.976	10839
913.09	10714
913.204	10843
913.318	10744
913.431	10942
913.545	10915
913.659	11003
913.772	10889
913.886	10736
914	10755
914.113	10771
914.226	10854
914.34	10790
914.453	10721
914.566	10854
914.68	10664
914.793	10672
914.906	10481
915.019	10466
915.132	10363
915.245	10493
915.358	10474
915.47	10504
915.583	10500
915.696	10535
915.809	10588
915.921	10603
916.034	10554
916.146	10424
916.259	10382
916.371	10542
916.483	10462
916.595	10371
916.708	10432
916.82	10421
916.932	10405
917.044	10493
917.156	10382
917.268	10360
917.38	10325
917.491	10249
917.603	10356
917.715	10436
917.826	10485
917.938	10329
918.049	10246
918.161	10348
918.272	10455
918.384	10489
918.495	10375
918.606	10230
918.717	10215
918.828	10280
918.939	10299
919.05	10234
919.161	10215
919.272	10051
919.383	10067
919.494	10329
919.604	10447
919.715	10337
919.826	10211
919.936	10238
920.047	10272
920.157	10238
920.267	10481
920.378	10276
920.488	10238
920.598	10500
920.708	10516
920.818	10379
920.928	10398
921.038	10603
921.148	10596
921.258	10284
921.368	10238
921.477	10105
921.587	10086
921.697	9903
921.806	10169
921.916	9972
922.025	9831
922.134	9736
922.244	9800
922.353	9785
922.462	9656
922.571	9603
922.68	9481
922.789	9454
922.898	9500
923.007	9443
923.116	9504
923.224	9466
923.333	9515
923.442	9466
923.55	9363
923.659	9389
923.767	9443
923.876	9340
923.984	9462
924.092	9329
924.201	9336
924.309	9313
924.417	9363
924.525	9287
924.633	9355
924.741	10086
924.849	9119
924.956	9218
925.064	9154
925.172	9104
925.279	9123
925.387	9192
925.494	9127
925.602	9298
925.709	9165
925.816	9142
925.924	9074
926.031	9195
926.138	9199
926.245	9211
926.352	9058
926.459	9230
926.566	9260
926.673	9036
926.779	9062
926.886	8971
926.993	8857
927.099	8864
927.206	8880
927.312	8807
927.419	8975
927.525	8842
927.631	8906
927.737	8857
927.843	8716
927.95	8693
928.056	8773
928.162	8739
928.267	8811
928.373	9393
928.479	8746
928.585	8594
928.69	8712
928.796	8720
928.901	8674
929.007	8518
929.112	8678
929.218	8640
929.323	8552
929.428	8518
929.533	8655
929.638	8522
929.743	8583
929.848	8598
929.953	8545
930.058	8522
930.163	8366
930.267	8324
930.372	8499
930.477	8286
930.581	8613
930.685	8408
930.79	8282
930.894	8309
930.998	8240
931.103	8419
931.207	8107
931.311	7974
931.415	7982
931.519	7750
931.623	7849
