Data from test_V78500241_113.txt Node
Date: Fri Mar 25 14:34:30 CST 2022
User: usil
Spectrometer: V785-0024
Trigger mode: 0
Integration Time (sec): 4.000000E-1
Scans to average: 1
Nonlinearity correction enabled: false
Boxcar width: 0
Storing dark spectrum: false
XAxis mode: Wavelengths
Number of Pixels in Spectrum: 1024
>>>>>Begin Spectral Data<<<<<
801.071	30928
801.214	30753
801.356	30551
801.499	30517
801.641	30353
801.783	30513
801.926	30513
802.068	30407
802.211	30251
802.353	30410
802.496	30144
802.638	30292
802.78	30194
802.923	30258
803.065	30152
803.208	30197
803.35	30251
803.492	30441
803.635	30486
803.777	30380
803.919	30460
804.061	30852
804.204	30566
804.346	30441
804.488	30311
804.63	30361
804.773	30471
804.915	30604
805.057	30768
805.199	30665
805.341	30905
805.483	30970
805.626	30856
805.768	30696
805.91	30821
806.052	31107
806.194	31137
806.336	31415
806.478	31209
806.62	31320
806.762	31601
806.904	31913
807.046	32142
807.188	32404
807.33	32568
807.472	33005
807.614	33275
807.756	33835
807.898	34230
808.04	35094
808.182	36121
808.324	37601
808.465	39169
808.607	40885
808.749	42323
808.891	43373
809.033	43506
809.174	42285
809.316	40812
809.458	39135
809.6	37152
809.741	35904
809.883	34839
810.025	34173
810.166	33690
810.308	33245
810.45	32880
810.591	32541
810.733	32248
810.875	32069
811.016	31788
811.158	31468
811.299	31658
811.441	31769
811.582	31708
811.724	31350
811.865	31274
812.007	31339
812.148	31194
812.29	31388
812.431	31388
812.573	31476
812.714	31590
812.855	31533
812.997	31506
813.138	31803
813.279	31769
813.421	31472
813.562	31597
813.703	31206
813.845	31118
813.986	30734
814.127	30715
814.268	30692
814.41	30696
814.551	30517
814.692	30460
814.833	30361
814.974	30452
815.115	30361
815.256	30376
815.397	30334
815.539	30159
815.68	30026
815.821	30114
815.962	30213
816.103	30034
816.244	29958
816.385	29805
816.526	29843
816.666	29577
816.807	29474
816.948	29474
817.089	29490
817.23	29383
817.371	29341
817.512	29417
817.653	29174
817.793	29398
817.934	29372
818.075	29330
818.216	29463
818.356	29250
818.497	29296
818.638	28987
818.778	29018
818.919	29178
819.06	29200
819.2	29200
819.341	29318
819.481	29395
819.622	29414
819.762	29566
819.903	29657
820.043	29440
820.184	29239
820.324	29315
820.465	29452
820.605	29326
820.746	29117
820.886	29185
821.026	29269
821.167	29178
821.307	29178
821.447	29086
821.588	28904
821.728	28934
821.868	28904
822.008	28618
822.149	28481
822.289	28538
822.429	28185
822.569	28215
822.709	28070
822.849	28131
822.99	27979
823.13	27979
823.27	27800
823.41	27823
823.55	27675
823.69	27732
823.83	27930
823.97	27747
824.11	27576
824.25	27511
824.389	27511
824.529	27488
824.669	27603
824.809	27545
824.949	27572
825.089	27549
825.228	27469
825.368	27214
825.508	27283
825.648	27367
825.787	27313
825.927	27332
826.067	27237
826.206	27298
826.346	27272
826.485	27336
826.625	27256
826.765	27473
826.904	27275
827.044	27070
827.183	26990
827.323	26918
827.462	26887
827.601	27001
827.741	26925
827.88	27039
828.02	26815
828.159	26902
828.298	27039
828.437	26857
828.577	26944
828.716	26967
828.855	26845
828.994	26556
829.134	26830
829.273	26651
829.412	26476
829.551	26442
829.69	26526
829.829	26511
829.968	26689
830.107	26503
830.246	26469
830.385	26537
830.524	26332
830.663	26366
830.802	26275
830.941	26161
831.08	26096
831.219	26218
831.357	26313
831.496	26370
831.635	26039
831.774	26016
831.913	26043
832.051	25928
832.19	25852
832.329	26043
832.467	25993
832.606	25784
832.744	25868
832.883	25830
833.022	25822
833.16	25974
833.299	26145
833.437	25993
833.576	26180
833.714	26210
833.852	26271
833.991	26358
834.129	26442
834.267	26480
834.406	26385
834.544	26438
834.682	26332
834.821	26054
834.959	26202
835.097	25997
835.235	26153
835.373	25868
835.511	25822
835.65	25757
835.788	25700
835.926	25544
836.064	25468
836.202	25441
836.34	25567
836.478	25693
836.615	25388
836.753	25460
836.891	25613
837.029	25556
837.167	25426
837.305	25571
837.443	25438
837.58	25293
837.718	25499
837.856	25263
837.993	25282
838.131	25324
838.269	25202
838.406	25145
838.544	24958
838.681	25034
838.819	24935
838.956	24764
839.094	24783
839.231	24749
839.369	24810
839.506	25076
839.643	24844
839.781	24677
839.918	24494
840.055	24673
840.193	24597
840.33	24551
840.467	24593
840.604	24608
840.742	24741
840.879	24475
841.016	24471
841.153	24467
841.29	24848
841.427	24540
841.564	24585
841.701	24620
841.838	24433
841.975	24460
842.112	24437
842.249	24467
842.385	24353
842.522	24505
842.659	24308
842.796	24334
842.933	24273
843.069	24304
843.206	24327
843.343	24448
843.479	24350
843.616	24505
843.752	24140
843.889	24174
844.025	24388
844.162	24235
844.298	24353
844.435	24353
844.571	24509
844.708	24700
844.844	24916
844.98	25118
845.117	25422
845.253	25814
845.389	26716
845.525	28337
845.661	31479
845.798	34938
845.934	37761
846.07	38895
846.206	38336
846.342	36030
846.478	32259
846.614	29170
846.75	26948
846.886	25830
847.022	24951
847.158	24479
847.294	24205
847.429	24007
847.565	23931
847.701	23859
847.837	23543
847.972	23414
848.108	23433
848.244	23387
848.379	23239
848.515	23117
848.65	23105
848.786	23220
848.921	23147
849.057	23143
849.192	23113
849.328	23064
849.463	23056
849.598	22915
849.734	22934
849.869	22820
850.004	22763
850.14	22835
850.275	22771
850.41	22618
850.545	22656
850.68	22637
850.815	22736
850.95	22656
851.085	22828
851.22	22816
851.355	22824
851.49	22729
851.625	22660
851.76	22626
851.895	22557
852.03	22478
852.165	22660
852.299	22782
852.434	22869
852.569	22710
852.703	22733
852.838	22748
852.973	22805
853.107	22927
853.242	22748
853.376	22599
853.511	22550
853.645	22672
853.78	22744
853.914	22615
854.048	22713
854.183	22763
854.317	22656
854.451	22877
854.585	22679
854.72	22782
854.854	22710
854.988	22645
855.122	22653
855.256	22447
855.39	22641
855.524	22713
855.658	22641
855.792	22478
855.926	22634
856.06	22565
856.194	22580
856.327	22531
856.461	22348
856.595	22462
856.729	22402
856.862	22504
856.996	22542
857.13	22531
857.263	22630
857.397	22485
857.53	22417
857.664	22546
857.797	22466
857.931	22523
858.064	22481
858.197	22535
858.331	22398
858.464	22280
858.597	22207
858.731	22325
858.864	22333
858.997	22375
859.13	22371
859.263	22287
859.396	22432
859.529	22333
859.662	22333
859.795	22230
859.928	22371
860.061	22390
860.194	22474
860.327	22280
860.46	22287
860.592	22481
860.725	22508
860.858	22455
860.99	22223
861.123	22230
861.256	22303
861.388	22314
861.521	22991
861.653	22192
861.786	22090
861.918	22268
862.05	22310
862.183	22424
862.315	22394
862.447	22478
862.58	22341
862.712	22097
862.844	22051
862.976	22097
863.108	21975
863.24	22436
863.372	21926
863.504	22116
863.636	21979
863.768	22055
863.9	22078
864.032	21816
864.164	22002
864.296	21884
864.428	22086
864.559	21892
864.691	21926
864.823	21892
864.954	22044
865.086	21926
865.217	21945
865.349	21751
865.48	21884
865.612	21899
865.743	21808
865.875	21892
866.006	21671
866.137	21998
866.269	21850
866.4	21755
866.531	21705
866.662	21701
866.793	21724
866.924	21698
867.055	21816
867.186	21831
867.317	21610
867.448	21652
867.579	21808
867.71	21572
867.841	21633
867.972	21736
868.103	21789
868.233	21694
868.364	21781
868.495	21888
868.625	22029
868.756	22067
868.886	21915
869.017	21968
869.147	22105
869.278	22150
869.408	22078
869.539	21979
869.669	22059
869.799	22055
869.929	22131
870.06	22029
870.19	22295
870.32	22238
870.45	22303
870.58	22421
870.71	22577
870.84	22478
870.97	22394
871.1	22322
871.23	22508
871.36	22561
871.489	22432
871.619	22584
871.749	22656
871.879	22664
872.008	22740
872.138	22538
872.267	22767
872.397	22455
872.526	22512
872.656	22580
872.785	22573
872.915	22691
873.044	22717
873.173	22801
873.303	22847
873.432	22835
873.561	22896
873.69	22763
873.819	22748
873.948	22847
874.077	22843
874.206	22744
874.335	22717
874.464	22995
874.593	23014
874.722	23109
874.851	23147
874.979	23155
875.108	23265
875.237	23128
875.365	23197
875.494	23174
875.623	23216
875.751	23307
875.88	23296
876.008	23425
876.136	23570
876.265	23809
876.393	23855
876.521	23676
876.65	23904
876.778	23809
876.906	23904
877.034	23874
877.162	23916
877.29	23931
877.418	23973
877.546	24045
877.674	24041
877.802	24140
877.93	24182
878.058	24338
878.185	24384
878.313	24509
878.441	24779
878.568	24776
878.696	25190
878.824	25620
878.951	26214
879.079	26940
879.206	28379
879.333	29280
879.461	30163
879.588	30654
879.715	30741
879.842	30479
879.97	29372
880.097	28055
880.224	27135
880.351	26549
880.478	26005
880.605	25814
880.732	25624
880.859	25738
880.986	25343
881.112	25441
881.239	25251
881.366	24901
881.493	24992
881.619	24916
881.746	25031
881.872	24825
881.999	24837
882.125	24867
882.252	24970
882.378	25031
882.505	25023
882.631	24970
882.757	24700
882.883	24867
883.01	24779
883.136	24722
883.262	24608
883.388	24570
883.514	24753
883.64	24646
883.766	24677
883.892	24608
884.018	24471
884.143	24623
884.269	24650
884.395	24391
884.52	24376
884.646	24486
884.772	24277
884.897	24136
885.023	24361
885.148	24494
885.274	24414
885.399	24338
885.524	24235
885.65	24273
885.775	24148
885.9	24011
886.025	24095
886.15	23882
886.275	23847
886.4	23665
886.525	23726
886.65	23360
886.775	23414
886.9	23528
887.025	23581
887.149	23307
887.274	23109
887.399	23140
887.523	23022
887.648	22953
887.773	22759
887.897	22942
888.021	22915
888.146	22683
888.27	22889
888.395	22820
888.519	22721
888.643	22626
888.767	22668
888.891	22451
889.015	22504
889.139	22352
889.263	22303
889.387	22417
889.511	22481
889.635	22398
889.759	22226
889.883	22101
890.006	22306
890.13	22249
890.254	22128
890.377	22067
890.501	21930
890.624	21831
890.748	21983
890.871	21838
890.995	21644
891.118	21614
891.241	21728
891.364	21625
891.488	21690
891.611	21538
891.734	21530
891.857	21610
891.98	21618
892.103	21603
892.226	21477
892.349	21481
892.471	21180
892.594	21264
892.717	21287
892.839	21340
892.962	21370
893.085	21283
893.207	21332
893.33	21192
893.452	21112
893.575	21199
893.697	21154
893.819	21382
893.941	21313
894.064	21306
894.186	21135
894.308	21112
894.43	21131
894.552	21188
894.674	21272
894.796	20941
894.918	21100
895.04	20960
895.161	21142
895.283	21138
895.405	20960
895.526	20906
895.648	20975
895.769	20925
895.891	21013
896.012	21116
896.134	21055
896.255	20937
896.376	20956
896.498	21009
896.619	20982
896.74	20990
896.861	21013
896.982	21268
897.103	21412
897.224	21252
897.345	21230
897.466	21070
897.587	21127
897.708	21211
897.828	21051
897.949	20967
898.07	20918
898.19	20967
898.311	21077
898.431	21043
898.552	21032
898.672	21058
898.792	20979
898.913	20910
899.033	20842
899.153	20781
899.273	20686
899.393	20758
899.513	20769
899.633	20735
899.753	20777
899.873	20686
899.993	20796
900.113	20560
900.232	20667
900.352	20590
900.472	20442
900.591	20469
900.711	20473
900.83	20396
900.95	20560
901.069	20503
901.189	20252
901.308	20286
901.427	19917
901.546	19978
901.665	19955
901.784	19833
901.904	19959
902.023	19776
902.141	19426
902.26	19480
902.379	19514
902.498	19518
902.617	19483
902.735	19472
902.854	19354
902.973	19388
903.091	19225
903.21	19129
903.328	19065
903.446	19042
903.565	18913
903.683	18894
903.801	18810
903.919	18829
904.038	18856
904.156	18673
904.274	18837
904.392	18734
904.51	18684
904.627	18658
904.745	18646
904.863	18673
904.981	18429
905.098	18296
905.216	18300
905.334	18410
905.451	18281
905.569	18361
905.686	18277
905.803	18201
905.921	18106
906.038	18121
906.155	18038
906.272	17984
906.389	18015
906.506	17726
906.623	17710
906.74	17863
906.857	17733
906.974	17726
907.091	17779
907.208	17870
907.324	17912
907.441	17733
907.557	17630
907.674	17619
907.79	17436
907.907	17490
908.023	17543
908.139	17497
908.256	17387
908.372	17322
908.488	17364
908.604	17181
908.72	17193
908.836	17109
908.952	17159
909.068	17246
909.184	17242
909.3	17147
909.415	17208
909.531	17246
909.647	16927
909.762	16942
909.878	16919
909.993	16961
910.108	16908
910.224	16831
910.339	16847
910.454	16725
910.57	16687
910.685	16577
910.8	16778
910.915	16778
911.03	16664
911.145	16519
911.259	16409
911.374	16531
911.489	16325
911.604	16310
911.718	16207
911.833	16188
911.947	16105
912.062	16010
912.176	16139
912.291	16131
912.405	16234
912.519	16341
912.633	16379
912.748	16196
912.862	16143
912.976	16051
913.09	15911
913.204	15941
913.318	15937
913.431	16116
913.545	16071
913.659	16040
913.772	15937
913.886	15823
914	15732
914.113	15953
914.226	15953
914.34	15770
914.453	15614
914.566	15705
914.68	15728
914.793	15599
914.906	15462
915.019	15355
915.132	15439
915.245	15412
915.358	15530
915.47	15431
915.583	15507
915.696	15405
915.809	15549
915.921	15523
916.034	15420
916.146	15428
916.259	15329
916.371	15355
916.483	15412
916.595	15237
916.708	15275
916.82	15188
916.932	15241
917.044	15207
917.156	15207
917.268	15066
917.38	15108
917.491	15085
917.603	15180
917.715	15135
917.826	15085
917.938	15051
918.049	14937
918.161	15005
918.272	15066
918.384	14982
918.495	14921
918.606	14868
918.717	14777
918.828	14781
918.939	14861
919.05	14724
919.161	14815
919.272	14492
919.383	14610
919.494	14785
919.604	14948
919.715	14750
919.826	14648
919.936	14648
920.047	14762
920.157	14678
920.267	14872
920.378	14674
920.488	14602
920.598	14765
920.708	14994
920.818	14773
920.928	14815
921.038	14826
921.148	14883
921.258	14583
921.368	14473
921.477	14393
921.587	14218
921.697	14218
921.806	14332
921.916	14202
922.025	14176
922.134	14062
922.244	14005
922.353	14027
922.462	13940
922.571	13769
922.68	13605
922.789	13693
922.898	13693
923.007	13453
923.116	13632
923.224	13605
923.333	13563
923.442	13495
923.55	13430
923.659	13464
923.767	13548
923.876	13419
923.984	13460
924.092	13358
924.201	13426
924.309	13308
924.417	13407
924.525	13301
924.633	13175
924.741	14130
924.849	13137
924.956	13160
925.064	13072
925.172	12996
925.279	13076
925.387	12996
925.494	13042
925.602	13099
925.709	13015
925.816	12958
925.924	12890
926.031	13050
926.138	12905
926.245	13069
926.352	12844
926.459	12954
926.566	13072
926.673	12878
926.779	12749
926.886	12806
926.993	12585
927.099	12642
927.206	12517
927.312	12544
927.419	12646
927.525	12528
927.631	12673
927.737	12418
927.843	12407
927.95	12300
928.056	12357
928.162	12372
928.267	12403
928.373	12924
928.479	12460
928.585	12254
928.69	12422
928.796	12346
928.901	12251
929.007	12121
929.112	12114
929.218	12140
929.323	12133
929.428	12015
929.533	12144
929.638	12030
929.743	12110
929.848	12015
929.953	12079
930.058	12007
930.163	11863
930.267	11885
930.372	11946
930.477	11714
930.581	11832
930.685	11779
930.79	11699
930.894	11684
930.998	11600
931.103	11821
931.207	11490
931.311	11258
931.415	11208
931.519	10953
931.623	10980
