Data from test_V78500241_1569.txt Node
Date: Fri Mar 25 14:44:38 CST 2022
User: usil
Spectrometer: V785-0024
Trigger mode: 0
Integration Time (sec): 4.000000E-1
Scans to average: 1
Nonlinearity correction enabled: false
Boxcar width: 0
Storing dark spectrum: false
XAxis mode: Wavelengths
Number of Pixels in Spectrum: 1024
>>>>>Begin Spectral Data<<<<<
801.071	22394
801.214	22303
801.356	22059
801.499	22017
801.641	21770
801.783	21831
801.926	21869
802.068	21667
802.211	21663
802.353	21660
802.496	21382
802.638	21344
802.78	21252
802.923	21127
803.065	21112
803.208	21036
803.35	21146
803.492	21249
803.635	21237
803.777	21104
803.919	21192
804.061	21523
804.204	21131
804.346	21142
804.488	20883
804.63	21020
804.773	20891
804.915	20960
805.057	21211
805.199	21043
805.341	21157
805.483	21245
805.626	21123
805.768	20952
805.91	21043
806.052	21093
806.194	20975
806.336	21085
806.478	20994
806.62	20887
806.762	21173
806.904	21203
807.046	21431
807.188	21393
807.33	21420
807.472	21397
807.614	21275
807.756	21450
807.898	21222
808.04	21127
808.182	21070
808.324	21214
808.465	21241
808.607	21431
808.749	21625
808.891	21663
809.033	21603
809.174	21530
809.316	21595
809.458	21576
809.6	21633
809.741	21462
809.883	21553
810.025	21622
810.166	21652
810.308	21599
810.45	21549
810.591	21553
810.733	21291
810.875	21298
811.016	21146
811.158	21138
811.299	21321
811.441	21313
811.582	21370
811.724	21199
811.865	21237
812.007	21260
812.148	21226
812.29	21298
812.431	21431
812.573	21511
812.714	21549
812.855	21724
812.997	21854
813.138	21983
813.279	21766
813.421	21717
813.562	21675
813.703	21462
813.845	21355
813.986	21104
814.127	20868
814.268	20792
814.41	20750
814.551	20788
814.692	20674
814.833	20777
814.974	20750
815.115	20777
815.256	20640
815.397	20640
815.539	20598
815.68	20419
815.821	20457
815.962	20499
816.103	20533
816.244	20282
816.385	20298
816.526	20199
816.666	20081
816.807	19803
816.948	19928
817.089	20001
817.23	19921
817.371	19944
817.512	19906
817.653	19875
817.793	19753
817.934	19902
818.075	19978
818.216	19890
818.356	19868
818.497	19689
818.638	19666
818.778	19548
818.919	19540
819.06	19472
819.2	19696
819.341	19894
819.481	19674
819.622	19860
819.762	20119
819.903	19940
820.043	19864
820.184	19845
820.324	19875
820.465	19932
820.605	19982
820.746	19959
820.886	19674
821.026	19890
821.167	19791
821.307	19887
821.447	19909
821.588	19674
821.728	19525
821.868	19400
822.008	19209
822.149	19255
822.289	19175
822.429	19050
822.569	19012
822.709	19031
822.849	18814
822.99	18791
823.13	18692
823.27	18779
823.41	18585
823.55	18471
823.69	18665
823.83	18536
823.97	18574
824.11	18353
824.25	18357
824.389	18311
824.529	18437
824.669	18410
824.809	18426
824.949	18467
825.089	18334
825.228	18471
825.368	18292
825.508	18098
825.648	18178
825.787	18296
825.927	18152
826.067	18270
826.206	18140
826.346	18106
826.485	18136
826.625	18148
826.765	18247
826.904	18213
827.044	18003
827.183	17863
827.323	17840
827.462	17836
827.601	17779
827.741	17821
827.88	17851
828.02	17661
828.159	17836
828.298	17912
828.437	17946
828.577	17859
828.716	17988
828.855	17764
828.994	17634
829.134	17581
829.273	17638
829.412	17516
829.551	17455
829.69	17516
829.829	17642
829.968	17798
830.107	17672
830.246	17577
830.385	17486
830.524	17528
830.663	17482
830.802	17242
830.941	17159
831.08	17239
831.219	17239
831.357	17208
831.496	17376
831.635	17151
831.774	17136
831.913	17136
832.051	16847
832.19	17109
832.329	17010
832.467	16858
832.606	16805
832.744	16934
832.883	16862
833.022	16736
833.16	16858
833.299	16965
833.437	16877
833.576	16999
833.714	16946
833.852	16949
833.991	17033
834.129	16938
834.267	16961
834.406	16877
834.544	16957
834.682	16957
834.821	16816
834.959	17083
835.097	16873
835.235	16976
835.373	16904
835.511	16900
835.65	16812
835.788	16900
835.926	16664
836.064	16641
836.202	16675
836.34	16847
836.478	16820
836.615	16752
836.753	16858
836.891	16896
837.029	16691
837.167	16717
837.305	16691
837.443	16691
837.58	16713
837.718	16786
837.856	16668
837.993	16535
838.131	16630
838.269	16542
838.406	16668
838.544	16558
838.681	16386
838.819	16318
838.956	16219
839.094	16211
839.231	16265
839.369	16318
839.506	16630
839.643	16451
839.781	16261
839.918	16215
840.055	16234
840.193	16207
840.33	16242
840.467	16143
840.604	16234
840.742	16443
840.879	16090
841.016	15998
841.153	16131
841.29	16325
841.427	16284
841.564	16265
841.701	16196
841.838	16131
841.975	16196
842.112	16086
842.249	15998
842.385	15987
842.522	16139
842.659	15998
842.796	15941
842.933	16074
843.069	15949
843.206	15922
843.343	15998
843.479	16093
843.616	16010
843.752	15785
843.889	15819
844.025	15873
844.162	15629
844.298	15823
844.435	15865
844.571	15705
844.708	15846
844.844	15903
844.98	16010
845.117	15880
845.253	15835
845.389	15724
845.525	15747
845.661	15751
845.798	15663
845.934	15808
846.07	15686
846.206	15766
846.342	15835
846.478	15629
846.614	15412
846.75	15431
846.886	15351
847.022	15458
847.158	15382
847.294	15397
847.429	15428
847.565	15325
847.701	15519
847.837	15055
847.972	15077
848.108	15138
848.244	15207
848.379	14979
848.515	14899
848.65	14918
848.786	14941
848.921	14845
849.057	15009
849.192	15017
849.328	15028
849.463	15013
849.598	14891
849.734	14826
849.869	14815
850.004	14739
850.14	14693
850.275	14758
850.41	14697
850.545	14655
850.68	14648
850.815	14613
850.95	14727
851.085	14830
851.22	14743
851.355	14716
851.49	14682
851.625	14701
851.76	14636
851.895	14613
852.03	14583
852.165	14682
852.299	14682
852.434	14823
852.569	14701
852.703	14670
852.838	14769
852.973	14773
853.107	14845
853.242	14648
853.376	14594
853.511	14507
853.645	14431
853.78	14663
853.914	14537
854.048	14537
854.183	14495
854.317	14571
854.451	14701
854.585	14488
854.72	14594
854.854	14575
854.988	14438
855.122	14621
855.256	14366
855.39	14495
855.524	14644
855.658	14526
855.792	14568
855.926	14663
856.06	14648
856.194	14724
856.327	14568
856.461	14495
856.595	14480
856.729	14564
856.862	14583
856.996	14583
857.13	14705
857.263	14754
857.397	14701
857.53	14461
857.664	14758
857.797	14606
857.931	14686
858.064	14621
858.197	14602
858.331	14514
858.464	14514
858.597	14377
858.731	14518
858.864	14549
858.997	14606
859.13	14575
859.263	14545
859.396	14667
859.529	14499
859.662	14526
859.795	14454
859.928	14549
860.061	14663
860.194	14727
860.327	14590
860.46	14522
860.592	14667
860.725	14712
860.858	14689
860.99	14442
861.123	14499
861.256	14438
861.388	14556
861.521	15043
861.653	14438
861.786	14442
861.918	14454
862.05	14419
862.183	14415
862.315	14613
862.447	14541
862.58	14484
862.712	14431
862.844	14328
862.976	14454
863.108	14400
863.24	14773
863.372	14202
863.504	14298
863.636	14301
863.768	14320
863.9	14374
864.032	14294
864.164	14343
864.296	14275
864.428	14434
864.559	14461
864.691	14408
864.823	14423
864.954	14370
865.086	14366
865.217	14347
865.349	14244
865.48	14366
865.612	14457
865.743	14431
865.875	14313
866.006	14248
866.137	14305
866.269	14404
866.4	14336
866.531	14256
866.662	14298
866.793	14328
866.924	14206
867.055	14339
867.186	14218
867.317	14294
867.448	14225
867.579	14187
867.71	14240
867.841	14221
867.972	14248
868.103	14332
868.233	14313
868.364	14305
868.495	14389
868.625	14514
868.756	14617
868.886	14473
869.017	14530
869.147	14659
869.278	14724
869.408	14583
869.539	14473
869.669	14644
869.799	14590
869.929	14708
870.06	14701
870.19	14941
870.32	14857
870.45	14952
870.58	14975
870.71	15024
870.84	15070
870.97	14906
871.1	14880
871.23	15100
871.36	15123
871.489	15085
871.619	15154
871.749	15165
871.879	15222
872.008	15176
872.138	15116
872.267	15108
872.397	15074
872.526	14910
872.656	14902
872.785	14963
872.915	15180
873.044	15192
873.173	15165
873.303	15249
873.432	15249
873.561	15313
873.69	15116
873.819	15272
873.948	15291
874.077	15165
874.206	15173
874.335	15203
874.464	15264
874.593	15393
874.722	15447
874.851	15473
874.979	15477
875.108	15572
875.237	15500
875.365	15401
875.494	15511
875.623	15652
875.751	15462
875.88	15504
876.008	15618
876.136	15652
876.265	15835
876.393	16055
876.521	16090
876.65	15945
876.778	15968
876.906	15880
877.034	15884
877.162	15941
877.29	15915
877.418	15842
877.546	15941
877.674	15892
877.802	15884
877.93	15918
878.058	15903
878.185	15778
878.313	15926
878.441	15926
878.568	15800
878.696	15861
878.824	15899
878.951	16063
879.079	16063
879.206	16211
879.333	16139
879.461	16036
879.588	16131
879.715	16131
879.842	16367
879.97	16025
880.097	15770
880.224	15728
880.351	15876
880.478	15838
880.605	15675
880.732	15850
880.859	16116
880.986	15793
881.112	15797
881.239	15732
881.366	15542
881.493	15507
881.619	15466
881.746	15397
881.872	15435
881.999	15439
882.125	15462
882.252	15359
882.378	15511
882.505	15606
882.631	15378
882.757	15256
882.883	15348
883.01	15249
883.136	15146
883.262	15222
883.388	15119
883.514	15256
883.64	15321
883.766	15230
883.892	15074
884.018	15108
884.143	15150
884.269	15355
884.395	14994
884.52	14910
884.646	14956
884.772	14948
884.897	14861
885.023	14994
885.148	15028
885.274	15047
885.399	15055
885.524	14937
885.65	14910
885.775	14975
885.9	14963
886.025	15127
886.15	15062
886.275	14880
886.4	14807
886.525	14956
886.65	14807
886.775	14944
886.9	15089
887.025	15226
887.149	14891
887.274	14762
887.399	14644
887.523	14731
887.648	14727
887.773	14705
887.897	14826
888.021	14834
888.146	14708
888.27	14838
888.395	14921
888.519	14727
888.643	14849
888.767	14876
888.891	14590
889.015	14568
889.139	14613
889.263	14549
889.387	14724
889.511	14823
889.635	14743
889.759	14598
889.883	14629
890.006	14640
890.13	14705
890.254	14556
890.377	14644
890.501	14473
890.624	14400
890.748	14480
890.871	14256
890.995	14286
891.118	14256
891.241	14324
891.364	14377
891.488	14393
891.611	14313
891.734	14366
891.857	14377
891.98	14377
892.103	14396
892.226	14328
892.349	14374
892.471	14172
892.594	14267
892.717	14240
892.839	14229
892.962	14400
893.085	14355
893.207	14294
893.33	14286
893.452	14244
893.575	14278
893.697	14263
893.819	14446
893.941	14457
894.064	14393
894.186	14244
894.308	14301
894.43	14419
894.552	14461
894.674	14457
894.796	14271
894.918	14301
895.04	14377
895.161	14431
895.283	14427
895.405	14389
895.526	14469
895.648	14457
895.769	14457
895.891	14442
896.012	14484
896.134	14484
896.255	14465
896.376	14400
896.498	14473
896.619	14533
896.74	14473
896.861	14549
896.982	14788
897.103	14921
897.224	14826
897.345	14762
897.466	14602
897.587	14765
897.708	14910
897.828	14842
897.949	14663
898.07	14587
898.19	14705
898.311	14902
898.431	14743
898.552	14868
898.672	14887
898.792	14941
898.913	14876
899.033	14659
899.153	14613
899.273	14571
899.393	14712
899.513	14708
899.633	14727
899.753	14678
899.873	14720
899.993	14705
900.113	14689
900.232	14655
900.352	14689
900.472	14575
900.591	14499
900.711	14579
900.83	14480
900.95	14518
901.069	14598
901.189	14545
901.308	14324
901.427	14183
901.546	14256
901.665	14324
901.784	14248
901.904	14210
902.023	14062
902.141	13849
902.26	13826
902.379	13898
902.498	13719
902.617	13734
902.735	13780
902.854	13864
902.973	13746
903.091	13495
903.21	13483
903.328	13548
903.446	13499
903.565	13411
903.683	13369
903.801	13335
903.919	13335
904.038	13403
904.156	13171
904.274	13213
904.392	13187
904.51	13152
904.627	13194
904.745	13247
904.863	13198
904.981	12920
905.098	12791
905.216	12844
905.334	12852
905.451	12806
905.569	12783
905.686	12859
905.803	12776
905.921	12726
906.038	12738
906.155	12646
906.272	12517
906.389	12612
906.506	12490
906.623	12471
906.74	12414
906.857	12338
906.974	12338
907.091	12532
907.208	12616
907.324	12410
907.441	12365
907.557	12296
907.674	12155
907.79	12117
907.907	12148
908.023	12201
908.139	12190
908.256	12106
908.372	12057
908.488	12007
908.604	11942
908.72	11901
908.836	11920
908.952	11901
909.068	11893
909.184	12030
909.3	11977
909.415	11935
909.531	11996
909.647	11779
909.762	11718
909.878	11623
909.993	11752
910.108	11695
910.224	11714
910.339	11714
910.454	11592
910.57	11551
910.685	11512
910.8	11885
910.915	11649
911.03	11562
911.145	11398
911.259	11337
911.374	11406
911.489	11368
911.604	11311
911.718	11067
911.833	11178
911.947	11018
912.062	10995
912.176	11105
912.291	11128
912.405	11102
912.519	11395
912.633	11406
912.748	11239
912.862	11170
912.976	11048
913.09	10911
913.204	10965
913.318	11037
913.431	11140
913.545	11102
913.659	11102
913.772	11029
913.886	10919
914	10915
914.113	11033
914.226	11067
914.34	10968
914.453	10847
914.566	10881
914.68	10816
914.793	10816
914.906	10596
915.019	10607
915.132	10470
915.245	10683
915.358	10645
915.47	10588
915.583	10675
915.696	10675
915.809	10831
915.921	10786
916.034	10637
916.146	10561
916.259	10592
916.371	10641
916.483	10748
916.595	10626
916.708	10569
916.82	10584
916.932	10554
917.044	10504
917.156	10558
917.268	10455
917.38	10489
917.491	10470
917.603	10577
917.715	10558
917.826	10508
917.938	10440
918.049	10371
918.161	10470
918.272	10607
918.384	10645
918.495	10394
918.606	10356
918.717	10322
918.828	10352
918.939	10322
919.05	10341
919.161	10371
919.272	10185
919.383	10200
919.494	10402
919.604	10596
919.715	10379
919.826	10318
919.936	10291
920.047	10493
920.157	10344
920.267	10561
920.378	10455
920.488	10367
920.598	10550
920.708	10721
920.818	10569
920.928	10485
921.038	10649
921.148	10698
921.258	10375
921.368	10310
921.477	10207
921.587	10261
921.697	10078
921.806	10124
921.916	10021
922.025	10013
922.134	9937
922.244	9857
922.353	9915
922.462	9819
922.571	9713
922.68	9591
922.789	9633
922.898	9641
923.007	9576
923.116	9667
923.224	9580
923.333	9538
923.442	9462
923.55	9481
923.659	9473
923.767	9511
923.876	9466
923.984	9469
924.092	9481
924.201	9473
924.309	9454
924.417	9481
924.525	9431
924.633	9378
924.741	10341
924.849	9199
924.956	9386
925.064	9294
925.172	9154
925.279	9199
925.387	9226
925.494	9272
925.602	9466
925.709	9260
925.816	9173
925.924	9260
926.031	9291
926.138	9249
926.245	9291
926.352	9150
926.459	9245
926.566	9374
926.673	9249
926.779	9123
926.886	9150
926.993	8971
927.099	8933
927.206	8891
927.312	8887
927.419	8986
927.525	9005
927.631	9039
927.737	8857
927.843	8845
927.95	8716
928.056	8777
928.162	8956
928.267	8910
928.373	9310
928.479	8948
928.585	8720
928.69	8861
928.796	8861
928.901	8773
929.007	8655
929.112	8807
929.218	8773
929.323	8731
929.428	8727
929.533	8849
929.638	8571
929.743	8598
929.848	8724
929.953	8636
930.058	8594
930.163	8480
930.267	8469
930.372	8670
930.477	8393
930.581	8659
930.685	8492
930.79	8339
930.894	8454
930.998	8412
931.103	8583
931.207	8202
931.311	8157
931.415	8088
931.519	7856
931.623	7883
