Data from test_V78500241_1540.txt Node
Date: Fri Mar 25 14:44:26 CST 2022
User: usil
Spectrometer: V785-0024
Trigger mode: 0
Integration Time (sec): 4.000000E-1
Scans to average: 1
Nonlinearity correction enabled: false
Boxcar width: 0
Storing dark spectrum: false
XAxis mode: Wavelengths
Number of Pixels in Spectrum: 1024
>>>>>Begin Spectral Data<<<<<
801.071	22402
801.214	22367
801.356	22029
801.499	22032
801.641	21793
801.783	21827
801.926	21762
802.068	21622
802.211	21622
802.353	21599
802.496	21428
802.638	21348
802.78	21173
802.923	21313
803.065	21138
803.208	20975
803.35	21203
803.492	21173
803.635	21317
803.777	21119
803.919	21188
804.061	21504
804.204	21199
804.346	20975
804.488	20925
804.63	20956
804.773	20887
804.915	21085
805.057	21203
805.199	20941
805.341	21169
805.483	21096
805.626	20986
805.768	21013
805.91	21066
806.052	21123
806.194	21043
806.336	21222
806.478	20998
806.62	20910
806.762	21138
806.904	21260
807.046	21458
807.188	21374
807.33	21485
807.472	21431
807.614	21370
807.756	21302
807.898	21104
808.04	21157
808.182	21176
808.324	21214
808.465	21313
808.607	21507
808.749	21515
808.891	21675
809.033	21835
809.174	21663
809.316	21538
809.458	21397
809.6	21485
809.741	21523
809.883	21595
810.025	21641
810.166	21557
810.308	21583
810.45	21564
810.591	21561
810.733	21458
810.875	21241
811.016	21176
811.158	21199
811.299	21222
811.441	21458
811.582	21439
811.724	21310
811.865	21154
812.007	21287
812.148	21272
812.29	21237
812.431	21401
812.573	21534
812.714	21603
812.855	21747
812.997	21816
813.138	21991
813.279	21816
813.421	21667
813.562	21530
813.703	21488
813.845	21332
813.986	21001
814.127	20956
814.268	20929
814.41	20750
814.551	20777
814.692	20853
814.833	20659
814.974	20708
815.115	20720
815.256	20606
815.397	20701
815.539	20552
815.68	20457
815.821	20465
815.962	20598
816.103	20473
816.244	20332
816.385	20237
816.526	20100
816.666	20172
816.807	19963
816.948	19982
817.089	20043
817.23	19902
817.371	19807
817.512	19955
817.653	19913
817.793	19982
817.934	20081
818.075	19928
818.216	19875
818.356	19856
818.497	19704
818.638	19620
818.778	19586
818.919	19491
819.06	19628
819.2	19746
819.341	19811
819.481	19818
819.622	19906
819.762	20024
819.903	19986
820.043	19993
820.184	19841
820.324	19986
820.465	19940
820.605	19818
820.746	19940
820.886	19624
821.026	19803
821.167	19925
821.307	19894
821.447	19852
821.588	19655
821.728	19563
821.868	19445
822.008	19289
822.149	19266
822.289	19289
822.429	19000
822.569	19015
822.709	18962
822.849	18810
822.99	18722
823.13	18779
823.27	18684
823.41	18616
823.55	18494
823.69	18566
823.83	18490
823.97	18452
824.11	18418
824.25	18251
824.389	18285
824.529	18437
824.669	18414
824.809	18410
824.949	18544
825.089	18445
825.228	18395
825.368	18194
825.508	18197
825.648	18167
825.787	18224
825.927	18098
826.067	18121
826.206	18034
826.346	18076
826.485	18102
826.625	18197
826.765	18285
826.904	18163
827.044	17992
827.183	17874
827.323	17676
827.462	17847
827.601	17809
827.741	17878
827.88	17802
828.02	17703
828.159	17786
828.298	17832
828.437	17882
828.577	17840
828.716	17885
828.855	17764
828.994	17551
829.134	17509
829.273	17642
829.412	17474
829.551	17505
829.69	17551
829.829	17638
829.968	17623
830.107	17592
830.246	17604
830.385	17501
830.524	17345
830.663	17387
830.802	17273
830.941	17136
831.08	17079
831.219	17269
831.357	17284
831.496	17406
831.635	17181
831.774	17064
831.913	16991
832.051	17067
832.19	16854
832.329	16927
832.467	16904
832.606	16828
832.744	16793
832.883	16820
833.022	16839
833.16	16923
833.299	16885
833.437	16839
833.576	16961
833.714	16900
833.852	17014
833.991	16877
834.129	17045
834.267	16984
834.406	16957
834.544	17029
834.682	16987
834.821	16980
834.959	16961
835.097	16900
835.235	16976
835.373	16961
835.511	16892
835.65	16801
835.788	16892
835.926	16660
836.064	16637
836.202	16653
836.34	16786
836.478	16862
836.615	16782
836.753	16873
836.891	16885
837.029	16778
837.167	16816
837.305	16713
837.443	16679
837.58	16573
837.718	16713
837.856	16596
837.993	16634
838.131	16630
838.269	16588
838.406	16611
838.544	16493
838.681	16329
838.819	16318
838.956	16204
839.094	16226
839.231	16192
839.369	16356
839.506	16622
839.643	16402
839.781	16249
839.918	16177
840.055	16230
840.193	16249
840.33	16128
840.467	16207
840.604	16238
840.742	16455
840.879	16059
841.016	16071
841.153	16154
841.29	16337
841.427	16120
841.564	16143
841.701	16223
841.838	16071
841.975	16040
842.112	16162
842.249	15911
842.385	15960
842.522	16097
842.659	16010
842.796	15953
842.933	15968
843.069	15918
843.206	15892
843.343	16093
843.479	15876
843.616	15953
843.752	15804
843.889	15766
844.025	15831
844.162	15724
844.298	15823
844.435	15713
844.571	15819
844.708	15793
844.844	15892
844.98	15987
845.117	15800
845.253	15762
845.389	15709
845.525	15717
845.661	15743
845.798	15648
845.934	15838
846.07	15743
846.206	15766
846.342	15762
846.478	15724
846.614	15428
846.75	15294
846.886	15336
847.022	15382
847.158	15378
847.294	15393
847.429	15374
847.565	15214
847.701	15553
847.837	15142
847.972	15093
848.108	15116
848.244	15085
848.379	14971
848.515	14975
848.65	14902
848.786	14902
848.921	14838
849.057	15055
849.192	14990
849.328	14902
849.463	14925
849.598	14807
849.734	14765
849.869	14819
850.004	14682
850.14	14773
850.275	14617
850.41	14735
850.545	14651
850.68	14625
850.815	14727
850.95	14746
851.085	14849
851.22	14781
851.355	14712
851.49	14701
851.625	14678
851.76	14564
851.895	14434
852.03	14613
852.165	14610
852.299	14648
852.434	14823
852.569	14792
852.703	14743
852.838	14735
852.973	14819
853.107	14807
853.242	14629
853.376	14587
853.511	14415
853.645	14507
853.78	14648
853.914	14541
854.048	14461
854.183	14495
854.317	14541
854.451	14735
854.585	14492
854.72	14492
854.854	14716
854.988	14438
855.122	14457
855.256	14351
855.39	14511
855.524	14648
855.658	14564
855.792	14480
855.926	14583
856.06	14610
856.194	14560
856.327	14587
856.461	14469
856.595	14564
856.729	14530
856.862	14746
856.996	14571
857.13	14606
857.263	14686
857.397	14659
857.53	14560
857.664	14571
857.797	14640
857.931	14644
858.064	14648
858.197	14663
858.331	14594
858.464	14400
858.597	14568
858.731	14484
858.864	14568
858.997	14564
859.13	14526
859.263	14629
859.396	14674
859.529	14518
859.662	14583
859.795	14518
859.928	14621
860.061	14716
860.194	14716
860.327	14644
860.46	14476
860.592	14708
860.725	14678
860.858	14617
860.99	14568
861.123	14465
861.256	14385
861.388	14514
861.521	15104
861.653	14488
861.786	14328
861.918	14446
862.05	14446
862.183	14526
862.315	14530
862.447	14541
862.58	14396
862.712	14313
862.844	14339
862.976	14343
863.108	14366
863.24	14663
863.372	14180
863.504	14370
863.636	14366
863.768	14389
863.9	14305
864.032	14206
864.164	14252
864.296	14298
864.428	14385
864.559	14446
864.691	14438
864.823	14419
864.954	14355
865.086	14286
865.217	14309
865.349	14244
865.48	14339
865.612	14332
865.743	14473
865.875	14210
866.006	14256
866.137	14362
866.269	14343
866.4	14298
866.531	14263
866.662	14237
866.793	14290
866.924	14259
867.055	14195
867.186	14282
867.317	14225
867.448	14180
867.579	14221
867.71	14199
867.841	14202
867.972	14317
868.103	14134
868.233	14374
868.364	14252
868.495	14476
868.625	14427
868.756	14583
868.886	14541
869.017	14610
869.147	14674
869.278	14773
869.408	14537
869.539	14606
869.669	14541
869.799	14545
869.929	14659
870.06	14678
870.19	14895
870.32	14769
870.45	14895
870.58	14937
870.71	15039
870.84	15047
870.97	14948
871.1	14990
871.23	14971
871.36	15104
871.489	15039
871.619	15116
871.749	15146
871.879	15306
872.008	15268
872.138	15123
872.267	15089
872.397	15047
872.526	14979
872.656	15001
872.785	14921
872.915	15154
873.044	15173
873.173	15157
873.303	15195
873.432	15184
873.561	15294
873.69	15085
873.819	15195
873.948	15237
874.077	15249
874.206	15146
874.335	15135
874.464	15230
874.593	15462
874.722	15450
874.851	15492
874.979	15595
875.108	15507
875.237	15431
875.365	15408
875.494	15469
875.623	15622
875.751	15526
875.88	15553
876.008	15553
876.136	15762
876.265	15861
876.393	16048
876.521	15972
876.65	16067
876.778	15953
876.906	15934
877.034	15785
877.162	15785
877.29	15755
877.418	15915
877.546	16013
877.674	15861
877.802	15838
877.93	15968
878.058	15854
878.185	15724
878.313	15861
878.441	15930
878.568	15781
878.696	15759
878.824	15964
878.951	16090
879.079	16169
879.206	16215
879.333	16169
879.461	15979
879.588	16029
879.715	16158
879.842	16329
879.97	15979
880.097	15762
880.224	15736
880.351	15819
880.478	15812
880.605	15915
880.732	15774
880.859	16044
880.986	15797
881.112	15793
881.239	15652
881.366	15561
881.493	15458
881.619	15424
881.746	15488
881.872	15447
881.999	15412
882.125	15378
882.252	15504
882.378	15515
882.505	15557
882.631	15412
882.757	15188
882.883	15397
883.01	15291
883.136	15252
883.262	15017
883.388	15058
883.514	15222
883.64	15367
883.766	15222
883.892	15017
884.018	15066
884.143	15241
884.269	15287
884.395	15074
884.52	14906
884.646	14937
884.772	14880
884.897	14804
885.023	14998
885.148	15024
885.274	15138
885.399	15001
885.524	14929
885.65	14960
885.775	15009
885.9	14906
886.025	15085
886.15	15028
886.275	14906
886.4	14823
886.525	14861
886.65	14941
886.775	14792
886.9	15039
887.025	15131
887.149	14971
887.274	14804
887.399	14785
887.523	14762
887.648	14739
887.773	14689
887.897	14857
888.021	14750
888.146	14762
888.27	14861
888.395	14948
888.519	14792
888.643	14777
888.767	14804
888.891	14651
889.015	14621
889.139	14644
889.263	14594
889.387	14750
889.511	14796
889.635	14792
889.759	14670
889.883	14594
890.006	14617
890.13	14800
890.254	14476
890.377	14564
890.501	14408
890.624	14419
890.748	14499
890.871	14389
890.995	14290
891.118	14191
891.241	14305
891.364	14339
891.488	14393
891.611	14324
891.734	14419
891.857	14434
891.98	14358
892.103	14381
892.226	14298
892.349	14343
892.471	14126
892.594	14271
892.717	14282
892.839	14286
892.962	14298
893.085	14389
893.207	14286
893.33	14195
893.452	14324
893.575	14431
893.697	14187
893.819	14476
893.941	14533
894.064	14530
894.186	14206
894.308	14263
894.43	14431
894.552	14556
894.674	14514
894.796	14256
894.918	14423
895.04	14332
895.161	14503
895.283	14434
895.405	14267
895.526	14393
895.648	14541
895.769	14446
895.891	14461
896.012	14560
896.134	14423
896.255	14473
896.376	14408
896.498	14537
896.619	14522
896.74	14511
896.861	14518
896.982	14853
897.103	14975
897.224	14838
897.345	14754
897.466	14667
897.587	14682
897.708	14948
897.828	14750
897.949	14769
898.07	14651
898.19	14701
898.311	14933
898.431	14708
898.552	14880
898.672	14982
898.792	14887
898.913	14887
899.033	14773
899.153	14667
899.273	14651
899.393	14617
899.513	14682
899.633	14686
899.753	14724
899.873	14693
899.993	14746
900.113	14705
900.232	14762
900.352	14712
900.472	14571
900.591	14549
900.711	14579
900.83	14571
900.95	14651
901.069	14655
901.189	14446
901.308	14309
901.427	14248
901.546	14275
901.665	14275
901.784	14271
901.904	14096
902.023	13963
902.141	13925
902.26	13780
902.379	13902
902.498	13799
902.617	13799
902.735	13757
902.854	13826
902.973	13715
903.091	13521
903.21	13548
903.328	13559
903.446	13472
903.565	13384
903.683	13388
903.801	13282
903.919	13419
904.038	13354
904.156	13183
904.274	13225
904.392	13194
904.51	13133
904.627	13129
904.745	13251
904.863	13198
904.981	12989
905.098	12779
905.216	12821
905.334	12779
905.451	12875
905.569	12760
905.686	12871
905.803	12802
905.921	12574
906.038	12684
906.155	12620
906.272	12547
906.389	12566
906.506	12471
906.623	12521
906.74	12380
906.857	12388
906.974	12372
907.091	12486
907.208	12616
907.324	12566
907.441	12391
907.557	12247
907.674	12129
907.79	12064
907.907	12175
908.023	12182
908.139	12308
908.256	12171
908.372	12125
908.488	12148
908.604	11958
908.72	11866
908.836	11992
908.952	11961
909.068	11965
909.184	12034
909.3	11977
909.415	11988
909.531	11961
909.647	11722
909.762	11653
909.878	11604
909.993	11680
910.108	11710
910.224	11707
910.339	11737
910.454	11577
910.57	11558
910.685	11497
910.8	11745
910.915	11741
911.03	11581
911.145	11395
911.259	11383
911.374	11402
911.489	11395
911.604	11284
911.718	11258
911.833	11220
911.947	11083
912.062	11018
912.176	11143
912.291	11136
912.405	11117
912.519	11303
912.633	11337
912.748	11223
912.862	11132
912.976	11117
913.09	10835
913.204	10889
913.318	10980
913.431	11060
913.545	11132
913.659	11140
913.772	11003
913.886	10930
914	10862
914.113	10927
914.226	11067
914.34	11045
914.453	10835
914.566	10968
914.68	10892
914.793	10805
914.906	10710
915.019	10596
915.132	10603
915.245	10641
915.358	10599
915.47	10637
915.583	10759
915.696	10637
915.809	10812
915.921	10755
916.034	10618
916.146	10653
916.259	10607
916.371	10691
916.483	10683
916.595	10508
916.708	10656
916.82	10565
916.932	10592
917.044	10531
917.156	10584
917.268	10508
917.38	10409
917.491	10432
917.603	10462
917.715	10573
917.826	10550
917.938	10432
918.049	10409
918.161	10462
918.272	10675
918.384	10584
918.495	10485
918.606	10398
918.717	10341
918.828	10314
918.939	10390
919.05	10287
919.161	10253
919.272	10158
919.383	10265
919.494	10363
919.604	10607
919.715	10356
919.826	10249
919.936	10299
920.047	10421
920.157	10280
920.267	10550
920.378	10386
920.488	10344
920.598	10580
920.708	10744
920.818	10588
920.928	10630
921.038	10793
921.148	10694
921.258	10390
921.368	10253
921.477	10219
921.587	10223
921.697	10059
921.806	10227
921.916	10109
922.025	9964
922.134	9869
922.244	9873
922.353	9903
922.462	9781
922.571	9755
922.68	9603
922.789	9549
922.898	9656
923.007	9549
923.116	9694
923.224	9610
923.333	9584
923.442	9473
923.55	9515
923.659	9439
923.767	9557
923.876	9580
923.984	9542
924.092	9355
924.201	9454
924.309	9492
924.417	9416
924.525	9462
924.633	9496
924.741	10322
924.849	9241
924.956	9359
925.064	9275
925.172	9207
925.279	9230
925.387	9283
925.494	9272
925.602	9405
925.709	9332
925.816	9218
925.924	9306
926.031	9298
926.138	9245
926.245	9321
926.352	9116
926.459	9253
926.566	9359
926.673	9264
926.779	9104
926.886	9138
926.993	8975
927.099	8925
927.206	8933
927.312	8948
927.419	8975
927.525	8982
927.631	8918
927.737	8830
927.843	8876
927.95	8739
928.056	8845
928.162	8925
928.267	8963
928.373	9420
928.479	8902
928.585	8766
928.69	8883
928.796	8883
928.901	8754
929.007	8590
929.112	8743
929.218	8746
929.323	8663
929.428	8705
929.533	8845
929.638	8651
929.743	8708
929.848	8739
929.953	8674
930.058	8571
930.163	8446
930.267	8473
930.372	8610
930.477	8434
930.581	8613
930.685	8526
930.79	8336
930.894	8336
930.998	8400
931.103	8549
931.207	8218
931.311	8149
931.415	7989
931.519	7879
931.623	7944
