Data from test_V78500241_3570.txt Node
Date: Fri Mar 25 14:58:34 CST 2022
User: usil
Spectrometer: V785-0024
Trigger mode: 0
Integration Time (sec): 4.000000E-1
Scans to average: 1
Nonlinearity correction enabled: false
Boxcar width: 0
Storing dark spectrum: false
XAxis mode: Wavelengths
Number of Pixels in Spectrum: 1024
>>>>>Begin Spectral Data<<<<<
801.071	21903
801.214	21838
801.356	21504
801.499	21363
801.641	21367
801.783	21180
801.926	21382
802.068	21291
802.211	21138
802.353	21070
802.496	20937
802.638	20807
802.78	20762
802.923	20678
803.065	20594
803.208	20594
803.35	20667
803.492	20792
803.635	20682
803.777	20682
803.919	20724
804.061	20960
804.204	20568
804.346	20488
804.488	20575
804.63	20648
804.773	20495
804.915	20560
805.057	20511
805.199	20522
805.341	20518
805.483	20609
805.626	20686
805.768	20522
805.91	20583
806.052	20488
806.194	20339
806.336	20636
806.478	20465
806.62	20450
806.762	20480
806.904	20625
807.046	20887
807.188	20720
807.33	20838
807.472	20975
807.614	20735
807.756	20788
807.898	20617
808.04	20499
808.182	20503
808.324	20518
808.465	20636
808.607	20785
808.749	20967
808.891	20880
809.033	20982
809.174	21017
809.316	20739
809.458	20902
809.6	20823
809.741	20914
809.883	20849
810.025	21104
810.166	21043
810.308	21028
810.45	21047
810.591	20880
810.733	20777
810.875	20693
811.016	20552
811.158	20450
811.299	20651
811.441	20743
811.582	20811
811.724	20499
811.865	20537
812.007	20571
812.148	20609
812.29	20629
812.431	20697
812.573	20960
812.714	21028
812.855	21100
812.997	21116
813.138	21389
813.279	21154
813.421	21264
813.562	21017
813.703	20925
813.845	20625
813.986	20393
814.127	20309
814.268	20267
814.41	20309
814.551	20157
814.692	20301
814.833	20046
814.974	20100
815.115	20084
815.256	20100
815.397	20145
815.539	19940
815.68	19803
815.821	19776
815.962	19803
816.103	19928
816.244	19784
816.385	19556
816.526	19597
816.666	19460
816.807	19316
816.948	19460
817.089	19403
817.23	19388
817.371	19240
817.512	19320
817.653	19289
817.793	19255
817.934	19343
818.075	19327
818.216	19213
818.356	19240
818.497	19133
818.638	18897
818.778	18875
818.919	19042
819.06	19031
819.2	19050
819.341	19126
819.481	19244
819.622	19202
819.762	19559
819.903	19365
820.043	19350
820.184	19301
820.324	19274
820.465	19304
820.605	19362
820.746	19179
820.886	19194
821.026	19171
821.167	19107
821.307	19327
821.447	19183
821.588	19183
821.728	19057
821.868	18973
822.008	18665
822.149	18688
822.289	18669
822.429	18388
822.569	18433
822.709	18384
822.849	18171
822.99	18247
823.13	18235
823.27	18133
823.41	17923
823.55	17988
823.69	17942
823.83	17893
823.97	17927
824.11	17764
824.25	17707
824.389	17794
824.529	17718
824.669	17764
824.809	18064
824.949	17805
825.089	17783
825.228	17771
825.368	17467
825.508	17543
825.648	17547
825.787	17562
825.927	17554
826.067	17368
826.206	17512
826.346	17459
826.485	17505
826.625	17532
826.765	17604
826.904	17562
827.044	17299
827.183	17337
827.323	17193
827.462	17349
827.601	17200
827.741	17208
827.88	17227
828.02	17117
828.159	17235
828.298	17185
828.437	17277
828.577	17178
828.716	17322
828.855	17242
828.994	17064
829.134	17006
829.273	17041
829.412	16911
829.551	16889
829.69	17022
829.829	16949
829.968	17155
830.107	17132
830.246	17006
830.385	16957
830.524	16927
830.663	16850
830.802	16767
830.941	16573
831.08	16672
831.219	16626
831.357	16744
831.496	16900
831.635	16706
831.774	16569
831.913	16493
832.051	16428
832.19	16417
832.329	16432
832.467	16284
832.606	16257
832.744	16291
832.883	16375
833.022	16249
833.16	16371
833.299	16356
833.437	16360
833.576	16337
833.714	16371
833.852	16417
833.991	16436
834.129	16485
834.267	16405
834.406	16337
834.544	16390
834.682	16379
834.821	16299
834.959	16550
835.097	16394
835.235	16489
835.373	16329
835.511	16481
835.65	16226
835.788	16333
835.926	16131
836.064	16086
836.202	16169
836.34	16333
836.478	16443
836.615	16337
836.753	16207
836.891	16409
837.029	16341
837.167	16234
837.305	16215
837.443	16109
837.58	16196
837.718	16207
837.856	16223
837.993	16109
838.131	16154
838.269	16124
838.406	16086
838.544	16032
838.681	15983
838.819	15994
838.956	15812
839.094	15679
839.231	15736
839.369	15892
839.506	16112
839.643	16013
839.781	15766
839.918	15705
840.055	15743
840.193	15709
840.33	15774
840.467	15717
840.604	15728
840.742	15857
840.879	15603
841.016	15587
841.153	15637
841.29	15865
841.427	15747
841.564	15816
841.701	15709
841.838	15618
841.975	15542
842.112	15701
842.249	15599
842.385	15561
842.522	15667
842.659	15500
842.796	15439
842.933	15481
843.069	15492
843.206	15515
843.343	15557
843.479	15473
843.616	15637
843.752	15370
843.889	15313
844.025	15416
844.162	15260
844.298	15393
844.435	15222
844.571	15188
844.708	15389
844.844	15485
844.98	15378
845.117	15466
845.253	15279
845.389	15135
845.525	15306
845.661	15127
845.798	15100
845.934	15161
846.07	15074
846.206	15195
846.342	15199
846.478	15074
846.614	14857
846.75	14834
846.886	14777
847.022	14872
847.158	14868
847.294	14960
847.429	14845
847.565	14990
847.701	15058
847.837	14678
847.972	14579
848.108	14716
848.244	14644
848.379	14560
848.515	14488
848.65	14461
848.786	14507
848.921	14484
849.057	14648
849.192	14613
849.328	14511
849.463	14507
849.598	14427
849.734	14393
849.869	14320
850.004	14240
850.14	14305
850.275	14233
850.41	14225
850.545	14237
850.68	14252
850.815	14248
850.95	14271
851.085	14374
851.22	14351
851.355	14271
851.49	14218
851.625	14225
851.76	14180
851.895	14119
852.03	14012
852.165	14183
852.299	14267
852.434	14256
852.569	14332
852.703	14275
852.838	14320
852.973	14450
853.107	14351
853.242	14275
853.376	14176
853.511	14065
853.645	14020
853.78	14218
853.914	14142
854.048	14123
854.183	14027
854.317	14142
854.451	14305
854.585	14142
854.72	14062
854.854	14218
854.988	14016
855.122	14069
855.256	14027
855.39	14058
855.524	14259
855.658	14138
855.792	14134
855.926	14084
856.06	14210
856.194	14187
856.327	14126
856.461	14111
856.595	14039
856.729	14046
856.862	14271
856.996	14123
857.13	14252
857.263	14332
857.397	14206
857.53	14191
857.664	14187
857.797	14229
857.931	14183
858.064	14176
858.197	14317
858.331	14164
858.464	13997
858.597	14024
858.731	14138
858.864	14065
858.997	14012
859.13	14161
859.263	14176
859.396	14324
859.529	14115
859.662	14020
859.795	14031
859.928	14164
860.061	14282
860.194	14309
860.327	14130
860.46	14092
860.592	14301
860.725	14294
860.858	14202
860.99	14138
861.123	14050
861.256	14031
861.388	14123
861.521	14895
861.653	14077
861.786	13944
861.918	13982
862.05	14172
862.183	14020
862.315	14096
862.447	14164
862.58	14073
862.712	13898
862.844	13860
862.976	14069
863.108	13982
863.24	14278
863.372	13822
863.504	13913
863.636	13887
863.768	14020
863.9	13906
864.032	13940
864.164	13860
864.296	14020
864.428	14024
864.559	14001
864.691	13974
864.823	13982
864.954	13909
865.086	13860
865.217	13864
865.349	13746
865.48	13921
865.612	13894
865.743	14031
865.875	13864
866.006	13849
866.137	13925
866.269	13871
866.4	13860
866.531	13852
866.662	13887
866.793	13890
866.924	13883
867.055	13894
867.186	13879
867.317	13917
867.448	13776
867.579	13833
867.71	13902
867.841	13757
867.972	13974
868.103	13856
868.233	13917
868.364	13989
868.495	14065
868.625	14153
868.756	14161
868.886	14100
869.017	14119
869.147	14343
869.278	14282
869.408	14187
869.539	14172
869.669	14195
869.799	14313
869.929	14271
870.06	14271
870.19	14511
870.32	14442
870.45	14457
870.58	14587
870.71	14549
870.84	14773
870.97	14602
871.1	14568
871.23	14724
871.36	14724
871.489	14606
871.619	14632
871.749	14712
871.879	14823
872.008	14838
872.138	14750
872.267	14701
872.397	14549
872.526	14667
872.656	14457
872.785	14659
872.915	14804
873.044	14857
873.173	14788
873.303	14830
873.432	14758
873.561	14857
873.69	14712
873.819	14830
873.948	14864
874.077	14788
874.206	14682
874.335	14826
874.464	14982
874.593	15169
874.722	15085
874.851	15157
874.979	15123
875.108	15142
875.237	15009
875.365	15009
875.494	15074
875.623	15146
875.751	15104
875.88	15180
876.008	15313
876.136	15287
876.265	15511
876.393	15641
876.521	15603
876.65	15614
876.778	15671
876.906	15526
877.034	15420
877.162	15591
877.29	15439
877.418	15576
877.546	15572
877.674	15538
877.802	15542
877.93	15557
878.058	15458
878.185	15370
878.313	15431
878.441	15549
878.568	15488
878.696	15477
878.824	15492
878.951	15576
879.079	15599
879.206	15827
879.333	15732
879.461	15610
879.588	15629
879.715	15686
879.842	15907
879.97	15629
880.097	15310
880.224	15454
880.351	15405
880.478	15504
880.605	15313
880.732	15420
880.859	15690
880.986	15408
881.112	15298
881.239	15332
881.366	15199
881.493	15032
881.619	15188
881.746	15032
881.872	15074
881.999	15047
882.125	15024
882.252	15066
882.378	15020
882.505	15226
882.631	14979
882.757	14857
882.883	14937
883.01	14944
883.136	14746
883.262	14724
883.388	14564
883.514	14956
883.64	14952
883.766	14735
883.892	14693
884.018	14697
884.143	14804
884.269	14899
884.395	14727
884.52	14480
884.646	14629
884.772	14461
884.897	14507
885.023	14552
885.148	14678
885.274	14667
885.399	14693
885.524	14594
885.65	14587
885.775	14682
885.9	14587
886.025	14731
886.15	14621
886.275	14537
886.4	14518
886.525	14575
886.65	14473
886.775	14461
886.9	14765
887.025	14887
887.149	14556
887.274	14381
887.399	14396
887.523	14290
887.648	14298
887.773	14347
887.897	14431
888.021	14442
888.146	14438
888.27	14507
888.395	14568
888.519	14503
888.643	14442
888.767	14488
888.891	14328
889.015	14157
889.139	14286
889.263	14214
889.387	14237
889.511	14431
889.635	14454
889.759	14244
889.883	14225
890.006	14248
890.13	14450
890.254	14172
890.377	14210
890.501	14012
890.624	14016
890.748	14084
890.871	14016
890.995	14012
891.118	13883
891.241	13986
891.364	13944
891.488	14058
891.611	13997
891.734	13925
891.857	14058
891.98	13944
892.103	14062
892.226	13986
892.349	13932
892.471	13791
892.594	13932
892.717	13951
892.839	13871
892.962	13974
893.085	14134
893.207	13982
893.33	13890
893.452	13845
893.575	14058
893.697	13875
893.819	14221
893.941	14172
894.064	14145
894.186	14012
894.308	13959
894.43	14111
894.552	14153
894.674	14115
894.796	13928
894.918	14005
895.04	13928
895.161	14107
895.283	14145
895.405	14088
895.526	14035
895.648	13982
895.769	14111
895.891	14202
896.012	14195
896.134	14134
896.255	14225
896.376	14077
896.498	14107
896.619	14168
896.74	14096
896.861	14218
896.982	14492
897.103	14667
897.224	14415
897.345	14404
897.466	14381
897.587	14549
897.708	14499
897.828	14488
897.949	14358
898.07	14267
898.19	14385
898.311	14545
898.431	14442
898.552	14541
898.672	14533
898.792	14552
898.913	14602
899.033	14396
899.153	14336
899.273	14244
899.393	14282
899.513	14377
899.633	14400
899.753	14309
899.873	14191
899.993	14431
900.113	14267
900.232	14400
900.352	14339
900.472	14233
900.591	14145
900.711	14191
900.83	14256
900.95	14351
901.069	14423
901.189	14130
901.308	13967
901.427	13860
901.546	13826
901.665	13898
901.784	13959
901.904	13826
902.023	13651
902.141	13480
902.26	13441
902.379	13567
902.498	13495
902.617	13350
902.735	13457
902.854	13324
902.973	13373
903.091	13171
903.21	13133
903.328	13202
903.446	13103
903.565	13046
903.683	13053
903.801	12920
903.919	13004
904.038	13000
904.156	12977
904.274	12871
904.392	12867
904.51	12833
904.627	12833
904.745	12882
904.863	12913
904.981	12658
905.098	12551
905.216	12589
905.334	12582
905.451	12551
905.569	12490
905.686	12646
905.803	12528
905.921	12296
906.038	12494
906.155	12429
906.272	12258
906.389	12323
906.506	12072
906.623	12148
906.74	12148
906.857	12057
906.974	11996
907.091	12194
907.208	12243
907.324	12186
907.441	12102
907.557	11855
907.674	11958
907.79	11859
907.907	11882
908.023	12007
908.139	11843
908.256	11889
908.372	11737
908.488	11809
908.604	11695
908.72	11562
908.836	11615
908.952	11608
909.068	11630
909.184	11756
909.3	11619
909.415	11661
909.531	11695
909.647	11341
909.762	11471
909.878	11387
909.993	11463
910.108	11337
910.224	11410
910.339	11436
910.454	11265
910.57	11250
910.685	11223
910.8	11516
910.915	11421
911.03	11345
911.145	11113
911.259	11102
911.374	11041
911.489	11094
911.604	10938
911.718	10820
911.833	10866
911.947	10839
912.062	10694
912.176	10854
912.291	10839
912.405	10881
912.519	11033
912.633	11102
912.748	10869
912.862	10847
912.976	10793
913.09	10618
913.204	10717
913.318	10835
913.431	10847
913.545	10877
913.659	10873
913.772	10873
913.886	10622
914	10531
914.113	10710
914.226	10687
914.34	10733
914.453	10531
914.566	10752
914.68	10561
914.793	10577
914.906	10436
915.019	10360
915.132	10352
915.245	10455
915.358	10417
915.47	10394
915.583	10390
915.696	10531
915.809	10504
915.921	10554
916.034	10398
916.146	10299
916.259	10348
916.371	10470
916.483	10348
916.595	10291
916.708	10284
916.82	10386
916.932	10314
917.044	10295
917.156	10318
917.268	10181
917.38	10230
917.491	10177
917.603	10207
917.715	10371
917.826	10318
917.938	10230
918.049	10150
918.161	10246
918.272	10382
918.384	10310
918.495	10242
918.606	10097
918.717	10021
918.828	10120
918.939	10082
919.05	10048
919.161	10101
919.272	9850
919.383	10017
919.494	10124
919.604	10306
919.715	10204
919.826	10120
919.936	10074
920.047	10150
920.157	10051
920.267	10318
920.378	10177
920.488	10131
920.598	10360
920.708	10428
920.818	10367
920.928	10284
921.038	10462
921.148	10459
921.258	10177
921.368	10086
921.477	10010
921.587	9949
921.697	9838
921.806	9994
921.916	9888
922.025	9682
922.134	9675
922.244	9561
922.353	9785
922.462	9599
922.571	9496
922.68	9351
922.789	9283
922.898	9336
923.007	9370
923.116	9473
923.224	9386
923.333	9348
923.442	9306
923.55	9245
923.659	9230
923.767	9412
923.876	9230
923.984	9374
924.092	9218
924.201	9298
924.309	9336
924.417	9291
924.525	9188
924.633	9230
924.741	10071
924.849	8979
924.956	9165
925.064	8975
925.172	9001
925.279	9024
925.387	9051
925.494	9089
925.602	9199
925.709	9112
925.816	9020
925.924	9047
926.031	9154
926.138	9074
926.245	9108
926.352	8925
926.459	9020
926.566	9116
926.673	9024
926.779	8952
926.886	8891
926.993	8712
927.099	8788
927.206	8674
927.312	8697
927.419	8785
927.525	8762
927.631	8731
927.737	8636
927.843	8629
927.95	8564
928.056	8629
928.162	8689
928.267	8678
928.373	9329
928.479	8735
928.585	8537
928.69	8655
928.796	8667
928.901	8545
929.007	8514
929.112	8625
929.218	8556
929.323	8484
929.428	8450
929.533	8644
929.638	8412
929.743	8492
929.848	8526
929.953	8412
930.058	8396
930.163	8164
930.267	8240
930.372	8396
930.477	8259
930.581	8473
930.685	8351
930.79	8225
930.894	8214
930.998	8187
931.103	8309
931.207	8001
931.311	7890
931.415	7845
931.519	7712
931.623	7674
