Data from test_V78500241_112.txt Node
Date: Fri Mar 25 14:34:30 CST 2022
User: usil
Spectrometer: V785-0024
Trigger mode: 0
Integration Time (sec): 4.000000E-1
Scans to average: 1
Nonlinearity correction enabled: false
Boxcar width: 0
Storing dark spectrum: false
XAxis mode: Wavelengths
Number of Pixels in Spectrum: 1024
>>>>>Begin Spectral Data<<<<<
801.071	35375
801.214	35265
801.356	34968
801.499	35094
801.641	34968
801.783	34888
801.926	35239
802.068	35018
802.211	34911
802.353	34930
802.496	34984
802.638	35018
802.78	35014
802.923	34850
803.065	34908
803.208	34892
803.35	35075
803.492	35235
803.635	35410
803.777	35124
803.919	35345
804.061	35691
804.204	35330
804.346	35410
804.488	35345
804.63	35497
804.773	35368
804.915	35634
805.057	35528
805.199	35570
805.341	35783
805.483	35767
805.626	35779
805.768	35684
805.91	35870
806.052	35923
806.194	35969
806.336	36296
806.478	36251
806.62	36270
806.762	36410
806.904	36852
807.046	37126
807.188	37217
807.33	37426
807.472	37666
807.614	38001
807.756	38286
807.898	38579
808.04	39180
808.182	40082
808.324	41086
808.465	42342
808.607	43658
808.749	44899
808.891	45614
809.033	45766
809.174	44807
809.316	43632
809.458	42323
809.6	40839
809.741	39781
809.883	39089
810.025	38583
810.166	38054
810.308	37750
810.45	37597
810.591	37422
810.733	37050
810.875	36977
811.016	36711
811.158	36593
811.299	36582
811.441	36669
811.582	36528
811.724	36376
811.865	36365
812.007	36289
812.148	36384
812.29	36342
812.431	36471
812.573	36570
812.714	36661
812.855	36684
812.997	36620
813.138	37122
813.279	36871
813.421	36749
813.562	36509
813.703	36353
813.845	36285
813.986	36007
814.127	35859
814.268	35585
814.41	35585
814.551	35600
814.692	35638
814.833	35520
814.974	35486
815.115	35585
815.256	35375
815.397	35406
815.539	35433
815.68	35231
815.821	35360
815.962	35273
816.103	35083
816.244	35109
816.385	34896
816.526	34957
816.666	34660
816.807	34500
816.948	34691
817.089	34641
817.23	34561
817.371	34557
817.512	34478
817.653	34584
817.793	34462
817.934	34493
818.075	34417
818.216	34637
818.356	34398
818.497	34546
818.638	34166
818.778	34215
818.919	34371
819.06	34261
819.2	34249
819.341	34443
819.481	34478
819.622	34626
819.762	34805
819.903	34721
820.043	34645
820.184	34485
820.324	34451
820.465	34440
820.605	34310
820.746	34375
820.886	34211
821.026	34413
821.167	34291
821.307	34242
821.447	34185
821.588	34162
821.728	34017
821.868	33789
822.008	33629
822.149	33679
822.289	33488
822.429	33443
822.569	33237
822.709	33329
822.849	33062
822.99	33214
823.13	32929
823.27	32883
823.41	32838
823.55	32731
823.69	32910
823.83	32819
823.97	32651
824.11	32613
824.25	32571
824.389	32412
824.529	32617
824.669	32648
824.809	32659
824.949	32598
825.089	32648
825.228	32731
825.368	32446
825.508	32503
825.648	32393
825.787	32336
825.927	32381
826.067	32317
826.206	32328
826.346	32434
826.485	32294
826.625	32404
826.765	32434
826.904	32404
827.044	32016
827.183	32153
827.323	32016
827.462	32069
827.601	32092
827.741	32020
827.88	31925
828.02	31803
828.159	31807
828.298	31868
828.437	31898
828.577	31864
828.716	32084
828.855	31750
828.994	31647
829.134	31590
829.273	31715
829.412	31544
829.551	31449
829.69	31567
829.829	31548
829.968	31521
830.107	31506
830.246	31392
830.385	31407
830.524	31358
830.663	31293
830.802	31114
830.941	31175
831.08	31129
831.219	31160
831.357	30989
831.496	31217
831.635	30913
831.774	30871
831.913	30829
832.051	30954
832.19	30612
832.329	30856
832.467	30585
832.606	30566
832.744	30563
832.883	30738
833.022	30471
833.16	30616
833.299	30806
833.437	30798
833.576	30734
833.714	30875
833.852	30817
833.991	31187
834.129	31034
834.267	30943
834.406	31141
834.544	30817
834.682	30852
834.821	30703
834.959	30833
835.097	30639
835.235	30730
835.373	30593
835.511	30525
835.65	30201
835.788	30315
835.926	30270
836.064	30190
836.202	30030
836.34	30133
836.478	30467
836.615	30087
836.753	30251
836.891	30266
837.029	30213
837.167	30148
837.305	30216
837.443	29901
837.58	29923
837.718	30026
837.856	30136
837.993	29950
838.131	29996
838.269	29745
838.406	29672
838.544	29646
838.681	29516
838.819	29512
838.956	29402
839.094	29322
839.231	29299
839.369	29406
839.506	29539
839.643	29391
839.781	29208
839.918	28915
840.055	29041
840.193	29102
840.33	29006
840.467	29064
840.604	28995
840.742	29220
840.879	28869
841.016	28911
841.153	28999
841.29	29037
841.427	28995
841.564	28816
841.701	28938
841.838	28942
841.975	28831
842.112	28831
842.249	28771
842.385	28641
842.522	28805
842.659	28683
842.796	28603
842.933	28611
843.069	28733
843.206	28580
843.343	28645
843.479	28706
843.616	28721
843.752	28417
843.889	28573
844.025	28565
844.162	28592
844.298	28656
844.435	28611
844.571	28550
844.708	28717
844.844	29025
844.98	29090
845.117	29307
845.253	29551
845.389	30353
845.525	31761
845.661	34021
845.798	36745
845.934	38853
846.07	39732
846.206	39218
846.342	37240
846.478	34474
846.614	32084
846.75	30342
846.886	29558
847.022	28972
847.158	28599
847.294	28268
847.429	28124
847.565	27949
847.701	28223
847.837	27663
847.972	27458
848.108	27701
848.244	27618
848.379	27344
848.515	27291
848.65	27291
848.786	27306
848.921	27241
849.057	27260
849.192	27363
849.328	27199
849.463	27195
849.598	27123
849.734	26944
849.869	27055
850.004	26960
850.14	26933
850.275	26899
850.41	26727
850.545	26883
850.68	26754
850.815	26887
850.95	26754
851.085	26929
851.22	26800
851.355	26876
851.49	26868
851.625	26746
851.76	26708
851.895	26659
852.03	26842
852.165	26792
852.299	26762
852.434	26990
852.569	26925
852.703	26705
852.838	26823
852.973	26880
853.107	26887
853.242	26807
853.376	26788
853.511	26453
853.645	26579
853.78	26724
853.914	26819
854.048	26682
854.183	26758
854.317	26864
854.451	26796
854.585	26682
854.72	26735
854.854	26876
854.988	26655
855.122	26716
855.256	26457
855.39	26530
855.524	26587
855.658	26708
855.792	26689
855.926	26442
856.06	26552
856.194	26602
856.327	26499
856.461	26465
856.595	26469
856.729	26587
856.862	26670
856.996	26431
857.13	26560
857.263	26590
857.397	26564
857.53	26351
857.664	26514
857.797	26366
857.931	26480
858.064	26374
858.197	26465
858.331	26389
858.464	26328
858.597	26294
858.731	26317
858.864	26358
858.997	26263
859.13	26393
859.263	26324
859.396	26412
859.529	26107
859.662	26309
859.795	26229
859.928	26396
860.061	26339
860.194	26419
860.327	26214
860.46	26301
860.592	26423
860.725	26377
860.858	26537
860.99	26180
861.123	26191
861.256	26206
861.388	26221
861.521	26956
861.653	26164
861.786	26138
861.918	26138
862.05	26267
862.183	26423
862.315	26564
862.447	26522
862.58	26446
862.712	26176
862.844	26005
862.976	26180
863.108	25894
863.24	26275
863.372	25871
863.504	25993
863.636	25864
863.768	25921
863.9	25814
864.032	25681
864.164	25788
864.296	25833
864.428	25959
864.559	25875
864.691	25906
864.823	25845
864.954	25753
865.086	25696
865.217	25575
865.349	25632
865.48	25594
865.612	25757
865.743	25753
865.875	25681
866.006	25556
866.137	25750
866.269	25719
866.4	25601
866.531	25674
866.662	25533
866.793	25681
866.924	25544
867.055	25655
867.186	25727
867.317	25434
867.448	25388
867.579	25597
867.71	25495
867.841	25487
867.972	25601
868.103	25392
868.233	25502
868.364	25552
868.495	25719
868.625	25647
868.756	25807
868.886	25563
869.017	25719
869.147	25681
869.278	25833
869.408	25734
869.539	25776
869.669	25727
869.799	25670
869.929	25856
870.06	25708
870.19	25966
870.32	26001
870.45	26161
870.58	26100
870.71	26149
870.84	26122
870.97	26214
871.1	26149
871.23	26244
871.36	26408
871.489	26229
871.619	26370
871.749	26248
871.879	26518
872.008	26533
872.138	26499
872.267	26343
872.397	26347
872.526	26225
872.656	26298
872.785	26290
872.915	26415
873.044	26583
873.173	26476
873.303	26476
873.432	26609
873.561	26503
873.69	26518
873.819	26533
873.948	26659
874.077	26549
874.206	26564
874.335	26560
874.464	26617
874.593	26872
874.722	26682
874.851	26777
874.979	26910
875.108	26754
875.237	26743
875.365	26606
875.494	26739
875.623	26883
875.751	27013
875.88	26853
876.008	27142
876.136	27020
876.265	27298
876.393	27496
876.521	27469
876.65	27359
876.778	27435
876.906	27378
877.034	27348
877.162	27382
877.29	27317
877.418	27466
877.546	27538
877.674	27496
877.802	27675
877.93	27633
878.058	27591
878.185	27656
878.313	27975
878.441	27949
878.568	28093
878.696	28432
878.824	28752
878.951	29296
879.079	29897
879.206	30817
879.333	31689
879.461	32145
879.588	32712
879.715	32693
879.842	32408
879.97	31377
880.097	30536
880.224	29794
880.351	29581
880.478	29022
880.605	28694
880.732	28660
880.859	28862
880.986	28428
881.112	28341
881.239	28276
881.366	28215
881.493	28204
881.619	27960
881.746	27964
881.872	28017
881.999	28078
882.125	27972
882.252	28063
882.378	28238
882.505	28128
882.631	28120
882.757	27789
882.883	27941
883.01	27717
883.136	27675
883.262	27625
883.388	27720
883.514	27804
883.64	27660
883.766	27610
883.892	27583
884.018	27530
884.143	27622
884.269	27641
884.395	27515
884.52	27401
884.646	27443
884.772	27207
884.897	27367
885.023	27420
885.148	27325
885.274	27386
885.399	27351
885.524	27287
885.65	27192
885.775	27173
885.9	26994
886.025	27096
886.15	26948
886.275	26807
886.4	26693
886.525	26838
886.65	26655
886.775	26587
886.9	26549
887.025	26705
887.149	26381
887.274	26408
887.399	26107
887.523	26229
887.648	25966
887.773	25906
887.897	26130
888.021	25982
888.146	26088
888.27	26069
888.395	25917
888.519	25928
888.643	25898
888.767	25864
888.891	25788
889.015	25571
889.139	25616
889.263	25514
889.387	25780
889.511	25639
889.635	25571
889.759	25308
889.883	25415
890.006	25407
890.13	25346
890.254	25430
890.377	25346
890.501	25133
890.624	25042
890.748	25133
890.871	24977
890.995	24871
891.118	24764
891.241	24897
891.364	24837
891.488	24779
891.611	24684
891.734	24791
891.857	24867
891.98	24810
892.103	24616
892.226	24612
892.349	24593
892.471	24330
892.594	24509
892.717	24650
892.839	24521
892.962	24604
893.085	24490
893.207	24391
893.33	24353
893.452	24308
893.575	24410
893.697	24266
893.819	24547
893.941	24593
894.064	24388
894.186	24350
894.308	24068
894.43	24304
894.552	24281
894.674	24388
894.796	24228
894.918	24251
895.04	24148
895.161	24194
895.283	24258
895.405	24018
895.526	24076
895.648	23980
895.769	24152
895.891	23950
896.012	24213
896.134	24083
896.255	24038
896.376	23939
896.498	23984
896.619	24076
896.74	24129
896.861	24194
896.982	24426
897.103	24384
897.224	24228
897.345	24167
897.466	24262
897.587	24205
897.708	24213
897.828	24148
897.949	24129
898.07	23942
898.19	23866
898.311	24140
898.431	23889
898.552	23908
898.672	23969
898.792	23946
898.913	23893
899.033	23687
899.153	23600
899.273	23493
899.393	23558
899.513	23524
899.633	23448
899.753	23417
899.873	23250
899.993	23425
900.113	23250
900.232	23372
900.352	23318
900.472	23326
900.591	23124
900.711	23204
900.83	23155
900.95	23273
901.069	23258
901.189	23193
901.308	22873
901.427	23018
901.546	22858
901.665	22721
901.784	22679
901.904	22710
902.023	22508
902.141	22192
902.26	22223
902.379	22242
902.498	22158
902.617	22185
902.735	22143
902.854	22082
902.973	22188
903.091	21949
903.21	21876
903.328	21747
903.446	21720
903.565	21675
903.683	21667
903.801	21599
903.919	21534
904.038	21637
904.156	21477
904.274	21405
904.392	21397
904.51	21424
904.627	21382
904.745	21397
904.863	21279
904.981	21150
905.098	21020
905.216	20944
905.334	21070
905.451	21009
905.569	20982
905.686	21005
905.803	20982
905.921	20785
906.038	20826
906.155	20785
906.272	20625
906.389	20670
906.506	20492
906.623	20560
906.74	20556
906.857	20377
906.974	20412
907.091	20583
907.208	20507
907.324	20579
907.441	20511
907.557	20278
907.674	20240
907.79	20122
907.907	20111
908.023	20161
908.139	20096
908.256	20069
908.372	19928
908.488	19894
908.604	19894
908.72	19765
908.836	19845
908.952	19814
909.068	19909
909.184	19967
909.3	19738
909.415	19803
909.531	19803
909.647	19548
909.762	19510
909.878	19483
909.993	19468
910.108	19438
910.224	19422
910.339	19388
910.454	19324
910.57	19179
910.685	19145
910.8	19373
910.915	19297
911.03	19175
911.145	19118
911.259	19015
911.374	19057
911.489	18916
911.604	18867
911.718	18768
911.833	18654
911.947	18612
912.062	18502
912.176	18673
912.291	18715
912.405	18669
912.519	18795
912.633	18779
912.748	18646
912.862	18631
912.976	18506
913.09	18361
913.204	18502
913.318	18395
913.431	18426
913.545	18563
913.659	18506
913.772	18399
913.886	18281
914	18296
914.113	18277
914.226	18369
914.34	18216
914.453	18110
914.566	18224
914.68	18201
914.793	18121
914.906	17920
915.019	17764
915.132	17657
915.245	17786
915.358	17783
915.47	17859
915.583	17863
915.696	17821
915.809	17935
915.921	17817
916.034	17809
916.146	17630
916.259	17661
916.371	17661
916.483	17676
916.595	17501
916.708	17600
916.82	17566
916.932	17452
917.044	17452
917.156	17436
917.268	17322
917.38	17322
917.491	17288
917.603	17322
917.715	17299
917.826	17391
917.938	17193
918.049	17052
918.161	17269
918.272	17277
918.384	17395
918.495	17208
918.606	16968
918.717	16957
918.828	17018
918.939	16946
919.05	16900
919.161	16949
919.272	16763
919.383	16740
919.494	16778
919.604	17029
919.715	16938
919.826	16736
919.936	16725
920.047	16820
920.157	16740
920.267	16934
920.378	16816
920.488	16752
920.598	16980
920.708	17037
920.818	16892
920.928	16824
921.038	16896
921.148	16900
921.258	16615
921.368	16455
921.477	16405
921.587	16310
921.697	16249
921.806	16440
921.916	16242
922.025	16093
922.134	15998
922.244	16067
922.353	16044
922.462	15804
922.571	15816
922.68	15736
922.789	15576
922.898	15564
923.007	15618
923.116	15576
923.224	15599
923.333	15469
923.442	15386
923.55	15386
923.659	15382
923.767	15450
923.876	15272
923.984	15420
924.092	15214
924.201	15325
924.309	15249
924.417	15298
924.525	15184
924.633	15123
924.741	16120
924.849	14956
924.956	15009
925.064	14929
925.172	14838
925.279	14948
925.387	14944
925.494	14804
925.602	15001
925.709	14952
925.816	14826
925.924	14769
926.031	14800
926.138	14811
926.245	14769
926.352	14712
926.459	14807
926.566	14826
926.673	14655
926.779	14533
926.886	14571
926.993	14434
927.099	14377
927.206	14237
927.312	14256
927.419	14317
927.525	14275
927.631	14259
927.737	14123
927.843	14145
927.95	14005
928.056	14164
928.162	14088
928.267	14069
928.373	14735
928.479	14164
928.585	13944
928.69	14001
928.796	14046
928.901	13970
929.007	13772
929.112	13906
929.218	13757
929.323	13750
929.428	13723
929.533	13871
929.638	13582
929.743	13639
929.848	13674
929.953	13575
930.058	13460
930.163	13354
930.267	13441
930.372	13350
930.477	13304
930.581	13590
930.685	13434
930.79	13122
930.894	13236
930.998	13217
931.103	13285
931.207	12875
931.311	12684
931.415	12738
931.519	12635
931.623	12452
