Data from test_V78500241_932.txt Node
Date: Fri Mar 25 14:40:12 CST 2022
User: usil
Spectrometer: V785-0024
Trigger mode: 0
Integration Time (sec): 4.000000E-1
Scans to average: 1
Nonlinearity correction enabled: false
Boxcar width: 0
Storing dark spectrum: false
XAxis mode: Wavelengths
Number of Pixels in Spectrum: 1024
>>>>>Begin Spectral Data<<<<<
801.071	24456
801.214	24414
801.356	24171
801.499	24087
801.641	23946
801.783	23866
801.926	24022
802.068	23821
802.211	23714
802.353	23562
802.496	23421
802.638	23334
802.78	23315
802.923	23239
803.065	23208
803.208	23368
803.35	23212
803.492	23258
803.635	23391
803.777	23193
803.919	23220
804.061	23604
804.204	23258
804.346	23220
804.488	23113
804.63	23250
804.773	23090
804.915	23162
805.057	23200
805.199	23258
805.341	23223
805.483	23391
805.626	23376
805.768	23140
805.91	23326
806.052	23258
806.194	23265
806.336	23452
806.478	23269
806.62	23364
806.762	23581
806.904	23695
807.046	23996
807.188	23908
807.33	23912
807.472	24110
807.614	23988
807.756	24281
807.898	24315
808.04	24426
808.182	24661
808.324	25152
808.465	25578
808.607	25883
808.749	26545
808.891	26541
809.033	26701
809.174	26294
809.316	26039
809.458	25510
809.6	25122
809.741	24913
809.883	24681
810.025	24589
810.166	24380
810.308	24399
810.45	24308
810.591	24079
810.733	23798
810.875	23802
811.016	23589
811.158	23608
811.299	23577
811.441	23687
811.582	23710
811.724	23558
811.865	23501
812.007	23554
812.148	23543
812.29	23589
812.431	23661
812.573	23771
812.714	23973
812.855	24049
812.997	24121
813.138	24266
813.279	24125
813.421	23977
813.562	23916
813.703	23672
813.845	23687
813.986	23326
814.127	23162
814.268	23155
814.41	23098
814.551	23052
814.692	23128
814.833	22987
814.974	22942
815.115	22999
815.256	22816
815.397	22862
815.539	22915
815.68	22713
815.821	22733
815.962	22611
816.103	22752
816.244	22512
816.385	22497
816.526	22363
816.666	22306
816.807	22109
816.948	22284
817.089	22173
817.23	22185
817.371	22211
817.512	22029
817.653	22124
817.793	21979
817.934	22040
818.075	22105
818.216	22196
818.356	22097
818.497	22013
818.638	21823
818.778	21876
818.919	21827
819.06	21698
819.2	21972
819.341	21983
819.481	21937
819.622	22086
819.762	22337
819.903	22211
820.043	22238
820.184	22067
820.324	21994
820.465	22230
820.605	22006
820.746	22070
820.886	21895
821.026	22013
821.167	21949
821.307	22063
821.447	21888
821.588	21838
821.728	21774
821.868	21587
822.008	21332
822.149	21363
822.289	21367
822.429	21127
822.569	21066
822.709	21017
822.849	20880
822.99	20883
823.13	20785
823.27	20804
823.41	20750
823.55	20670
823.69	20632
823.83	20788
823.97	20613
824.11	20400
824.25	20575
824.389	20385
824.529	20541
824.669	20522
824.809	20465
824.949	20530
825.089	20621
825.228	20511
825.368	20374
825.508	20282
825.648	20343
825.787	20339
825.927	20286
826.067	20161
826.206	20107
826.346	20278
826.485	20202
826.625	20244
826.765	20313
826.904	20202
827.044	19951
827.183	19993
827.323	19913
827.462	19959
827.601	19864
827.741	19887
827.88	19921
828.02	19818
828.159	19837
828.298	19830
828.437	19833
828.577	19795
828.716	20081
828.855	19830
828.994	19628
829.134	19635
829.273	19700
829.412	19552
829.551	19685
829.69	19491
829.829	19685
829.968	19689
830.107	19559
830.246	19685
830.385	19563
830.524	19529
830.663	19304
830.802	19293
830.941	19278
831.08	19194
831.219	19285
831.357	19278
831.496	19384
831.635	19240
831.774	19156
831.913	19053
832.051	19031
832.19	18981
832.329	19042
832.467	18875
832.606	18863
832.744	18894
832.883	18920
833.022	18886
833.16	18897
833.299	19031
833.437	18954
833.576	18981
833.714	19012
833.852	19091
833.991	19168
834.129	19091
834.267	19152
834.406	19072
834.544	19228
834.682	19019
834.821	19012
834.959	19126
835.097	18989
835.235	19069
835.373	18935
835.511	18852
835.65	18779
835.788	18791
835.926	18669
836.064	18612
836.202	18700
836.34	18844
836.478	18844
836.615	18669
836.753	18768
836.891	18806
837.029	18814
837.167	18681
837.305	18791
837.443	18540
837.58	18608
837.718	18730
837.856	18654
837.993	18582
838.131	18601
838.269	18582
838.406	18555
838.544	18464
838.681	18254
838.819	18273
838.956	18110
839.094	18098
839.231	18190
839.369	18247
839.506	18456
839.643	18319
839.781	18076
839.918	18159
840.055	18133
840.193	18102
840.33	17984
840.467	18083
840.604	18098
840.742	18308
840.879	17939
841.016	17961
841.153	18019
841.29	18232
841.427	18083
841.564	18064
841.701	17958
841.838	18110
841.975	17897
842.112	18034
842.249	17904
842.385	17851
842.522	17992
842.659	17817
842.796	17794
842.933	17843
843.069	17764
843.206	17794
843.343	17965
843.479	17813
843.616	17847
843.752	17653
843.889	17573
844.025	17828
844.162	17665
844.298	17809
844.435	17668
844.571	17760
844.708	17729
844.844	17904
844.98	18064
845.117	18136
845.253	17988
845.389	18076
845.525	18452
845.661	19145
845.798	20012
845.934	20701
846.07	20853
846.206	20857
846.342	20450
846.478	19506
846.614	18429
846.75	18041
846.886	17691
847.022	17551
847.158	17425
847.294	17315
847.429	17174
847.565	17258
847.701	17505
847.837	17048
847.972	16908
848.108	17018
848.244	17010
848.379	16771
848.515	16740
848.65	16706
848.786	16771
848.921	16630
849.057	16889
849.192	16763
849.328	16672
849.463	16698
849.598	16542
849.734	16588
849.869	16443
850.004	16424
850.14	16500
850.275	16493
850.41	16417
850.545	16417
850.68	16367
850.815	16542
850.95	16424
851.085	16653
851.22	16554
851.355	16546
851.49	16409
851.625	16459
851.76	16459
851.895	16268
852.03	16398
852.165	16455
852.299	16413
852.434	16577
852.569	16375
852.703	16527
852.838	16702
852.973	16634
853.107	16630
853.242	16356
853.376	16405
853.511	16139
853.645	16284
853.78	16478
853.914	16337
854.048	16238
854.183	16284
854.317	16329
854.451	16466
854.585	16386
854.72	16367
854.854	16489
854.988	16253
855.122	16390
855.256	16200
855.39	16310
855.524	16306
855.658	16379
855.792	16360
855.926	16322
856.06	16478
856.194	16424
856.327	16219
856.461	16234
856.595	16276
856.729	16306
856.862	16405
856.996	16303
857.13	16356
857.263	16382
857.397	16443
857.53	16375
857.664	16371
857.797	16413
857.931	16443
858.064	16337
858.197	16421
858.331	16238
858.464	16257
858.597	16265
858.731	16242
858.864	16238
858.997	16230
859.13	16337
859.263	16249
859.396	16280
859.529	16299
859.662	16230
859.795	16299
859.928	16265
860.061	16402
860.194	16337
860.327	16291
860.46	16211
860.592	16371
860.725	16390
860.858	16413
860.99	16211
861.123	16177
861.256	16109
861.388	16238
861.521	17003
861.653	16101
861.786	16143
861.918	16166
862.05	16223
862.183	16272
862.315	16188
862.447	16204
862.58	16177
862.712	15975
862.844	16013
862.976	16154
863.108	16162
863.24	16459
863.372	16048
863.504	15964
863.636	16017
863.768	16036
863.9	16029
864.032	15918
864.164	15926
864.296	15945
864.428	16025
864.559	16158
864.691	16059
864.823	16044
864.954	16090
865.086	16025
865.217	15991
865.349	15892
865.48	15949
865.612	15987
865.743	16051
865.875	15884
866.006	16006
866.137	16029
866.269	15979
866.4	15915
866.531	15880
866.662	15876
866.793	15907
866.924	15880
867.055	15953
867.186	15895
867.317	15793
867.448	15903
867.579	15892
867.71	15865
867.841	15892
867.972	15922
868.103	15991
868.233	15930
868.364	15964
868.495	16036
868.625	16177
868.756	16295
868.886	16101
869.017	16173
869.147	16299
869.278	16280
869.408	16135
869.539	16200
869.669	16207
869.799	16230
869.929	16409
870.06	16246
870.19	16474
870.32	16519
870.45	16546
870.58	16554
870.71	16607
870.84	16820
870.97	16607
871.1	16637
871.23	16786
871.36	16748
871.489	16660
871.619	16763
871.749	16698
871.879	16805
872.008	16904
872.138	16782
872.267	16831
872.397	16744
872.526	16706
872.656	16626
872.785	16717
872.915	16774
873.044	16889
873.173	16911
873.303	16911
873.432	16927
873.561	17010
873.69	16869
873.819	16942
873.948	16934
874.077	16919
874.206	16984
874.335	16919
874.464	17014
874.593	17296
874.722	17151
874.851	17239
874.979	17212
875.108	17311
875.237	17208
875.365	17235
875.494	17265
875.623	17356
875.751	17113
875.88	17299
876.008	17452
876.136	17467
876.265	17608
876.393	17802
876.521	17760
876.65	17741
876.778	17760
876.906	17623
877.034	17665
877.162	17707
877.29	17634
877.418	17649
877.546	17623
877.674	17794
877.802	17741
877.93	17798
878.058	17863
878.185	17764
878.313	17764
878.441	17999
878.568	17767
878.696	17954
878.824	18079
878.951	18220
879.079	18563
879.206	18973
879.333	19217
879.461	19259
879.588	19434
879.715	19457
879.842	19491
879.97	19080
880.097	18479
880.224	18372
880.351	18186
880.478	18041
880.605	18125
880.732	17950
880.859	18155
880.986	17863
881.112	17961
881.239	17779
881.366	17577
881.493	17581
881.619	17520
881.746	17585
881.872	17524
881.999	17486
882.125	17471
882.252	17665
882.378	17680
882.505	17630
882.631	17463
882.757	17391
882.883	17345
883.01	17383
883.136	17383
883.262	17280
883.388	17159
883.514	17341
883.64	17368
883.766	17235
883.892	17246
884.018	17280
884.143	17269
884.269	17436
884.395	17102
884.52	16946
884.646	17067
884.772	16976
884.897	16987
885.023	17048
885.148	17113
885.274	17166
885.399	17124
885.524	17140
885.65	17010
885.775	16999
885.9	16889
886.025	17132
886.15	17060
886.275	16953
886.4	16869
886.525	16809
886.65	16824
886.775	16782
886.9	16911
887.025	17147
887.149	16828
887.274	16706
887.399	16580
887.523	16561
887.648	16607
887.773	16512
887.897	16698
888.021	16641
888.146	16478
888.27	16637
888.395	16683
888.519	16554
888.643	16630
888.767	16672
888.891	16405
889.015	16352
889.139	16398
889.263	16409
889.387	16405
889.511	16531
889.635	16462
889.759	16314
889.883	16287
890.006	16367
890.13	16489
890.254	16234
890.377	16287
890.501	16147
890.624	16143
890.748	16116
890.871	16032
890.995	15922
891.118	15842
891.241	15972
891.364	16029
891.488	16143
891.611	16002
891.734	15876
891.857	16013
891.98	15918
892.103	15998
892.226	15956
892.349	15838
892.471	15816
892.594	15884
892.717	15960
892.839	15819
892.962	16051
893.085	15960
893.207	15937
893.33	15819
893.452	15751
893.575	15854
893.697	15873
893.819	16032
893.941	16063
894.064	16002
894.186	15759
894.308	15785
894.43	15991
894.552	16071
894.674	16013
894.796	15838
894.918	15865
895.04	15865
895.161	15979
895.283	15998
895.405	15850
895.526	15869
895.648	15956
895.769	15876
895.891	16071
896.012	16101
896.134	15964
896.255	15968
896.376	15956
896.498	15953
896.619	16040
896.74	15949
896.861	16071
896.982	16405
897.103	16329
897.224	16173
897.345	16249
897.466	16150
897.587	16226
897.708	16325
897.828	16337
897.949	16226
898.07	16040
898.19	16162
898.311	16344
898.431	16211
898.552	16314
898.672	16394
898.792	16413
898.913	16379
899.033	16223
899.153	16166
899.273	16002
899.393	16086
899.513	16166
899.633	16128
899.753	16200
899.873	16029
899.993	16272
900.113	16162
900.232	16101
900.352	16036
900.472	15983
900.591	15956
900.711	16036
900.83	15960
900.95	16128
901.069	16013
901.189	15899
901.308	15736
901.427	15686
901.546	15694
901.665	15618
901.784	15682
901.904	15523
902.023	15477
902.141	15275
902.26	15142
902.379	15317
902.498	15138
902.617	15085
902.735	15184
902.854	15165
902.973	15055
903.091	14800
903.21	14815
903.328	14853
903.446	14705
903.565	14708
903.683	14746
903.801	14606
903.919	14731
904.038	14514
904.156	14473
904.274	14594
904.392	14457
904.51	14492
904.627	14473
904.745	14541
904.863	14423
904.981	14305
905.098	14176
905.216	14267
905.334	14126
905.451	14142
905.569	14088
905.686	14084
905.803	14046
905.921	13944
906.038	13902
906.155	13959
906.272	13887
906.389	13822
906.506	13738
906.623	13685
906.74	13681
906.857	13590
906.974	13525
907.091	13772
907.208	13757
907.324	13662
907.441	13537
907.557	13422
907.674	13434
907.79	13350
907.907	13312
908.023	13449
908.139	13289
908.256	13327
908.372	13278
908.488	13225
908.604	13221
908.72	13202
908.836	13107
908.952	13034
909.068	13187
909.184	13206
909.3	13179
909.415	13099
909.531	13118
909.647	12909
909.762	12939
909.878	12821
909.993	12890
910.108	12928
910.224	12837
910.339	12833
910.454	12829
910.57	12806
910.685	12612
910.8	12894
910.915	12886
911.03	12665
911.145	12654
911.259	12544
911.374	12589
911.489	12483
911.604	12467
911.718	12239
911.833	12281
911.947	12197
912.062	12133
912.176	12361
912.291	12209
912.405	12224
912.519	12441
912.633	12460
912.748	12334
912.862	12296
912.976	12117
913.09	12083
913.204	12034
913.318	12171
913.431	12148
913.545	12228
913.659	12220
913.772	12152
913.886	11954
914	11988
914.113	12121
914.226	12133
914.34	12068
914.453	11973
914.566	12087
914.68	11927
914.793	11874
914.906	11767
915.019	11657
915.132	11699
915.245	11726
915.358	11771
915.47	11786
915.583	11699
915.696	11821
915.809	11893
915.921	11897
916.034	11737
916.146	11710
916.259	11661
916.371	11722
916.483	11653
916.595	11566
916.708	11619
916.82	11646
916.932	11543
917.044	11581
917.156	11551
917.268	11497
917.38	11493
917.491	11474
917.603	11512
917.715	11589
917.826	11589
917.938	11467
918.049	11391
918.161	11414
918.272	11718
918.384	11642
918.495	11383
918.606	11387
918.717	11235
918.828	11334
918.939	11398
919.05	11345
919.161	11307
919.272	11159
919.383	11208
919.494	11440
919.604	11577
919.715	11387
919.826	11227
919.936	11299
920.047	11391
920.157	11376
920.267	11516
920.378	11356
920.488	11322
920.598	11493
920.708	11592
920.818	11562
920.928	11577
921.038	11638
921.148	11623
921.258	11322
921.368	11265
921.477	11159
921.587	11166
921.697	11037
921.806	11151
921.916	10938
922.025	10847
922.134	10809
922.244	10843
922.353	10831
922.462	10740
922.571	10683
922.68	10470
922.789	10542
922.898	10607
923.007	10504
923.116	10580
923.224	10474
923.333	10538
923.442	10402
923.55	10375
923.659	10394
923.767	10413
923.876	10390
923.984	10436
924.092	10322
924.201	10440
924.309	10268
924.417	10363
924.525	10257
924.633	10337
924.741	11136
924.849	10101
924.956	10287
925.064	10135
925.172	9983
925.279	10139
925.387	10120
925.494	10055
925.602	10204
925.709	10158
925.816	10017
925.924	10082
926.031	10253
926.138	10097
926.245	10090
926.352	10029
926.459	10158
926.566	10162
926.673	9960
926.779	9949
926.886	9994
926.993	9755
927.099	9762
927.206	9816
927.312	9743
927.419	9789
927.525	9789
927.631	9861
927.737	9644
927.843	9633
927.95	9561
928.056	9660
928.162	9698
928.267	9713
928.373	10227
928.479	9759
928.585	9584
928.69	9660
928.796	9686
928.901	9576
929.007	9424
929.112	9504
929.218	9519
929.323	9526
929.428	9450
929.533	9610
929.638	9332
929.743	9412
929.848	9504
929.953	9435
930.058	9405
930.163	9142
930.267	9199
930.372	9329
930.477	9207
930.581	9488
930.685	9313
930.79	9062
930.894	9150
930.998	9180
931.103	9237
931.207	8815
931.311	8880
931.415	8777
931.519	8617
931.623	8602
