Data from test_V78500241_1887.txt Node
Date: Fri Mar 25 14:46:51 CST 2022
User: usil
Spectrometer: V785-0024
Trigger mode: 0
Integration Time (sec): 4.000000E-1
Scans to average: 1
Nonlinearity correction enabled: false
Boxcar width: 0
Storing dark spectrum: false
XAxis mode: Wavelengths
Number of Pixels in Spectrum: 1024
>>>>>Begin Spectral Data<<<<<
801.071	21983
801.214	21934
801.356	21766
801.499	21523
801.641	21515
801.783	21386
801.926	21405
802.068	21378
802.211	21355
802.353	21321
802.496	21135
802.638	21001
802.78	20967
802.923	20872
803.065	20739
803.208	20849
803.35	20777
803.492	20807
803.635	20933
803.777	20826
803.919	20994
804.061	21188
804.204	20880
804.346	20804
804.488	20716
804.63	20769
804.773	20724
804.915	20785
805.057	20781
805.199	20617
805.341	20727
805.483	20811
805.626	20800
805.768	20712
805.91	20731
806.052	20659
806.194	20720
806.336	20914
806.478	20674
806.62	20655
806.762	20716
806.904	20975
807.046	21127
807.188	21081
807.33	21089
807.472	21207
807.614	20830
807.756	21024
807.898	20872
808.04	20750
808.182	20796
808.324	20853
808.465	20876
808.607	21108
808.749	21100
808.891	21173
809.033	21325
809.174	21249
809.316	20990
809.458	21100
809.6	20982
809.741	21085
809.883	21173
810.025	21279
810.166	21321
810.308	21306
810.45	21230
810.591	21195
810.733	20944
810.875	20956
811.016	20735
811.158	20659
811.299	20872
811.441	21161
811.582	20883
811.724	20838
811.865	20834
812.007	20933
812.148	20773
812.29	20891
812.431	20906
812.573	21036
812.714	21317
812.855	21405
812.997	21389
813.138	21587
813.279	21424
813.421	21317
813.562	21249
813.703	21112
813.845	21062
813.986	20861
814.127	20533
814.268	20495
814.41	20366
814.551	20298
814.692	20484
814.833	20347
814.974	20427
815.115	20423
815.256	20343
815.397	20324
815.539	20278
815.68	20176
815.821	20001
815.962	20172
816.103	20149
816.244	19822
816.385	19944
816.526	19932
816.666	19738
816.807	19499
816.948	19696
817.089	19704
817.23	19620
817.371	19495
817.512	19400
817.653	19537
817.793	19487
817.934	19445
818.075	19529
818.216	19453
818.356	19502
818.497	19301
818.638	19232
818.778	19244
818.919	19175
819.06	19236
819.2	19312
819.341	19449
819.481	19350
819.622	19632
819.762	19712
819.903	19647
820.043	19651
820.184	19506
820.324	19681
820.465	19658
820.605	19548
820.746	19480
820.886	19365
821.026	19434
821.167	19521
821.307	19510
821.447	19464
821.588	19396
821.728	19202
821.868	19084
822.008	18943
822.149	19031
822.289	18947
822.429	18684
822.569	18570
822.709	18536
822.849	18410
822.99	18361
823.13	18467
823.27	18418
823.41	18239
823.55	18197
823.69	18311
823.83	18251
823.97	18117
824.11	18022
824.25	17984
824.389	18049
824.529	18133
824.669	18007
824.809	18015
824.949	18114
825.089	18003
825.228	18011
825.368	17741
825.508	17771
825.648	17828
825.787	17920
825.927	17832
826.067	17802
826.206	17668
826.346	17916
826.485	17882
826.625	17775
826.765	17912
826.904	17847
827.044	17600
827.183	17471
827.323	17535
827.462	17512
827.601	17497
827.741	17433
827.88	17657
828.02	17353
828.159	17455
828.298	17539
828.437	17532
828.577	17493
828.716	17585
828.855	17429
828.994	17155
829.134	17181
829.273	17288
829.412	17136
829.551	17090
829.69	17223
829.829	17254
829.968	17345
830.107	17246
830.246	17185
830.385	17223
830.524	17132
830.663	17159
830.802	16942
830.941	16809
831.08	16862
831.219	16987
831.357	16946
831.496	17041
831.635	16831
831.774	16885
831.913	16733
832.051	16679
832.19	16615
832.329	16725
832.467	16603
832.606	16580
832.744	16561
832.883	16550
833.022	16504
833.16	16497
833.299	16569
833.437	16687
833.576	16599
833.714	16630
833.852	16550
833.991	16649
834.129	16637
834.267	16577
834.406	16649
834.544	16683
834.682	16565
834.821	16622
834.959	16782
835.097	16561
835.235	16733
835.373	16596
835.511	16656
835.65	16630
835.788	16485
835.926	16402
836.064	16390
836.202	16333
836.34	16531
836.478	16637
836.615	16504
836.753	16542
836.891	16599
837.029	16653
837.167	16466
837.305	16333
837.443	16497
837.58	16382
837.718	16474
837.856	16459
837.993	16303
838.131	16398
838.269	16230
838.406	16386
838.544	16329
838.681	16124
838.819	16116
838.956	15945
839.094	15979
839.231	15979
839.369	16109
839.506	16314
839.643	16303
839.781	15926
839.918	15854
840.055	16021
840.193	15937
840.33	15930
840.467	15972
840.604	16032
840.742	16196
840.879	15778
841.016	15797
841.153	15823
841.29	16013
841.427	15892
841.564	15991
841.701	16040
841.838	15907
841.975	15876
842.112	15918
842.249	15739
842.385	15667
842.522	15831
842.659	15766
842.796	15762
842.933	15873
843.069	15709
843.206	15690
843.343	15835
843.479	15751
843.616	15789
843.752	15549
843.889	15564
844.025	15641
844.162	15500
844.298	15595
844.435	15606
844.571	15595
844.708	15606
844.844	15701
844.98	15667
845.117	15755
845.253	15420
845.389	15420
845.525	15344
845.661	15424
845.798	15317
845.934	15321
846.07	15279
846.206	15359
846.342	15534
846.478	15275
846.614	15085
846.75	15123
846.886	15055
847.022	15233
847.158	15150
847.294	15207
847.429	15127
847.565	15119
847.701	15382
847.837	14788
847.972	14849
848.108	14918
848.244	14944
848.379	14712
848.515	14674
848.65	14651
848.786	14720
848.921	14701
849.057	14834
849.192	14800
849.328	14754
849.463	14746
849.598	14804
849.734	14594
849.869	14495
850.004	14556
850.14	14610
850.275	14488
850.41	14476
850.545	14419
850.68	14423
850.815	14503
850.95	14518
851.085	14610
851.22	14507
851.355	14473
851.49	14438
851.625	14404
851.76	14450
851.895	14290
852.03	14328
852.165	14385
852.299	14473
852.434	14617
852.569	14480
852.703	14396
852.838	14533
852.973	14689
853.107	14632
853.242	14404
853.376	14324
853.511	14332
853.645	14233
853.78	14431
853.914	14355
854.048	14305
854.183	14324
854.317	14309
854.451	14514
854.585	14263
854.72	14362
854.854	14408
854.988	14202
855.122	14309
855.256	14240
855.39	14400
855.524	14408
855.658	14332
855.792	14358
855.926	14370
856.06	14454
856.194	14503
856.327	14393
856.461	14313
856.595	14313
856.729	14263
856.862	14514
856.996	14320
857.13	14374
857.263	14446
857.397	14495
857.53	14351
857.664	14343
857.797	14385
857.931	14396
858.064	14381
858.197	14541
858.331	14339
858.464	14290
858.597	14180
858.731	14294
858.864	14240
858.997	14320
859.13	14275
859.263	14347
859.396	14389
859.529	14351
859.662	14355
859.795	14259
859.928	14244
860.061	14442
860.194	14594
860.327	14415
860.46	14366
860.592	14511
860.725	14499
860.858	14480
860.99	14374
861.123	14225
861.256	14351
861.388	14328
861.521	14876
861.653	14244
861.786	14221
861.918	14172
862.05	14187
862.183	14343
862.315	14305
862.447	14431
862.58	14180
862.712	14084
862.844	14130
862.976	14115
863.108	14218
863.24	14518
863.372	14062
863.504	14088
863.636	14115
863.768	14130
863.9	14084
864.032	14058
864.164	14115
864.296	14130
864.428	14366
864.559	14168
864.691	14183
864.823	14206
864.954	14168
865.086	14278
865.217	14100
865.349	13978
865.48	14172
865.612	14126
865.743	14271
865.875	14123
866.006	14035
866.137	14115
866.269	14027
866.4	14031
866.531	14027
866.662	14058
866.793	14027
866.924	14107
867.055	14088
867.186	14138
867.317	14088
867.448	13982
867.579	14035
867.71	13989
867.841	13993
867.972	14157
868.103	14058
868.233	14039
868.364	14058
868.495	14161
868.625	14294
868.756	14419
868.886	14210
869.017	14267
869.147	14412
869.278	14446
869.408	14404
869.539	14343
869.669	14499
869.799	14324
869.929	14556
870.06	14442
870.19	14754
870.32	14644
870.45	14667
870.58	14678
870.71	14845
870.84	14937
870.97	14804
871.1	14731
871.23	14910
871.36	14929
871.489	14921
871.619	14944
871.749	14982
871.879	15013
872.008	14986
872.138	14963
872.267	14967
872.397	14895
872.526	14845
872.656	14720
872.785	14868
872.915	15043
873.044	15097
873.173	15032
873.303	14998
873.432	15051
873.561	15116
873.69	15005
873.819	15043
873.948	15104
874.077	15013
874.206	15017
874.335	15047
874.464	15226
874.593	15321
874.722	15260
874.851	15367
874.979	15287
875.108	15477
875.237	15264
875.365	15291
875.494	15275
875.623	15473
875.751	15237
875.88	15466
876.008	15603
876.136	15515
876.265	15759
876.393	15888
876.521	15892
876.65	15907
876.778	15888
876.906	15648
877.034	15717
877.162	15739
877.29	15667
877.418	15709
877.546	15842
877.674	15800
877.802	15789
877.93	15682
878.058	15759
878.185	15618
878.313	15724
878.441	15682
878.568	15705
878.696	15701
878.824	15797
878.951	15793
879.079	15926
879.206	16036
879.333	15979
879.461	15717
879.588	15915
879.715	15994
879.842	16139
879.97	15705
880.097	15637
880.224	15603
880.351	15701
880.478	15580
880.605	15534
880.732	15572
880.859	15816
880.986	15606
881.112	15660
881.239	15538
881.366	15405
881.493	15329
881.619	15272
881.746	15321
881.872	15374
881.999	15291
882.125	15256
882.252	15329
882.378	15291
882.505	15412
882.631	15188
882.757	15043
882.883	15097
883.01	15112
883.136	14971
883.262	14986
883.388	14815
883.514	15154
883.64	15188
883.766	14960
883.892	14967
884.018	15039
884.143	15051
884.269	15245
884.395	14853
884.52	14716
884.646	14712
884.772	14674
884.897	14678
885.023	14868
885.148	14902
885.274	14868
885.399	14868
885.524	14781
885.65	14819
885.775	14857
885.9	14819
886.025	15013
886.15	14849
886.275	14800
886.4	14708
886.525	14872
886.65	14735
886.775	14720
886.9	14929
887.025	15062
887.149	14800
887.274	14636
887.399	14617
887.523	14610
887.648	14568
887.773	14579
887.897	14750
888.021	14693
888.146	14518
888.27	14686
888.395	14792
888.519	14651
888.643	14667
888.767	14568
888.891	14549
889.015	14434
889.139	14454
889.263	14454
889.387	14533
889.511	14640
889.635	14602
889.759	14446
889.883	14419
890.006	14457
890.13	14484
890.254	14476
890.377	14457
890.501	14225
890.624	14259
890.748	14362
890.871	14195
890.995	14149
891.118	14119
891.241	14157
891.364	14244
891.488	14259
891.611	14195
891.734	14267
891.857	14191
891.98	14206
892.103	14199
892.226	14240
892.349	14134
892.471	14031
892.594	14043
892.717	14240
892.839	14134
892.962	14244
893.085	14176
893.207	14199
893.33	14020
893.452	14130
893.575	14282
893.697	14161
893.819	14294
893.941	14366
894.064	14313
894.186	14111
894.308	14180
894.43	14278
894.552	14347
894.674	14400
894.796	14111
894.918	14263
895.04	14149
895.161	14286
895.283	14355
895.405	14225
895.526	14282
895.648	14336
895.769	14301
895.891	14355
896.012	14446
896.134	14377
896.255	14389
896.376	14332
896.498	14240
896.619	14377
896.74	14358
896.861	14427
896.982	14617
897.103	14826
897.224	14606
897.345	14613
897.466	14446
897.587	14625
897.708	14727
897.828	14686
897.949	14583
898.07	14476
898.19	14602
898.311	14750
898.431	14746
898.552	14705
898.672	14807
898.792	14731
898.913	14769
899.033	14720
899.153	14465
899.273	14480
899.393	14412
899.513	14541
899.633	14537
899.753	14533
899.873	14431
899.993	14568
900.113	14545
900.232	14621
900.352	14473
900.472	14492
900.591	14381
900.711	14499
900.83	14332
900.95	14552
901.069	14533
901.189	14317
901.308	14191
901.427	14050
901.546	14065
901.665	14050
901.784	14126
901.904	13875
902.023	13913
902.141	13658
902.26	13601
902.379	13746
902.498	13658
902.617	13540
902.735	13677
902.854	13529
902.973	13582
903.091	13415
903.21	13415
903.328	13308
903.446	13274
903.565	13206
903.683	13240
903.801	13099
903.919	13175
904.038	13198
904.156	13008
904.274	13095
904.392	12951
904.51	12973
904.627	12970
904.745	13072
904.863	13076
904.981	12825
905.098	12700
905.216	12738
905.334	12779
905.451	12779
905.569	12753
905.686	12810
905.803	12760
905.921	12612
906.038	12502
906.155	12536
906.272	12445
906.389	12475
906.506	12323
906.623	12410
906.74	12292
906.857	12167
906.974	12258
907.091	12426
907.208	12437
907.324	12414
907.441	12201
907.557	12083
907.674	12079
907.79	11927
907.907	12060
908.023	12102
908.139	12171
908.256	12057
908.372	11984
908.488	12003
908.604	11859
908.72	11802
908.836	11939
908.952	11771
909.068	11859
909.184	11897
909.3	11889
909.415	11904
909.531	11874
909.647	11608
909.762	11589
909.878	11558
909.993	11604
910.108	11611
910.224	11532
910.339	11566
910.454	11505
910.57	11391
910.685	11414
910.8	11703
910.915	11581
911.03	11429
911.145	11349
911.259	11269
911.374	11341
911.489	11193
911.604	11216
911.718	11067
911.833	11109
911.947	10900
912.062	10869
912.176	11037
912.291	11079
912.405	11010
912.519	11212
912.633	11288
912.748	11102
912.862	11003
912.976	10961
913.09	10786
913.204	10915
913.318	10885
913.431	10919
913.545	10987
913.659	11117
913.772	10953
913.886	10793
914	10744
914.113	10885
914.226	10938
914.34	10904
914.453	10679
914.566	10923
914.68	10790
914.793	10725
914.906	10497
915.019	10443
915.132	10462
915.245	10535
915.358	10561
915.47	10618
915.583	10584
915.696	10569
915.809	10675
915.921	10733
916.034	10546
916.146	10451
916.259	10443
916.371	10577
916.483	10558
916.595	10451
916.708	10558
916.82	10523
916.932	10519
917.044	10459
917.156	10485
917.268	10356
917.38	10440
917.491	10386
917.603	10360
917.715	10470
917.826	10398
917.938	10314
918.049	10303
918.161	10402
918.272	10447
918.384	10542
918.495	10390
918.606	10261
918.717	10173
918.828	10265
918.939	10287
919.05	10162
919.161	10169
919.272	10131
919.383	10177
919.494	10303
919.604	10481
919.715	10268
919.826	10158
919.936	10238
920.047	10402
920.157	10272
920.267	10470
920.378	10249
920.488	10234
920.598	10428
920.708	10626
920.818	10497
920.928	10413
921.038	10725
921.148	10618
921.258	10280
921.368	10181
921.477	10173
921.587	10105
921.697	9972
921.806	10192
921.916	10021
922.025	9884
922.134	9797
922.244	9926
922.353	9915
922.462	9671
922.571	9644
922.68	9504
922.789	9553
922.898	9496
923.007	9523
923.116	9545
923.224	9511
923.333	9568
923.442	9348
923.55	9412
923.659	9393
923.767	9488
923.876	9408
923.984	9420
924.092	9321
924.201	9412
924.309	9393
924.417	9393
924.525	9332
924.633	9283
924.741	10246
924.849	9218
924.956	9344
925.064	9157
925.172	9123
925.279	9157
925.387	9253
925.494	9176
925.602	9283
925.709	9226
925.816	9116
925.924	9135
926.031	9184
926.138	9195
926.245	9268
926.352	9146
926.459	9199
926.566	9306
926.673	9112
926.779	9112
926.886	9058
926.993	8899
927.099	8880
927.206	8804
927.312	8811
927.419	9024
927.525	8929
927.631	8921
927.737	8807
927.843	8838
927.95	8625
928.056	8754
928.162	8766
928.267	8891
928.373	9348
928.479	8864
928.585	8568
928.69	8796
928.796	8754
928.901	8689
929.007	8606
929.112	8655
929.218	8663
929.323	8613
929.428	8598
929.533	8804
929.638	8556
929.743	8598
929.848	8701
929.953	8530
930.058	8560
930.163	8351
930.267	8393
930.372	8552
930.477	8332
930.581	8583
930.685	8385
930.79	8286
930.894	8347
930.998	8298
931.103	8457
931.207	8088
931.311	8096
931.415	7989
931.519	7875
931.623	7826
