Data from test_V78500241_2389.txt Node
Date: Fri Mar 25 14:50:20 CST 2022
User: usil
Spectrometer: V785-0024
Trigger mode: 0
Integration Time (sec): 4.000000E-1
Scans to average: 1
Nonlinearity correction enabled: false
Boxcar width: 0
Storing dark spectrum: false
XAxis mode: Wavelengths
Number of Pixels in Spectrum: 1024
>>>>>Begin Spectral Data<<<<<
801.071	22181
801.214	22044
801.356	21713
801.499	21690
801.641	21568
801.783	21545
801.926	21504
802.068	21481
802.211	21237
802.353	21378
802.496	21032
802.638	20880
802.78	21074
802.923	20872
803.065	20796
803.208	20811
803.35	20796
803.492	20937
803.635	20956
803.777	20754
803.919	20975
804.061	21180
804.204	20948
804.346	20895
804.488	20785
804.63	20781
804.773	20708
804.915	20765
805.057	20880
805.199	20651
805.341	20838
805.483	20883
805.626	20838
805.768	20602
805.91	20712
806.052	20842
806.194	20537
806.336	20849
806.478	20785
806.62	20609
806.762	20800
806.904	20918
807.046	21154
807.188	21135
807.33	21123
807.472	21131
807.614	20986
807.756	21005
807.898	20804
808.04	20815
808.182	20845
808.324	20838
808.465	20899
808.607	20967
808.749	21275
808.891	21249
809.033	21363
809.174	21066
809.316	21081
809.458	21157
809.6	21066
809.741	21226
809.883	21173
810.025	21329
810.166	21313
810.308	21252
810.45	21169
810.591	21195
810.733	21005
810.875	20952
811.016	20807
811.158	20754
811.299	20937
811.441	20982
811.582	21058
811.724	20979
811.865	20891
812.007	20830
812.148	20792
812.29	20823
812.431	21104
812.573	21203
812.714	21313
812.855	21447
812.997	21576
813.138	21549
813.279	21583
813.421	21450
813.562	21256
813.703	21146
813.845	20925
813.986	20914
814.127	20514
814.268	20530
814.41	20518
814.551	20495
814.692	20465
814.833	20389
814.974	20377
815.115	20377
815.256	20343
815.397	20275
815.539	20282
815.68	20183
815.821	20050
815.962	20202
816.103	20031
816.244	19978
816.385	19932
816.526	19936
816.666	19765
816.807	19620
816.948	19590
817.089	19772
817.23	19601
817.371	19727
817.512	19548
817.653	19552
817.793	19601
817.934	19647
818.075	19662
818.216	19510
818.356	19552
818.497	19400
818.638	19179
818.778	19259
818.919	19190
819.06	19244
819.2	19369
819.341	19628
819.481	19377
819.622	19643
819.762	19655
819.903	19662
820.043	19719
820.184	19540
820.324	19601
820.465	19708
820.605	19559
820.746	19605
820.886	19331
821.026	19548
821.167	19533
821.307	19518
821.447	19571
821.588	19335
821.728	19187
821.868	19053
822.008	18951
822.149	18935
822.289	18943
822.429	18776
822.569	18661
822.709	18620
822.849	18570
822.99	18433
823.13	18357
823.27	18422
823.41	18395
823.55	18194
823.69	18167
823.83	18220
823.97	18152
824.11	17912
824.25	17980
824.389	18030
824.529	18174
824.669	17950
824.809	18110
824.949	18125
825.089	18079
825.228	18049
825.368	17897
825.508	17912
825.648	17840
825.787	17813
825.927	17821
826.067	17687
826.206	17726
826.346	17843
826.485	17859
826.625	17646
826.765	17916
826.904	17920
827.044	17581
827.183	17478
827.323	17501
827.462	17493
827.601	17436
827.741	17398
827.88	17566
828.02	17406
828.159	17497
828.298	17356
828.437	17554
828.577	17436
828.716	17577
828.855	17448
828.994	17277
829.134	17204
829.273	17280
829.412	17185
829.551	17162
829.69	17273
829.829	17261
829.968	17364
830.107	17307
830.246	17265
830.385	17220
830.524	17128
830.663	17033
830.802	16995
830.941	16908
831.08	16847
831.219	16930
831.357	16961
831.496	17060
831.635	16885
831.774	16824
831.913	16740
832.051	16634
832.19	16611
832.329	16630
832.467	16497
832.606	16497
832.744	16500
832.883	16592
833.022	16489
833.16	16409
833.299	16626
833.437	16523
833.576	16656
833.714	16599
833.852	16607
833.991	16656
834.129	16683
834.267	16542
834.406	16641
834.544	16569
834.682	16542
834.821	16512
834.959	16778
835.097	16508
835.235	16607
835.373	16497
835.511	16561
835.65	16421
835.788	16493
835.926	16303
836.064	16276
836.202	16386
836.34	16432
836.478	16630
836.615	16398
836.753	16500
836.891	16592
837.029	16558
837.167	16436
837.305	16413
837.443	16352
837.58	16329
837.718	16402
837.856	16500
837.993	16322
838.131	16333
838.269	16325
838.406	16363
838.544	16109
838.681	16059
838.819	16055
838.956	15884
839.094	15930
839.231	15945
839.369	16036
839.506	16276
839.643	16109
839.781	15998
839.918	15850
840.055	15854
840.193	15888
840.33	15911
840.467	15838
840.604	15873
840.742	16181
840.879	15720
841.016	15842
841.153	15865
841.29	16010
841.427	15968
841.564	15895
841.701	15956
841.838	15895
841.975	15831
842.112	15880
842.249	15618
842.385	15641
842.522	15850
842.659	15751
842.796	15713
842.933	15728
843.069	15606
843.206	15576
843.343	15774
843.479	15618
843.616	15633
843.752	15545
843.889	15450
844.025	15511
844.162	15435
844.298	15568
844.435	15439
844.571	15412
844.708	15447
844.844	15488
844.98	15595
845.117	15515
845.253	15405
845.389	15367
845.525	15447
845.661	15294
845.798	15195
845.934	15264
846.07	15203
846.206	15287
846.342	15351
846.478	15169
846.614	15093
846.75	15058
846.886	14990
847.022	15070
847.158	15032
847.294	14994
847.429	15104
847.565	15024
847.701	15173
847.837	14796
847.972	14663
848.108	14857
848.244	14868
848.379	14746
848.515	14613
848.65	14636
848.786	14503
848.921	14689
849.057	14750
849.192	14716
849.328	14621
849.463	14693
849.598	14564
849.734	14537
849.869	14590
850.004	14457
850.14	14400
850.275	14541
850.41	14267
850.545	14343
850.68	14461
850.815	14377
850.95	14434
851.085	14640
851.22	14484
851.355	14503
851.49	14393
851.625	14412
851.76	14370
851.895	14298
852.03	14358
852.165	14301
852.299	14419
852.434	14594
852.569	14374
852.703	14396
852.838	14434
852.973	14598
853.107	14442
853.242	14393
853.376	14229
853.511	14126
853.645	14278
853.78	14355
853.914	14309
854.048	14263
854.183	14290
854.317	14370
854.451	14396
854.585	14317
854.72	14180
854.854	14229
854.988	14157
855.122	14240
855.256	14149
855.39	14271
855.524	14389
855.658	14206
855.792	14240
855.926	14324
856.06	14313
856.194	14366
856.327	14172
856.461	14256
856.595	14142
856.729	14233
856.862	14484
856.996	14339
857.13	14240
857.263	14366
857.397	14473
857.53	14282
857.664	14221
857.797	14343
857.931	14431
858.064	14240
858.197	14381
858.331	14294
858.464	14225
858.597	14180
858.731	14256
858.864	14244
858.997	14199
859.13	14244
859.263	14263
859.396	14362
859.529	14415
859.662	14244
859.795	14115
859.928	14259
860.061	14511
860.194	14454
860.327	14214
860.46	14267
860.592	14351
860.725	14484
860.858	14355
860.99	14305
861.123	14218
861.256	14062
861.388	14218
861.521	14842
861.653	14168
861.786	14088
861.918	14149
862.05	14183
862.183	14218
862.315	14317
862.447	14259
862.58	14168
862.712	14005
862.844	14054
862.976	14073
863.108	14054
863.24	14362
863.372	13932
863.504	14107
863.636	14027
863.768	14164
863.9	14043
864.032	13997
864.164	14005
864.296	14062
864.428	14126
864.559	14199
864.691	14088
864.823	14035
864.954	14111
865.086	14103
865.217	14138
865.349	13978
865.48	14111
865.612	14157
865.743	14267
865.875	14008
866.006	14115
866.137	14062
866.269	14073
866.4	14054
866.531	14065
866.662	14016
866.793	14058
866.924	14043
867.055	14035
867.186	14081
867.317	14081
867.448	13993
867.579	14050
867.71	14001
867.841	13963
867.972	14054
868.103	14100
868.233	14062
868.364	14168
868.495	14164
868.625	14275
868.756	14320
868.886	14309
869.017	14336
869.147	14366
869.278	14438
869.408	14396
869.539	14358
869.669	14427
869.799	14381
869.929	14343
870.06	14431
870.19	14602
870.32	14568
870.45	14617
870.58	14724
870.71	14746
870.84	14739
870.97	14792
871.1	14682
871.23	14876
871.36	14883
871.489	14823
871.619	14925
871.749	14838
871.879	14857
872.008	14998
872.138	15013
872.267	14944
872.397	14743
872.526	14807
872.656	14765
872.785	14781
872.915	14948
873.044	15017
873.173	14925
873.303	15058
873.432	14967
873.561	15112
873.69	14891
873.819	14880
873.948	14944
874.077	14861
874.206	14929
874.335	14937
874.464	15074
874.593	15188
874.722	15195
874.851	15374
874.979	15199
875.108	15256
875.237	15207
875.365	15237
875.494	15211
875.623	15397
875.751	15230
875.88	15393
876.008	15477
876.136	15587
876.265	15625
876.393	15937
876.521	15854
876.65	15865
876.778	15622
876.906	15686
877.034	15553
877.162	15667
877.29	15603
877.418	15648
877.546	15690
877.674	15705
877.802	15698
877.93	15789
878.058	15705
878.185	15603
878.313	15656
878.441	15682
878.568	15580
878.696	15736
878.824	15633
878.951	15751
879.079	15956
879.206	15956
879.333	15819
879.461	15717
879.588	15778
879.715	15854
879.842	15975
879.97	15724
880.097	15496
880.224	15530
880.351	15595
880.478	15557
880.605	15401
880.732	15538
880.859	15713
880.986	15549
881.112	15507
881.239	15412
881.366	15294
881.493	15173
881.619	15203
881.746	15218
881.872	15135
881.999	15146
882.125	15138
882.252	15214
882.378	15211
882.505	15321
882.631	15093
882.757	15013
882.883	15097
883.01	14998
883.136	14967
883.262	14864
883.388	14880
883.514	15108
883.64	15043
883.766	14887
883.892	14785
884.018	14769
884.143	14998
884.269	15108
884.395	14743
884.52	14712
884.646	14708
884.772	14621
884.897	14564
885.023	14731
885.148	14785
885.274	14876
885.399	14845
885.524	14697
885.65	14781
885.775	14781
885.9	14697
886.025	14826
886.15	14765
886.275	14670
886.4	14746
886.525	14625
886.65	14727
886.775	14659
886.9	14872
887.025	14963
887.149	14731
887.274	14629
887.399	14457
887.523	14465
887.648	14499
887.773	14484
887.897	14693
888.021	14533
888.146	14492
888.27	14587
888.395	14735
888.519	14571
888.643	14617
888.767	14621
888.891	14389
889.015	14370
889.139	14317
889.263	14317
889.387	14488
889.511	14579
889.635	14522
889.759	14389
889.883	14499
890.006	14511
890.13	14427
890.254	14339
890.377	14473
890.501	14237
890.624	14237
890.748	14351
890.871	14100
890.995	14065
891.118	14062
891.241	14111
891.364	14187
891.488	14172
891.611	14130
891.734	14168
891.857	14225
891.98	14134
892.103	14119
892.226	14142
892.349	14100
892.471	14008
892.594	14096
892.717	14126
892.839	14069
892.962	14199
893.085	14142
893.207	14130
893.33	13974
893.452	13997
893.575	14199
893.697	14103
893.819	14221
893.941	14355
894.064	14164
894.186	14046
894.308	14119
894.43	14199
894.552	14271
894.674	14164
894.796	13997
894.918	14111
895.04	14096
895.161	14248
895.283	14206
895.405	14138
895.526	14145
895.648	14164
895.769	14229
895.891	14256
896.012	14339
896.134	14351
896.255	14339
896.376	14282
896.498	14290
896.619	14301
896.74	14431
896.861	14290
896.982	14526
897.103	14811
897.224	14541
897.345	14503
897.466	14499
897.587	14484
897.708	14670
897.828	14648
897.949	14530
898.07	14438
898.19	14438
898.311	14644
898.431	14503
898.552	14560
898.672	14648
898.792	14689
898.913	14670
899.033	14541
899.153	14408
899.273	14412
899.393	14537
899.513	14480
899.633	14503
899.753	14556
899.873	14454
899.993	14560
900.113	14507
900.232	14480
900.352	14408
900.472	14469
900.591	14305
900.711	14381
900.83	14290
900.95	14355
901.069	14511
901.189	14263
901.308	14062
901.427	13932
901.546	13928
901.665	14054
901.784	14145
901.904	13940
902.023	13883
902.141	13677
902.26	13632
902.379	13586
902.498	13597
902.617	13499
902.735	13605
902.854	13685
902.973	13510
903.091	13403
903.21	13274
903.328	13324
903.446	13251
903.565	13175
903.683	13168
903.801	13088
903.919	13217
904.038	13137
904.156	13004
904.274	13122
904.392	12996
904.51	12947
904.627	12973
904.745	12966
904.863	12985
904.981	12768
905.098	12665
905.216	12719
905.334	12650
905.451	12627
905.569	12623
905.686	12734
905.803	12707
905.921	12490
906.038	12502
906.155	12566
906.272	12327
906.389	12395
906.506	12273
906.623	12232
906.74	12273
906.857	12133
906.974	12251
907.091	12232
907.208	12361
907.324	12304
907.441	12197
907.557	11980
907.674	11958
907.79	11912
907.907	12019
908.023	12087
908.139	11977
908.256	11988
908.372	12049
908.488	11916
908.604	11691
908.72	11722
908.836	11760
908.952	11688
909.068	11847
909.184	11870
909.3	11748
909.415	11847
909.531	11767
909.647	11535
909.762	11547
909.878	11627
909.993	11535
910.108	11486
910.224	11429
910.339	11539
910.454	11440
910.57	11395
910.685	11269
910.8	11524
910.915	11543
911.03	11360
911.145	11277
911.259	11181
911.374	11265
911.489	11220
911.604	11121
911.718	10953
911.833	10999
911.947	10839
912.062	10889
912.176	10991
912.291	11060
912.405	10938
912.519	11193
912.633	11147
912.748	11041
912.862	10965
912.976	10892
913.09	10759
913.204	10809
913.318	10866
913.431	10908
913.545	11003
913.659	10965
913.772	10877
913.886	10839
914	10710
914.113	10816
914.226	10923
914.34	10854
914.453	10645
914.566	10839
914.68	10725
914.793	10645
914.906	10455
915.019	10538
915.132	10417
915.245	10382
915.358	10432
915.47	10569
915.583	10565
915.696	10535
915.809	10527
915.921	10687
916.034	10500
916.146	10481
916.259	10306
916.371	10519
916.483	10402
916.595	10409
916.708	10527
916.82	10478
916.932	10375
917.044	10348
917.156	10417
917.268	10276
917.38	10272
917.491	10280
917.603	10371
917.715	10394
917.826	10409
917.938	10341
918.049	10249
918.161	10314
918.272	10478
918.384	10428
918.495	10398
918.606	10211
918.717	10128
918.828	10181
918.939	10215
919.05	10166
919.161	10154
919.272	10029
919.383	10025
919.494	10299
919.604	10500
919.715	10253
919.826	10181
919.936	10211
920.047	10272
920.157	10230
920.267	10455
920.378	10135
920.488	10150
920.598	10443
920.708	10615
920.818	10409
920.928	10413
921.038	10569
921.148	10478
921.258	10150
921.368	10158
921.477	10013
921.587	10013
921.697	10006
921.806	10120
921.916	9953
922.025	9880
922.134	9838
922.244	9804
922.353	9850
922.462	9663
922.571	9599
922.68	9496
922.789	9420
922.898	9515
923.007	9443
923.116	9500
923.224	9435
923.333	9431
923.442	9382
923.55	9317
923.659	9382
923.767	9435
923.876	9310
923.984	9401
924.092	9344
924.201	9367
924.309	9325
924.417	9332
924.525	9260
924.633	9340
924.741	10055
924.849	9116
924.956	9283
925.064	9142
925.172	9028
925.279	9074
925.387	9176
925.494	9199
925.602	9230
925.709	9233
925.816	9066
925.924	9119
926.031	9211
926.138	9093
926.245	9195
926.352	8990
926.459	9119
926.566	9211
926.673	9074
926.779	9024
926.886	8925
926.993	8891
927.099	8823
927.206	8754
927.312	8804
927.419	8963
927.525	8838
927.631	8914
927.737	8811
927.843	8746
927.95	8587
928.056	8762
928.162	8777
928.267	8796
928.373	9348
928.479	8815
928.585	8583
928.69	8640
928.796	8777
928.901	8632
929.007	8518
929.112	8655
929.218	8598
929.323	8625
929.428	8541
929.533	8705
929.638	8476
929.743	8526
929.848	8537
929.953	8629
930.058	8412
930.163	8286
930.267	8396
930.372	8454
930.477	8320
930.581	8511
930.685	8442
930.79	8263
930.894	8282
930.998	8275
931.103	8423
931.207	8035
931.311	8065
931.415	7967
931.519	7807
931.623	7727
