Data from test_V78500241_3035.txt Node
Date: Fri Mar 25 14:54:50 CST 2022
User: usil
Spectrometer: V785-0024
Trigger mode: 0
Integration Time (sec): 4.000000E-1
Scans to average: 1
Nonlinearity correction enabled: false
Boxcar width: 0
Storing dark spectrum: false
XAxis mode: Wavelengths
Number of Pixels in Spectrum: 1024
>>>>>Begin Spectral Data<<<<<
801.071	22067
801.214	21991
801.356	21660
801.499	21675
801.641	21500
801.783	21488
801.926	21443
802.068	21355
802.211	21359
802.353	21291
802.496	21131
802.638	20963
802.78	20929
802.923	20845
803.065	20819
803.208	20613
803.35	20849
803.492	20887
803.635	20838
803.777	20899
803.919	20971
804.061	21112
804.204	20857
804.346	20735
804.488	20716
804.63	20667
804.773	20648
804.915	20830
805.057	20716
805.199	20735
805.341	20678
805.483	20910
805.626	20777
805.768	20625
805.91	20811
806.052	20720
806.194	20598
806.336	20785
806.478	20686
806.62	20598
806.762	20674
806.904	20929
807.046	21062
807.188	21039
807.33	21051
807.472	21017
807.614	21096
807.756	20971
807.898	20838
808.04	20678
808.182	20727
808.324	20708
808.465	20765
808.607	20895
808.749	20963
808.891	21207
809.033	21268
809.174	21093
809.316	21169
809.458	21058
809.6	21077
809.741	21173
809.883	21275
810.025	21226
810.166	21218
810.308	21218
810.45	21138
810.591	21020
810.733	20979
810.875	20857
811.016	20788
811.158	20788
811.299	21024
811.441	21070
811.582	20979
811.724	20948
811.865	20792
812.007	20765
812.148	20826
812.29	20853
812.431	20902
812.573	21256
812.714	21287
812.855	21397
812.997	21458
813.138	21625
813.279	21469
813.421	21370
813.562	21340
813.703	20982
813.845	21074
813.986	20731
814.127	20579
814.268	20332
814.41	20415
814.551	20442
814.692	20377
814.833	20278
814.974	20313
815.115	20404
815.256	20145
815.397	20343
815.539	20305
815.68	20069
815.821	19997
815.962	20278
816.103	20096
816.244	19925
816.385	19902
816.526	19814
816.666	19624
816.807	19514
816.948	19582
817.089	19605
817.23	19529
817.371	19487
817.512	19552
817.653	19483
817.793	19567
817.934	19506
818.075	19533
818.216	19373
818.356	19476
818.497	19240
818.638	19160
818.778	19198
818.919	19160
819.06	19289
819.2	19263
819.341	19495
819.481	19381
819.622	19571
819.762	19674
819.903	19590
820.043	19495
820.184	19521
820.324	19468
820.465	19655
820.605	19483
820.746	19502
820.886	19320
821.026	19415
821.167	19537
821.307	19552
821.447	19400
821.588	19381
821.728	19076
821.868	19110
822.008	18924
822.149	18852
822.289	18913
822.429	18555
822.569	18585
822.709	18665
822.849	18429
822.99	18426
823.13	18357
823.27	18338
823.41	18254
823.55	18205
823.69	18232
823.83	18224
823.97	18091
824.11	17977
824.25	17912
824.389	17920
824.529	18133
824.669	18072
824.809	18095
824.949	18087
825.089	18079
825.228	18041
825.368	17908
825.508	17726
825.648	17695
825.787	17882
825.927	17760
826.067	17668
826.206	17783
826.346	17767
826.485	17733
826.625	17661
826.765	17901
826.904	17745
827.044	17604
827.183	17562
827.323	17376
827.462	17482
827.601	17410
827.741	17391
827.88	17436
828.02	17273
828.159	17471
828.298	17414
828.437	17482
828.577	17425
828.716	17630
828.855	17368
828.994	17151
829.134	17258
829.273	17250
829.412	17067
829.551	17083
829.69	17128
829.829	17216
829.968	17246
830.107	17220
830.246	17185
830.385	17143
830.524	17064
830.663	17102
830.802	16831
830.941	16790
831.08	16653
831.219	16839
831.357	16805
831.496	16984
831.635	16717
831.774	16664
831.913	16645
832.051	16535
832.19	16634
832.329	16588
832.467	16561
832.606	16379
832.744	16432
832.883	16421
833.022	16409
833.16	16390
833.299	16561
833.437	16554
833.576	16485
833.714	16523
833.852	16455
833.991	16519
834.129	16622
834.267	16546
834.406	16379
834.544	16500
834.682	16565
834.821	16440
834.959	16645
835.097	16470
835.235	16603
835.373	16550
835.511	16519
835.65	16424
835.788	16436
835.926	16234
836.064	16109
836.202	16219
836.34	16375
836.478	16428
836.615	16295
836.753	16493
836.891	16440
837.029	16291
837.167	16382
837.305	16303
837.443	16295
837.58	16306
837.718	16329
837.856	16280
837.993	16265
838.131	16318
838.269	16310
838.406	16128
838.544	16181
838.681	15873
838.819	16006
838.956	15804
839.094	15846
839.231	15880
839.369	16021
839.506	16215
839.643	16048
839.781	15850
839.918	15835
840.055	15762
840.193	15808
840.33	15827
840.467	15800
840.604	15857
840.742	16093
840.879	15599
841.016	15656
841.153	15755
841.29	15930
841.427	15823
841.564	15797
841.701	15827
841.838	15720
841.975	15660
842.112	15698
842.249	15679
842.385	15481
842.522	15804
842.659	15576
842.796	15530
842.933	15648
843.069	15549
843.206	15485
843.343	15701
843.479	15572
843.616	15606
843.752	15279
843.889	15481
844.025	15526
844.162	15401
844.298	15507
844.435	15408
844.571	15344
844.708	15431
844.844	15572
844.98	15496
845.117	15523
845.253	15298
845.389	15226
845.525	15272
845.661	15241
845.798	15249
845.934	15294
846.07	15169
846.206	15207
846.342	15336
846.478	15150
846.614	14994
846.75	14891
846.886	14819
847.022	14994
847.158	14880
847.294	14872
847.429	14929
847.565	14933
847.701	15294
847.837	14746
847.972	14689
848.108	14769
848.244	14769
848.379	14621
848.515	14568
848.65	14545
848.786	14537
848.921	14469
849.057	14640
849.192	14598
849.328	14655
849.463	14522
849.598	14587
849.734	14511
849.869	14476
850.004	14271
850.14	14309
850.275	14404
850.41	14298
850.545	14282
850.68	14404
850.815	14317
850.95	14320
851.085	14507
851.22	14473
851.355	14446
851.49	14320
851.625	14355
851.76	14267
851.895	14206
852.03	14187
852.165	14328
852.299	14328
852.434	14385
852.569	14305
852.703	14355
852.838	14537
852.973	14533
853.107	14514
853.242	14309
853.376	14393
853.511	14100
853.645	14176
853.78	14267
853.914	14256
854.048	14134
854.183	14123
854.317	14176
854.451	14370
854.585	14195
854.72	14126
854.854	14244
854.988	14153
855.122	14210
855.256	14069
855.39	14111
855.524	14301
855.658	14206
855.792	14278
855.926	14347
856.06	14320
856.194	14221
856.327	14298
856.461	14195
856.595	14214
856.729	14259
856.862	14309
856.996	14301
857.13	14278
857.263	14252
857.397	14358
857.53	14240
857.664	14259
857.797	14271
857.931	14294
858.064	14191
858.197	14282
858.331	14077
858.464	14119
858.597	14180
858.731	14275
858.864	14164
858.997	14142
859.13	14103
859.263	14298
859.396	14271
859.529	14153
859.662	14096
859.795	14103
859.928	14237
860.061	14381
860.194	14419
860.327	14199
860.46	14237
860.592	14362
860.725	14374
860.858	14324
860.99	14259
861.123	14138
861.256	14210
861.388	14263
861.521	14853
861.653	14164
861.786	13989
861.918	14084
862.05	14115
862.183	14183
862.315	14126
862.447	14237
862.58	14123
862.712	13868
862.844	13906
862.976	13982
863.108	14027
863.24	14465
863.372	13959
863.504	13997
863.636	13982
863.768	14020
863.9	14020
864.032	13909
864.164	13940
864.296	14058
864.428	14107
864.559	14054
864.691	14119
864.823	14058
864.954	14100
865.086	14077
865.217	14005
865.349	13868
865.48	14020
865.612	14134
865.743	14096
865.875	14039
866.006	13955
866.137	14039
866.269	13986
866.4	13986
866.531	13947
866.662	13940
866.793	13921
866.924	13970
867.055	13978
867.186	13986
867.317	13955
867.448	13902
867.579	13917
867.71	13856
867.841	13913
867.972	13940
868.103	13944
868.233	13989
868.364	13906
868.495	14058
868.625	14218
868.756	14267
868.886	14153
869.017	14130
869.147	14358
869.278	14278
869.408	14309
869.539	14221
869.669	14263
869.799	14221
869.929	14298
870.06	14404
870.19	14454
870.32	14495
870.45	14488
870.58	14617
870.71	14743
870.84	14697
870.97	14598
871.1	14503
871.23	14838
871.36	14750
871.489	14663
871.619	14883
871.749	14815
871.879	14773
872.008	14967
872.138	14872
872.267	14701
872.397	14724
872.526	14629
872.656	14678
872.785	14659
872.915	14914
873.044	14849
873.173	14823
873.303	14857
873.432	14929
873.561	14933
873.69	14895
873.819	14842
873.948	14994
874.077	14998
874.206	14872
874.335	14861
874.464	15036
874.593	15230
874.722	15062
874.851	15214
874.979	15226
875.108	15233
875.237	15119
875.365	15108
875.494	15131
875.623	15249
875.751	15161
875.88	15218
876.008	15237
876.136	15370
876.265	15652
876.393	15751
876.521	15747
876.65	15644
876.778	15648
876.906	15561
877.034	15694
877.162	15591
877.29	15515
877.418	15622
877.546	15690
877.674	15580
877.802	15576
877.93	15595
878.058	15576
878.185	15405
878.313	15625
878.441	15580
878.568	15424
878.696	15580
878.824	15603
878.951	15724
879.079	15816
879.206	15812
879.333	15675
879.461	15663
879.588	15622
879.715	15736
879.842	15876
879.97	15622
880.097	15431
880.224	15408
880.351	15507
880.478	15447
880.605	15435
880.732	15424
880.859	15755
880.986	15431
881.112	15454
881.239	15252
881.366	15199
881.493	15081
881.619	15089
881.746	15112
881.872	15173
881.999	15116
882.125	14982
882.252	15173
882.378	15077
882.505	15367
882.631	15077
882.757	14952
882.883	14994
883.01	14952
883.136	14891
883.262	14811
883.388	14724
883.514	14944
883.64	15005
883.766	14929
883.892	14758
884.018	14750
884.143	15005
884.269	15028
884.395	14708
884.52	14571
884.646	14746
884.772	14545
884.897	14568
885.023	14617
885.148	14686
885.274	14788
885.399	14701
885.524	14590
885.65	14659
885.775	14712
885.9	14636
886.025	14712
886.15	14682
886.275	14617
886.4	14541
886.525	14644
886.65	14552
886.775	14511
886.9	14788
887.025	14788
887.149	14659
887.274	14484
887.399	14434
887.523	14438
887.648	14309
887.773	14374
887.897	14537
888.021	14545
888.146	14400
888.27	14514
888.395	14541
888.519	14488
888.643	14518
888.767	14492
888.891	14488
889.015	14290
889.139	14450
889.263	14248
889.387	14385
889.511	14564
889.635	14484
889.759	14343
889.883	14244
890.006	14278
890.13	14492
890.254	14298
890.377	14263
890.501	14157
890.624	14016
890.748	14206
890.871	14062
890.995	14001
891.118	13978
891.241	14024
891.364	13955
891.488	14103
891.611	14115
891.734	13970
891.857	14088
891.98	13997
892.103	14031
892.226	13982
892.349	14012
892.471	13932
892.594	14016
892.717	14081
892.839	14050
892.962	14008
893.085	14123
893.207	14100
893.33	13879
893.452	13875
893.575	13997
893.697	14031
893.819	14263
893.941	14240
894.064	14172
894.186	14065
894.308	13928
894.43	14126
894.552	14191
894.674	14161
894.796	14043
894.918	14058
895.04	14043
895.161	14199
895.283	14149
895.405	14138
895.526	14096
895.648	14031
895.769	14161
895.891	14221
896.012	14256
896.134	14195
896.255	14267
896.376	14088
896.498	14221
896.619	14202
896.74	14240
896.861	14153
896.982	14571
897.103	14712
897.224	14549
897.345	14461
897.466	14465
897.587	14476
897.708	14697
897.828	14465
897.949	14457
898.07	14358
898.19	14374
898.311	14530
898.431	14480
898.552	14655
898.672	14686
898.792	14663
898.913	14587
899.033	14438
899.153	14469
899.273	14309
899.393	14415
899.513	14465
899.633	14415
899.753	14400
899.873	14385
899.993	14419
900.113	14446
900.232	14434
900.352	14366
900.472	14324
900.591	14240
900.711	14320
900.83	14206
900.95	14336
901.069	14423
901.189	14153
901.308	14024
901.427	13947
901.546	14024
901.665	14001
901.784	13936
901.904	13887
902.023	13780
902.141	13597
902.26	13597
902.379	13571
902.498	13605
902.617	13476
902.735	13594
902.854	13552
902.973	13419
903.091	13228
903.21	13126
903.328	13285
903.446	13183
903.565	13046
903.683	13107
903.801	13099
903.919	13072
904.038	13091
904.156	13008
904.274	12993
904.392	12935
904.51	12897
904.627	12875
904.745	12935
904.863	12920
904.981	12745
905.098	12597
905.216	12623
905.334	12593
905.451	12612
905.569	12551
905.686	12604
905.803	12593
905.921	12380
906.038	12513
906.155	12448
906.272	12270
906.389	12391
906.506	12194
906.623	12125
906.74	12140
906.857	12049
906.974	12003
907.091	12194
907.208	12369
907.324	12182
907.441	12106
907.557	11961
907.674	11946
907.79	11939
907.907	11855
908.023	11958
908.139	12007
908.256	11824
908.372	11904
908.488	11779
908.604	11688
908.72	11627
908.836	11714
908.952	11665
909.068	11802
909.184	11767
909.3	11710
909.415	11684
909.531	11672
909.647	11551
909.762	11463
909.878	11425
909.993	11501
910.108	11379
910.224	11364
910.339	11448
910.454	11372
910.57	11345
910.685	11303
910.8	11493
910.915	11520
911.03	11284
911.145	11189
911.259	11220
911.374	11170
911.489	11136
911.604	10972
911.718	11003
911.833	10877
911.947	10862
912.062	10733
912.176	10900
912.291	10953
912.405	10866
912.519	11090
912.633	11174
912.748	10938
912.862	10900
912.976	10782
913.09	10694
913.204	10748
913.318	10809
913.431	10908
913.545	10797
913.659	10904
913.772	10752
913.886	10675
914	10641
914.113	10797
914.226	10809
914.34	10698
914.453	10630
914.566	10771
914.68	10569
914.793	10611
914.906	10474
915.019	10398
915.132	10356
915.245	10466
915.358	10417
915.47	10474
915.583	10432
915.696	10466
915.809	10649
915.921	10607
916.034	10462
916.146	10348
916.259	10379
916.371	10550
916.483	10409
916.595	10386
916.708	10432
916.82	10348
916.932	10287
917.044	10318
917.156	10352
917.268	10280
917.38	10299
917.491	10173
917.603	10322
917.715	10367
917.826	10398
917.938	10337
918.049	10150
918.161	10306
918.272	10409
918.384	10413
918.495	10325
918.606	10177
918.717	10124
918.828	10207
918.939	10230
919.05	10090
919.161	10215
919.272	10021
919.383	10078
919.494	10310
919.604	10360
919.715	10192
919.826	10063
919.936	10215
920.047	10295
920.157	10306
920.267	10447
920.378	10246
920.488	10246
920.598	10394
920.708	10500
920.818	10421
920.928	10352
921.038	10565
921.148	10535
921.258	10196
921.368	10101
921.477	10071
921.587	10086
921.697	9941
921.806	10055
921.916	9991
922.025	9759
922.134	9762
922.244	9690
922.353	9816
922.462	9732
922.571	9648
922.68	9450
922.789	9466
922.898	9416
923.007	9428
923.116	9469
923.224	9485
923.333	9526
923.442	9310
923.55	9283
923.659	9420
923.767	9469
923.876	9306
923.984	9359
924.092	9260
924.201	9370
924.309	9332
924.417	9298
924.525	9233
924.633	9291
924.741	10181
924.849	9036
924.956	9298
925.064	9077
925.172	9013
925.279	9028
925.387	9074
925.494	9047
925.602	9207
925.709	9138
925.816	9036
925.924	9085
926.031	9199
926.138	9104
926.245	9119
926.352	9047
926.459	9135
926.566	9272
926.673	9074
926.779	9001
926.886	8971
926.993	8834
927.099	8758
927.206	8716
927.312	8830
927.419	8902
927.525	8834
927.631	8876
927.737	8769
927.843	8750
927.95	8648
928.056	8716
928.162	8720
928.267	8800
928.373	9245
928.479	8823
928.585	8613
928.69	8766
928.796	8766
928.901	8625
929.007	8465
929.112	8610
929.218	8632
929.323	8594
929.428	8579
929.533	8625
929.638	8526
929.743	8514
929.848	8541
929.953	8560
930.058	8465
930.163	8263
930.267	8412
930.372	8438
930.477	8324
930.581	8503
930.685	8431
930.79	8347
930.894	8305
930.998	8256
931.103	8389
931.207	8073
931.311	7970
931.415	7894
931.519	7807
931.623	7814
