Data from test_V78500241_875.txt Node
Date: Fri Mar 25 14:39:48 CST 2022
User: usil
Spectrometer: V785-0024
Trigger mode: 0
Integration Time (sec): 4.000000E-1
Scans to average: 1
Nonlinearity correction enabled: false
Boxcar width: 0
Storing dark spectrum: false
XAxis mode: Wavelengths
Number of Pixels in Spectrum: 1024
>>>>>Begin Spectral Data<<<<<
801.071	25666
801.214	25540
801.356	25156
801.499	25152
801.641	25012
801.783	24867
801.926	24867
802.068	24943
802.211	24654
802.353	24654
802.496	24456
802.638	24357
802.78	24422
802.923	24365
803.065	24285
803.208	24186
803.35	24346
803.492	24334
803.635	24407
803.777	24410
803.919	24369
804.061	24582
804.204	24395
804.346	24376
804.488	24167
804.63	24247
804.773	24292
804.915	24350
805.057	24471
805.199	24517
805.341	24399
805.483	24486
805.626	24445
805.768	24346
805.91	24559
806.052	24673
806.194	24578
806.336	24871
806.478	24783
806.62	24776
806.762	25008
806.904	25103
807.046	25643
807.188	25628
807.33	25791
807.472	25902
807.614	26168
807.756	26526
807.898	26842
808.04	27401
808.182	28063
808.324	28999
808.465	30098
808.607	31335
808.749	32358
808.891	33017
809.033	33093
809.174	32313
809.316	31301
809.458	30213
809.6	28866
809.741	27998
809.883	27237
810.025	26914
810.166	26594
810.308	26229
810.45	25890
810.591	25704
810.733	25514
810.875	25346
811.016	25114
811.158	25027
811.299	25053
811.441	25282
811.582	25084
811.724	24798
811.865	24814
812.007	24772
812.148	24787
812.29	24768
812.431	24992
812.573	25088
812.714	25126
812.855	25225
812.997	25179
813.138	25373
813.279	25270
813.421	25004
813.562	25004
813.703	24848
813.845	24753
813.986	24486
814.127	24262
814.268	24034
814.41	24194
814.551	24133
814.692	24220
814.833	23980
814.974	23958
815.115	23863
815.256	23760
815.397	23916
815.539	23870
815.68	23638
815.821	23695
815.962	23726
816.103	23653
816.244	23478
816.385	23463
816.526	23535
816.666	23303
816.807	23227
816.948	23079
817.089	23258
817.23	23181
817.371	23075
817.512	23029
817.653	23022
817.793	23121
817.934	23018
818.075	23094
818.216	23006
818.356	23147
818.497	22938
818.638	22702
818.778	22740
818.919	22694
819.06	22862
819.2	22911
819.341	22949
819.481	22896
819.622	23044
819.762	23318
819.903	23261
820.043	23151
820.184	23003
820.324	23056
820.465	23113
820.605	23083
820.746	23022
820.886	22862
821.026	22915
821.167	22892
821.307	23010
821.447	22953
821.588	22634
821.728	22713
821.868	22462
822.008	22295
822.149	22181
822.289	22185
822.429	22055
822.569	21918
822.709	21991
822.849	21812
822.99	21732
823.13	21778
823.27	21667
823.41	21603
823.55	21435
823.69	21481
823.83	21545
823.97	21450
824.11	21313
824.25	21374
824.389	21355
824.529	21408
824.669	21306
824.809	21515
824.949	21393
825.089	21473
825.228	21378
825.368	21169
825.508	21131
825.648	21123
825.787	21233
825.927	21203
826.067	20986
826.206	21074
826.346	21207
826.485	21161
826.625	21207
826.765	21176
826.904	21135
827.044	20731
827.183	20826
827.323	20788
827.462	20868
827.601	20720
827.741	20743
827.88	20792
828.02	20708
828.159	20708
828.298	20758
828.437	20815
828.577	20716
828.716	20967
828.855	20693
828.994	20571
829.134	20507
829.273	20480
829.412	20412
829.551	20465
829.69	20427
829.829	20495
829.968	20381
830.107	20438
830.246	20560
830.385	20351
830.524	20351
830.663	20191
830.802	20202
830.941	20111
831.08	19993
831.219	20073
831.357	20081
831.496	20309
831.635	20020
831.774	20012
831.913	19837
832.051	19875
832.19	19856
832.329	19902
832.467	19837
832.606	19750
832.744	19780
832.883	19780
833.022	19875
833.16	19868
833.299	19921
833.437	19959
833.576	19921
833.714	20073
833.852	20214
833.991	20202
834.129	20313
834.267	20062
834.406	20126
834.544	20218
834.682	20043
834.821	20031
834.959	20138
835.097	19890
835.235	20050
835.373	19959
835.511	19887
835.65	19734
835.788	19632
835.926	19559
836.064	19441
836.202	19449
836.34	19605
836.478	19837
836.615	19567
836.753	19556
836.891	19681
837.029	19567
837.167	19575
837.305	19582
837.443	19578
837.58	19369
837.718	19491
837.856	19430
837.993	19403
838.131	19263
838.269	19228
838.406	19438
838.544	19175
838.681	19084
838.819	19061
838.956	18993
839.094	18913
839.231	18909
839.369	19012
839.506	19244
839.643	19152
839.781	18848
839.918	18840
840.055	18871
840.193	18859
840.33	18798
840.467	18791
840.604	18852
840.742	19148
840.879	18707
841.016	18741
841.153	18722
841.29	18928
841.427	18833
841.564	18894
841.701	18905
841.838	18810
841.975	18791
842.112	18688
842.249	18612
842.385	18563
842.522	18738
842.659	18593
842.796	18578
842.933	18627
843.069	18506
843.206	18688
843.343	18642
843.479	18658
843.616	18566
843.752	18506
843.889	18418
844.025	18616
844.162	18517
844.298	18574
844.435	18574
844.571	18509
844.708	18833
844.844	19031
844.98	19050
845.117	19354
845.253	19430
845.389	20073
845.525	21249
845.661	23044
845.798	25324
845.934	27306
846.07	28139
846.206	27804
846.342	26461
846.478	24167
846.614	21781
846.75	20172
846.886	19457
847.022	19027
847.158	18703
847.294	18308
847.429	18220
847.565	18178
847.701	18273
847.837	17748
847.972	17665
848.108	17828
848.244	17824
848.379	17619
848.515	17490
848.65	17493
848.786	17467
848.921	17615
849.057	17532
849.192	17532
849.328	17417
849.463	17376
849.598	17379
849.734	17318
849.869	17421
850.004	17330
850.14	17151
850.275	17277
850.41	17223
850.545	17109
850.68	17208
850.815	17212
850.95	17162
851.085	17402
851.22	17436
851.355	17231
851.49	17121
851.625	17239
851.76	17170
851.895	17029
852.03	17250
852.165	17155
852.299	17277
852.434	17318
852.569	17216
852.703	17307
852.838	17326
852.973	17421
853.107	17353
853.242	17277
853.376	17162
853.511	17025
853.645	17128
853.78	17391
853.914	17261
854.048	17102
854.183	17181
854.317	17147
854.451	17410
854.585	17220
854.72	17121
854.854	17204
854.988	17083
855.122	17124
855.256	16984
855.39	17117
855.524	17212
855.658	17235
855.792	17132
855.926	17121
856.06	17086
856.194	17155
856.327	17037
856.461	16953
856.595	17090
856.729	17064
856.862	17147
856.996	16987
857.13	17079
857.263	17162
857.397	17162
857.53	17071
857.664	17098
857.797	17067
857.931	17227
858.064	17060
858.197	17086
858.331	16938
858.464	17029
858.597	16915
858.731	16896
858.864	16991
858.997	16934
859.13	17086
859.263	16965
859.396	17086
859.529	17048
859.662	16972
859.795	16968
859.928	17025
860.061	16995
860.194	17124
860.327	16999
860.46	16953
860.592	17006
860.725	17022
860.858	17136
860.99	17025
861.123	16927
861.256	16911
861.388	16946
861.521	17539
861.653	16835
861.786	16782
861.918	16850
862.05	16873
862.183	16915
862.315	16976
862.447	17010
862.58	16953
862.712	16660
862.844	16713
862.976	16835
863.108	16820
863.24	16991
863.372	16675
863.504	16656
863.636	16687
863.768	16748
863.9	16710
864.032	16596
864.164	16550
864.296	16797
864.428	16721
864.559	16778
864.691	16755
864.823	16687
864.954	16816
865.086	16687
865.217	16733
865.349	16554
865.48	16694
865.612	16626
865.743	16725
865.875	16675
866.006	16592
866.137	16611
866.269	16687
866.4	16618
866.531	16599
866.662	16626
866.793	16660
866.924	16584
867.055	16550
867.186	16679
867.317	16565
867.448	16455
867.579	16546
867.71	16550
867.841	16535
867.972	16523
868.103	16565
868.233	16698
868.364	16687
868.495	16713
868.625	16824
868.756	16869
868.886	16790
869.017	16729
869.147	17022
869.278	16919
869.408	16854
869.539	16927
869.669	16987
869.799	16847
869.929	17064
870.06	17022
870.19	17227
870.32	17208
870.45	17231
870.58	17322
870.71	17334
870.84	17436
870.97	17204
871.1	17326
871.23	17414
871.36	17433
871.489	17242
871.619	17425
871.749	17471
871.879	17585
872.008	17497
872.138	17516
872.267	17440
872.397	17311
872.526	17204
872.656	17410
872.785	17425
872.915	17535
873.044	17668
873.173	17589
873.303	17615
873.432	17554
873.561	17710
873.69	17646
873.819	17566
873.948	17760
874.077	17657
874.206	17665
874.335	17642
874.464	17874
874.593	17916
874.722	17954
874.851	17977
874.979	17996
875.108	17939
875.237	18019
875.365	18007
875.494	17935
875.623	18079
875.751	18019
875.88	18076
876.008	18174
876.136	18308
876.265	18616
876.393	18719
876.521	18555
876.65	18563
876.778	18604
876.906	18601
877.034	18544
877.162	18661
877.29	18521
877.418	18741
877.546	18802
877.674	18776
877.802	18760
877.93	18859
878.058	18795
878.185	18719
878.313	19084
878.441	19126
878.568	19263
878.696	19449
878.824	19784
878.951	20088
879.079	20914
879.206	21641
879.333	22242
879.461	22786
879.588	23322
879.715	23326
879.842	23136
879.97	22280
880.097	21420
880.224	20651
880.351	20263
880.478	19951
880.605	19734
880.732	19693
880.859	19772
880.986	19620
881.112	19537
881.239	19316
881.366	19304
881.493	19183
881.619	19095
881.746	19187
881.872	19133
881.999	19107
882.125	19069
882.252	19160
882.378	19095
882.505	19213
882.631	19168
882.757	19042
882.883	19118
883.01	19061
883.136	18943
883.262	18852
883.388	18814
883.514	18951
883.64	19031
883.766	18905
883.892	18837
884.018	18806
884.143	18928
884.269	19053
884.395	18741
884.52	18681
884.646	18745
884.772	18688
884.897	18661
885.023	18707
885.148	18798
885.274	18734
885.399	18730
885.524	18654
885.65	18502
885.775	18502
885.9	18464
886.025	18502
886.15	18437
886.275	18251
886.4	18201
886.525	18140
886.65	18133
886.775	18041
886.9	18289
887.025	18323
887.149	18064
887.274	17927
887.399	17764
887.523	17771
887.648	17699
887.773	17668
887.897	17798
888.021	17619
888.146	17592
888.27	17710
888.395	17710
888.519	17566
888.643	17596
888.767	17596
888.891	17493
889.015	17360
889.139	17364
889.263	17337
889.387	17452
889.511	17520
889.635	17471
889.759	17315
889.883	17185
890.006	17227
890.13	17322
890.254	17254
890.377	17220
890.501	17033
890.624	16987
890.748	17121
890.871	17003
890.995	16877
891.118	16710
891.241	16797
891.364	16801
891.488	16908
891.611	16828
891.734	16771
891.857	16919
891.98	16850
892.103	16824
892.226	16805
892.349	16573
892.471	16569
892.594	16603
892.717	16687
892.839	16649
892.962	16679
893.085	16683
893.207	16691
893.33	16538
893.452	16538
893.575	16630
893.697	16573
893.819	16752
893.941	16862
894.064	16645
894.186	16569
894.308	16580
894.43	16649
894.552	16668
894.674	16641
894.796	16516
894.918	16512
895.04	16626
895.161	16653
895.283	16637
895.405	16542
895.526	16516
895.648	16508
895.769	16580
895.891	16672
896.012	16755
896.134	16683
896.255	16603
896.376	16622
896.498	16599
896.619	16679
896.74	16531
896.861	16611
896.982	16980
897.103	17045
897.224	16793
897.345	16763
897.466	16759
897.587	16869
897.708	17006
897.828	16828
897.949	16942
898.07	16687
898.19	16866
898.311	16858
898.431	16771
898.552	16934
898.672	16911
898.792	17056
898.913	16908
899.033	16831
899.153	16672
899.273	16702
899.393	16637
899.513	16713
899.633	16786
899.753	16843
899.873	16713
899.993	16706
900.113	16733
900.232	16740
900.352	16675
900.472	16668
900.591	16474
900.711	16603
900.83	16561
900.95	16752
901.069	16569
901.189	16485
901.308	16265
901.427	16143
901.546	16249
901.665	16257
901.784	16169
901.904	16143
902.023	15888
902.141	15759
902.26	15709
902.379	15835
902.498	15690
902.617	15686
902.735	15751
902.854	15553
902.973	15614
903.091	15348
903.21	15336
903.328	15447
903.446	15294
903.565	15283
903.683	15135
903.801	15047
903.919	15180
904.038	15108
904.156	14956
904.274	15058
904.392	14902
904.51	14910
904.627	14975
904.745	14956
904.863	14963
904.981	14750
905.098	14640
905.216	14644
905.334	14674
905.451	14621
905.569	14552
905.686	14545
905.803	14503
905.921	14381
906.038	14404
906.155	14377
906.272	14278
906.389	14385
906.506	14081
906.623	14123
906.74	14161
906.857	13986
906.974	14046
907.091	14142
907.208	14248
907.324	14142
907.441	13993
907.557	13928
907.674	13864
907.79	13685
907.907	13864
908.023	13837
908.139	13780
908.256	13879
908.372	13742
908.488	13727
908.604	13533
908.72	13472
908.836	13601
908.952	13575
909.068	13632
909.184	13685
909.3	13537
909.415	13609
909.531	13636
909.647	13388
909.762	13324
909.878	13232
909.993	13225
910.108	13354
910.224	13270
910.339	13331
910.454	13202
910.57	13160
910.685	13023
910.8	13377
910.915	13354
911.03	13206
911.145	12966
911.259	12996
911.374	12935
911.489	12901
911.604	12741
911.718	12711
911.833	12726
911.947	12578
912.062	12540
912.176	12696
912.291	12627
912.405	12776
912.519	12844
912.633	12810
912.748	12658
912.862	12738
912.976	12517
913.09	12448
913.204	12456
913.318	12452
913.431	12692
913.545	12570
913.659	12612
913.772	12502
913.886	12365
914	12384
914.113	12429
914.226	12498
914.34	12490
914.453	12327
914.566	12464
914.68	12327
914.793	12289
914.906	12133
915.019	12034
915.132	12041
915.245	12110
915.358	12163
915.47	12133
915.583	12194
915.696	12152
915.809	12167
915.921	12315
916.034	12060
916.146	11977
916.259	12068
916.371	12232
916.483	12098
916.595	12011
916.708	12011
916.82	12064
916.932	12060
917.044	11996
917.156	11988
917.268	11920
917.38	11885
917.491	11775
917.603	11866
917.715	11893
917.826	11950
917.938	11843
918.049	11767
918.161	11874
918.272	11992
918.384	12022
918.495	11851
918.606	11665
918.717	11570
918.828	11798
918.939	11680
919.05	11615
919.161	11707
919.272	11448
919.383	11604
919.494	11786
919.604	11920
919.715	11695
919.826	11604
919.936	11623
920.047	11756
920.157	11688
920.267	11821
920.378	11688
920.488	11642
920.598	11882
920.708	12003
920.818	11813
920.928	11798
921.038	12079
921.148	12038
921.258	11676
921.368	11619
921.477	11551
921.587	11520
921.697	11425
921.806	11520
921.916	11345
922.025	11273
922.134	11143
922.244	11132
922.353	11246
922.462	11071
922.571	10995
922.68	10816
922.789	10831
922.898	10892
923.007	10854
923.116	10835
923.224	10824
923.333	10767
923.442	10691
923.55	10649
923.659	10702
923.767	10729
923.876	10615
923.984	10759
924.092	10626
924.201	10679
924.309	10577
924.417	10767
924.525	10592
924.633	10615
924.741	11414
924.849	10485
924.956	10573
925.064	10443
925.172	10341
925.279	10371
925.387	10428
925.494	10417
925.602	10554
925.709	10523
925.816	10322
925.924	10405
926.031	10485
926.138	10379
926.245	10424
926.352	10295
926.459	10432
926.566	10470
926.673	10352
926.779	10322
926.886	10238
926.993	10116
927.099	10135
927.206	10055
927.312	9960
927.419	10150
927.525	10135
927.631	10071
927.737	9941
927.843	9964
927.95	9876
928.056	9983
928.162	9956
928.267	9945
928.373	10675
928.479	9998
928.585	9816
928.69	9991
928.796	9979
928.901	9892
929.007	9705
929.112	9911
929.218	9869
929.323	9698
929.428	9732
929.533	9793
929.638	9660
929.743	9667
929.848	9713
929.953	9701
930.058	9625
930.163	9473
930.267	9542
930.372	9698
930.477	9450
930.581	9701
930.685	9625
930.79	9412
930.894	9492
930.998	9466
931.103	9523
931.207	9165
931.311	9146
931.415	9028
931.519	8864
931.623	8857
