Data from test_V78500241_960.txt Node
Date: Fri Mar 25 14:40:24 CST 2022
User: usil
Spectrometer: V785-0024
Trigger mode: 0
Integration Time (sec): 4.000000E-1
Scans to average: 1
Nonlinearity correction enabled: false
Boxcar width: 0
Storing dark spectrum: false
XAxis mode: Wavelengths
Number of Pixels in Spectrum: 1024
>>>>>Begin Spectral Data<<<<<
801.071	23433
801.214	23391
801.356	23231
801.499	23254
801.641	23006
801.783	22824
801.926	22942
802.068	22759
802.211	22748
802.353	22649
802.496	22557
802.638	22325
802.78	22299
802.923	22379
803.065	22135
803.208	22025
803.35	22147
803.492	22348
803.635	22253
803.777	22135
803.919	22181
804.061	22603
804.204	22409
804.346	22162
804.488	22109
804.63	22139
804.773	22135
804.915	22109
805.057	22219
805.199	22093
805.341	22257
805.483	22325
805.626	22223
805.768	22105
805.91	22261
806.052	22219
806.194	22238
806.336	22409
806.478	22352
806.62	22215
806.762	22459
806.904	22588
807.046	22820
807.188	22767
807.33	22847
807.472	22904
807.614	22866
807.756	22908
807.898	23044
808.04	22938
808.182	23200
808.324	23383
808.465	23855
808.607	24041
808.749	24483
808.891	24639
809.033	24654
809.174	24517
809.316	24235
809.458	23908
809.6	23551
809.741	23531
809.883	23136
810.025	23334
810.166	23166
810.308	23117
810.45	22999
810.591	22862
810.733	22713
810.875	22645
811.016	22417
811.158	22432
811.299	22527
811.441	22470
811.582	22588
811.724	22447
811.865	22443
812.007	22310
812.148	22573
812.29	22569
812.431	22710
812.573	22820
812.714	22915
812.855	22908
812.997	23033
813.138	23083
813.279	23048
813.421	22923
813.562	23037
813.703	22683
813.845	22516
813.986	22367
814.127	22143
814.268	21972
814.41	22036
814.551	21918
814.692	22002
814.833	21892
814.974	21884
815.115	21968
815.256	21838
815.397	21831
815.539	21823
815.68	21682
815.821	21641
815.962	21622
816.103	21690
816.244	21496
816.385	21469
816.526	21374
816.666	21283
816.807	21020
816.948	21161
817.089	21192
817.23	21047
817.371	21108
817.512	21051
817.653	21089
817.793	20906
817.934	21165
818.075	21047
818.216	21081
818.356	21024
818.497	20853
818.638	20750
818.778	20773
818.919	20769
819.06	20811
819.2	20777
819.341	20906
819.481	20963
819.622	21074
819.762	21230
819.903	21294
820.043	21096
820.184	21093
820.324	20979
820.465	21096
820.605	21093
820.746	20982
820.886	20845
821.026	20933
821.167	20990
821.307	21066
821.447	20769
821.588	20815
821.728	20583
821.868	20625
822.008	20454
822.149	20355
822.289	20275
822.429	20107
822.569	20221
822.709	20046
822.849	19868
822.99	19986
823.13	19868
823.27	19894
823.41	19712
823.55	19594
823.69	19757
823.83	19628
823.97	19601
824.11	19457
824.25	19487
824.389	19502
824.529	19544
824.669	19502
824.809	19624
824.949	19453
825.089	19533
825.228	19430
825.368	19270
825.508	19221
825.648	19244
825.787	19282
825.927	19251
826.067	19228
826.206	19289
826.346	19247
826.485	19232
826.625	19122
826.765	19324
826.904	19244
827.044	18890
827.183	18913
827.323	18973
827.462	18989
827.601	18916
827.741	18856
827.88	18878
828.02	18806
828.159	18859
828.298	18935
828.437	18981
828.577	18810
828.716	19023
828.855	18837
828.994	18722
829.134	18707
829.273	18840
829.412	18593
829.551	18525
829.69	18566
829.829	18681
829.968	18738
830.107	18863
830.246	18684
830.385	18646
830.524	18475
830.663	18528
830.802	18445
830.941	18194
831.08	18174
831.219	18258
831.357	18266
831.496	18604
831.635	18213
831.774	18178
831.913	18163
832.051	17980
832.19	18053
832.329	17992
832.467	17927
832.606	17973
832.744	17935
832.883	17942
833.022	18011
833.16	17988
833.299	18110
833.437	18007
833.576	18144
833.714	17988
833.852	18163
833.991	18079
834.129	18087
834.267	18167
834.406	18110
834.544	18129
834.682	18106
834.821	18064
834.959	18163
835.097	17992
835.235	18060
835.373	18003
835.511	17992
835.65	17843
835.788	17901
835.926	17684
836.064	17710
836.202	17676
836.34	17878
836.478	17950
836.615	17805
836.753	17893
836.891	18007
837.029	17866
837.167	17840
837.305	17737
837.443	17733
837.58	17722
837.718	17771
837.856	17802
837.993	17684
838.131	17672
838.269	17699
838.406	17665
838.544	17505
838.681	17391
838.819	17421
838.956	17235
839.094	17273
839.231	17334
839.369	17455
839.506	17589
839.643	17414
839.781	17254
839.918	17280
840.055	17269
840.193	17109
840.33	17303
840.467	17307
840.604	17254
840.742	17421
840.879	17136
841.016	17147
841.153	17094
841.29	17315
841.427	17280
841.564	17208
841.701	17162
841.838	17273
841.975	17102
842.112	17204
842.249	17006
842.385	16869
842.522	17113
842.659	17022
842.796	16858
842.933	16908
843.069	16984
843.206	16991
843.343	17006
843.479	16953
843.616	16908
843.752	16824
843.889	16767
844.025	16854
844.162	16839
844.298	16885
844.435	16957
844.571	16725
844.708	16942
844.844	17010
844.98	16984
845.117	17086
845.253	16968
845.389	17045
845.525	17493
845.661	17855
845.798	18285
845.934	18909
846.07	18973
846.206	18916
846.342	18551
846.478	17992
846.614	17258
846.75	16774
846.886	16675
847.022	16679
847.158	16535
847.294	16375
847.429	16523
847.565	16341
847.701	16577
847.837	16048
847.972	15968
848.108	16154
848.244	16192
848.379	15926
848.515	15907
848.65	15835
848.786	15895
848.921	15975
849.057	16013
849.192	16082
849.328	15899
849.463	15873
849.598	15956
849.734	15797
849.869	15743
850.004	15717
850.14	15606
850.275	15682
850.41	15641
850.545	15667
850.68	15584
850.815	15633
850.95	15564
851.085	15915
851.22	15747
851.355	15755
851.49	15568
851.625	15625
851.76	15610
851.895	15587
852.03	15534
852.165	15606
852.299	15606
852.434	15694
852.569	15698
852.703	15724
852.838	15857
852.973	15762
853.107	15804
853.242	15644
853.376	15549
853.511	15408
853.645	15447
853.78	15648
853.914	15530
854.048	15435
854.183	15492
854.317	15584
854.451	15667
854.585	15576
854.72	15428
854.854	15568
854.988	15351
855.122	15576
855.256	15325
855.39	15492
855.524	15523
855.658	15504
855.792	15618
855.926	15511
856.06	15561
856.194	15511
856.327	15424
856.461	15473
856.595	15420
856.729	15397
856.862	15545
856.996	15466
857.13	15591
857.263	15686
857.397	15610
857.53	15504
857.664	15633
857.797	15564
857.931	15625
858.064	15580
858.197	15568
858.331	15534
858.464	15386
858.597	15412
858.731	15485
858.864	15515
858.997	15454
859.13	15534
859.263	15549
859.396	15591
859.529	15511
859.662	15405
859.795	15378
859.928	15511
860.061	15656
860.194	15633
860.327	15557
860.46	15523
860.592	15549
860.725	15641
860.858	15698
860.99	15416
861.123	15466
861.256	15416
861.388	15530
861.521	16169
861.653	15431
861.786	15310
861.918	15348
862.05	15443
862.183	15424
862.315	15545
862.447	15504
862.58	15351
862.712	15336
862.844	15203
862.976	15340
863.108	15268
863.24	15728
863.372	15169
863.504	15245
863.636	15268
863.768	15287
863.9	15291
864.032	15157
864.164	15184
864.296	15325
864.428	15382
864.559	15283
864.691	15317
864.823	15279
864.954	15302
865.086	15218
865.217	15226
865.349	15249
865.48	15226
865.612	15150
865.743	15355
865.875	15184
866.006	15108
866.137	15252
866.269	15150
866.4	15192
866.531	15135
866.662	15058
866.793	15112
866.924	15180
867.055	15161
867.186	15203
867.317	15173
867.448	15081
867.579	15184
867.71	15108
867.841	15161
867.972	15230
868.103	15192
868.233	15188
868.364	15245
868.495	15363
868.625	15332
868.756	15625
868.886	15374
869.017	15428
869.147	15515
869.278	15572
869.408	15538
869.539	15401
869.669	15473
869.799	15412
869.929	15622
870.06	15576
870.19	15785
870.32	15766
870.45	15789
870.58	15785
870.71	15956
870.84	15922
870.97	15816
871.1	15785
871.23	15998
871.36	15994
871.489	15922
871.619	16010
871.749	15945
871.879	16116
872.008	16188
872.138	16048
872.267	15983
872.397	15915
872.526	15899
872.656	15934
872.785	15987
872.915	16154
873.044	16017
873.173	16067
873.303	16124
873.432	16261
873.561	16226
873.69	16185
873.819	16219
873.948	16090
874.077	16147
874.206	16177
874.335	16173
874.464	16299
874.593	16485
874.722	16333
874.851	16390
874.979	16424
875.108	16500
875.237	16272
875.365	16310
875.494	16436
875.623	16466
875.751	16428
875.88	16554
876.008	16550
876.136	16626
876.265	16919
876.393	17022
876.521	16934
876.65	16976
876.778	16930
876.906	16782
877.034	16885
877.162	16923
877.29	16858
877.418	16873
877.546	16847
877.674	16949
877.802	16942
877.93	16904
878.058	16923
878.185	16877
878.313	16965
878.441	17098
878.568	16873
878.696	17048
878.824	17170
878.951	17440
879.079	17528
879.206	17703
879.333	17897
879.461	17939
879.588	18148
879.715	18201
879.842	18216
879.97	17882
880.097	17459
880.224	17296
880.351	17235
880.478	17010
880.605	17086
880.732	17113
880.859	17345
880.986	17090
881.112	17064
881.239	16809
881.366	16634
881.493	16687
881.619	16596
881.746	16672
881.872	16554
881.999	16618
882.125	16561
882.252	16729
882.378	16687
882.505	16786
882.631	16736
882.757	16421
882.883	16493
883.01	16489
883.136	16375
883.262	16432
883.388	16310
883.514	16516
883.64	16451
883.766	16424
883.892	16196
884.018	16341
884.143	16268
884.269	16577
884.395	16314
884.52	16120
884.646	16166
884.772	16188
884.897	16158
885.023	16196
885.148	16257
885.274	16322
885.399	16215
885.524	16143
885.65	16204
885.775	16124
885.9	16147
886.025	16253
886.15	16150
886.275	16044
886.4	16059
886.525	16044
886.65	15975
886.775	15915
886.9	16211
887.025	16238
887.149	15994
887.274	15819
887.399	15679
887.523	15751
887.648	15743
887.773	15759
887.897	15842
888.021	15819
888.146	15762
888.27	15804
888.395	16006
888.519	15827
888.643	15846
888.767	15808
888.891	15785
889.015	15549
889.139	15606
889.263	15542
889.387	15622
889.511	15701
889.635	15808
889.759	15587
889.883	15534
890.006	15568
890.13	15591
890.254	15424
890.377	15454
890.501	15416
890.624	15401
890.748	15439
890.871	15275
890.995	15233
891.118	15146
891.241	15268
891.364	15283
891.488	15340
891.611	15275
891.734	15222
891.857	15332
891.98	15302
892.103	15336
892.226	15222
892.349	15199
892.471	15005
892.594	15275
892.717	15294
892.839	15226
892.962	15154
893.085	15264
893.207	15150
893.33	15157
893.452	15116
893.575	15264
893.697	15142
893.819	15329
893.941	15348
894.064	15355
894.186	15066
894.308	15104
894.43	15298
894.552	15298
894.674	15287
894.796	15131
894.918	15176
895.04	15264
895.161	15264
895.283	15249
895.405	15195
895.526	15233
895.648	15176
895.769	15184
895.891	15355
896.012	15310
896.134	15298
896.255	15264
896.376	15150
896.498	15287
896.619	15351
896.74	15348
896.861	15321
896.982	15591
897.103	15854
897.224	15622
897.345	15492
897.466	15523
897.587	15576
897.708	15690
897.828	15580
897.949	15473
898.07	15408
898.19	15466
898.311	15724
898.431	15458
898.552	15622
898.672	15774
898.792	15816
898.913	15694
899.033	15534
899.153	15420
899.273	15329
899.393	15443
899.513	15538
899.633	15477
899.753	15572
899.873	15545
899.993	15481
900.113	15538
900.232	15549
900.352	15428
900.472	15439
900.591	15283
900.711	15382
900.83	15222
900.95	15416
901.069	15405
901.189	15329
901.308	15161
901.427	15043
901.546	15013
901.665	15055
901.784	15005
901.904	14982
902.023	14819
902.141	14610
902.26	14564
902.379	14636
902.498	14522
902.617	14473
902.735	14648
902.854	14507
902.973	14526
903.091	14278
903.21	14237
903.328	14271
903.446	14191
903.565	14039
903.683	14123
903.801	14031
903.919	13970
904.038	14062
904.156	13871
904.274	13940
904.392	13906
904.51	13841
904.627	13837
904.745	13921
904.863	13780
904.981	13704
905.098	13495
905.216	13540
905.334	13582
905.451	13495
905.569	13575
905.686	13590
905.803	13506
905.921	13339
906.038	13373
906.155	13324
906.272	13304
906.389	13236
906.506	13129
906.623	13160
906.74	13088
906.857	13023
906.974	12981
907.091	13240
907.208	13270
907.324	13126
907.441	12993
907.557	12871
907.674	12901
907.79	12821
907.907	12745
908.023	12958
908.139	12852
908.256	12776
908.372	12722
908.488	12787
908.604	12547
908.72	12635
908.836	12608
908.952	12616
909.068	12551
909.184	12673
909.3	12665
909.415	12700
909.531	12578
909.647	12285
909.762	12418
909.878	12338
909.993	12330
910.108	12403
910.224	12300
910.339	12342
910.454	12289
910.57	12175
910.685	12068
910.8	12418
910.915	12304
911.03	12247
911.145	11980
911.259	12064
911.374	11961
911.489	11946
911.604	11923
911.718	11726
911.833	11741
911.947	11699
912.062	11646
912.176	11684
912.291	11764
912.405	11745
912.519	11904
912.633	11878
912.748	11863
912.862	11863
912.976	11619
913.09	11554
913.204	11520
913.318	11634
913.431	11707
913.545	11714
913.659	11756
913.772	11661
913.886	11455
914	11543
914.113	11611
914.226	11623
914.34	11630
914.453	11436
914.566	11600
914.68	11414
914.793	11429
914.906	11220
915.019	11178
915.132	11174
915.245	11204
915.358	11166
915.47	11292
915.583	11288
915.696	11231
915.809	11364
915.921	11497
916.034	11216
916.146	11170
916.259	11128
916.371	11326
916.483	11216
916.595	11109
916.708	11208
916.82	11128
916.932	11121
917.044	11136
917.156	11071
917.268	10957
917.38	11045
917.491	10949
917.603	11048
917.715	11105
917.826	11121
917.938	10995
918.049	10946
918.161	11003
918.272	11162
918.384	11151
918.495	11090
918.606	10938
918.717	10889
918.828	10892
918.939	10850
919.05	10797
919.161	10911
919.272	10763
919.383	10767
919.494	10911
919.604	11121
919.715	10892
919.826	10873
919.936	10869
920.047	10976
920.157	10927
920.267	11121
920.378	10953
920.488	10965
920.598	11140
920.708	11189
920.818	11140
920.928	11143
921.038	11231
921.148	11201
921.258	10942
921.368	10866
921.477	10721
921.587	10763
921.697	10622
921.806	10809
921.916	10740
922.025	10474
922.134	10417
922.244	10341
922.353	10428
922.462	10341
922.571	10265
922.68	10128
922.789	10093
922.898	10169
923.007	10097
923.116	10249
923.224	10086
923.333	10078
923.442	10059
923.55	9941
923.659	10032
923.767	10044
923.876	9972
923.984	10055
924.092	9918
924.201	10021
924.309	9991
924.417	9960
924.525	9934
924.633	9892
924.741	10683
924.849	9701
924.956	9827
925.064	9720
925.172	9690
925.279	9743
925.387	9789
925.494	9743
925.602	9892
925.709	9819
925.816	9648
925.924	9759
926.031	9835
926.138	9713
926.245	9797
926.352	9667
926.459	9899
926.566	9869
926.673	9694
926.779	9568
926.886	9599
926.993	9553
927.099	9431
927.206	9424
927.312	9389
927.419	9416
927.525	9408
927.631	9526
927.737	9302
927.843	9268
927.95	9195
928.056	9397
928.162	9424
928.267	9401
928.373	9808
928.479	9389
928.585	9157
928.69	9310
928.796	9291
928.901	9275
929.007	9135
929.112	9218
929.218	9207
929.323	9176
929.428	9127
929.533	9207
929.638	9104
929.743	9097
929.848	9233
929.953	9097
930.058	9062
930.163	8883
930.267	8853
930.372	9005
930.477	8857
930.581	9093
930.685	8941
930.79	8804
930.894	8845
930.998	8796
931.103	8941
931.207	8632
931.311	8522
931.415	8488
931.519	8309
931.623	8351
