Data from test_V78500241_586.txt Node
Date: Fri Mar 25 14:37:47 CST 2022
User: usil
Spectrometer: V785-0024
Trigger mode: 0
Integration Time (sec): 4.000000E-1
Scans to average: 1
Nonlinearity correction enabled: false
Boxcar width: 0
Storing dark spectrum: false
XAxis mode: Wavelengths
Number of Pixels in Spectrum: 1024
>>>>>Begin Spectral Data<<<<<
801.071	27789
801.214	27770
801.356	27511
801.499	27466
801.641	27427
801.783	27218
801.926	27351
802.068	27142
802.211	27116
802.353	27032
802.496	26777
802.638	26708
802.78	26743
802.923	26708
803.065	26731
803.208	26590
803.35	26769
803.492	26899
803.635	26952
803.777	26781
803.919	26842
804.061	27283
804.204	27036
804.346	26815
804.488	27024
804.63	27089
804.773	26895
804.915	27017
805.057	27203
805.199	27074
805.341	27188
805.483	27302
805.626	27405
805.768	27260
805.91	27264
806.052	27408
806.194	27321
806.336	27884
806.478	27675
806.62	27823
806.762	27968
806.904	28398
807.046	28729
807.188	28904
807.33	29235
807.472	29562
807.614	30057
807.756	30582
807.898	31266
808.04	32199
808.182	33450
808.324	35162
808.465	37129
808.607	39165
808.749	40953
808.891	42022
809.033	42098
809.174	40984
809.316	39150
809.458	37015
809.6	34729
809.741	33188
809.883	31746
810.025	31061
810.166	30407
810.308	29851
810.45	29414
810.591	28957
810.733	28626
810.875	28527
811.016	28177
811.158	28002
811.299	27979
811.441	28131
811.582	27968
811.724	27663
811.865	27766
812.007	27610
812.148	27595
812.29	27447
812.431	27648
812.573	27781
812.714	27823
812.855	27949
812.997	28006
813.138	28051
813.279	27876
813.421	27827
813.562	27679
813.703	27477
813.845	27340
813.986	27055
814.127	26754
814.268	26826
814.41	26678
814.551	26526
814.692	26800
814.833	26590
814.974	26511
815.115	26552
815.256	26389
815.397	26446
815.539	26301
815.68	26343
815.821	26001
815.962	26142
816.103	26088
816.244	26054
816.385	26046
816.526	25887
816.666	25719
816.807	25575
816.948	25563
817.089	25727
817.23	25510
817.371	25590
817.512	25521
817.653	25544
817.793	25384
817.934	25449
818.075	25529
818.216	25502
818.356	25403
818.497	25430
818.638	25099
818.778	25217
818.919	25209
819.06	25293
819.2	25255
819.341	25426
819.481	25415
819.622	25537
819.762	25746
819.903	25609
820.043	25540
820.184	25343
820.324	25407
820.465	25529
820.605	25415
820.746	25301
820.886	25232
821.026	25194
821.167	25343
821.307	25118
821.447	25141
821.588	25133
821.728	25072
821.868	24821
822.008	24768
822.149	24612
822.289	24646
822.429	24380
822.569	24190
822.709	24300
822.849	24270
822.99	24064
823.13	24148
823.27	23923
823.41	23927
823.55	23779
823.69	23882
823.83	23760
823.97	23847
824.11	23630
824.25	23543
824.389	23600
824.529	23745
824.669	23596
824.809	23630
824.949	23699
825.089	23661
825.228	23752
825.368	23482
825.508	23326
825.648	23433
825.787	23448
825.927	23421
826.067	23326
826.206	23345
826.346	23486
826.485	23467
826.625	23417
826.765	23543
826.904	23296
827.044	23162
827.183	23246
827.323	23079
827.462	23166
827.601	23121
827.741	23044
827.88	23098
828.02	22828
828.159	23044
828.298	22991
828.437	23060
828.577	22984
828.716	22984
828.855	22927
828.994	22729
829.134	22854
829.273	22660
829.412	22618
829.551	22615
829.69	22656
829.829	22698
829.968	22790
830.107	22736
830.246	22725
830.385	22634
830.524	22523
830.663	22497
830.802	22390
830.941	22493
831.08	22371
831.219	22443
831.357	22360
831.496	22478
831.635	22287
831.774	22196
831.913	22234
832.051	22063
832.19	22116
832.329	22128
832.467	22078
832.606	22078
832.744	22051
832.883	22116
833.022	22120
833.16	22238
833.299	22360
833.437	22363
833.576	22436
833.714	22577
833.852	22622
833.991	22710
834.129	22774
834.267	22812
834.406	22687
834.544	22656
834.682	22744
834.821	22546
834.959	22698
835.097	22360
835.235	22371
835.373	22181
835.511	22303
835.65	22013
835.788	21979
835.926	21937
836.064	21736
836.202	21743
836.34	21911
836.478	21968
836.615	21732
836.753	21861
836.891	21857
837.029	21808
837.167	21743
837.305	21793
837.443	21709
837.58	21587
837.718	21755
837.856	21701
837.993	21572
838.131	21644
838.269	21542
838.406	21466
838.544	21367
838.681	21211
838.819	21249
838.956	21142
839.094	21005
839.231	21131
839.369	21237
839.506	21450
839.643	21310
839.781	21043
839.918	20941
840.055	21066
840.193	21017
840.33	20933
840.467	20941
840.604	20971
840.742	21298
840.879	20762
841.016	20925
841.153	20971
841.29	20952
841.427	20960
841.564	20929
841.701	20979
841.838	20925
841.975	20929
842.112	20918
842.249	20659
842.385	20670
842.522	20963
842.659	20899
842.796	20811
842.933	20830
843.069	20758
843.206	20727
843.343	20857
843.479	20830
843.616	20967
843.752	20632
843.889	20716
844.025	20872
844.162	20708
844.298	20914
844.435	21017
844.571	21032
844.708	21218
844.844	21542
844.98	21808
845.117	22188
845.253	22790
845.389	23710
845.525	25887
845.661	29459
845.798	33778
845.934	37107
846.07	38374
846.206	37533
846.342	34839
846.478	30620
846.614	26777
846.75	24133
846.886	22706
847.022	21876
847.158	21302
847.294	20895
847.429	20777
847.565	20461
847.701	20632
847.837	20050
847.972	19913
848.108	20100
848.244	19925
848.379	19841
848.515	19715
848.65	19689
848.786	19609
848.921	19628
849.057	19719
849.192	19742
849.328	19670
849.463	19510
849.598	19510
849.734	19681
849.869	19377
850.004	19377
850.14	19316
850.275	19304
850.41	19126
850.545	19137
850.68	19133
850.815	19369
850.95	19263
851.085	19441
851.22	19468
851.355	19293
851.49	19240
851.625	19247
851.76	19175
851.895	19240
852.03	19217
852.165	19278
852.299	19240
852.434	19480
852.569	19373
852.703	19266
852.838	19278
852.973	19441
853.107	19445
853.242	19297
853.376	19209
853.511	19126
853.645	19312
853.78	19499
853.914	19407
854.048	19266
854.183	19335
854.317	19392
854.451	19548
854.585	19343
854.72	19384
854.854	19430
854.988	19266
855.122	19289
855.256	19148
855.39	19324
855.524	19430
855.658	19187
855.792	19244
855.926	19274
856.06	19209
856.194	19259
856.327	19206
856.461	18916
856.595	18996
856.729	19095
856.862	19168
856.996	19202
857.13	19099
857.263	19221
857.397	19065
857.53	19012
857.664	19122
857.797	19099
857.931	19156
858.064	19126
858.197	19225
858.331	19015
858.464	18962
858.597	18916
858.731	19057
858.864	19091
858.997	19050
859.13	19038
859.263	18958
859.396	19042
859.529	18932
859.662	18901
859.795	18901
859.928	19000
860.061	19061
860.194	19110
860.327	19004
860.46	18966
860.592	19122
860.725	19034
860.858	19133
860.99	18920
861.123	18924
861.256	18897
861.388	18894
861.521	19529
861.653	18757
861.786	18833
861.918	18829
862.05	18890
862.183	18985
862.315	18981
862.447	18947
862.58	18909
862.712	18798
862.844	18650
862.976	18677
863.108	18745
863.24	19004
863.372	18677
863.504	18677
863.636	18635
863.768	18768
863.9	18715
864.032	18585
864.164	18570
864.296	18696
864.428	18764
864.559	18673
864.691	18707
864.823	18650
864.954	18635
865.086	18658
865.217	18566
865.349	18536
865.48	18452
865.612	18513
865.743	18646
865.875	18623
866.006	18407
866.137	18677
866.269	18620
866.4	18410
866.531	18544
866.662	18456
866.793	18479
866.924	18555
867.055	18570
867.186	18608
867.317	18380
867.448	18471
867.579	18467
867.71	18513
867.841	18490
867.972	18593
868.103	18467
868.233	18578
868.364	18506
868.495	18608
868.625	18810
868.756	18798
868.886	18848
869.017	18772
869.147	18901
869.278	18856
869.408	18776
869.539	18840
869.669	18837
869.799	18764
869.929	18924
870.06	18817
870.19	19019
870.32	19072
870.45	19190
870.58	19141
870.71	19327
870.84	19312
870.97	19076
871.1	19255
871.23	19369
871.36	19438
871.489	19339
871.619	19392
871.749	19411
871.879	19533
872.008	19628
872.138	19472
872.267	19449
872.397	19304
872.526	19285
872.656	19396
872.785	19312
872.915	19468
873.044	19628
873.173	19643
873.303	19738
873.432	19677
873.561	19757
873.69	19590
873.819	19567
873.948	19693
874.077	19651
874.206	19784
874.335	19712
874.464	19799
874.593	19974
874.722	19921
874.851	20035
874.979	20024
875.108	20168
875.237	20092
875.365	20020
875.494	20073
875.623	20267
875.751	20122
875.88	20221
876.008	20450
876.136	20446
876.265	20800
876.393	20941
876.521	20754
876.65	20891
876.778	20925
876.906	20788
877.034	20990
877.162	20971
877.29	20823
877.418	20998
877.546	21096
877.674	20975
877.802	21256
877.93	21306
878.058	21466
878.185	21393
878.313	21717
878.441	21895
878.568	21953
878.696	22379
878.824	22987
878.951	23710
879.079	24593
879.206	26122
879.333	27272
879.461	28386
879.588	29166
879.715	29216
879.842	28759
879.97	27329
880.097	25932
880.224	24947
880.351	24098
880.478	23452
880.605	23212
880.732	22953
880.859	23094
880.986	22752
881.112	22816
881.239	22580
881.366	22333
881.493	22367
881.619	22226
881.746	22200
881.872	22325
881.999	22265
882.125	22162
882.252	22310
882.378	22318
882.505	22443
882.631	22291
882.757	22246
882.883	22402
883.01	22143
883.136	22219
883.262	22093
883.388	22055
883.514	22101
883.64	22204
883.766	21972
883.892	21915
884.018	21964
884.143	22082
884.269	22074
884.395	21831
884.52	21846
884.646	21861
884.772	21804
884.897	21812
885.023	21888
885.148	21953
885.274	21869
885.399	21922
885.524	21739
885.65	21625
885.775	21610
885.9	21485
886.025	21450
886.15	21275
886.275	21096
886.4	20982
886.525	20963
886.65	20857
886.775	20754
886.9	20914
887.025	20925
887.149	20629
887.274	20446
887.399	20275
887.523	20271
887.648	20103
887.773	20138
887.897	20278
888.021	20161
888.146	19989
888.27	20088
888.395	20024
888.519	20050
888.643	19993
888.767	19818
888.891	19795
889.015	19499
889.139	19670
889.263	19502
889.387	19647
889.511	19742
889.635	19643
889.759	19480
889.883	19487
890.006	19480
890.13	19609
890.254	19346
890.377	19354
890.501	19190
890.624	19133
890.748	19209
890.871	19065
890.995	18943
891.118	18852
891.241	18954
891.364	18848
891.488	18932
891.611	18882
891.734	18802
891.857	18916
891.98	18814
892.103	18886
892.226	18829
892.349	18677
892.471	18528
892.594	18608
892.717	18707
892.839	18684
892.962	18654
893.085	18745
893.207	18707
893.33	18597
893.452	18471
893.575	18631
893.697	18570
893.819	18654
893.941	18688
894.064	18635
894.186	18407
894.308	18437
894.43	18532
894.552	18479
894.674	18483
894.796	18327
894.918	18414
895.04	18399
895.161	18506
895.283	18384
895.405	18319
895.526	18346
895.648	18372
895.769	18403
895.891	18357
896.012	18384
896.134	18422
896.255	18330
896.376	18209
896.498	18327
896.619	18342
896.74	18399
896.861	18426
896.982	18696
897.103	18817
897.224	18563
897.345	18536
897.466	18483
897.587	18540
897.708	18700
897.828	18570
897.949	18437
898.07	18330
898.19	18517
898.311	18563
898.431	18540
898.552	18532
898.672	18642
898.792	18570
898.913	18513
899.033	18456
899.153	18315
899.273	18174
899.393	18254
899.513	18323
899.633	18357
899.753	18391
899.873	18201
899.993	18319
900.113	18270
900.232	18273
900.352	18205
900.472	18076
900.591	18057
900.711	18026
900.83	18053
900.95	18216
901.069	18171
901.189	18129
901.308	17809
901.427	17786
901.546	17661
901.665	17676
901.784	17722
901.904	17600
902.023	17440
902.141	17330
902.26	17227
902.379	17284
902.498	17064
902.617	17064
902.735	17090
902.854	17018
902.973	17025
903.091	16858
903.21	16736
903.328	16820
903.446	16694
903.565	16592
903.683	16630
903.801	16584
903.919	16538
904.038	16554
904.156	16390
904.274	16367
904.392	16478
904.51	16322
904.627	16394
904.745	16375
904.863	16367
904.981	16120
905.098	15880
905.216	16078
905.334	16036
905.451	16006
905.569	15987
905.686	16029
905.803	15926
905.921	15804
906.038	15968
906.155	15819
906.272	15732
906.389	15644
906.506	15538
906.623	15629
906.74	15466
906.857	15431
906.974	15401
907.091	15553
907.208	15610
907.324	15580
907.441	15336
907.557	15272
907.674	15230
907.79	15211
907.907	15226
908.023	15211
908.139	15173
908.256	15211
908.372	15184
908.488	15062
908.604	15001
908.72	14941
908.836	14967
908.952	14902
909.068	14967
909.184	15100
909.3	14948
909.415	14956
909.531	14979
909.647	14682
909.762	14686
909.878	14583
909.993	14686
910.108	14648
910.224	14560
910.339	14644
910.454	14533
910.57	14488
910.685	14408
910.8	14636
910.915	14632
911.03	14427
911.145	14301
911.259	14233
911.374	14278
911.489	14126
911.604	14180
911.718	13932
911.833	14031
911.947	13906
912.062	13833
912.176	13989
912.291	14069
912.405	14008
912.519	14134
912.633	14248
912.748	14073
912.862	13932
912.976	13833
913.09	13776
913.204	13769
913.318	13841
913.431	13955
913.545	13875
913.659	13902
913.772	13765
913.886	13738
914	13636
914.113	13814
914.226	13757
914.34	13788
914.453	13571
914.566	13677
914.68	13582
914.793	13590
914.906	13441
915.019	13304
915.132	13255
915.245	13403
915.358	13274
915.47	13350
915.583	13316
915.696	13434
915.809	13514
915.921	13548
916.034	13266
916.146	13263
916.259	13221
916.371	13335
916.483	13327
916.595	13263
916.708	13221
916.82	13232
916.932	13316
917.044	13259
917.156	13350
917.268	13084
917.38	13053
917.491	13038
917.603	13137
917.715	13141
917.826	13255
917.938	13000
918.049	12837
918.161	13046
918.272	13122
918.384	13129
918.495	12970
918.606	12928
918.717	12795
918.828	12916
918.939	12844
919.05	12745
919.161	12867
919.272	12544
919.383	12711
919.494	12954
919.604	12973
919.715	12863
919.826	12677
919.936	12734
920.047	12848
920.157	12798
920.267	13065
920.378	12787
920.488	12719
920.598	13065
920.708	13160
920.818	12970
920.928	13008
921.038	13091
921.148	13114
921.258	12829
921.368	12700
921.477	12597
921.587	12563
921.697	12388
921.806	12574
921.916	12372
922.025	12292
922.134	12228
922.244	12224
922.353	12300
922.462	12155
922.571	12102
922.68	11885
922.789	11885
922.898	11912
923.007	11889
923.116	11988
923.224	11836
923.333	11859
923.442	11745
923.55	11779
923.659	11771
923.767	11828
923.876	11767
923.984	11676
924.092	11649
924.201	11684
924.309	11619
924.417	11661
924.525	11668
924.633	11688
924.741	12407
924.849	11448
924.956	11554
925.064	11410
925.172	11330
925.279	11334
925.387	11337
925.494	11425
925.602	11573
925.709	11539
925.816	11326
925.924	11364
926.031	11516
926.138	11341
926.245	11322
926.352	11368
926.459	11490
926.566	11455
926.673	11250
926.779	11181
926.886	11166
926.993	11083
927.099	10949
927.206	11025
927.312	10972
927.419	11067
927.525	10965
927.631	11022
927.737	10953
927.843	10911
927.95	10835
928.056	10835
928.162	10847
928.267	10927
928.373	11417
928.479	11010
928.585	10672
928.69	10820
928.796	10889
928.901	10702
929.007	10607
929.112	10725
929.218	10656
929.323	10596
929.428	10641
929.533	10698
929.638	10580
929.743	10664
929.848	10603
929.953	10599
930.058	10512
930.163	10360
930.267	10386
930.372	10478
930.477	10379
930.581	10451
930.685	10417
930.79	10261
930.894	10265
930.998	10211
931.103	10314
931.207	9949
931.311	9934
931.415	9854
931.519	9759
931.623	9671
