Data from test_V78500241_857.txt Node
Date: Fri Mar 25 14:39:41 CST 2022
User: usil
Spectrometer: V785-0024
Trigger mode: 0
Integration Time (sec): 4.000000E-1
Scans to average: 1
Nonlinearity correction enabled: false
Boxcar width: 0
Storing dark spectrum: false
XAxis mode: Wavelengths
Number of Pixels in Spectrum: 1024
>>>>>Begin Spectral Data<<<<<
801.071	25955
801.214	25769
801.356	25350
801.499	25369
801.641	25122
801.783	25148
801.926	25141
802.068	24989
802.211	24954
802.353	24886
802.496	24795
802.638	24700
802.78	24532
802.923	24639
803.065	24452
803.208	24532
803.35	24551
803.492	24654
803.635	24821
803.777	24597
803.919	24658
804.061	24844
804.204	24757
804.346	24604
804.488	24475
804.63	24650
804.773	24509
804.915	24707
805.057	24852
805.199	24730
805.341	24852
805.483	24951
805.626	24920
805.768	24730
805.91	24932
806.052	24958
806.194	25012
806.336	25301
806.478	25365
806.62	25247
806.762	25445
806.904	25830
807.046	26145
807.188	26256
807.33	26499
807.472	26838
807.614	27081
807.756	27496
807.898	27903
808.04	28561
808.182	29558
808.324	30829
808.465	32183
808.607	33930
808.749	35239
808.891	36064
809.033	36159
809.174	35273
809.316	33793
809.458	32317
809.6	30722
809.741	29474
809.883	28344
810.025	27789
810.166	27272
810.308	26975
810.45	26625
810.591	26362
810.733	25951
810.875	25757
811.016	25559
811.158	25460
811.299	25533
811.441	25434
811.582	25400
811.724	25217
811.865	25118
812.007	25126
812.148	25046
812.29	25129
812.431	25221
812.573	25304
812.714	25388
812.855	25392
812.997	25552
813.138	25734
813.279	25616
813.421	25301
813.562	25278
813.703	25190
813.845	24958
813.986	24844
814.127	24403
814.268	24376
814.41	24483
814.551	24361
814.692	24422
814.833	24220
814.974	24232
815.115	24205
815.256	23988
815.397	24117
815.539	24079
815.68	24072
815.821	23984
815.962	23977
816.103	24011
816.244	23752
816.385	23608
816.526	23756
816.666	23486
816.807	23429
816.948	23387
817.089	23349
817.23	23326
817.371	23288
817.512	23341
817.653	23250
817.793	23288
817.934	23277
818.075	23379
818.216	23242
818.356	23079
818.497	23090
818.638	22976
818.778	22965
818.919	23029
819.06	22965
819.2	23105
819.341	23140
819.481	23174
819.622	23269
819.762	23459
819.903	23444
820.043	23162
820.184	23208
820.324	23254
820.465	23193
820.605	23151
820.746	23254
820.886	23033
821.026	23151
821.167	23064
821.307	23185
821.447	23071
821.588	23029
821.728	22877
821.868	22630
822.008	22561
822.149	22405
822.289	22443
822.429	22284
822.569	22200
822.709	22204
822.849	22021
822.99	21979
823.13	21797
823.27	21987
823.41	21759
823.55	21663
823.69	21717
823.83	21736
823.97	21679
824.11	21534
824.25	21435
824.389	21515
824.529	21614
824.669	21515
824.809	21561
824.949	21534
825.089	21553
825.228	21618
825.368	21412
825.508	21226
825.648	21344
825.787	21462
825.927	21466
826.067	21279
826.206	21188
826.346	21222
826.485	21264
826.625	21192
826.765	21348
826.904	21355
827.044	21051
827.183	21089
827.323	20971
827.462	20994
827.601	20929
827.741	21009
827.88	20902
828.02	20670
828.159	20880
828.298	20830
828.437	20933
828.577	20861
828.716	20952
828.855	20891
828.994	20697
829.134	20617
829.273	20617
829.412	20434
829.551	20568
829.69	20621
829.829	20602
829.968	20754
830.107	20602
830.246	20636
830.385	20457
830.524	20492
830.663	20446
830.802	20313
830.941	20275
831.08	20195
831.219	20305
831.357	20351
831.496	20381
831.635	20206
831.774	20069
831.913	20107
832.051	19909
832.19	20001
832.329	20062
832.467	19917
832.606	19925
832.744	19917
832.883	19833
833.022	19989
833.16	20168
833.299	20161
833.437	20206
833.576	20233
833.714	20275
833.852	20556
833.991	20484
834.129	20594
834.267	20484
834.406	20450
834.544	20530
834.682	20408
834.821	20252
834.959	20396
835.097	20164
835.235	20214
835.373	20062
835.511	20119
835.65	19826
835.788	19890
835.926	19826
836.064	19616
836.202	19742
836.34	19765
836.478	19932
836.615	19769
836.753	19734
836.891	19883
837.029	19814
837.167	19738
837.305	19742
837.443	19639
837.58	19495
837.718	19616
837.856	19571
837.993	19510
838.131	19613
838.269	19441
838.406	19502
838.544	19331
838.681	19354
838.819	19236
838.956	19084
839.094	19061
839.231	19050
839.369	19091
839.506	19369
839.643	19266
839.781	18973
839.918	19004
840.055	19057
840.193	19046
840.33	18905
840.467	18928
840.604	19099
840.742	19278
840.879	18837
841.016	18920
841.153	18875
841.29	19141
841.427	19046
841.564	18966
841.701	19114
841.838	19000
841.975	18901
842.112	19004
842.249	18875
842.385	18764
842.522	18951
842.659	18867
842.796	18837
842.933	18806
843.069	18829
843.206	18901
843.343	18730
843.479	18806
843.616	18787
843.752	18722
843.889	18661
844.025	18757
844.162	18696
844.298	18859
844.435	18859
844.571	18981
844.708	19118
844.844	19354
844.98	19460
845.117	19757
845.253	20096
845.389	20883
845.525	22451
845.661	25012
845.798	28048
845.934	30787
846.07	31887
846.206	31388
846.342	29307
846.478	26294
846.614	23242
846.75	21272
846.886	20088
847.022	19613
847.158	18970
847.294	18829
847.429	18627
847.565	18395
847.701	18551
847.837	18102
847.972	18003
848.108	17950
848.244	18011
848.379	17889
848.515	17824
848.65	17630
848.786	17771
848.921	17512
849.057	17821
849.192	17684
849.328	17729
849.463	17623
849.598	17653
849.734	17592
849.869	17592
850.004	17372
850.14	17414
850.275	17490
850.41	17315
850.545	17383
850.68	17364
850.815	17493
850.95	17368
851.085	17573
851.22	17535
851.355	17463
851.49	17356
851.625	17417
851.76	17292
851.895	17307
852.03	17296
852.165	17353
852.299	17421
852.434	17417
852.569	17414
852.703	17402
852.838	17459
852.973	17581
853.107	17638
853.242	17250
853.376	17269
853.511	17227
853.645	17326
853.78	17467
853.914	17311
854.048	17368
854.183	17383
854.317	17471
854.451	17532
854.585	17387
854.72	17528
854.854	17406
854.988	17284
855.122	17379
855.256	17379
855.39	17372
855.524	17356
855.658	17231
855.792	17296
855.926	17433
856.06	17334
856.194	17410
856.327	17349
856.461	17208
856.595	17162
856.729	17200
856.862	17239
856.996	17246
857.13	17330
857.263	17280
857.397	17345
857.53	17200
857.664	17200
857.797	17299
857.931	17387
858.064	17086
858.197	17387
858.331	17220
858.464	17140
858.597	17094
858.731	17064
858.864	17124
858.997	17060
859.13	17075
859.263	17204
859.396	17265
859.529	17083
859.662	17208
859.795	17079
859.928	17121
860.061	17303
860.194	17292
860.327	17166
860.46	17147
860.592	17303
860.725	17235
860.858	17174
860.99	17132
861.123	17029
861.256	17033
861.388	17102
861.521	17703
861.653	17010
861.786	16923
861.918	17075
862.05	17064
862.183	17147
862.315	17098
862.447	17204
862.58	17041
862.712	16934
862.844	16805
862.976	16976
863.108	16942
863.24	17261
863.372	16706
863.504	16771
863.636	16869
863.768	16831
863.9	16866
864.032	16736
864.164	16713
864.296	16820
864.428	16938
864.559	16961
864.691	16923
864.823	16930
864.954	16782
865.086	16843
865.217	16778
865.349	16626
865.48	16828
865.612	16786
865.743	16881
865.875	16767
866.006	16790
866.137	16702
866.269	16733
866.4	16797
866.531	16839
866.662	16717
866.793	16786
866.924	16698
867.055	16786
867.186	16744
867.317	16778
867.448	16656
867.579	16694
867.71	16561
867.841	16713
867.972	16698
868.103	16710
868.233	16790
868.364	16713
868.495	16809
868.625	16999
868.756	17041
868.886	16949
869.017	16949
869.147	17140
869.278	17151
869.408	17052
869.539	17003
869.669	17155
869.799	17098
869.929	17067
870.06	17136
870.19	17273
870.32	17261
870.45	17307
870.58	17478
870.71	17471
870.84	17634
870.97	17459
871.1	17414
871.23	17642
871.36	17524
871.489	17512
871.619	17535
871.749	17726
871.879	17714
872.008	17760
872.138	17577
872.267	17623
872.397	17653
872.526	17478
872.656	17509
872.785	17577
872.915	17684
873.044	17748
873.173	17684
873.303	17691
873.432	17836
873.561	17824
873.69	17813
873.819	17722
873.948	17866
874.077	17779
874.206	17824
874.335	17904
874.464	18136
874.593	18045
874.722	18038
874.851	18330
874.979	18239
875.108	18254
875.237	18148
875.365	18144
875.494	18133
875.623	18429
875.751	18235
875.88	18483
876.008	18513
876.136	18528
876.265	18760
876.393	18913
876.521	19004
876.65	18916
876.778	18882
876.906	18734
877.034	18852
877.162	18920
877.29	18859
877.418	19050
877.546	19061
877.674	19141
877.802	19194
877.93	19251
878.058	19244
878.185	19365
878.313	19457
878.441	19674
878.568	19818
878.696	20065
878.824	20484
878.951	21165
879.079	21895
879.206	22965
879.333	23882
879.461	24665
879.588	25076
879.715	25190
879.842	24901
879.97	23798
880.097	22535
880.224	21774
880.351	21332
880.478	20956
880.605	20648
880.732	20419
880.859	20590
880.986	20176
881.112	20240
881.239	20100
881.366	19845
881.493	19845
881.619	19822
881.746	19887
881.872	19849
881.999	19826
882.125	19719
882.252	19959
882.378	19902
882.505	20126
882.631	19750
882.757	19769
882.883	19731
883.01	19693
883.136	19757
883.262	19476
883.388	19571
883.514	19742
883.64	19632
883.766	19639
883.892	19559
884.018	19468
884.143	19689
884.269	19803
884.395	19537
884.52	19426
884.646	19362
884.772	19384
884.897	19274
885.023	19384
885.148	19571
885.274	19457
885.399	19365
885.524	19251
885.65	19236
885.775	19190
885.9	19133
886.025	19145
886.15	19160
886.275	18935
886.4	18791
886.525	18764
886.65	18726
886.775	18589
886.9	18669
887.025	18791
887.149	18525
887.274	18254
887.399	18235
887.523	18136
887.648	18087
887.773	18072
887.897	18140
888.021	18106
888.146	18102
888.27	18117
888.395	18076
888.519	17939
888.643	18102
888.767	18064
888.891	17859
889.015	17752
889.139	17718
889.263	17566
889.387	17737
889.511	17878
889.635	17870
889.759	17661
889.883	17619
890.006	17668
890.13	17638
890.254	17554
890.377	17505
890.501	17421
890.624	17273
890.748	17391
890.871	17311
890.995	17071
891.118	17071
891.241	17117
891.364	17113
891.488	17181
891.611	17166
891.734	17014
891.857	17121
891.98	16991
892.103	17064
892.226	17033
892.349	16923
892.471	16801
892.594	16873
892.717	16942
892.839	16904
892.962	16843
893.085	17003
893.207	16877
893.33	16755
893.452	16736
893.575	16862
893.697	16858
893.819	16976
893.941	16934
894.064	16953
894.186	16786
894.308	16653
894.43	16778
894.552	16862
894.674	16923
894.796	16649
894.918	16729
895.04	16736
895.161	16850
895.283	16782
895.405	16759
895.526	16721
895.648	16706
895.769	16854
895.891	16824
896.012	16915
896.134	16786
896.255	16869
896.376	16641
896.498	16782
896.619	16790
896.74	16748
896.861	16809
896.982	16991
897.103	17303
897.224	17006
897.345	17037
897.466	16934
897.587	17003
897.708	17052
897.828	17109
897.949	16885
898.07	16847
898.19	16839
898.311	17155
898.431	16999
898.552	17090
898.672	17105
898.792	17033
898.913	17006
899.033	16972
899.153	16892
899.273	16694
899.393	16797
899.513	16866
899.633	16809
899.753	16809
899.873	16767
899.993	16900
900.113	16774
900.232	16873
900.352	16702
900.472	16774
900.591	16706
900.711	16721
900.83	16653
900.95	16713
901.069	16797
901.189	16630
901.308	16367
901.427	16363
901.546	16303
901.665	16356
901.784	16367
901.904	16128
902.023	16071
902.141	15930
902.26	15819
902.379	15903
902.498	15778
902.617	15709
902.735	15823
902.854	15724
902.973	15762
903.091	15367
903.21	15481
903.328	15515
903.446	15359
903.565	15272
903.683	15329
903.801	15173
903.919	15161
904.038	15272
904.156	15058
904.274	15070
904.392	14963
904.51	15051
904.627	14994
904.745	15157
904.863	15131
904.981	14754
905.098	14648
905.216	14610
905.334	14697
905.451	14701
905.569	14724
905.686	14697
905.803	14667
905.921	14537
906.038	14545
906.155	14488
906.272	14473
906.389	14465
906.506	14244
906.623	14301
906.74	14191
906.857	14126
906.974	14111
907.091	14313
907.208	14252
907.324	14240
907.441	14123
907.557	14005
907.674	13997
907.79	13887
907.907	13909
908.023	13970
908.139	14005
908.256	13940
908.372	13883
908.488	13849
908.604	13727
908.72	13651
908.836	13620
908.952	13693
909.068	13734
909.184	13753
909.3	13624
909.415	13715
909.531	13658
909.647	13457
909.762	13400
909.878	13343
909.993	13392
910.108	13350
910.224	13327
910.339	13392
910.454	13339
910.57	13179
910.685	13289
910.8	13312
910.915	13415
911.03	13209
911.145	13126
911.259	13008
911.374	13126
911.489	13027
911.604	12924
911.718	12859
911.833	12814
911.947	12760
912.062	12616
912.176	12730
912.291	12817
912.405	12837
912.519	13012
912.633	13061
912.748	12787
912.862	12806
912.976	12665
913.09	12551
913.204	12646
913.318	12665
913.431	12806
913.545	12658
913.659	12741
913.772	12639
913.886	12509
914	12563
914.113	12566
914.226	12616
914.34	12582
914.453	12437
914.566	12627
914.68	12490
914.793	12467
914.906	12399
915.019	12148
915.132	12186
915.245	12251
915.358	12228
915.47	12220
915.583	12273
915.696	12247
915.809	12391
915.921	12372
916.034	12205
916.146	12095
916.259	12117
916.371	12216
916.483	12251
916.595	12083
916.708	12159
916.82	12194
916.932	12133
917.044	12079
917.156	12106
917.268	11958
917.38	11988
917.491	11992
917.603	12019
917.715	12129
917.826	12087
917.938	11931
918.049	11741
918.161	11897
918.272	12095
918.384	12098
918.495	11992
918.606	11843
918.717	11688
918.828	11901
918.939	11817
919.05	11672
919.161	11729
919.272	11577
919.383	11638
919.494	11863
919.604	12110
919.715	11836
919.826	11771
919.936	11737
920.047	11904
920.157	11889
920.267	11984
920.378	11889
920.488	11748
920.598	11969
920.708	12083
920.818	11969
920.928	11927
921.038	12076
921.148	12144
921.258	11798
921.368	11691
921.477	11627
921.587	11596
921.697	11497
921.806	11665
921.916	11448
922.025	11356
922.134	11265
922.244	11166
922.353	11288
922.462	11185
922.571	11109
922.68	10881
922.789	10919
922.898	10900
923.007	10828
923.116	10908
923.224	10980
923.333	10904
923.442	10809
923.55	10831
923.659	10820
923.767	10881
923.876	10790
923.984	10771
924.092	10702
924.201	10774
924.309	10805
924.417	10687
924.525	10698
924.633	10717
924.741	11642
924.849	10504
924.956	10618
925.064	10512
925.172	10462
925.279	10516
925.387	10504
925.494	10440
925.602	10672
925.709	10558
925.816	10481
925.924	10489
926.031	10577
926.138	10462
926.245	10504
926.352	10348
926.459	10527
926.566	10550
926.673	10447
926.779	10322
926.886	10322
926.993	10230
927.099	10200
927.206	10131
927.312	10082
927.419	10249
927.525	10166
927.631	10200
927.737	10120
927.843	10044
927.95	9911
928.056	9979
928.162	10032
928.267	10017
928.373	10668
928.479	10143
928.585	9899
928.69	10044
928.796	10044
928.901	9915
929.007	9759
929.112	9949
929.218	9861
929.323	9781
929.428	9819
929.533	10059
929.638	9717
929.743	9789
929.848	9892
929.953	9804
930.058	9660
930.163	9553
930.267	9549
930.372	9701
930.477	9587
930.581	9766
930.685	9660
930.79	9496
930.894	9526
930.998	9466
931.103	9644
931.207	9260
931.311	9253
931.415	9097
931.519	8990
931.623	8876
