Data from test_V78500241_2955.txt Node
Date: Fri Mar 25 14:54:17 CST 2022
User: usil
Spectrometer: V785-0024
Trigger mode: 0
Integration Time (sec): 4.000000E-1
Scans to average: 1
Nonlinearity correction enabled: false
Boxcar width: 0
Storing dark spectrum: false
XAxis mode: Wavelengths
Number of Pixels in Spectrum: 1024
>>>>>Begin Spectral Data<<<<<
801.071	22055
801.214	21987
801.356	21743
801.499	21557
801.641	21526
801.783	21428
801.926	21454
802.068	21348
802.211	21241
802.353	21241
802.496	21036
802.638	21123
802.78	20967
802.923	20906
803.065	20720
803.208	20746
803.35	20864
803.492	20872
803.635	20929
803.777	20788
803.919	20918
804.061	21013
804.204	20868
804.346	20743
804.488	20826
804.63	20872
804.773	20678
804.915	20663
805.057	20750
805.199	20640
805.341	20651
805.483	20792
805.626	20651
805.768	20716
805.91	20712
806.052	20838
806.194	20644
806.336	20857
806.478	20682
806.62	20731
806.762	20765
806.904	20914
807.046	21096
807.188	21001
807.33	20982
807.472	21093
807.614	20971
807.756	20971
807.898	20830
808.04	20762
808.182	20819
808.324	20724
808.465	20826
808.607	20982
808.749	20933
808.891	21173
809.033	21291
809.174	21211
809.316	21028
809.458	21233
809.6	21028
809.741	21150
809.883	21150
810.025	21176
810.166	21268
810.308	21180
810.45	21260
810.591	21150
810.733	20845
810.875	20933
811.016	20750
811.158	20727
811.299	20872
811.441	20960
811.582	20902
811.724	20918
811.865	20887
812.007	20807
812.148	20804
812.29	20804
812.431	21020
812.573	21264
812.714	21226
812.855	21359
812.997	21477
813.138	21568
813.279	21580
813.421	21317
813.562	21214
813.703	21043
813.845	21020
813.986	20796
814.127	20632
814.268	20488
814.41	20454
814.551	20476
814.692	20499
814.833	20324
814.974	20370
815.115	20362
815.256	20218
815.397	20294
815.539	20221
815.68	20145
815.821	20187
815.962	20092
816.103	20180
816.244	19955
816.385	19799
816.526	19677
816.666	19693
816.807	19567
816.948	19616
817.089	19639
817.23	19624
817.371	19616
817.512	19407
817.653	19544
817.793	19449
817.934	19476
818.075	19529
818.216	19518
818.356	19491
818.497	19297
818.638	19118
818.778	19114
818.919	19156
819.06	19301
819.2	19343
819.341	19358
819.481	19365
819.622	19613
819.762	19677
819.903	19567
820.043	19632
820.184	19483
820.324	19582
820.465	19635
820.605	19472
820.746	19377
820.886	19441
821.026	19495
821.167	19441
821.307	19529
821.447	19464
821.588	19274
821.728	19202
821.868	19042
822.008	18894
822.149	18795
822.289	18890
822.429	18582
822.569	18597
822.709	18627
822.849	18369
822.99	18319
823.13	18422
823.27	18414
823.41	18258
823.55	18197
823.69	18205
823.83	18190
823.97	18079
824.11	17958
824.25	18003
824.389	18041
824.529	18034
824.669	17912
824.809	18095
824.949	18102
825.089	18102
825.228	17992
825.368	17790
825.508	17878
825.648	17828
825.787	17805
825.927	17805
826.067	17691
826.206	17741
826.346	17676
826.485	17767
826.625	17691
826.765	17935
826.904	17771
827.044	17467
827.183	17581
827.323	17474
827.462	17535
827.601	17478
827.741	17383
827.88	17493
828.02	17212
828.159	17402
828.298	17448
828.437	17608
828.577	17349
828.716	17596
828.855	17364
828.994	17212
829.134	17296
829.273	17200
829.412	17181
829.551	17155
829.69	17189
829.829	17231
829.968	17315
830.107	17212
830.246	17208
830.385	17151
830.524	17006
830.663	16999
830.802	16904
830.941	16805
831.08	16782
831.219	16839
831.357	16885
831.496	16991
831.635	16736
831.774	16698
831.913	16634
832.051	16550
832.19	16675
832.329	16622
832.467	16546
832.606	16394
832.744	16531
832.883	16459
833.022	16500
833.16	16527
833.299	16405
833.437	16432
833.576	16596
833.714	16500
833.852	16618
833.991	16500
834.129	16550
834.267	16588
834.406	16527
834.544	16637
834.682	16500
834.821	16493
834.959	16694
835.097	16390
835.235	16698
835.373	16527
835.511	16554
835.65	16466
835.788	16333
835.926	16417
836.064	16360
836.202	16261
836.34	16440
836.478	16527
836.615	16409
836.753	16535
836.891	16516
837.029	16466
837.167	16344
837.305	16356
837.443	16318
837.58	16287
837.718	16371
837.856	16261
837.993	16261
838.131	16268
838.269	16261
838.406	16276
838.544	16207
838.681	16059
838.819	16032
838.956	15865
839.094	15835
839.231	15918
839.369	16032
839.506	16249
839.643	15998
839.781	15899
839.918	15819
840.055	15827
840.193	15884
840.33	15808
840.467	15766
840.604	15911
840.742	16112
840.879	15808
841.016	15694
841.153	15743
841.29	15987
841.427	15812
841.564	15838
841.701	15781
841.838	15751
841.975	15770
842.112	15720
842.249	15660
842.385	15568
842.522	15797
842.659	15709
842.796	15587
842.933	15663
843.069	15637
843.206	15591
843.343	15717
843.479	15595
843.616	15641
843.752	15412
843.889	15500
844.025	15549
844.162	15378
844.298	15568
844.435	15416
844.571	15382
844.708	15515
844.844	15534
844.98	15568
845.117	15507
845.253	15321
845.389	15317
845.525	15370
845.661	15279
845.798	15260
845.934	15222
846.07	15154
846.206	15340
846.342	15283
846.478	15150
846.614	14956
846.75	15005
846.886	14902
847.022	15039
847.158	14967
847.294	15097
847.429	14948
847.565	14895
847.701	15207
847.837	14701
847.972	14594
848.108	14823
848.244	14724
848.379	14621
848.515	14689
848.65	14606
848.786	14640
848.921	14587
849.057	14708
849.192	14663
849.328	14590
849.463	14579
849.598	14541
849.734	14514
849.869	14450
850.004	14358
850.14	14446
850.275	14278
850.41	14229
850.545	14298
850.68	14412
850.815	14336
850.95	14252
851.085	14495
851.22	14404
851.355	14431
851.49	14271
851.625	14332
851.76	14256
851.895	14237
852.03	14130
852.165	14328
852.299	14328
852.434	14389
852.569	14366
852.703	14351
852.838	14438
852.973	14552
853.107	14480
853.242	14343
853.376	14164
853.511	14092
853.645	14191
853.78	14355
853.914	14275
854.048	14202
854.183	14157
854.317	14180
854.451	14434
854.585	14115
854.72	14202
854.854	14180
854.988	14145
855.122	14199
855.256	14043
855.39	14142
855.524	14298
855.658	14259
855.792	14191
855.926	14278
856.06	14313
856.194	14336
856.327	14183
856.461	14237
856.595	14176
856.729	14103
856.862	14202
856.996	14195
857.13	14206
857.263	14343
857.397	14336
857.53	14259
857.664	14183
857.797	14370
857.931	14290
858.064	14161
858.197	14244
858.331	14301
858.464	14126
858.597	14103
858.731	14153
858.864	14180
858.997	14096
859.13	14282
859.263	14157
859.396	14336
859.529	14218
859.662	14172
859.795	14119
859.928	14233
860.061	14370
860.194	14355
860.327	14214
860.46	14221
860.592	14214
860.725	14355
860.858	14305
860.99	14176
861.123	14111
861.256	14157
861.388	14252
861.521	14735
861.653	14069
861.786	14001
861.918	14065
862.05	14069
862.183	14103
862.315	14043
862.447	14214
862.58	14142
862.712	13947
862.844	13947
862.976	13993
863.108	13993
863.24	14374
863.372	13928
863.504	13989
863.636	13997
863.768	13959
863.9	13959
864.032	13887
864.164	13906
864.296	14012
864.428	14107
864.559	14039
864.691	14016
864.823	14073
864.954	14005
865.086	14081
865.217	13982
865.349	13898
865.48	14024
865.612	13997
865.743	14054
865.875	13989
866.006	13940
866.137	14005
866.269	13944
866.4	14100
866.531	14035
866.662	13932
866.793	13871
866.924	13902
867.055	14008
867.186	14062
867.317	13902
867.448	13822
867.579	13898
867.71	13947
867.841	13864
867.972	13997
868.103	13871
868.233	13940
868.364	14065
868.495	14039
868.625	14180
868.756	14366
868.886	14027
869.017	14126
869.147	14317
869.278	14309
869.408	14176
869.539	14221
869.669	14278
869.799	14263
869.929	14332
870.06	14286
870.19	14575
870.32	14518
870.45	14556
870.58	14522
870.71	14724
870.84	14769
870.97	14621
871.1	14587
871.23	14815
871.36	14838
871.489	14781
871.619	14876
871.749	14773
871.879	14921
872.008	14933
872.138	14902
872.267	14807
872.397	14724
872.526	14651
872.656	14655
872.785	14629
872.915	14845
873.044	14929
873.173	14804
873.303	14937
873.432	14891
873.561	14906
873.69	14948
873.819	14952
873.948	14834
874.077	14864
874.206	14762
874.335	14853
874.464	14982
874.593	15157
874.722	15104
874.851	15233
874.979	15237
875.108	15184
875.237	15062
875.365	15157
875.494	15176
875.623	15161
875.751	15089
875.88	15211
876.008	15424
876.136	15408
876.265	15488
876.393	15797
876.521	15717
876.65	15701
876.778	15599
876.906	15572
877.034	15648
877.162	15561
877.29	15515
877.418	15633
877.546	15591
877.674	15557
877.802	15732
877.93	15580
878.058	15542
878.185	15511
878.313	15553
878.441	15564
878.568	15469
878.696	15523
878.824	15663
878.951	15679
879.079	15732
879.206	15930
879.333	15755
879.461	15629
879.588	15781
879.715	15785
879.842	15934
879.97	15656
880.097	15317
880.224	15447
880.351	15462
880.478	15507
880.605	15351
880.732	15462
880.859	15644
880.986	15393
881.112	15435
881.239	15397
881.366	15264
881.493	15146
881.619	15028
881.746	15077
881.872	15157
881.999	15051
882.125	15116
882.252	15165
882.378	15089
882.505	15207
882.631	15036
882.757	14967
882.883	14868
883.01	14918
883.136	14883
883.262	14781
883.388	14826
883.514	14914
883.64	14982
883.766	14876
883.892	14632
884.018	14731
884.143	14925
884.269	15009
884.395	14716
884.52	14564
884.646	14644
884.772	14659
884.897	14571
885.023	14625
885.148	14845
885.274	14796
885.399	14735
885.524	14663
885.65	14678
885.775	14716
885.9	14610
886.025	14686
886.15	14689
886.275	14636
886.4	14495
886.525	14495
886.65	14533
886.775	14648
886.9	14777
887.025	14887
887.149	14613
887.274	14488
887.399	14480
887.523	14412
887.648	14320
887.773	14385
887.897	14522
888.021	14476
888.146	14431
888.27	14499
888.395	14583
888.519	14541
888.643	14473
888.767	14419
888.891	14404
889.015	14332
889.139	14374
889.263	14366
889.387	14362
889.511	14511
889.635	14423
889.759	14294
889.883	14240
890.006	14328
890.13	14465
890.254	14214
890.377	14343
890.501	14161
890.624	14062
890.748	14240
890.871	14187
890.995	13932
891.118	13887
891.241	14024
891.364	14001
891.488	14161
891.611	14062
891.734	13947
891.857	14092
891.98	14077
892.103	14012
892.226	14020
892.349	13982
892.471	13890
892.594	14016
892.717	13928
892.839	13913
892.962	14092
893.085	14134
893.207	14039
893.33	13887
893.452	13875
893.575	14107
893.697	13959
893.819	14115
893.941	14229
894.064	14225
894.186	14012
894.308	14012
894.43	14233
894.552	14278
894.674	14168
894.796	14065
894.918	14088
895.04	14035
895.161	14183
895.283	14180
895.405	14081
895.526	14103
895.648	14221
895.769	14164
895.891	14248
896.012	14240
896.134	14210
896.255	14278
896.376	14164
896.498	14103
896.619	14275
896.74	14206
896.861	14221
896.982	14655
897.103	14705
897.224	14461
897.345	14503
897.466	14396
897.587	14503
897.708	14613
897.828	14465
897.949	14423
898.07	14210
898.19	14442
898.311	14613
898.431	14461
898.552	14476
898.672	14613
898.792	14598
898.913	14613
899.033	14522
899.153	14438
899.273	14332
899.393	14446
899.513	14423
899.633	14518
899.753	14389
899.873	14442
899.993	14454
900.113	14419
900.232	14393
900.352	14328
900.472	14317
900.591	14199
900.711	14317
900.83	14206
900.95	14374
901.069	14423
901.189	14275
901.308	14031
901.427	13970
901.546	13993
901.665	14008
901.784	13997
901.904	13928
902.023	13765
902.141	13540
902.26	13502
902.379	13559
902.498	13434
902.617	13506
902.735	13510
902.854	13529
902.973	13445
903.091	13282
903.21	13312
903.328	13285
903.446	13118
903.565	13069
903.683	13152
903.801	13000
903.919	13107
904.038	13046
904.156	13012
904.274	12935
904.392	12875
904.51	12920
904.627	12943
904.745	12943
904.863	12981
904.981	12791
905.098	12547
905.216	12650
905.334	12684
905.451	12597
905.569	12540
905.686	12639
905.803	12642
905.921	12448
906.038	12502
906.155	12494
906.272	12273
906.389	12346
906.506	12136
906.623	12152
906.74	12148
906.857	12034
906.974	12064
907.091	12186
907.208	12315
907.324	12228
907.441	12076
907.557	11958
907.674	11973
907.79	11958
907.907	11958
908.023	11889
908.139	11999
908.256	11935
908.372	11798
908.488	11912
908.604	11748
908.72	11676
908.836	11680
908.952	11634
909.068	11703
909.184	11771
909.3	11794
909.415	11771
909.531	11729
909.647	11478
909.762	11535
909.878	11467
909.993	11516
910.108	11497
910.224	11360
910.339	11402
910.454	11505
910.57	11383
910.685	11307
910.8	11463
910.915	11497
911.03	11410
911.145	11140
911.259	11151
911.374	11208
911.489	11079
911.604	11124
911.718	10911
911.833	10919
911.947	10892
912.062	10774
912.176	10980
912.291	10961
912.405	11018
912.519	11201
912.633	11159
912.748	11060
912.862	10927
912.976	10812
913.09	10759
913.204	10820
913.318	10938
913.431	10850
913.545	10873
913.659	11010
913.772	10904
913.886	10793
914	10854
914.113	10843
914.226	10816
914.34	10877
914.453	10615
914.566	10889
914.68	10748
914.793	10603
914.906	10508
915.019	10413
915.132	10371
915.245	10466
915.358	10424
915.47	10535
915.583	10565
915.696	10481
915.809	10702
915.921	10618
916.034	10474
916.146	10390
916.259	10421
916.371	10500
916.483	10451
916.595	10447
916.708	10428
916.82	10443
916.932	10470
917.044	10367
917.156	10371
917.268	10261
917.38	10325
917.491	10257
917.603	10398
917.715	10421
917.826	10402
917.938	10253
918.049	10238
918.161	10333
918.272	10493
918.384	10447
918.495	10405
918.606	10173
918.717	10097
918.828	10257
918.939	10211
919.05	10112
919.161	10227
919.272	9941
919.383	10013
919.494	10185
919.604	10413
919.715	10223
919.826	10093
919.936	10177
920.047	10188
920.157	10230
920.267	10402
920.378	10188
920.488	10215
920.598	10363
920.708	10580
920.818	10360
920.928	10398
921.038	10603
921.148	10546
921.258	10192
921.368	10169
921.477	10002
921.587	10082
921.697	9956
921.806	10139
921.916	9869
922.025	9743
922.134	9823
922.244	9660
922.353	9812
922.462	9656
922.571	9637
922.68	9435
922.789	9363
922.898	9420
923.007	9431
923.116	9504
923.224	9462
923.333	9454
923.442	9355
923.55	9313
923.659	9340
923.767	9416
923.876	9291
923.984	9435
924.092	9294
924.201	9321
924.309	9294
924.417	9355
924.525	9310
924.633	9291
924.741	10211
924.849	9074
924.956	9367
925.064	9036
925.172	8963
925.279	9077
925.387	9131
925.494	9108
925.602	9233
925.709	9218
925.816	9062
925.924	9081
926.031	9154
926.138	9138
926.245	9176
926.352	9036
926.459	9253
926.566	9249
926.673	9070
926.779	8925
926.886	8979
926.993	8842
927.099	8868
927.206	8708
927.312	8804
927.419	8849
927.525	8902
927.631	8918
927.737	8678
927.843	8705
927.95	8629
928.056	8743
928.162	8727
928.267	8766
928.373	9313
928.479	8815
928.585	8636
928.69	8766
928.796	8773
928.901	8621
929.007	8568
929.112	8682
929.218	8651
929.323	8575
929.428	8541
929.533	8705
929.638	8492
929.743	8507
929.848	8587
929.953	8511
930.058	8438
930.163	8317
930.267	8370
930.372	8427
930.477	8305
930.581	8549
930.685	8415
930.79	8263
930.894	8301
930.998	8240
931.103	8366
931.207	8046
931.311	8001
931.415	7902
931.519	7742
931.623	7757
