Data from test_V78500241_1497.txt Node
Date: Fri Mar 25 14:44:08 CST 2022
User: usil
Spectrometer: V785-0024
Trigger mode: 0
Integration Time (sec): 4.000000E-1
Scans to average: 1
Nonlinearity correction enabled: false
Boxcar width: 0
Storing dark spectrum: false
XAxis mode: Wavelengths
Number of Pixels in Spectrum: 1024
>>>>>Begin Spectral Data<<<<<
801.071	22413
801.214	22508
801.356	22021
801.499	22048
801.641	21895
801.783	21774
801.926	21778
802.068	21526
802.211	21610
802.353	21644
802.496	21340
802.638	21252
802.78	21336
802.923	21325
803.065	21085
803.208	21032
803.35	20979
803.492	21070
803.635	21260
803.777	21199
803.919	21237
804.061	21507
804.204	21283
804.346	21047
804.488	21020
804.63	21135
804.773	20933
804.915	21100
805.057	21100
805.199	21138
805.341	21104
805.483	21074
805.626	20948
805.768	21005
805.91	21108
806.052	21005
806.194	20975
806.336	21146
806.478	21062
806.62	21024
806.762	21131
806.904	21169
807.046	21454
807.188	21435
807.33	21454
807.472	21473
807.614	21340
807.756	21389
807.898	21184
808.04	21203
808.182	21260
808.324	21199
808.465	21340
808.607	21439
808.749	21629
808.891	21736
809.033	21831
809.174	21705
809.316	21603
809.458	21534
809.6	21504
809.741	21534
809.883	21568
810.025	21644
810.166	21667
810.308	21538
810.45	21549
810.591	21454
810.733	21332
810.875	21222
811.016	21173
811.158	21176
811.299	21264
811.441	21393
811.582	21325
811.724	21249
811.865	21135
812.007	21184
812.148	21211
812.29	21249
812.431	21367
812.573	21557
812.714	21519
812.855	21629
812.997	21739
813.138	21915
813.279	21816
813.421	21732
813.562	21637
813.703	21515
813.845	21374
813.986	21211
814.127	20925
814.268	20861
814.41	20902
814.551	20727
814.692	20754
814.833	20800
814.974	20712
815.115	20746
815.256	20575
815.397	20598
815.539	20648
815.68	20495
815.821	20374
815.962	20579
816.103	20526
816.244	20393
816.385	20259
816.526	20240
816.666	20111
816.807	20012
816.948	19902
817.089	20005
817.23	20031
817.371	19902
817.512	19963
817.653	19864
817.793	19982
817.934	19852
818.075	19902
818.216	19894
818.356	19822
818.497	19689
818.638	19495
818.778	19723
818.919	19647
819.06	19723
819.2	19746
819.341	19856
819.481	19788
819.622	19947
819.762	20138
819.903	19947
820.043	19944
820.184	19917
820.324	19837
820.465	19864
820.605	19932
820.746	19875
820.886	19578
821.026	19849
821.167	19849
821.307	19883
821.447	19803
821.588	19628
821.728	19514
821.868	19430
822.008	19308
822.149	19213
822.289	19251
822.429	18996
822.569	18875
822.709	19031
822.849	18734
822.99	18669
823.13	18688
823.27	18791
823.41	18741
823.55	18502
823.69	18467
823.83	18696
823.97	18502
824.11	18330
824.25	18330
824.389	18399
824.529	18460
824.669	18372
824.809	18456
824.949	18479
825.089	18414
825.228	18433
825.368	18155
825.508	18167
825.648	18178
825.787	18148
825.927	18224
826.067	18003
826.206	17965
826.346	18121
826.485	18102
826.625	18277
826.765	18232
826.904	18133
827.044	17965
827.183	17977
827.323	17790
827.462	17859
827.601	17912
827.741	17939
827.88	17958
828.02	17627
828.159	17870
828.298	17745
828.437	17882
828.577	17760
828.716	17961
828.855	17821
828.994	17589
829.134	17665
829.273	17611
829.412	17539
829.551	17391
829.69	17611
829.829	17596
829.968	17646
830.107	17570
830.246	17551
830.385	17512
830.524	17421
830.663	17273
830.802	17303
830.941	17193
831.08	17124
831.219	17307
831.357	17223
831.496	17364
831.635	17117
831.774	17064
831.913	16938
832.051	16900
832.19	17014
832.329	16972
832.467	16843
832.606	16831
832.744	16862
832.883	16885
833.022	16965
833.16	16904
833.299	16908
833.437	16862
833.576	16908
833.714	16873
833.852	16850
833.991	16934
834.129	17006
834.267	17025
834.406	17010
834.544	16980
834.682	16900
834.821	17033
834.959	17155
835.097	16896
835.235	17018
835.373	16889
835.511	16873
835.65	16767
835.788	16850
835.926	16653
836.064	16645
836.202	16698
836.34	16740
836.478	16896
836.615	16831
836.753	16908
836.891	16961
837.029	16900
837.167	16713
837.305	16801
837.443	16653
837.58	16649
837.718	16793
837.856	16691
837.993	16603
838.131	16683
838.269	16535
838.406	16561
838.544	16531
838.681	16451
838.819	16348
838.956	16116
839.094	16211
839.231	16268
839.369	16413
839.506	16691
839.643	16421
839.781	16246
839.918	16185
840.055	16192
840.193	16166
840.33	16124
840.467	16303
840.604	16303
840.742	16561
840.879	16086
841.016	16188
841.153	16116
841.29	16413
841.427	16257
841.564	16356
841.701	16105
841.838	16139
841.975	16055
842.112	16196
842.249	16006
842.385	15972
842.522	16093
842.659	15975
842.796	15911
842.933	15941
843.069	15953
843.206	15964
843.343	16051
843.479	16044
843.616	15953
843.752	15816
843.889	15762
844.025	15937
844.162	15747
844.298	15800
844.435	15743
844.571	15675
844.708	15789
844.844	15907
844.98	15934
845.117	15823
845.253	15781
845.389	15667
845.525	15785
845.661	15797
845.798	15656
845.934	15835
846.07	15793
846.206	15869
846.342	15865
846.478	15682
846.614	15523
846.75	15344
846.886	15370
847.022	15504
847.158	15424
847.294	15386
847.429	15340
847.565	15386
847.701	15610
847.837	15097
847.972	15051
848.108	15157
848.244	15192
848.379	14941
848.515	15013
848.65	14899
848.786	14899
848.921	15017
849.057	15074
849.192	15043
849.328	14975
849.463	15009
849.598	14804
849.734	14876
849.869	14823
850.004	14724
850.14	14781
850.275	14720
850.41	14545
850.545	14693
850.68	14655
850.815	14750
850.95	14701
851.085	14872
851.22	14800
851.355	14769
851.49	14625
851.625	14640
851.76	14632
851.895	14613
852.03	14587
852.165	14655
852.299	14762
852.434	14807
852.569	14667
852.703	14712
852.838	14769
852.973	14819
853.107	14823
853.242	14750
853.376	14640
853.511	14446
853.645	14507
853.78	14762
853.914	14621
854.048	14446
854.183	14552
854.317	14583
854.451	14765
854.585	14610
854.72	14549
854.854	14655
854.988	14473
855.122	14560
855.256	14469
855.39	14602
855.524	14651
855.658	14629
855.792	14522
855.926	14518
856.06	14648
856.194	14705
856.327	14571
856.461	14648
856.595	14522
856.729	14507
856.862	14579
856.996	14594
857.13	14644
857.263	14697
857.397	14727
857.53	14530
857.664	14682
857.797	14648
857.931	14769
858.064	14617
858.197	14621
858.331	14606
858.464	14507
858.597	14442
858.731	14541
858.864	14541
858.997	14518
859.13	14568
859.263	14598
859.396	14640
859.529	14492
859.662	14469
859.795	14564
859.928	14583
860.061	14678
860.194	14708
860.327	14568
860.46	14590
860.592	14632
860.725	14712
860.858	14621
860.99	14590
861.123	14423
861.256	14442
861.388	14541
861.521	15165
861.653	14408
861.786	14408
861.918	14377
862.05	14488
862.183	14507
862.315	14610
862.447	14549
862.58	14427
862.712	14320
862.844	14278
862.976	14495
863.108	14400
863.24	14819
863.372	14301
863.504	14324
863.636	14339
863.768	14286
863.9	14343
864.032	14233
864.164	14267
864.296	14374
864.428	14473
864.559	14385
864.691	14438
864.823	14362
864.954	14385
865.086	14393
865.217	14275
865.349	14271
865.48	14366
865.612	14294
865.743	14457
865.875	14374
866.006	14320
866.137	14343
866.269	14339
866.4	14358
866.531	14305
866.662	14233
866.793	14275
866.924	14278
867.055	14240
867.186	14324
867.317	14275
867.448	14313
867.579	14317
867.71	14180
867.841	14256
867.972	14336
868.103	14366
868.233	14301
868.364	14309
868.495	14374
868.625	14571
868.756	14670
868.886	14465
869.017	14564
869.147	14663
869.278	14727
869.408	14598
869.539	14613
869.669	14590
869.799	14564
869.929	14819
870.06	14678
870.19	14762
870.32	14800
870.45	14937
870.58	15024
870.71	15154
870.84	15058
870.97	15051
871.1	14910
871.23	15165
871.36	15192
871.489	15097
871.619	15116
871.749	15085
871.879	15184
872.008	15245
872.138	15180
872.267	15188
872.397	15036
872.526	14933
872.656	14960
872.785	14910
872.915	15192
873.044	15184
873.173	15256
873.303	15264
873.432	15233
873.561	15306
873.69	15252
873.819	15249
873.948	15264
874.077	15302
874.206	15192
874.335	15298
874.464	15386
874.593	15431
874.722	15393
874.851	15568
874.979	15462
875.108	15705
875.237	15496
875.365	15325
875.494	15450
875.623	15652
875.751	15618
875.88	15534
876.008	15694
876.136	15781
876.265	15987
876.393	16086
876.521	16063
876.65	16101
876.778	15918
876.906	15873
877.034	15911
877.162	15975
877.29	15876
877.418	15975
877.546	15998
877.674	15964
877.802	16017
877.93	15968
878.058	15918
878.185	15930
878.313	15930
878.441	15960
878.568	15835
878.696	15975
878.824	15998
878.951	16059
879.079	16090
879.206	16333
879.333	16158
879.461	16177
879.588	16169
879.715	16253
879.842	16306
879.97	16120
880.097	15926
880.224	15789
880.351	15922
880.478	15903
880.605	15808
880.732	15873
880.859	16154
880.986	15907
881.112	15861
881.239	15793
881.366	15595
881.493	15530
881.619	15500
881.746	15447
881.872	15557
881.999	15538
882.125	15439
882.252	15618
882.378	15580
882.505	15713
882.631	15439
882.757	15359
882.883	15488
883.01	15332
883.136	15260
883.262	15226
883.388	15150
883.514	15363
883.64	15363
883.766	15272
883.892	15131
884.018	15203
884.143	15230
884.269	15378
884.395	15093
884.52	15058
884.646	15070
884.772	15032
884.897	14876
885.023	15058
885.148	15017
885.274	15169
885.399	15093
885.524	14994
885.65	15020
885.775	14895
885.9	14990
886.025	15184
886.15	15100
886.275	14933
886.4	14956
886.525	15024
886.65	14956
886.775	14921
886.9	15161
887.025	15241
887.149	14994
887.274	14929
887.399	14811
887.523	14777
887.648	14864
887.773	14720
887.897	14902
888.021	14785
888.146	14807
888.27	14883
888.395	14880
888.519	14785
888.643	14891
888.767	14929
888.891	14785
889.015	14594
889.139	14648
889.263	14659
889.387	14735
889.511	14883
889.635	14815
889.759	14644
889.883	14670
890.006	14644
890.13	14769
890.254	14511
890.377	14598
890.501	14461
890.624	14469
890.748	14594
890.871	14446
890.995	14347
891.118	14332
891.241	14366
891.364	14389
891.488	14522
891.611	14381
891.734	14377
891.857	14469
891.98	14423
892.103	14514
892.226	14457
892.349	14355
892.471	14278
892.594	14278
892.717	14343
892.839	14309
892.962	14408
893.085	14381
893.207	14434
893.33	14191
893.452	14347
893.575	14355
893.697	14351
893.819	14522
893.941	14530
894.064	14415
894.186	14358
894.308	14362
894.43	14434
894.552	14575
894.674	14492
894.796	14328
894.918	14400
895.04	14362
895.161	14476
895.283	14412
895.405	14408
895.526	14514
895.648	14530
895.769	14583
895.891	14514
896.012	14514
896.134	14598
896.255	14545
896.376	14476
896.498	14503
896.619	14667
896.74	14556
896.861	14674
896.982	14838
897.103	15062
897.224	14823
897.345	14773
897.466	14632
897.587	14906
897.708	14986
897.828	14769
897.949	14701
898.07	14674
898.19	14731
898.311	14960
898.431	14826
898.552	14918
898.672	14891
898.792	14895
898.913	14918
899.033	14811
899.153	14686
899.273	14625
899.393	14655
899.513	14762
899.633	14693
899.753	14781
899.873	14743
899.993	14823
900.113	14716
900.232	14800
900.352	14765
900.472	14754
900.591	14564
900.711	14689
900.83	14602
900.95	14727
901.069	14746
901.189	14545
901.308	14336
901.427	14313
901.546	14282
901.665	14259
901.784	14343
901.904	14065
902.023	14054
902.141	13875
902.26	13887
902.379	13940
902.498	13811
902.617	13715
902.735	13849
902.854	13890
902.973	13731
903.091	13559
903.21	13567
903.328	13548
903.446	13529
903.565	13369
903.683	13457
903.801	13343
903.919	13350
904.038	13419
904.156	13175
904.274	13331
904.392	13194
904.51	13152
904.627	13179
904.745	13263
904.863	13225
904.981	13000
905.098	12901
905.216	12897
905.334	12962
905.451	12916
905.569	12886
905.686	12928
905.803	12993
905.921	12726
906.038	12859
906.155	12719
906.272	12540
906.389	12654
906.506	12460
906.623	12532
906.74	12426
906.857	12376
906.974	12437
907.091	12502
907.208	12650
907.324	12593
907.441	12407
907.557	12266
907.674	12258
907.79	12205
907.907	12213
908.023	12251
908.139	12140
908.256	12254
908.372	12163
908.488	12129
908.604	12038
908.72	11916
908.836	12022
908.952	11920
909.068	12019
909.184	12072
909.3	12038
909.415	11977
909.531	12022
909.647	11771
909.762	11748
909.878	11786
909.993	11756
910.108	11733
910.224	11695
910.339	11726
910.454	11695
910.57	11577
910.685	11539
910.8	11863
910.915	11783
911.03	11592
911.145	11429
911.259	11425
911.374	11425
911.489	11322
911.604	11303
911.718	11166
911.833	11185
911.947	11136
912.062	11071
912.176	11216
912.291	11193
912.405	11242
912.519	11406
912.633	11429
912.748	11280
912.862	11258
912.976	11143
913.09	10904
913.204	11010
913.318	11025
913.431	11231
913.545	11204
913.659	11166
913.772	11029
913.886	10980
914	10942
914.113	11010
914.226	11090
914.34	11003
914.453	10843
914.566	11025
914.68	10923
914.793	10896
914.906	10767
915.019	10717
915.132	10645
915.245	10672
915.358	10736
915.47	10698
915.583	10710
915.696	10771
915.809	10850
915.921	10869
916.034	10710
916.146	10706
916.259	10569
916.371	10793
916.483	10759
916.595	10535
916.708	10664
916.82	10634
916.932	10596
917.044	10630
917.156	10615
917.268	10424
917.38	10546
917.491	10455
917.603	10512
917.715	10580
917.826	10691
917.938	10519
918.049	10367
918.161	10531
918.272	10637
918.384	10755
918.495	10546
918.606	10455
918.717	10341
918.828	10402
918.939	10500
919.05	10337
919.161	10436
919.272	10207
919.383	10299
919.494	10432
919.604	10683
919.715	10417
919.826	10303
919.936	10325
920.047	10413
920.157	10466
920.267	10577
920.378	10523
920.488	10352
920.598	10577
920.708	10733
920.818	10634
920.928	10694
921.038	10714
921.148	10675
921.258	10421
921.368	10306
921.477	10295
921.587	10204
921.697	10143
921.806	10329
921.916	10173
922.025	10010
922.134	9949
922.244	9915
922.353	9968
922.462	9842
922.571	9812
922.68	9720
922.789	9637
922.898	9667
923.007	9515
923.116	9720
923.224	9698
923.333	9652
923.442	9549
923.55	9485
923.659	9526
923.767	9606
923.876	9477
923.984	9526
924.092	9378
924.201	9515
924.309	9477
924.417	9568
924.525	9374
924.633	9477
924.741	10394
924.849	9291
924.956	9408
925.064	9245
925.172	9138
925.279	9298
925.387	9351
925.494	9344
925.602	9428
925.709	9325
925.816	9207
925.924	9279
926.031	9435
926.138	9336
926.245	9294
926.352	9279
926.459	9435
926.566	9329
926.673	9253
926.779	9119
926.886	9199
926.993	8998
927.099	9001
927.206	8982
927.312	9001
927.419	9028
927.525	8986
927.631	9123
927.737	8933
927.843	8853
927.95	8792
928.056	8811
928.162	8967
928.267	8918
928.373	9450
928.479	9009
928.585	8788
928.69	8910
928.796	8887
928.901	8849
929.007	8697
929.112	8807
929.218	8834
929.323	8766
929.428	8659
929.533	8811
929.638	8602
929.743	8640
929.848	8807
929.953	8651
930.058	8606
930.163	8492
930.267	8495
930.372	8613
930.477	8442
930.581	8682
930.685	8522
930.79	8385
930.894	8457
930.998	8366
931.103	8560
931.207	8305
931.311	8153
931.415	8088
931.519	7921
931.623	7906
