Data from test_V78500241_2326.txt Node
Date: Fri Mar 25 14:49:54 CST 2022
User: usil
Spectrometer: V785-0024
Trigger mode: 0
Integration Time (sec): 4.000000E-1
Scans to average: 1
Nonlinearity correction enabled: false
Boxcar width: 0
Storing dark spectrum: false
XAxis mode: Wavelengths
Number of Pixels in Spectrum: 1024
>>>>>Begin Spectral Data<<<<<
801.071	22219
801.214	22097
801.356	21842
801.499	21637
801.641	21530
801.783	21504
801.926	21622
802.068	21637
802.211	21374
802.353	21188
802.496	21249
802.638	21070
802.78	20929
802.923	20933
803.065	20815
803.208	20826
803.35	20952
803.492	20914
803.635	21066
803.777	20883
803.919	20933
804.061	21317
804.204	20967
804.346	20823
804.488	20697
804.63	20906
804.773	20731
804.915	20811
805.057	20925
805.199	20823
805.341	20796
805.483	20925
805.626	20720
805.768	20663
805.91	20910
806.052	20826
806.194	20781
806.336	20960
806.478	20948
806.62	20834
806.762	20804
806.904	21062
807.046	21173
807.188	21119
807.33	21211
807.472	21100
807.614	21028
807.756	21135
807.898	20933
808.04	20864
808.182	20914
808.324	21001
808.465	20963
808.607	21074
808.749	21245
808.891	21351
809.033	21443
809.174	21264
809.316	21157
809.458	21138
809.6	21039
809.741	21211
809.883	21192
810.025	21401
810.166	21317
810.308	21256
810.45	21283
810.591	21260
810.733	21112
810.875	20963
811.016	20902
811.158	20804
811.299	20994
811.441	21131
811.582	21039
811.724	21009
811.865	20849
812.007	20880
812.148	20891
812.29	21043
812.431	21104
812.573	21211
812.714	21298
812.855	21428
812.997	21519
813.138	21686
813.279	21492
813.421	21443
813.562	21348
813.703	21222
813.845	21085
813.986	20682
814.127	20636
814.268	20431
814.41	20541
814.551	20465
814.692	20434
814.833	20461
814.974	20492
815.115	20571
815.256	20317
815.397	20324
815.539	20412
815.68	20240
815.821	20176
815.962	20282
816.103	20282
816.244	20176
816.385	19936
816.526	20012
816.666	19841
816.807	19681
816.948	19738
817.089	19738
817.23	19738
817.371	19731
817.512	19548
817.653	19696
817.793	19559
817.934	19632
818.075	19616
818.216	19563
818.356	19567
818.497	19483
818.638	19339
818.778	19445
818.919	19320
819.06	19335
819.2	19415
819.341	19495
819.481	19521
819.622	19556
819.762	19738
819.903	19742
820.043	19537
820.184	19628
820.324	19609
820.465	19658
820.605	19628
820.746	19514
820.886	19518
821.026	19616
821.167	19575
821.307	19628
821.447	19548
821.588	19487
821.728	19358
821.868	19164
822.008	18989
822.149	18962
822.289	18981
822.429	18806
822.569	18673
822.709	18623
822.849	18563
822.99	18479
823.13	18464
823.27	18357
823.41	18262
823.55	18270
823.69	18334
823.83	18285
823.97	18243
824.11	18087
824.25	18057
824.389	18110
824.529	18148
824.669	18045
824.809	18155
824.949	18129
825.089	18121
825.228	18057
825.368	17920
825.508	17832
825.648	17996
825.787	17908
825.927	17901
826.067	17851
826.206	17779
826.346	17897
826.485	17885
826.625	17821
826.765	17988
826.904	17885
827.044	17596
827.183	17547
827.323	17516
827.462	17619
827.601	17604
827.741	17474
827.88	17573
828.02	17345
828.159	17554
828.298	17452
828.437	17585
828.577	17471
828.716	17562
828.855	17585
828.994	17303
829.134	17292
829.273	17326
829.412	17311
829.551	17193
829.69	17235
829.829	17265
829.968	17398
830.107	17322
830.246	17296
830.385	17204
830.524	17227
830.663	17102
830.802	17045
830.941	16999
831.08	16771
831.219	16793
831.357	16965
831.496	17041
831.635	16858
831.774	16812
831.913	16748
832.051	16626
832.19	16778
832.329	16744
832.467	16618
832.606	16565
832.744	16618
832.883	16561
833.022	16497
833.16	16634
833.299	16588
833.437	16573
833.576	16603
833.714	16573
833.852	16561
833.991	16679
834.129	16668
834.267	16649
834.406	16489
834.544	16561
834.682	16599
834.821	16622
834.959	16828
835.097	16561
835.235	16729
835.373	16607
835.511	16622
835.65	16500
835.788	16535
835.926	16337
836.064	16310
836.202	16432
836.34	16554
836.478	16584
836.615	16451
836.753	16424
836.891	16561
837.029	16588
837.167	16550
837.305	16440
837.443	16371
837.58	16280
837.718	16519
837.856	16398
837.993	16284
838.131	16303
838.269	16181
838.406	16352
838.544	16280
838.681	16128
838.819	16120
838.956	15918
839.094	15899
839.231	16002
839.369	16002
839.506	16398
839.643	16181
839.781	15945
839.918	15827
840.055	15991
840.193	15873
840.33	15907
840.467	15983
840.604	15941
840.742	16147
840.879	15705
841.016	15778
841.153	15842
841.29	15975
841.427	15922
841.564	15918
841.701	15991
841.838	15812
841.975	15831
842.112	15869
842.249	15743
842.385	15629
842.522	15960
842.659	15774
842.796	15717
842.933	15724
843.069	15656
843.206	15614
843.343	15770
843.479	15709
843.616	15656
843.752	15408
843.889	15458
844.025	15618
844.162	15511
844.298	15545
844.435	15469
844.571	15420
844.708	15496
844.844	15648
844.98	15591
845.117	15515
845.253	15447
845.389	15355
845.525	15386
845.661	15408
845.798	15294
845.934	15378
846.07	15260
846.206	15275
846.342	15511
846.478	15214
846.614	15100
846.75	14952
846.886	15039
847.022	15135
847.158	15017
847.294	15039
847.429	15066
847.565	15070
847.701	15199
847.837	14781
847.972	14845
848.108	14758
848.244	14918
848.379	14731
848.515	14632
848.65	14644
848.786	14625
848.921	14602
849.057	14727
849.192	14708
849.328	14720
849.463	14670
849.598	14720
849.734	14655
849.869	14514
850.004	14469
850.14	14454
850.275	14408
850.41	14324
850.545	14358
850.68	14419
850.815	14377
850.95	14370
851.085	14625
851.22	14511
851.355	14507
851.49	14461
851.625	14408
851.76	14374
851.895	14324
852.03	14248
852.165	14450
852.299	14358
852.434	14427
852.569	14438
852.703	14431
852.838	14518
852.973	14518
853.107	14552
853.242	14305
853.376	14164
853.511	14149
853.645	14172
853.78	14389
853.914	14252
854.048	14195
854.183	14221
854.317	14294
854.451	14400
854.585	14221
854.72	14237
854.854	14332
854.988	14168
855.122	14286
855.256	14130
855.39	14237
855.524	14362
855.658	14355
855.792	14290
855.926	14282
856.06	14282
856.194	14385
856.327	14244
856.461	14206
856.595	14240
856.729	14244
856.862	14385
856.996	14419
857.13	14396
857.263	14377
857.397	14381
857.53	14290
857.664	14332
857.797	14282
857.931	14393
858.064	14214
858.197	14313
858.331	14313
858.464	14191
858.597	14134
858.731	14244
858.864	14393
858.997	14240
859.13	14351
859.263	14381
859.396	14400
859.529	14271
859.662	14199
859.795	14294
859.928	14278
860.061	14503
860.194	14366
860.327	14317
860.46	14263
860.592	14362
860.725	14503
860.858	14423
860.99	14343
861.123	14191
861.256	14225
861.388	14237
861.521	14864
861.653	14183
861.786	14138
861.918	14115
862.05	14244
862.183	14214
862.315	14366
862.447	14233
862.58	14286
862.712	13940
862.844	14069
862.976	14157
863.108	14107
863.24	14408
863.372	13967
863.504	13951
863.636	14024
863.768	14138
863.9	14073
864.032	13982
864.164	13974
864.296	14145
864.428	14054
864.559	14016
864.691	14191
864.823	14069
864.954	14069
865.086	14035
865.217	14012
865.349	14035
865.48	14016
865.612	14020
865.743	14187
865.875	14039
866.006	14031
866.137	13959
866.269	14088
866.4	14123
866.531	13963
866.662	13974
866.793	13947
866.924	13978
867.055	14050
867.186	14073
867.317	13925
867.448	13932
867.579	14027
867.71	13993
867.841	13898
867.972	14088
868.103	13978
868.233	13989
868.364	14046
868.495	14077
868.625	14214
868.756	14381
868.886	14157
869.017	14362
869.147	14336
869.278	14434
869.408	14305
869.539	14317
869.669	14396
869.799	14301
869.929	14347
870.06	14450
870.19	14571
870.32	14651
870.45	14514
870.58	14739
870.71	14773
870.84	14758
870.97	14659
871.1	14674
871.23	14952
871.36	14902
871.489	14735
871.619	14883
871.749	14880
871.879	14929
872.008	14902
872.138	14872
872.267	14883
872.397	14777
872.526	14727
872.656	14724
872.785	14727
872.915	14868
873.044	15036
873.173	14902
873.303	14952
873.432	14960
873.561	14979
873.69	14994
873.819	15001
873.948	15036
874.077	14975
874.206	14800
874.335	14994
874.464	15058
874.593	15230
874.722	15180
874.851	15291
874.979	15340
875.108	15264
875.237	15188
875.365	15142
875.494	15184
875.623	15340
875.751	15249
875.88	15226
876.008	15443
876.136	15454
876.265	15682
876.393	15892
876.521	15732
876.65	15682
876.778	15641
876.906	15557
877.034	15576
877.162	15648
877.29	15519
877.418	15644
877.546	15641
877.674	15644
877.802	15705
877.93	15568
878.058	15629
878.185	15447
878.313	15660
878.441	15622
878.568	15572
878.696	15656
878.824	15766
878.951	15743
879.079	15838
879.206	15975
879.333	15781
879.461	15728
879.588	15682
879.715	15876
879.842	16002
879.97	15686
880.097	15599
880.224	15538
880.351	15488
880.478	15485
880.605	15416
880.732	15435
880.859	15759
880.986	15439
881.112	15458
881.239	15344
881.366	15325
881.493	15283
881.619	15058
881.746	15173
881.872	15176
881.999	15104
882.125	15131
882.252	15157
882.378	15157
882.505	15397
882.631	15058
882.757	14994
882.883	15032
883.01	14929
883.136	14891
883.262	14872
883.388	14864
883.514	15009
883.64	15005
883.766	14876
883.892	14853
884.018	14823
884.143	14960
884.269	15119
884.395	14762
884.52	14579
884.646	14655
884.772	14594
884.897	14712
885.023	14735
885.148	14807
885.274	14815
885.399	14705
885.524	14724
885.65	14731
885.775	14735
885.9	14667
886.025	14762
886.15	14842
886.275	14674
886.4	14617
886.525	14613
886.65	14602
886.775	14579
886.9	14670
887.025	14960
887.149	14720
887.274	14560
887.399	14385
887.523	14457
887.648	14503
887.773	14427
887.897	14686
888.021	14602
888.146	14499
888.27	14579
888.395	14613
888.519	14598
888.643	14541
888.767	14583
888.891	14465
889.015	14374
889.139	14465
889.263	14313
889.387	14518
889.511	14610
889.635	14507
889.759	14309
889.883	14427
890.006	14351
890.13	14522
890.254	14313
890.377	14343
890.501	14218
890.624	14157
890.748	14294
890.871	14126
890.995	14001
891.118	13974
891.241	14046
891.364	14142
891.488	14138
891.611	14058
891.734	14084
891.857	14164
891.98	14199
892.103	14225
892.226	14138
892.349	14024
892.471	13932
892.594	14039
892.717	14092
892.839	14058
892.962	14088
893.085	14088
893.207	14081
893.33	13902
893.452	14050
893.575	14153
893.697	14046
893.819	14294
893.941	14339
894.064	14214
894.186	14054
894.308	14145
894.43	14206
894.552	14355
894.674	14202
894.796	14119
894.918	14145
895.04	14130
895.161	14199
895.283	14115
895.405	14164
895.526	14237
895.648	14195
895.769	14199
895.891	14358
896.012	14324
896.134	14301
896.255	14214
896.376	14229
896.498	14157
896.619	14355
896.74	14305
896.861	14434
896.982	14636
897.103	14731
897.224	14568
897.345	14404
897.466	14396
897.587	14606
897.708	14689
897.828	14518
897.949	14480
898.07	14374
898.19	14530
898.311	14533
898.431	14518
898.552	14571
898.672	14644
898.792	14727
898.913	14727
899.033	14579
899.153	14484
899.273	14431
899.393	14381
899.513	14431
899.633	14484
899.753	14571
899.873	14530
899.993	14541
900.113	14492
900.232	14545
900.352	14518
900.472	14385
900.591	14385
900.711	14457
900.83	14282
900.95	14377
901.069	14465
901.189	14290
901.308	14161
901.427	14012
901.546	13959
901.665	13963
901.784	13993
901.904	13887
902.023	13864
902.141	13624
902.26	13613
902.379	13765
902.498	13636
902.617	13502
902.735	13533
902.854	13544
902.973	13616
903.091	13263
903.21	13308
903.328	13285
903.446	13240
903.565	13133
903.683	13209
903.801	13137
903.919	13187
904.038	13076
904.156	13057
904.274	13053
904.392	12977
904.51	12954
904.627	12993
904.745	12973
904.863	13042
904.981	12741
905.098	12681
905.216	12764
905.334	12620
905.451	12650
905.569	12604
905.686	12707
905.803	12627
905.921	12502
906.038	12559
906.155	12448
906.272	12407
906.389	12422
906.506	12220
906.623	12270
906.74	12247
906.857	12076
906.974	12171
907.091	12262
907.208	12380
907.324	12270
907.441	12171
907.557	12053
907.674	12022
907.79	11851
907.907	11901
908.023	12022
908.139	12026
908.256	11939
908.372	11897
908.488	11851
908.604	11771
908.72	11699
908.836	11775
908.952	11668
909.068	11741
909.184	11832
909.3	11783
909.415	11767
909.531	11714
909.647	11653
909.762	11512
909.878	11528
909.993	11467
910.108	11497
910.224	11474
910.339	11551
910.454	11482
910.57	11326
910.685	11288
910.8	11554
910.915	11551
911.03	11391
911.145	11223
911.259	11170
911.374	11258
911.489	11132
911.604	11056
911.718	10957
911.833	10987
911.947	10881
912.062	10854
912.176	10908
912.291	10930
912.405	10972
912.519	11227
912.633	11201
912.748	11105
912.862	10896
912.976	10858
913.09	10744
913.204	10805
913.318	10885
913.431	11018
913.545	10927
913.659	11022
913.772	10797
913.886	10721
914	10664
914.113	10816
914.226	10835
914.34	10797
914.453	10611
914.566	10805
914.68	10683
914.793	10691
914.906	10573
915.019	10462
915.132	10485
915.245	10519
915.358	10512
915.47	10516
915.583	10485
915.696	10558
915.809	10630
915.921	10683
916.034	10443
916.146	10436
916.259	10466
916.371	10558
916.483	10451
916.595	10459
916.708	10466
916.82	10459
916.932	10409
917.044	10344
917.156	10371
917.268	10310
917.38	10371
917.491	10303
917.603	10356
917.715	10478
917.826	10386
917.938	10356
918.049	10234
918.161	10360
918.272	10394
918.384	10466
918.495	10322
918.606	10169
918.717	10200
918.828	10192
918.939	10253
919.05	10135
919.161	10207
919.272	9895
919.383	10032
919.494	10192
919.604	10402
919.715	10234
919.826	10177
919.936	10162
920.047	10276
920.157	10162
920.267	10409
920.378	10257
920.488	10215
920.598	10382
920.708	10588
920.818	10523
920.928	10352
921.038	10588
921.148	10500
921.258	10249
921.368	10147
921.477	10044
921.587	10128
921.697	9945
921.806	9960
921.916	9918
922.025	9789
922.134	9785
922.244	9762
922.353	9717
922.462	9713
922.571	9545
922.68	9481
922.789	9458
922.898	9530
923.007	9443
923.116	9420
923.224	9412
923.333	9412
923.442	9321
923.55	9313
923.659	9348
923.767	9397
923.876	9313
923.984	9431
924.092	9264
924.201	9313
924.309	9348
924.417	9272
924.525	9222
924.633	9264
924.741	10025
924.849	9104
924.956	9268
925.064	9150
925.172	9070
925.279	9028
925.387	9116
925.494	9180
925.602	9226
925.709	9192
925.816	9024
925.924	9123
926.031	9237
926.138	9119
926.245	9180
926.352	9028
926.459	9203
926.566	9264
926.673	9058
926.779	9001
926.886	8967
926.993	8902
927.099	8838
927.206	8731
927.312	8792
927.419	8872
927.525	8834
927.631	8937
927.737	8693
927.843	8754
927.95	8648
928.056	8705
928.162	8716
928.267	8788
928.373	9363
928.479	8796
928.585	8602
928.69	8670
928.796	8716
928.901	8598
929.007	8530
929.112	8731
929.218	8598
929.323	8598
929.428	8594
929.533	8648
929.638	8526
929.743	8465
929.848	8617
929.953	8522
930.058	8465
930.163	8313
930.267	8313
930.372	8438
930.477	8298
930.581	8533
930.685	8358
930.79	8305
930.894	8279
930.998	8225
931.103	8412
931.207	8081
931.311	8001
931.415	7932
931.519	7723
931.623	7731
