Data from test_V78500241_198.txt Node
Date: Fri Mar 25 14:35:06 CST 2022
User: usil
Spectrometer: V785-0024
Trigger mode: 0
Integration Time (sec): 4.000000E-1
Scans to average: 1
Nonlinearity correction enabled: false
Boxcar width: 0
Storing dark spectrum: false
XAxis mode: Wavelengths
Number of Pixels in Spectrum: 1024
>>>>>Begin Spectral Data<<<<<
801.071	28226
801.214	28188
801.356	27956
801.499	27854
801.641	27671
801.783	27553
801.926	27576
802.068	27504
802.211	27515
802.353	27374
802.496	27135
802.638	27195
802.78	27089
802.923	27116
803.065	27089
803.208	27173
803.35	27013
803.492	27146
803.635	27161
803.777	27211
803.919	27302
804.061	27625
804.204	27154
804.346	27119
804.488	27013
804.63	27112
804.773	26990
804.915	27218
805.057	27214
805.199	27036
805.341	27180
805.483	27233
805.626	27169
805.768	27017
805.91	27203
806.052	27317
806.194	26906
806.336	27370
806.478	27306
806.62	27260
806.762	27370
806.904	27511
807.046	27580
807.188	27606
807.33	27675
807.472	27831
807.614	27485
807.756	27648
807.898	27485
808.04	27648
808.182	27663
808.324	27717
808.465	27949
808.607	28253
808.749	28462
808.891	28519
809.033	28698
809.174	28599
809.316	28405
809.458	28196
809.6	28090
809.741	28090
809.883	28093
810.025	28048
810.166	28097
810.308	27903
810.45	27857
810.591	27953
810.733	27781
810.875	27682
811.016	27603
811.158	27511
811.299	27580
811.441	27568
811.582	27804
811.724	27526
811.865	27496
812.007	27507
812.148	27481
812.29	27644
812.431	27705
812.573	27869
812.714	27991
812.855	28078
812.997	28128
813.138	28139
813.279	28166
813.421	27953
813.562	27975
813.703	27823
813.845	27781
813.986	27401
814.127	27066
814.268	27161
814.41	27184
814.551	27062
814.692	27096
814.833	26998
814.974	27039
815.115	27020
815.256	26838
815.397	26960
815.539	26990
815.68	26773
815.821	26796
815.962	26785
816.103	26830
816.244	26606
816.385	26495
816.526	26427
816.666	26355
816.807	26176
816.948	26240
817.089	26275
817.23	26202
817.371	26142
817.512	26275
817.653	26237
817.793	26176
817.934	26081
818.075	25970
818.216	26161
818.356	26111
818.497	26027
818.638	25814
818.778	25856
818.919	25772
819.06	25860
819.2	26081
819.341	25955
819.481	26008
819.622	26050
819.762	26488
819.903	26366
820.043	26343
820.184	25982
820.324	26058
820.465	26119
820.605	26115
820.746	26164
820.886	25970
821.026	26126
821.167	26115
821.307	26130
821.447	26081
821.588	25879
821.728	25708
821.868	25632
822.008	25419
822.149	25453
822.289	25495
822.429	25179
822.569	25152
822.709	25171
822.849	24909
822.99	24996
823.13	24932
823.27	24932
823.41	24684
823.55	24547
823.69	24726
823.83	24700
823.97	24768
824.11	24384
824.25	24452
824.389	24559
824.529	24525
824.669	24464
824.809	24540
824.949	24570
825.089	24582
825.228	24517
825.368	24330
825.508	24399
825.648	24304
825.787	24277
825.927	24334
826.067	24220
826.206	24178
826.346	24319
826.485	24357
826.625	24178
826.765	24346
826.904	24224
827.044	24076
827.183	24102
827.323	23904
827.462	23973
827.601	24018
827.741	23927
827.88	23923
828.02	23771
828.159	23961
828.298	23798
828.437	24053
828.577	23817
828.716	24011
828.855	23756
828.994	23516
829.134	23566
829.273	23562
829.412	23547
829.551	23554
829.69	23619
829.829	23665
829.968	23577
830.107	23695
830.246	23535
830.385	23490
830.524	23497
830.663	23516
830.802	23296
830.941	23189
831.08	23197
831.219	23307
831.357	23216
831.496	23334
831.635	23067
831.774	23189
831.913	23029
832.051	22915
832.19	22896
832.329	22896
832.467	22801
832.606	22717
832.744	22892
832.883	22915
833.022	22691
833.16	22831
833.299	22946
833.437	22736
833.576	22957
833.714	22934
833.852	22847
833.991	22999
834.129	22949
834.267	22889
834.406	22782
834.544	22809
834.682	22889
834.821	22797
834.959	23094
835.097	22767
835.235	22953
835.373	22919
835.511	22736
835.65	22603
835.788	22767
835.926	22611
836.064	22504
836.202	22402
836.34	22611
836.478	22710
836.615	22497
836.753	22569
836.891	22645
837.029	22653
837.167	22706
837.305	22451
837.443	22542
837.58	22409
837.718	22637
837.856	22352
837.993	22459
838.131	22436
838.269	22249
838.406	22363
838.544	22314
838.681	22032
838.819	21972
838.956	21892
839.094	21816
839.231	21857
839.369	22025
839.506	22234
839.643	22169
839.781	21838
839.918	21838
840.055	21941
840.193	21861
840.33	21778
840.467	22013
840.604	21857
840.742	22036
840.879	21530
841.016	21679
841.153	21728
841.29	21759
841.427	21755
841.564	21842
841.701	21644
841.838	21831
841.975	21545
842.112	21568
842.249	21557
842.385	21469
842.522	21583
842.659	21469
842.796	21485
842.933	21504
843.069	21504
843.206	21405
843.343	21557
843.479	21374
843.616	21416
843.752	21325
843.889	21195
844.025	21397
844.162	21108
844.298	21302
844.435	21275
844.571	21176
844.708	21294
844.844	21473
844.98	21439
845.117	21519
845.253	21397
845.389	21325
845.525	21447
845.661	21679
845.798	21686
845.934	22109
846.07	22158
846.206	22105
846.342	22166
846.478	21618
846.614	21161
846.75	20971
846.886	20853
847.022	20883
847.158	20743
847.294	20693
847.429	20842
847.565	20663
847.701	20861
847.837	20465
847.972	20454
848.108	20408
848.244	20480
848.379	20309
848.515	20225
848.65	20183
848.786	20278
848.921	20134
849.057	20412
849.192	20294
849.328	20119
849.463	20309
849.598	20218
849.734	20088
849.869	20237
850.004	19947
850.14	20031
850.275	20058
850.41	19989
850.545	19928
850.68	20039
850.815	19963
850.95	19955
851.085	20081
851.22	20050
851.355	19970
851.49	19928
851.625	19925
851.76	19898
851.895	19807
852.03	19875
852.165	19967
852.299	19989
852.434	19951
852.569	20027
852.703	20012
852.838	19906
852.973	19967
853.107	20111
853.242	19811
853.376	19708
853.511	19590
853.645	19795
853.78	19955
853.914	19693
854.048	19704
854.183	19791
854.317	19746
854.451	19887
854.585	19875
854.72	19753
854.854	19826
854.988	19605
855.122	19700
855.256	19575
855.39	19712
855.524	19681
855.658	19693
855.792	19681
855.926	19746
856.06	19715
856.194	19769
856.327	19750
856.461	19734
856.595	19662
856.729	19742
856.862	19826
856.996	19833
857.13	19826
857.263	19837
857.397	19803
857.53	19693
857.664	19769
857.797	19818
857.931	19772
858.064	19655
858.197	19757
858.331	19674
858.464	19681
858.597	19567
858.731	19666
858.864	19677
858.997	19601
859.13	19708
859.263	19696
859.396	19803
859.529	19761
859.662	19548
859.795	19712
859.928	19575
860.061	19860
860.194	19772
860.327	19681
860.46	19662
860.592	19635
860.725	19852
860.858	19727
860.99	19605
861.123	19548
861.256	19651
861.388	19635
861.521	20320
861.653	19533
861.786	19537
861.918	19480
862.05	19731
862.183	19609
862.315	19712
862.447	19708
862.58	19563
862.712	19552
862.844	19441
862.976	19480
863.108	19346
863.24	19731
863.372	19263
863.504	19335
863.636	19381
863.768	19373
863.9	19373
864.032	19278
864.164	19278
864.296	19354
864.428	19480
864.559	19278
864.691	19396
864.823	19282
864.954	19362
865.086	19221
865.217	19206
865.349	19343
865.48	19247
865.612	19293
865.743	19301
865.875	19213
866.006	19278
866.137	19285
866.269	19282
866.4	19304
866.531	19228
866.662	19236
866.793	19171
866.924	19263
867.055	19156
867.186	19118
867.317	19137
867.448	19164
867.579	19228
867.71	19027
867.841	19084
867.972	19206
868.103	19278
868.233	19206
868.364	19308
868.495	19331
868.625	19335
868.756	19491
868.886	19251
869.017	19236
869.147	19689
869.278	19590
869.408	19445
869.539	19434
869.669	19525
869.799	19460
869.929	19609
870.06	19655
870.19	19674
870.32	19712
870.45	19727
870.58	19746
870.71	19837
870.84	20001
870.97	19822
871.1	19890
871.23	19970
871.36	19963
871.489	19856
871.619	20005
871.749	19993
871.879	20024
872.008	20092
872.138	19989
872.267	20138
872.397	19841
872.526	19849
872.656	19791
872.785	19913
872.915	19989
873.044	20005
873.173	20187
873.303	19989
873.432	20210
873.561	20164
873.69	20191
873.819	20027
873.948	20176
874.077	20084
874.206	19932
874.335	20062
874.464	20176
874.593	20290
874.722	20259
874.851	20393
874.979	20320
875.108	20275
875.237	20229
875.365	20252
875.494	20259
875.623	20313
875.751	20305
875.88	20358
876.008	20537
876.136	20465
876.265	20823
876.393	20979
876.521	20800
876.65	20762
876.778	20914
876.906	20689
877.034	20659
877.162	20731
877.29	20651
877.418	20819
877.546	20720
877.674	20769
877.802	20762
877.93	20655
878.058	20663
878.185	20701
878.313	20754
878.441	20727
878.568	20686
878.696	20750
878.824	20849
878.951	21066
879.079	21104
879.206	21272
879.333	21294
879.461	21287
879.588	21374
879.715	21428
879.842	21515
879.97	21207
880.097	21013
880.224	20731
880.351	20883
880.478	20918
880.605	20758
880.732	20701
880.859	20883
880.986	20746
881.112	20804
881.239	20564
881.366	20476
881.493	20313
881.619	20263
881.746	20347
881.872	20183
881.999	20366
882.125	20229
882.252	20423
882.378	20362
882.505	20324
882.631	20259
882.757	20088
882.883	20164
883.01	20088
883.136	20084
883.262	19879
883.388	19822
883.514	20027
883.64	20096
883.766	19970
883.892	19936
884.018	19898
884.143	20119
884.269	20130
884.395	19818
884.52	19693
884.646	19780
884.772	19537
884.897	19518
885.023	19769
885.148	19757
885.274	19947
885.399	19723
885.524	19719
885.65	19693
885.775	19658
885.9	19544
886.025	19822
886.15	19677
886.275	19597
886.4	19525
886.525	19480
886.65	19525
886.775	19510
886.9	19704
887.025	19849
887.149	19578
887.274	19525
887.399	19438
887.523	19320
887.648	19297
887.773	19274
887.897	19449
888.021	19339
888.146	19343
888.27	19407
888.395	19499
888.519	19377
888.643	19377
888.767	19365
888.891	19221
889.015	19228
889.139	19137
889.263	19126
889.387	19164
889.511	19369
889.635	19232
889.759	19122
889.883	19069
890.006	19217
890.13	19236
890.254	19050
890.377	19031
890.501	18928
890.624	18863
890.748	19015
890.871	18890
890.995	18757
891.118	18661
891.241	18692
891.364	18817
891.488	18905
891.611	18772
891.734	18749
891.857	18772
891.98	18840
892.103	18745
892.226	18787
892.349	18749
892.471	18631
892.594	18650
892.717	18722
892.839	18703
892.962	18658
893.085	18734
893.207	18707
893.33	18551
893.452	18540
893.575	18776
893.697	18566
893.819	18707
893.941	18757
894.064	18817
894.186	18506
894.308	18566
894.43	18719
894.552	18760
894.674	18696
894.796	18521
894.918	18627
895.04	18730
895.161	18658
895.283	18604
895.405	18544
895.526	18639
895.648	18627
895.769	18692
895.891	18627
896.012	18848
896.134	18700
896.255	18722
896.376	18677
896.498	18753
896.619	18703
896.74	18722
896.861	18863
896.982	18989
897.103	19244
897.224	18916
897.345	18981
897.466	18882
897.587	19042
897.708	19031
897.828	19034
897.949	18848
898.07	18753
898.19	18867
898.311	19050
898.431	18905
898.552	18962
898.672	18970
898.792	19072
898.913	18894
899.033	18825
899.153	18665
899.273	18658
899.393	18616
899.513	18844
899.633	18604
899.753	18726
899.873	18654
899.993	18730
900.113	18700
900.232	18608
900.352	18661
900.472	18589
900.591	18464
900.711	18635
900.83	18460
900.95	18658
901.069	18566
901.189	18578
901.308	18330
901.427	18117
901.546	18144
901.665	18258
901.784	18102
901.904	17843
902.023	17821
902.141	17729
902.26	17634
902.379	17775
902.498	17581
902.617	17592
902.735	17729
902.854	17615
902.973	17474
903.091	17341
903.21	17269
903.328	17220
903.446	17140
903.565	17117
903.683	17109
903.801	16911
903.919	17090
904.038	17136
904.156	16809
904.274	16892
904.392	16896
904.51	16805
904.627	16873
904.745	16927
904.863	16828
904.981	16668
905.098	16634
905.216	16519
905.334	16474
905.451	16519
905.569	16398
905.686	16504
905.803	16322
905.921	16333
906.038	16306
906.155	16341
906.272	16173
906.389	16284
906.506	16010
906.623	16032
906.74	15983
906.857	15968
906.974	15899
907.091	15994
907.208	16230
907.324	16078
907.441	15945
907.557	15873
907.674	15770
907.79	15770
907.907	15614
908.023	15892
908.139	15797
908.256	15618
908.372	15652
908.488	15618
908.604	15435
908.72	15443
908.836	15401
908.952	15424
909.068	15428
909.184	15511
909.3	15408
909.415	15488
909.531	15408
909.647	15100
909.762	15180
909.878	15062
909.993	15203
910.108	15123
910.224	15058
910.339	15089
910.454	15074
910.57	14979
910.685	14891
910.8	15112
910.915	15036
911.03	14891
911.145	14682
911.259	14693
911.374	14731
911.489	14632
911.604	14670
911.718	14438
911.833	14579
911.947	14465
912.062	14275
912.176	14404
912.291	14389
912.405	14415
912.519	14663
912.633	14648
912.748	14514
912.862	14415
912.976	14317
913.09	14221
913.204	14271
913.318	14271
913.431	14366
913.545	14336
913.659	14362
913.772	14317
913.886	14180
914	14119
914.113	14233
914.226	14187
914.34	14199
914.453	14008
914.566	14062
914.68	13978
914.793	13986
914.906	13860
915.019	13807
915.132	13746
915.245	13753
915.358	13776
915.47	13849
915.583	13746
915.696	13772
915.809	13894
915.921	13947
916.034	13700
916.146	13662
916.259	13651
916.371	13674
916.483	13712
916.595	13548
916.708	13674
916.82	13632
916.932	13590
917.044	13544
917.156	13575
917.268	13510
917.38	13445
917.491	13362
917.603	13491
917.715	13609
917.826	13445
917.938	13289
918.049	13324
918.161	13392
918.272	13563
918.384	13578
918.495	13419
918.606	13221
918.717	13171
918.828	13324
918.939	13320
919.05	13179
919.161	13213
919.272	13042
919.383	13095
919.494	13301
919.604	13400
919.715	13160
919.826	13126
919.936	13141
920.047	13202
920.157	13236
920.267	13419
920.378	13076
920.488	13088
920.598	13327
920.708	13518
920.818	13282
920.928	13381
921.038	13430
921.148	13472
921.258	13190
921.368	13084
921.477	12970
921.587	12924
921.697	12738
921.806	12905
921.916	12821
922.025	12673
922.134	12635
922.244	12642
922.353	12669
922.462	12475
922.571	12441
922.68	12304
922.789	12270
922.898	12262
923.007	12171
923.116	12270
923.224	12205
923.333	12171
923.442	12068
923.55	12015
923.659	12072
923.767	12209
923.876	12053
923.984	12175
924.092	12019
924.201	12076
924.309	12030
924.417	12068
924.525	11980
924.633	11923
924.741	12977
924.849	11798
924.956	11893
925.064	11802
925.172	11623
925.279	11764
925.387	11703
925.494	11737
925.602	11828
925.709	11756
925.816	11604
925.924	11688
926.031	11764
926.138	11733
926.245	11729
926.352	11589
926.459	11649
926.566	11764
926.673	11558
926.779	11581
926.886	11452
926.993	11402
927.099	11345
927.206	11311
927.312	11220
927.419	11474
927.525	11277
927.631	11391
927.737	11197
927.843	11220
927.95	11090
928.056	11178
928.162	11261
928.267	11273
928.373	11866
928.479	11246
928.585	10999
928.69	11166
928.796	11220
928.901	11048
929.007	10881
929.112	11075
929.218	11147
929.323	10934
929.428	10968
929.533	11018
929.638	10896
929.743	10927
929.848	10953
929.953	10904
930.058	10892
930.163	10626
930.267	10675
930.372	10793
930.477	10637
930.581	10869
930.685	10702
930.79	10546
930.894	10660
930.998	10538
931.103	10664
931.207	10375
931.311	10234
931.415	10166
931.519	9975
931.623	9956
