Data from test_V78500241_770.txt Node
Date: Fri Mar 25 14:39:04 CST 2022
User: usil
Spectrometer: V785-0024
Trigger mode: 0
Integration Time (sec): 4.000000E-1
Scans to average: 1
Nonlinearity correction enabled: false
Boxcar width: 0
Storing dark spectrum: false
XAxis mode: Wavelengths
Number of Pixels in Spectrum: 1024
>>>>>Begin Spectral Data<<<<<
801.071	26906
801.214	26815
801.356	26598
801.499	26503
801.641	26396
801.783	26267
801.926	26218
802.068	26199
802.211	26069
802.353	25963
802.496	25765
802.638	25731
802.78	25811
802.923	25670
803.065	25635
803.208	25822
803.35	25746
803.492	25807
803.635	25795
803.777	25719
803.919	25963
804.061	26199
804.204	25997
804.346	25723
804.488	25833
804.63	26012
804.773	25906
804.915	25932
805.057	26172
805.199	26130
805.341	26396
805.483	26488
805.626	26412
805.768	26309
805.91	26526
806.052	26648
806.194	26838
806.336	27154
806.478	26982
806.62	27291
806.762	27523
806.904	28029
807.046	28489
807.188	28767
807.33	29162
807.472	29657
807.614	30258
807.756	31221
807.898	32233
808.04	33758
808.182	35566
808.324	38343
808.465	41083
808.607	44240
808.749	47060
808.891	48726
809.033	49053
809.174	47303
809.316	44530
809.458	41242
809.6	37932
809.741	35296
809.883	33241
810.025	31776
810.166	30764
810.308	30011
810.45	29402
810.591	28797
810.733	28310
810.875	27930
811.016	27545
811.158	27477
811.299	27439
811.441	27355
811.582	27222
811.724	26891
811.865	26568
812.007	26644
812.148	26503
812.29	26731
812.431	26701
812.573	26705
812.714	26587
812.855	26842
812.997	26796
813.138	26918
813.279	26815
813.421	26693
813.562	26473
813.703	26324
813.845	26286
813.986	25788
814.127	25670
814.268	25639
814.41	25407
814.551	25491
814.692	25533
814.833	25228
814.974	25316
815.115	25457
815.256	25156
815.397	25107
815.539	25069
815.68	25076
815.821	24875
815.962	24878
816.103	24894
816.244	24882
816.385	24696
816.526	24604
816.666	24509
816.807	24296
816.948	24342
817.089	24426
817.23	24220
817.371	24159
817.512	24224
817.653	24251
817.793	24083
817.934	24041
818.075	24125
818.216	24178
818.356	24034
818.497	24015
818.638	23840
818.778	23802
818.919	23843
819.06	23885
819.2	24018
819.341	24098
819.481	24110
819.622	24049
819.762	24350
819.903	24270
820.043	24247
820.184	24098
820.324	23935
820.465	24114
820.605	24129
820.746	24034
820.886	23904
821.026	23817
821.167	23790
821.307	24026
821.447	23809
821.588	23767
821.728	23691
821.868	23429
822.008	23235
822.149	23353
822.289	23197
822.429	22991
822.569	22984
822.709	22896
822.849	22759
822.99	22691
823.13	22664
823.27	22618
823.41	22474
823.55	22421
823.69	22459
823.83	22550
823.97	22379
824.11	22204
824.25	22234
824.389	22295
824.529	22238
824.669	22268
824.809	22303
824.949	22390
825.089	22166
825.228	22265
825.368	22078
825.508	22158
825.648	22029
825.787	22036
825.927	22112
826.067	21930
826.206	21972
826.346	22044
826.485	21987
826.625	22109
826.765	22074
826.904	21953
827.044	21956
827.183	21641
827.323	21679
827.462	21785
827.601	21625
827.741	21698
827.88	21622
828.02	21568
828.159	21477
828.298	21629
828.437	21679
828.577	21561
828.716	21816
828.855	21629
828.994	21428
829.134	21298
829.273	21359
829.412	21321
829.551	21287
829.69	21298
829.829	21344
829.968	21408
830.107	21378
830.246	21416
830.385	21287
830.524	21195
830.663	21146
830.802	21001
830.941	20941
831.08	20796
831.219	20975
831.357	21047
831.496	21154
831.635	20994
831.774	20823
831.913	20819
832.051	20788
832.19	20826
832.329	20895
832.467	20800
832.606	20708
832.744	20880
832.883	20929
833.022	20887
833.16	20979
833.299	21154
833.437	21199
833.576	21382
833.714	21462
833.852	21675
833.991	21838
834.129	21941
834.267	21930
834.406	21766
834.544	21804
834.682	21736
834.821	21473
834.959	21580
835.097	21154
835.235	21230
835.373	21051
835.511	21085
835.65	20739
835.788	20807
835.926	20533
836.064	20507
836.202	20469
836.34	20651
836.478	20682
836.615	20514
836.753	20541
836.891	20606
837.029	20488
837.167	20442
837.305	20298
837.443	20343
837.58	20191
837.718	20476
837.856	20301
837.993	20233
838.131	20244
838.269	20176
838.406	20206
838.544	20035
838.681	19955
838.819	19807
838.956	19811
839.094	19746
839.231	19799
839.369	19841
839.506	20096
839.643	19993
839.781	19677
839.918	19731
840.055	19818
840.193	19753
840.33	19670
840.467	19666
840.604	19788
840.742	19967
840.879	19540
841.016	19658
841.153	19674
841.29	19818
841.427	19731
841.564	19784
841.701	19761
841.838	19696
841.975	19548
842.112	19651
842.249	19651
842.385	19460
842.522	19666
842.659	19616
842.796	19578
842.933	19609
843.069	19468
843.206	19586
843.343	19655
843.479	19613
843.616	19693
843.752	19544
843.889	19537
844.025	19784
844.162	19693
844.298	19909
844.435	19841
844.571	20164
844.708	20358
844.844	20902
844.98	21195
845.117	21953
845.253	22729
845.389	24509
845.525	27998
845.661	33606
845.798	40055
845.934	45294
846.07	47094
846.206	45667
846.342	41037
846.478	34573
846.614	28744
846.75	25034
846.886	22930
847.022	21576
847.158	20762
847.294	20168
847.429	19799
847.565	19662
847.701	19723
847.837	19175
847.972	18913
848.108	18958
848.244	19046
848.379	18749
848.515	18578
848.65	18616
848.786	18528
848.921	18601
849.057	18563
849.192	18601
849.328	18475
849.463	18467
849.598	18376
849.734	18441
849.869	18285
850.004	18292
850.14	18235
850.275	18220
850.41	18121
850.545	18114
850.68	18076
850.815	18121
850.95	18239
851.085	18353
851.22	18266
851.355	18194
851.49	18015
851.625	18060
851.76	18117
851.895	18015
852.03	18098
852.165	18155
852.299	18216
852.434	18266
852.569	18232
852.703	18224
852.838	18323
852.973	18433
853.107	18395
853.242	18277
853.376	18209
853.511	18083
853.645	18232
853.78	18414
853.914	18407
854.048	18254
854.183	18281
854.317	18323
854.451	18460
854.585	18380
854.72	18372
854.854	18361
854.988	18254
855.122	18182
855.256	18034
855.39	18152
855.524	18308
855.658	18228
855.792	18022
855.926	18197
856.06	18129
856.194	18182
856.327	18011
856.461	18022
856.595	17904
856.729	17961
856.862	18045
856.996	17992
857.13	18034
857.263	18068
857.397	18026
857.53	17999
857.664	17954
857.797	18038
857.931	18110
858.064	17939
858.197	18072
858.331	17920
858.464	17790
858.597	17760
858.731	17999
858.864	17840
858.997	17714
859.13	17878
859.263	17775
859.396	17794
859.529	17855
859.662	17733
859.795	17897
859.928	17916
860.061	17927
860.194	17931
860.327	17798
860.46	17748
860.592	17870
860.725	18022
860.858	17973
860.99	17748
861.123	17775
861.256	17722
861.388	17809
861.521	18582
861.653	17707
861.786	17573
861.918	17634
862.05	17722
862.183	17653
862.315	17649
862.447	17885
862.58	17745
862.712	17592
862.844	17501
862.976	17623
863.108	17589
863.24	17897
863.372	17433
863.504	17471
863.636	17539
863.768	17547
863.9	17566
864.032	17402
864.164	17482
864.296	17471
864.428	17493
864.559	17490
864.691	17547
864.823	17505
864.954	17505
865.086	17524
865.217	17433
865.349	17376
865.48	17463
865.612	17478
865.743	17615
865.875	17353
866.006	17326
866.137	17452
866.269	17406
866.4	17402
866.531	17467
866.662	17284
866.793	17356
866.924	17421
867.055	17410
867.186	17322
867.317	17448
867.448	17322
867.579	17455
867.71	17273
867.841	17326
867.972	17474
868.103	17433
868.233	17474
868.364	17303
868.495	17512
868.625	17589
868.756	17684
868.886	17524
869.017	17691
869.147	17703
869.278	17729
869.408	17764
869.539	17710
869.669	17775
869.799	17672
869.929	17813
870.06	17786
870.19	17961
870.32	17992
870.45	18064
870.58	18144
870.71	18213
870.84	18258
870.97	18083
871.1	18068
871.23	18308
871.36	18330
871.489	18201
871.619	18338
871.749	18376
871.879	18388
872.008	18460
872.138	18464
872.267	18323
872.397	18342
872.526	18258
872.656	18235
872.785	18327
872.915	18486
873.044	18521
873.173	18574
873.303	18582
873.432	18555
873.561	18715
873.69	18604
873.819	18650
873.948	18817
874.077	18738
874.206	18673
874.335	18677
874.464	18966
874.593	19122
874.722	19034
874.851	19293
874.979	19145
875.108	19126
875.237	19209
875.365	19168
875.494	19198
875.623	19434
875.751	19297
875.88	19434
876.008	19616
876.136	19597
876.265	20062
876.393	20111
876.521	20126
876.65	20107
876.778	20107
876.906	20214
877.034	20134
877.162	20324
877.29	20214
877.418	20488
877.546	20518
877.674	20648
877.802	20800
877.93	20979
878.058	21036
878.185	21081
878.313	21523
878.441	21823
878.568	22116
878.696	22702
878.824	23512
878.951	24677
879.079	26202
879.206	28139
879.333	30159
879.461	31715
879.588	32925
879.715	33001
879.842	32020
879.97	30182
880.097	28025
880.224	26427
880.351	25403
880.478	24658
880.605	23882
880.732	23638
880.859	23493
880.986	23140
881.112	22961
881.239	22976
881.366	22729
881.493	22763
881.619	22493
881.746	22713
881.872	22729
881.999	22774
882.125	22702
882.252	22908
882.378	22911
882.505	22976
882.631	22812
882.757	22847
882.883	22930
883.01	22618
883.136	22672
883.262	22573
883.388	22618
883.514	22694
883.64	22622
883.766	22535
883.892	22424
884.018	22417
884.143	22519
884.269	22698
884.395	22561
884.52	22325
884.646	22379
884.772	22409
884.897	22306
885.023	22440
885.148	22523
885.274	22474
885.399	22318
885.524	22196
885.65	22032
885.775	21960
885.9	21797
886.025	21751
886.15	21561
886.275	21466
886.4	21207
886.525	21165
886.65	20834
886.775	20765
886.9	20880
887.025	20804
887.149	20632
887.274	20286
887.399	20252
887.523	20119
887.648	20016
887.773	19841
887.897	19970
888.021	19807
888.146	19807
888.27	19841
888.395	19890
888.519	19666
888.643	19567
888.767	19575
888.891	19495
889.015	19392
889.139	19339
889.263	19217
889.387	19343
889.511	19377
889.635	19148
889.759	19160
889.883	18973
890.006	19015
890.13	18970
890.254	18863
890.377	18905
890.501	18707
890.624	18646
890.748	18772
890.871	18525
890.995	18506
891.118	18346
891.241	18410
891.364	18429
891.488	18608
891.611	18334
891.734	18258
891.857	18300
891.98	18270
892.103	18247
892.226	18254
892.349	18190
892.471	17969
892.594	18038
892.717	17980
892.839	17923
892.962	17916
893.085	17882
893.207	17988
893.33	17729
893.452	17840
893.575	17954
893.697	17809
893.819	17893
893.941	17885
894.064	17855
894.186	17668
894.308	17668
894.43	17802
894.552	17748
894.674	17783
894.796	17596
894.918	17623
895.04	17551
895.161	17680
895.283	17577
895.405	17482
895.526	17581
895.648	17547
895.769	17532
895.891	17627
896.012	17589
896.134	17520
896.255	17558
896.376	17486
896.498	17482
896.619	17608
896.74	17509
896.861	17554
896.982	17760
897.103	17965
897.224	17767
897.345	17665
897.466	17573
897.587	17665
897.708	17805
897.828	17649
897.949	17668
898.07	17512
898.19	17600
898.311	17752
898.431	17672
898.552	17668
898.672	17703
898.792	17824
898.913	17676
899.033	17596
899.153	17440
899.273	17417
899.393	17433
899.513	17467
899.633	17467
899.753	17535
899.873	17353
899.993	17512
900.113	17455
900.232	17493
900.352	17535
900.472	17337
900.591	17284
900.711	17353
900.83	17250
900.95	17414
901.069	17334
901.189	17181
901.308	16957
901.427	16968
901.546	16881
901.665	16942
901.784	16957
901.904	16816
902.023	16618
902.141	16523
902.26	16451
902.379	16409
902.498	16219
902.617	16234
902.735	16276
902.854	16272
902.973	16211
903.091	15960
903.21	15915
903.328	15983
903.446	15899
903.565	15846
903.683	15690
903.801	15690
903.919	15690
904.038	15747
904.156	15549
904.274	15530
904.392	15485
904.51	15408
904.627	15523
904.745	15587
904.863	15538
904.981	15291
905.098	15230
905.216	15112
905.334	15256
905.451	15218
905.569	15055
905.686	15161
905.803	15203
905.921	14910
906.038	15085
906.155	14960
906.272	14868
906.389	14842
906.506	14754
906.623	14670
906.74	14667
906.857	14598
906.974	14587
907.091	14811
907.208	14765
907.324	14625
907.441	14541
907.557	14457
907.674	14465
907.79	14389
907.907	14309
908.023	14355
908.139	14393
908.256	14438
908.372	14298
908.488	14290
908.604	14233
908.72	14031
908.836	14180
908.952	14081
909.068	14107
909.184	14202
909.3	14077
909.415	14225
909.531	14046
909.647	13879
909.762	13750
909.878	13864
909.993	13837
910.108	13826
910.224	13807
910.339	13887
910.454	13734
910.57	13696
910.685	13613
910.8	13928
910.915	13788
911.03	13696
911.145	13525
911.259	13502
911.374	13480
911.489	13400
911.604	13411
911.718	13282
911.833	13293
911.947	13171
912.062	13126
912.176	13236
912.291	13232
912.405	13145
912.519	13483
912.633	13457
912.748	13282
912.862	13228
912.976	13103
913.09	12966
913.204	13065
913.318	12996
913.431	13198
913.545	13225
913.659	13202
913.772	13103
913.886	12924
914	12928
914.113	13015
914.226	13034
914.34	12985
914.453	12844
914.566	12985
914.68	12871
914.793	12878
914.906	12673
915.019	12692
915.132	12635
915.245	12597
915.358	12711
915.47	12639
915.583	12631
915.696	12669
915.809	12764
915.921	12783
916.034	12711
916.146	12528
916.259	12620
916.371	12741
916.483	12711
916.595	12612
916.708	12677
916.82	12616
916.932	12578
917.044	12616
917.156	12669
917.268	12433
917.38	12506
917.491	12380
917.603	12471
917.715	12525
917.826	12475
917.938	12391
918.049	12285
918.161	12319
918.272	12563
918.384	12544
918.495	12422
918.606	12342
918.717	12209
918.828	12235
918.939	12277
919.05	12121
919.161	12163
919.272	11996
919.383	12003
919.494	12159
919.604	12315
919.715	12281
919.826	12060
919.936	12155
920.047	12213
920.157	12117
920.267	12372
920.378	12190
920.488	12060
920.598	12304
920.708	12448
920.818	12300
920.928	12311
921.038	12525
921.148	12395
921.258	12209
921.368	12064
921.477	11954
921.587	11885
921.697	11855
921.806	11942
921.916	11843
922.025	11703
922.134	11592
922.244	11611
922.353	11615
922.462	11490
922.571	11345
922.68	11303
922.789	11254
922.898	11368
923.007	11353
923.116	11311
923.224	11231
923.333	11223
923.442	11185
923.55	11075
923.659	11105
923.767	11212
923.876	11033
923.984	11220
924.092	11006
924.201	11071
924.309	11117
924.417	11037
924.525	10995
924.633	11022
924.741	11832
924.849	10911
924.956	10984
925.064	10839
925.172	10816
925.279	10797
925.387	10900
925.494	10774
925.602	11018
925.709	10858
925.816	10710
925.924	10805
926.031	10843
926.138	10763
926.245	10919
926.352	10767
926.459	10805
926.566	10854
926.673	10744
926.779	10577
926.886	10679
926.993	10531
927.099	10554
927.206	10390
927.312	10443
927.419	10516
927.525	10424
927.631	10489
927.737	10303
927.843	10390
927.95	10200
928.056	10303
928.162	10341
928.267	10394
928.373	10949
928.479	10382
928.585	10211
928.69	10375
928.796	10360
928.901	10223
929.007	10059
929.112	10234
929.218	10162
929.323	10139
929.428	10128
929.533	10246
929.638	10051
929.743	10120
929.848	10158
929.953	10090
930.058	10021
930.163	9915
930.267	9819
930.372	10017
930.477	9857
930.581	10048
930.685	9968
930.79	9770
930.894	9819
930.998	9747
931.103	9903
931.207	9591
931.311	9488
931.415	9454
931.519	9268
931.623	9146
