Data from test_V78500241_599.txt Node
Date: Fri Mar 25 14:37:53 CST 2022
User: usil
Spectrometer: V785-0024
Trigger mode: 0
Integration Time (sec): 4.000000E-1
Scans to average: 1
Nonlinearity correction enabled: false
Boxcar width: 0
Storing dark spectrum: false
XAxis mode: Wavelengths
Number of Pixels in Spectrum: 1024
>>>>>Begin Spectral Data<<<<<
801.071	28078
801.214	27895
801.356	27739
801.499	27618
801.641	27382
801.783	27450
801.926	27340
802.068	27112
802.211	27275
802.353	27127
802.496	26960
802.638	26960
802.78	26872
802.923	26830
803.065	26678
803.208	26880
803.35	26800
803.492	26944
803.635	27123
803.777	26895
803.919	27009
804.061	27310
804.204	26971
804.346	26952
804.488	27070
804.63	27249
804.773	26956
804.915	27142
805.057	27329
805.199	27222
805.341	27173
805.483	27374
805.626	27321
805.768	27264
805.91	27557
806.052	27587
806.194	27477
806.336	27827
806.478	27907
806.62	28090
806.762	28291
806.904	28546
807.046	28972
807.188	29174
807.33	29375
807.472	29920
807.614	30220
807.756	30867
807.898	31594
808.04	32549
808.182	34082
808.324	35771
808.465	37837
808.607	40063
808.749	42136
808.891	43327
809.033	43495
809.174	42254
809.316	40207
809.458	37609
809.6	35330
809.741	33827
809.883	32180
810.025	31297
810.166	30688
810.308	29927
810.45	29790
810.591	29364
810.733	28942
810.875	28675
811.016	28363
811.158	28006
811.299	28154
811.441	28249
811.582	28150
811.724	27743
811.865	27679
812.007	27682
812.148	27663
812.29	27633
812.431	27637
812.573	27728
812.714	27914
812.855	27831
812.997	28044
813.138	28120
813.279	27945
813.421	27785
813.562	27838
813.703	27504
813.845	27412
813.986	27005
814.127	26948
814.268	26792
814.41	26720
814.551	26674
814.692	26830
814.833	26545
814.974	26625
815.115	26499
815.256	26545
815.397	26442
815.539	26503
815.68	26412
815.821	26252
815.962	26221
816.103	26142
816.244	26119
816.385	25852
816.526	26008
816.666	25826
816.807	25643
816.948	25655
817.089	25734
817.23	25639
817.371	25651
817.512	25578
817.653	25609
817.793	25396
817.934	25609
818.075	25609
818.216	25620
818.356	25434
818.497	25240
818.638	25324
818.778	25168
818.919	25255
819.06	25190
819.2	25331
819.341	25441
819.481	25468
819.622	25715
819.762	25731
819.903	25662
820.043	25613
820.184	25403
820.324	25506
820.465	25639
820.605	25358
820.746	25381
820.886	25297
821.026	25415
821.167	25312
821.307	25388
821.447	25202
821.588	25065
821.728	24996
821.868	24734
822.008	24711
822.149	24616
822.289	24719
822.429	24445
822.569	24384
822.709	24319
822.849	24114
822.99	24201
823.13	24140
823.27	24098
823.41	24041
823.55	23927
823.69	24026
823.83	23954
823.97	23851
824.11	23608
824.25	23805
824.389	23722
824.529	23733
824.669	23665
824.809	23828
824.949	23771
825.089	23741
825.228	23714
825.368	23592
825.508	23615
825.648	23581
825.787	23505
825.927	23566
826.067	23490
826.206	23444
826.346	23436
826.485	23414
826.625	23356
826.765	23463
826.904	23345
827.044	23239
827.183	23121
827.323	23117
827.462	23094
827.601	23075
827.741	23208
827.88	23151
828.02	22946
828.159	23098
828.298	23079
828.437	23181
828.577	22957
828.716	23246
828.855	23010
828.994	22831
829.134	22725
829.273	22858
829.412	22740
829.551	22778
829.69	22645
829.829	22763
829.968	22847
830.107	22839
830.246	22653
830.385	22790
830.524	22649
830.663	22664
830.802	22451
830.941	22481
831.08	22284
831.219	22436
831.357	22413
831.496	22573
831.635	22276
831.774	22344
831.913	22185
832.051	22238
832.19	22246
832.329	22325
832.467	22226
832.606	22226
832.744	22105
832.883	22226
833.022	22230
833.16	22226
833.299	22462
833.437	22443
833.576	22519
833.714	22645
833.852	22675
833.991	22828
834.129	22999
834.267	22961
834.406	22786
834.544	22892
834.682	22797
834.821	22504
834.959	22656
835.097	22451
835.235	22523
835.373	22322
835.511	22287
835.65	22078
835.788	22093
835.926	21861
836.064	21755
836.202	21686
836.34	21994
836.478	22078
836.615	21778
836.753	21861
836.891	21915
837.029	21892
837.167	21717
837.305	21739
837.443	21701
837.58	21675
837.718	21698
837.856	21709
837.993	21488
838.131	21698
838.269	21542
838.406	21576
838.544	21507
838.681	21283
838.819	21195
838.956	21256
839.094	21138
839.231	21180
839.369	21325
839.506	21526
839.643	21401
839.781	21028
839.918	21058
840.055	20998
840.193	20967
840.33	20948
840.467	20941
840.604	20937
840.742	21329
840.879	20933
841.016	20963
841.153	20990
841.29	21150
841.427	20982
841.564	21085
841.701	20994
841.838	21017
841.975	20899
842.112	20895
842.249	20857
842.385	20845
842.522	20910
842.659	20921
842.796	20724
842.933	20910
843.069	20880
843.206	20899
843.343	20880
843.479	20872
843.616	20853
843.752	20743
843.889	20735
844.025	20899
844.162	20883
844.298	20857
844.435	21047
844.571	21150
844.708	21268
844.844	21591
844.98	21789
845.117	22287
845.253	22885
845.389	24087
845.525	26488
845.661	30235
845.798	34881
845.934	38339
846.07	39998
846.206	39112
846.342	36011
846.478	31304
846.614	27279
846.75	24612
846.886	23037
847.022	22211
847.158	21435
847.294	21036
847.429	20731
847.565	20518
847.701	20750
847.837	20183
847.972	20111
848.108	20214
848.244	20092
848.379	19795
848.515	19757
848.65	19658
848.786	19708
848.921	19727
849.057	19757
849.192	19811
849.328	19780
849.463	19693
849.598	19620
849.734	19605
849.869	19506
850.004	19331
850.14	19403
850.275	19297
850.41	19255
850.545	19304
850.68	19289
850.815	19419
850.95	19419
851.085	19495
851.22	19460
851.355	19270
851.49	19278
851.625	19289
851.76	19396
851.895	19187
852.03	19251
852.165	19301
852.299	19362
852.434	19430
852.569	19407
852.703	19400
852.838	19350
852.973	19506
853.107	19628
853.242	19441
853.376	19403
853.511	19221
853.645	19312
853.78	19411
853.914	19377
854.048	19407
854.183	19403
854.317	19422
854.451	19578
854.585	19407
854.72	19285
854.854	19552
854.988	19362
855.122	19411
855.256	19259
855.39	19304
855.524	19270
855.658	19400
855.792	19377
855.926	19259
856.06	19266
856.194	19236
856.327	19217
856.461	19179
856.595	19217
856.729	19217
856.862	19190
856.996	19282
857.13	19156
857.263	19278
857.397	19190
857.53	19133
857.664	19190
857.797	19107
857.931	19274
858.064	19225
858.197	19194
858.331	19110
858.464	19160
858.597	18973
858.731	19042
858.864	19000
858.997	19065
859.13	19168
859.263	19099
859.396	19065
859.529	19091
859.662	19053
859.795	19072
859.928	19004
860.061	19069
860.194	19156
860.327	19129
860.46	18909
860.592	19190
860.725	19198
860.858	19095
860.99	18958
861.123	18882
861.256	18973
861.388	19065
861.521	19658
861.653	18958
861.786	18981
861.918	18848
862.05	18993
862.183	19023
862.315	19034
862.447	19057
862.58	19053
862.712	18875
862.844	18696
862.976	18768
863.108	18802
863.24	19202
863.372	18669
863.504	18696
863.636	18707
863.768	18707
863.9	18707
864.032	18623
864.164	18650
864.296	18547
864.428	18787
864.559	18791
864.691	18844
864.823	18802
864.954	18688
865.086	18601
865.217	18608
865.349	18661
865.48	18536
865.612	18646
865.743	18730
865.875	18513
866.006	18528
866.137	18597
866.269	18555
866.4	18574
866.531	18578
866.662	18532
866.793	18585
866.924	18669
867.055	18654
867.186	18544
867.317	18448
867.448	18395
867.579	18490
867.71	18410
867.841	18464
867.972	18616
868.103	18719
868.233	18574
868.364	18570
868.495	18639
868.625	18817
868.756	18905
868.886	18673
869.017	18764
869.147	18856
869.278	18856
869.408	18772
869.539	18776
869.669	18966
869.799	18798
869.929	18867
870.06	18935
870.19	19110
870.32	19190
870.45	19335
870.58	19202
870.71	19327
870.84	19327
870.97	19327
871.1	19358
871.23	19358
871.36	19563
871.489	19369
871.619	19457
871.749	19480
871.879	19578
872.008	19601
872.138	19609
872.267	19468
872.397	19362
872.526	19350
872.656	19407
872.785	19567
872.915	19594
873.044	19635
873.173	19635
873.303	19677
873.432	19681
873.561	19776
873.69	19799
873.819	19738
873.948	19761
874.077	19750
874.206	19655
874.335	19967
874.464	19913
874.593	20012
874.722	20100
874.851	20180
874.979	20195
875.108	20206
875.237	20107
875.365	20077
875.494	20183
875.623	20305
875.751	20134
875.88	20278
876.008	20427
876.136	20682
876.265	20872
876.393	20910
876.521	20952
876.65	20941
876.778	21051
876.906	21028
877.034	20929
877.162	21188
877.29	20937
877.418	21142
877.546	21203
877.674	21279
877.802	21382
877.93	21515
878.058	21595
878.185	21606
878.313	21812
878.441	22013
878.568	22246
878.696	22706
878.824	23277
878.951	24076
879.079	25122
879.206	26530
879.333	28002
879.461	29189
879.588	29710
879.715	29923
879.842	29322
879.97	28097
880.097	26480
880.224	25263
880.351	24521
880.478	23935
880.605	23531
880.732	23284
880.859	23299
880.986	23006
881.112	22889
881.239	22782
881.366	22596
881.493	22481
881.619	22637
881.746	22531
881.872	22542
881.999	22611
882.125	22546
882.252	22710
882.378	22546
882.505	22725
882.631	22561
882.757	22405
882.883	22580
883.01	22500
883.136	22470
883.262	22246
883.388	22257
883.514	22440
883.64	22360
883.766	22314
883.892	22112
884.018	22204
884.143	22299
884.269	22413
884.395	22246
884.52	22090
884.646	22162
884.772	22120
884.897	22032
885.023	22032
885.148	22238
885.274	22131
885.399	22082
885.524	21918
885.65	21800
885.775	21804
885.9	21576
886.025	21633
886.15	21542
886.275	21332
886.4	21214
886.525	21096
886.65	21001
886.775	20956
886.9	21142
887.025	21214
887.149	20792
887.274	20648
887.399	20575
887.523	20408
887.648	20313
887.773	20294
887.897	20324
888.021	20240
888.146	20176
888.27	20278
888.395	20233
888.519	20027
888.643	20138
888.767	20058
888.891	20039
889.015	19890
889.139	19845
889.263	19742
889.387	19928
889.511	19906
889.635	19791
889.759	19632
889.883	19639
890.006	19628
890.13	19597
890.254	19491
890.377	19445
890.501	19388
890.624	19209
890.748	19419
890.871	19171
890.995	19183
891.118	18894
891.241	19160
891.364	19038
891.488	19095
891.611	18985
891.734	18966
891.857	18985
891.98	18943
892.103	19004
892.226	18905
892.349	18875
892.471	18703
892.594	18772
892.717	18722
892.839	18665
892.962	18669
893.085	18764
893.207	18749
893.33	18551
893.452	18627
893.575	18635
893.697	18559
893.819	18776
893.941	18787
894.064	18669
894.186	18555
894.308	18559
894.43	18646
894.552	18635
894.674	18521
894.796	18464
894.918	18471
895.04	18467
895.161	18525
895.283	18506
895.405	18460
895.526	18376
895.648	18380
895.769	18448
895.891	18441
896.012	18498
896.134	18475
896.255	18467
896.376	18369
896.498	18414
896.619	18418
896.74	18429
896.861	18544
896.982	18661
897.103	18913
897.224	18658
897.345	18593
897.466	18559
897.587	18722
897.708	18722
897.828	18700
897.949	18574
898.07	18353
898.19	18582
898.311	18673
898.431	18490
898.552	18544
898.672	18719
898.792	18639
898.913	18528
899.033	18559
899.153	18292
899.273	18251
899.393	18384
899.513	18403
899.633	18296
899.753	18437
899.873	18300
899.993	18296
900.113	18201
900.232	18304
900.352	18247
900.472	18251
900.591	18148
900.711	18205
900.83	18129
900.95	18243
901.069	18277
901.189	18076
901.308	17851
901.427	17668
901.546	17824
901.665	17893
901.784	17832
901.904	17665
902.023	17345
902.141	17303
902.26	17292
902.379	17280
902.498	17212
902.617	17200
902.735	17197
902.854	17105
902.973	17006
903.091	16820
903.21	16934
903.328	16793
903.446	16618
903.565	16637
903.683	16672
903.801	16569
903.919	16683
904.038	16603
904.156	16508
904.274	16523
904.392	16504
904.51	16394
904.627	16356
904.745	16459
904.863	16386
904.981	16257
905.098	16131
905.216	15994
905.334	16101
905.451	16055
905.569	15994
905.686	16101
905.803	16017
905.921	15911
906.038	15884
906.155	15797
906.272	15751
906.389	15736
906.506	15466
906.623	15660
906.74	15450
906.857	15401
906.974	15450
907.091	15690
907.208	15774
907.324	15557
907.441	15458
907.557	15378
907.674	15291
907.79	15237
907.907	15230
908.023	15279
908.139	15169
908.256	15211
908.372	15211
908.488	15135
908.604	15032
908.72	14990
908.836	14948
908.952	14937
909.068	14864
909.184	15062
909.3	14960
909.415	14990
909.531	14941
909.647	14712
909.762	14644
909.878	14583
909.993	14629
910.108	14807
910.224	14724
910.339	14705
910.454	14522
910.57	14537
910.685	14530
910.8	14769
910.915	14602
911.03	14465
911.145	14381
911.259	14313
911.374	14351
911.489	14180
911.604	14134
911.718	13997
911.833	13997
911.947	14001
912.062	13913
912.176	13944
912.291	14024
912.405	14039
912.519	14142
912.633	14210
912.748	14115
912.862	13871
912.976	13925
913.09	13780
913.204	13864
913.318	13856
913.431	13955
913.545	13963
913.659	13978
913.772	13784
913.886	13742
914	13761
914.113	13784
914.226	13784
914.34	13746
914.453	13670
914.566	13860
914.68	13620
914.793	13594
914.906	13464
915.019	13343
915.132	13396
915.245	13441
915.358	13350
915.47	13350
915.583	13388
915.696	13407
915.809	13495
915.921	13495
916.034	13331
916.146	13304
916.259	13324
916.371	13430
916.483	13415
916.595	13312
916.708	13331
916.82	13297
916.932	13346
917.044	13263
917.156	13213
917.268	13278
917.38	13152
917.491	13126
917.603	13171
917.715	13236
917.826	13183
917.938	12996
918.049	13004
918.161	13019
918.272	13187
918.384	13118
918.495	13107
918.606	12996
918.717	12840
918.828	12985
918.939	12977
919.05	12776
919.161	12840
919.272	12669
919.383	12719
919.494	12890
919.604	13122
919.715	12840
919.826	12753
919.936	12825
920.047	12958
920.157	12856
920.267	13031
920.378	12867
920.488	12760
920.598	13012
920.708	13149
920.818	13053
920.928	13023
921.038	13213
921.148	13000
921.258	12776
921.368	12760
921.477	12612
921.587	12719
921.697	12475
921.806	12620
921.916	12582
922.025	12243
922.134	12357
922.244	12247
922.353	12281
922.462	12144
922.571	12125
922.68	11965
922.789	11866
922.898	11927
923.007	11866
923.116	11916
923.224	11878
923.333	11904
923.442	11794
923.55	11764
923.659	11874
923.767	11817
923.876	11790
923.984	11863
924.092	11703
924.201	11642
924.309	11657
924.417	11684
924.525	11573
924.633	11596
924.741	12399
924.849	11459
924.956	11501
925.064	11505
925.172	11353
925.279	11406
925.387	11398
925.494	11467
925.602	11516
925.709	11524
925.816	11395
925.924	11376
926.031	11478
926.138	11448
926.245	11436
926.352	11208
926.459	11455
926.566	11474
926.673	11269
926.779	11216
926.886	11231
926.993	11033
927.099	10995
927.206	10999
927.312	10991
927.419	11025
927.525	11083
927.631	11086
927.737	10980
927.843	10957
927.95	10744
928.056	10862
928.162	10873
928.267	10908
928.373	11471
928.479	11018
928.585	10767
928.69	10809
928.796	10934
928.901	10801
929.007	10569
929.112	10782
929.218	10763
929.323	10702
929.428	10626
929.533	10748
929.638	10565
929.743	10672
929.848	10691
929.953	10641
930.058	10523
930.163	10333
930.267	10402
930.372	10535
930.477	10424
930.581	10466
930.685	10390
930.79	10211
930.894	10310
930.998	10280
931.103	10348
931.207	10013
931.311	9876
931.415	9934
931.519	9755
931.623	9713
