Data from test_V78500241_983.txt Node
Date: Fri Mar 25 14:40:33 CST 2022
User: usil
Spectrometer: V785-0024
Trigger mode: 0
Integration Time (sec): 4.000000E-1
Scans to average: 1
Nonlinearity correction enabled: false
Boxcar width: 0
Storing dark spectrum: false
XAxis mode: Wavelengths
Number of Pixels in Spectrum: 1024
>>>>>Begin Spectral Data<<<<<
801.071	23364
801.214	23121
801.356	22923
801.499	22828
801.641	22557
801.783	22485
801.926	22683
802.068	22497
802.211	22538
802.353	22344
802.496	22128
802.638	22097
802.78	21956
802.923	21991
803.065	21975
803.208	21895
803.35	21975
803.492	21998
803.635	22150
803.777	21972
803.919	21888
804.061	22310
804.204	22070
804.346	21960
804.488	21800
804.63	22006
804.773	21755
804.915	21979
805.057	21983
805.199	21907
805.341	22036
805.483	22059
805.626	21979
805.768	21876
805.91	21941
806.052	21884
806.194	21911
806.336	22192
806.478	22116
806.62	21865
806.762	22105
806.904	22242
807.046	22500
807.188	22409
807.33	22352
807.472	22599
807.614	22478
807.756	22668
807.898	22424
808.04	22531
808.182	22748
808.324	23014
808.465	23067
808.607	23421
808.749	23843
808.891	23874
809.033	23923
809.174	23649
809.316	23516
809.458	23341
809.6	23178
809.741	22877
809.883	22938
810.025	22835
810.166	22957
810.308	22778
810.45	22740
810.591	22626
810.733	22417
810.875	22348
811.016	22299
811.158	22200
811.299	22375
811.441	22341
811.582	22382
811.724	22188
811.865	22310
812.007	22185
812.148	22230
812.29	22284
812.431	22303
812.573	22538
812.714	22569
812.855	22588
812.997	22717
813.138	22862
813.279	22721
813.421	22656
813.562	22561
813.703	22546
813.845	22325
813.986	22013
814.127	21819
814.268	21663
814.41	21774
814.551	21835
814.692	21694
814.833	21671
814.974	21583
815.115	21686
815.256	21557
815.397	21496
815.539	21564
815.68	21511
815.821	21389
815.962	21542
816.103	21397
816.244	21195
816.385	21119
816.526	21142
816.666	20986
816.807	20929
816.948	20849
817.089	20960
817.23	20929
817.371	20815
817.512	20868
817.653	20712
817.793	20826
817.934	20750
818.075	20925
818.216	20758
818.356	20804
818.497	20739
818.638	20522
818.778	20499
818.919	20518
819.06	20541
819.2	20625
819.341	20735
819.481	20655
819.622	20807
819.762	21020
819.903	21047
820.043	20921
820.184	20883
820.324	20712
820.465	20872
820.605	20815
820.746	20754
820.886	20602
821.026	20689
821.167	20724
821.307	20705
821.447	20743
821.588	20530
821.728	20537
821.868	20355
822.008	20142
822.149	20176
822.289	20206
822.429	19978
822.569	19818
822.709	19856
822.849	19582
822.99	19544
823.13	19590
823.27	19483
823.41	19434
823.55	19392
823.69	19548
823.83	19460
823.97	19282
824.11	19247
824.25	19194
824.389	19327
824.529	19232
824.669	19202
824.809	19327
824.949	19297
825.089	19259
825.228	19251
825.368	19012
825.508	19038
825.648	19050
825.787	19061
825.927	18989
826.067	18966
826.206	18894
826.346	19042
826.485	19008
826.625	19023
826.765	19057
826.904	19091
827.044	18688
827.183	18741
827.323	18646
827.462	18730
827.601	18734
827.741	18738
827.88	18631
828.02	18528
828.159	18620
828.298	18776
828.437	18730
828.577	18661
828.716	18783
828.855	18635
828.994	18490
829.134	18525
829.273	18540
829.412	18395
829.551	18361
829.69	18525
829.829	18407
829.968	18661
830.107	18509
830.246	18452
830.385	18346
830.524	18342
830.663	18232
830.802	18224
830.941	18152
831.08	18026
831.219	18087
831.357	18038
831.496	18296
831.635	18106
831.774	17939
831.913	17946
832.051	17904
832.19	17813
832.329	17832
832.467	17752
832.606	17813
832.744	17703
832.883	17897
833.022	17703
833.16	17847
833.299	17927
833.437	17847
833.576	17851
833.714	17931
833.852	17874
833.991	17965
834.129	17969
834.267	17935
834.406	17760
834.544	17889
834.682	17840
834.821	17855
834.959	17904
835.097	17775
835.235	17923
835.373	17821
835.511	17794
835.65	17726
835.788	17718
835.926	17474
836.064	17463
836.202	17596
836.34	17703
836.478	17840
836.615	17752
836.753	17699
836.891	17783
837.029	17722
837.167	17699
837.305	17429
837.443	17661
837.58	17547
837.718	17558
837.856	17528
837.993	17619
838.131	17615
838.269	17444
838.406	17528
838.544	17391
838.681	17239
838.819	17246
838.956	17075
839.094	17067
839.231	17071
839.369	17349
839.506	17497
839.643	17235
839.781	17242
839.918	17045
840.055	17102
840.193	17079
840.33	17083
840.467	16965
840.604	17037
840.742	17292
840.879	16881
841.016	16904
841.153	16900
841.29	17151
841.427	17060
841.564	17151
841.701	17064
841.838	16999
841.975	16923
842.112	16896
842.249	16843
842.385	16816
842.522	16942
842.659	16889
842.796	16736
842.933	16877
843.069	16820
843.206	16812
843.343	16961
843.479	16778
843.616	16877
843.752	16618
843.889	16611
844.025	16710
844.162	16683
844.298	16637
844.435	16577
844.571	16558
844.708	16755
844.844	16820
844.98	16809
845.117	16869
845.253	16702
845.389	16763
845.525	16991
845.661	17330
845.798	17687
845.934	18224
846.07	18232
846.206	18205
846.342	17916
846.478	17486
846.614	16900
846.75	16558
846.886	16432
847.022	16322
847.158	16268
847.294	16249
847.429	16268
847.565	16238
847.701	16436
847.837	16013
847.972	15838
848.108	15915
848.244	16025
848.379	15739
848.515	15732
848.65	15720
848.786	15736
848.921	15743
849.057	15800
849.192	15823
849.328	15804
849.463	15770
849.598	15705
849.734	15622
849.869	15648
850.004	15564
850.14	15443
850.275	15545
850.41	15466
850.545	15447
850.68	15401
850.815	15576
850.95	15488
851.085	15648
851.22	15557
851.355	15534
851.49	15477
851.625	15424
851.76	15431
851.895	15439
852.03	15298
852.165	15458
852.299	15488
852.434	15603
852.569	15530
852.703	15591
852.838	15557
852.973	15641
853.107	15751
853.242	15526
853.376	15378
853.511	15211
853.645	15317
853.78	15443
853.914	15272
854.048	15344
854.183	15329
854.317	15344
854.451	15534
854.585	15329
854.72	15382
854.854	15424
854.988	15363
855.122	15363
855.256	15256
855.39	15294
855.524	15412
855.658	15477
855.792	15370
855.926	15420
856.06	15416
856.194	15458
856.327	15321
856.461	15313
856.595	15272
856.729	15367
856.862	15351
856.996	15348
857.13	15454
857.263	15507
857.397	15485
857.53	15359
857.664	15420
857.797	15458
857.931	15488
858.064	15412
858.197	15466
858.331	15416
858.464	15249
858.597	15355
858.731	15306
858.864	15287
858.997	15310
859.13	15412
859.263	15329
859.396	15405
859.529	15313
859.662	15245
859.795	15420
859.928	15291
860.061	15462
860.194	15504
860.327	15454
860.46	15313
860.592	15363
860.725	15458
860.858	15435
860.99	15291
861.123	15195
861.256	15294
861.388	15439
861.521	16021
861.653	15135
861.786	15218
861.918	15104
862.05	15256
862.183	15279
862.315	15241
862.447	15306
862.58	15260
862.712	15108
862.844	14990
862.976	15207
863.108	15085
863.24	15587
863.372	15028
863.504	15028
863.636	15036
863.768	15180
863.9	15051
864.032	14994
864.164	15085
864.296	15104
864.428	15233
864.559	15291
864.691	15135
864.823	15199
864.954	15104
865.086	14990
865.217	15039
865.349	15020
865.48	15055
865.612	15116
865.743	15176
865.875	15089
866.006	15051
866.137	14937
866.269	15097
866.4	15077
866.531	15020
866.662	15097
866.793	14982
866.924	14979
867.055	14994
867.186	14979
867.317	15066
867.448	14948
867.579	15032
867.71	15009
867.841	14880
867.972	15108
868.103	15017
868.233	15047
868.364	15055
868.495	15203
868.625	15344
868.756	15382
868.886	15180
869.017	15272
869.147	15359
869.278	15332
869.408	15336
869.539	15298
869.669	15458
869.799	15431
869.929	15420
870.06	15447
870.19	15587
870.32	15701
870.45	15713
870.58	15747
870.71	15831
870.84	15793
870.97	15717
871.1	15789
871.23	16002
871.36	15998
871.489	15800
871.619	15949
871.749	15945
871.879	15949
872.008	15979
872.138	15972
872.267	15899
872.397	15770
872.526	15720
872.656	15720
872.785	15838
872.915	15934
873.044	15926
873.173	15850
873.303	16006
873.432	16036
873.561	16013
873.69	16017
873.819	16002
873.948	16063
874.077	16013
874.206	15835
874.335	15930
874.464	16143
874.593	16280
874.722	16207
874.851	16265
874.979	16344
875.108	16333
875.237	16173
875.365	16249
875.494	16310
875.623	16238
875.751	16329
875.88	16265
876.008	16462
876.136	16424
876.265	16759
876.393	16854
876.521	16721
876.65	16725
876.778	16630
876.906	16744
877.034	16615
877.162	16748
877.29	16656
877.418	16805
877.546	16725
877.674	16713
877.802	16816
877.93	16736
878.058	16797
878.185	16767
878.313	16793
878.441	16892
878.568	16698
878.696	16831
878.824	16968
878.951	17067
879.079	17341
879.206	17623
879.333	17516
879.461	17543
879.588	17779
879.715	17805
879.842	17764
879.97	17356
880.097	17143
880.224	16965
880.351	16923
880.478	16793
880.605	16691
880.732	16713
880.859	16889
880.986	16725
881.112	16797
881.239	16645
881.366	16592
881.493	16371
881.619	16318
881.746	16402
881.872	16398
881.999	16390
882.125	16443
882.252	16382
882.378	16523
882.505	16577
882.631	16314
882.757	16299
882.883	16265
883.01	16242
883.136	16166
883.262	16078
883.388	16055
883.514	16257
883.64	16318
883.766	16188
883.892	16002
884.018	16067
884.143	16249
884.269	16306
884.395	15888
884.52	15899
884.646	15956
884.772	15888
884.897	15838
885.023	15819
885.148	16048
885.274	16097
885.399	16090
885.524	15854
885.65	15934
885.775	15926
885.9	15892
886.025	16017
886.15	15857
886.275	15816
886.4	15724
886.525	15762
886.65	15781
886.775	15755
886.9	15873
887.025	16025
887.149	15857
887.274	15694
887.399	15603
887.523	15523
887.648	15515
887.773	15553
887.897	15614
888.021	15652
888.146	15504
888.27	15603
888.395	15751
888.519	15603
888.643	15671
888.767	15679
888.891	15568
889.015	15401
889.139	15496
889.263	15370
889.387	15515
889.511	15625
889.635	15526
889.759	15317
889.883	15416
890.006	15485
890.13	15549
890.254	15302
890.377	15325
890.501	15161
890.624	15207
890.748	15237
890.871	15169
890.995	15005
891.118	15005
891.241	15089
891.364	15085
891.488	15142
891.611	15157
891.734	14971
891.857	15093
891.98	15131
892.103	15093
892.226	15233
892.349	15017
892.471	14998
892.594	14925
892.717	15047
892.839	15036
892.962	15013
893.085	15097
893.207	15043
893.33	14956
893.452	14887
893.575	15062
893.697	15020
893.819	15173
893.941	15218
894.064	15142
894.186	14975
894.308	14990
894.43	15032
894.552	15283
894.674	15157
894.796	14963
894.918	15097
895.04	15051
895.161	15169
895.283	15043
895.405	15001
895.526	15100
895.648	15081
895.769	15233
895.891	15138
896.012	15203
896.134	15116
896.255	15203
896.376	15119
896.498	15230
896.619	15252
896.74	15222
896.861	15211
896.982	15481
897.103	15595
897.224	15481
897.345	15401
897.466	15310
897.587	15530
897.708	15564
897.828	15428
897.949	15374
898.07	15340
898.19	15359
898.311	15545
898.431	15477
898.552	15515
898.672	15580
898.792	15462
898.913	15447
899.033	15348
899.153	15428
899.273	15192
899.393	15306
899.513	15359
899.633	15359
899.753	15435
899.873	15370
899.993	15302
900.113	15291
900.232	15416
900.352	15230
900.472	15287
900.591	15138
900.711	15199
900.83	15165
900.95	15443
901.069	15230
901.189	15127
901.308	14994
901.427	14788
901.546	14982
901.665	14899
901.784	14944
901.904	14743
902.023	14568
902.141	14446
902.26	14370
902.379	14522
902.498	14454
902.617	14412
902.735	14514
902.854	14446
902.973	14347
903.091	14202
903.21	14115
903.328	14111
903.446	14161
903.565	13890
903.683	14107
903.801	13856
903.919	13955
904.038	13894
904.156	13772
904.274	13852
904.392	13769
904.51	13700
904.627	13750
904.745	13803
904.863	13780
904.981	13514
905.098	13499
905.216	13460
905.334	13445
905.451	13411
905.569	13396
905.686	13480
905.803	13411
905.921	13247
906.038	13381
906.155	13240
906.272	13175
906.389	13209
906.506	12958
906.623	13034
906.74	12924
906.857	12920
906.974	12962
907.091	13129
907.208	13152
907.324	13004
907.441	12958
907.557	12810
907.674	12768
907.79	12620
907.907	12703
908.023	12837
908.139	12692
908.256	12658
908.372	12616
908.488	12585
908.604	12509
908.72	12475
908.836	12525
908.952	12418
909.068	12467
909.184	12547
909.3	12494
909.415	12532
909.531	12525
909.647	12296
909.762	12239
909.878	12209
909.993	12232
910.108	12315
910.224	12220
910.339	12140
910.454	12194
910.57	12121
910.685	11969
910.8	12300
910.915	12262
911.03	12114
911.145	11969
911.259	11984
911.374	11969
911.489	11855
911.604	11760
911.718	11714
911.833	11657
911.947	11589
912.062	11516
912.176	11623
912.291	11589
912.405	11592
912.519	11847
912.633	11916
912.748	11748
912.862	11649
912.976	11592
913.09	11421
913.204	11486
913.318	11482
913.431	11630
913.545	11627
913.659	11566
913.772	11627
913.886	11471
914	11372
914.113	11532
914.226	11581
914.34	11482
914.453	11311
914.566	11471
914.68	11421
914.793	11330
914.906	11246
915.019	11121
915.132	11014
915.245	11083
915.358	11151
915.47	11170
915.583	11147
915.696	11204
915.809	11254
915.921	11311
916.034	11124
916.146	11094
916.259	11155
916.371	11128
916.483	11159
916.595	11041
916.708	11048
916.82	11079
916.932	11079
917.044	11086
917.156	10991
917.268	10965
917.38	10915
917.491	10881
917.603	10968
917.715	11052
917.826	11056
917.938	10885
918.049	10843
918.161	10961
918.272	10999
918.384	10957
918.495	10930
918.606	10786
918.717	10721
918.828	10786
918.939	10862
919.05	10778
919.161	10774
919.272	10523
919.383	10592
919.494	10862
919.604	11060
919.715	10839
919.826	10824
919.936	10839
920.047	10869
920.157	10873
920.267	10961
920.378	10858
920.488	10771
920.598	11037
920.708	11246
920.818	10961
920.928	10987
921.038	11132
921.148	11075
921.258	10793
921.368	10675
921.477	10714
921.587	10679
921.697	10527
921.806	10653
921.916	10512
922.025	10337
922.134	10329
922.244	10234
922.353	10398
922.462	10249
922.571	10116
922.68	10021
922.789	9979
922.898	10017
923.007	9964
923.116	10059
923.224	10032
923.333	9994
923.442	9911
923.55	9884
923.659	9915
923.767	9983
923.876	9838
923.984	10017
924.092	9797
924.201	9846
924.309	9899
924.417	9880
924.525	9869
924.633	9793
924.741	10763
924.849	9614
924.956	9835
925.064	9633
925.172	9572
925.279	9538
925.387	9622
925.494	9743
925.602	9800
925.709	9774
925.816	9599
925.924	9679
926.031	9766
926.138	9656
926.245	9781
926.352	9618
926.459	9675
926.566	9724
926.673	9526
926.779	9488
926.886	9496
926.993	9386
927.099	9401
927.206	9389
927.312	9287
927.419	9405
927.525	9348
927.631	9401
927.737	9294
927.843	9245
927.95	9192
928.056	9188
928.162	9272
928.267	9317
928.373	9717
928.479	9351
928.585	9100
928.69	9218
928.796	9355
928.901	9176
929.007	9043
929.112	9138
929.218	9154
929.323	9028
929.428	9013
929.533	9256
929.638	9032
929.743	9017
929.848	9047
929.953	9024
930.058	8845
930.163	8796
930.267	8762
930.372	8910
930.477	8796
930.581	9039
930.685	8918
930.79	8731
930.894	8712
930.998	8800
931.103	8899
931.207	8522
931.311	8473
931.415	8347
931.519	8252
931.623	8275
