Data from test_V78500241_2993.txt Node
Date: Fri Mar 25 14:54:33 CST 2022
User: usil
Spectrometer: V785-0024
Trigger mode: 0
Integration Time (sec): 4.000000E-1
Scans to average: 1
Nonlinearity correction enabled: false
Boxcar width: 0
Storing dark spectrum: false
XAxis mode: Wavelengths
Number of Pixels in Spectrum: 1024
>>>>>Begin Spectral Data<<<<<
801.071	22120
801.214	21960
801.356	21705
801.499	21625
801.641	21606
801.783	21523
801.926	21462
802.068	21389
802.211	21374
802.353	21222
802.496	21036
802.638	20933
802.78	20963
802.923	20876
803.065	20708
803.208	20724
803.35	20830
803.492	20933
803.635	20967
803.777	20895
803.919	20834
804.061	21188
804.204	20792
804.346	20678
804.488	20606
804.63	20785
804.773	20727
804.915	20602
805.057	20914
805.199	20552
805.341	20716
805.483	20910
805.626	20769
805.768	20571
805.91	20655
806.052	20781
806.194	20594
806.336	20823
806.478	20686
806.62	20659
806.762	20777
806.904	20861
807.046	20986
807.188	20941
807.33	21032
807.472	21157
807.614	20937
807.756	20861
807.898	20804
808.04	20785
808.182	20792
808.324	20765
808.465	20724
808.607	21009
808.749	21226
808.891	21252
809.033	21329
809.174	21173
809.316	21036
809.458	21039
809.6	21123
809.741	21108
809.883	21051
810.025	21336
810.166	21283
810.308	21291
810.45	21176
810.591	21173
810.733	21028
810.875	20861
811.016	20834
811.158	20765
811.299	20906
811.441	20979
811.582	21009
811.724	20823
811.865	20914
812.007	20880
812.148	20891
812.29	20887
812.431	21058
812.573	21180
812.714	21268
812.855	21294
812.997	21367
813.138	21572
813.279	21450
813.421	21389
813.562	21329
813.703	21184
813.845	21020
813.986	20693
814.127	20598
814.268	20446
814.41	20507
814.551	20442
814.692	20499
814.833	20381
814.974	20404
815.115	20347
815.256	20168
815.397	20339
815.539	20256
815.68	20043
815.821	20058
815.962	20206
816.103	19997
816.244	19921
816.385	19944
816.526	19917
816.666	19597
816.807	19567
816.948	19590
817.089	19597
817.23	19586
817.371	19632
817.512	19495
817.653	19537
817.793	19449
817.934	19514
818.075	19533
818.216	19662
818.356	19537
818.497	19388
818.638	19202
818.778	19202
818.919	19377
819.06	19247
819.2	19274
819.341	19419
819.481	19476
819.622	19662
819.762	19613
819.903	19742
820.043	19647
820.184	19407
820.324	19441
820.465	19594
820.605	19510
820.746	19480
820.886	19354
821.026	19529
821.167	19358
821.307	19666
821.447	19434
821.588	19316
821.728	19236
821.868	19019
822.008	18863
822.149	18821
822.289	18905
822.429	18635
822.569	18612
822.709	18582
822.849	18353
822.99	18376
823.13	18304
823.27	18346
823.41	18232
823.55	18091
823.69	18258
823.83	18311
823.97	18076
824.11	17977
824.25	17942
824.389	17946
824.529	18030
824.669	18076
824.809	18079
824.949	17996
825.089	18034
825.228	17897
825.368	17874
825.508	17680
825.648	17790
825.787	17821
825.927	17851
826.067	17680
826.206	17783
826.346	17733
826.485	17767
826.625	17722
826.765	17897
826.904	17798
827.044	17611
827.183	17417
827.323	17516
827.462	17532
827.601	17429
827.741	17364
827.88	17307
828.02	17372
828.159	17387
828.298	17463
828.437	17395
828.577	17429
828.716	17459
828.855	17421
828.994	17151
829.134	17204
829.273	17193
829.412	17155
829.551	17060
829.69	17147
829.829	17258
829.968	17140
830.107	17151
830.246	17132
830.385	17105
830.524	17128
830.663	16980
830.802	16904
830.941	16793
831.08	16790
831.219	16896
831.357	16839
831.496	16949
831.635	16812
831.774	16702
831.913	16733
832.051	16573
832.19	16497
832.329	16656
832.467	16443
832.606	16474
832.744	16481
832.883	16421
833.022	16329
833.16	16504
833.299	16519
833.437	16500
833.576	16546
833.714	16497
833.852	16405
833.991	16546
834.129	16626
834.267	16459
834.406	16523
834.544	16542
834.682	16538
834.821	16489
834.959	16653
835.097	16497
835.235	16523
835.373	16637
835.511	16577
835.65	16413
835.788	16398
835.926	16272
836.064	16325
836.202	16356
836.34	16432
836.478	16500
836.615	16352
836.753	16489
836.891	16500
837.029	16382
837.167	16402
837.305	16386
837.443	16242
837.58	16287
837.718	16382
837.856	16325
837.993	16253
838.131	16246
838.269	16093
838.406	16348
838.544	16211
838.681	15964
838.819	15987
838.956	15804
839.094	15720
839.231	15865
839.369	15903
839.506	16280
839.643	16044
839.781	15880
839.918	15926
840.055	15835
840.193	15854
840.33	15842
840.467	15755
840.604	15850
840.742	15972
840.879	15698
841.016	15679
841.153	15789
841.29	15922
841.427	15766
841.564	15846
841.701	15880
841.838	15842
841.975	15739
842.112	15774
842.249	15713
842.385	15568
842.522	15812
842.659	15637
842.796	15542
842.933	15637
843.069	15587
843.206	15561
843.343	15633
843.479	15603
843.616	15641
843.752	15370
843.889	15378
844.025	15618
844.162	15344
844.298	15488
844.435	15370
844.571	15287
844.708	15458
844.844	15606
844.98	15481
845.117	15473
845.253	15302
845.389	15340
845.525	15408
845.661	15256
845.798	15207
845.934	15203
846.07	15192
846.206	15188
846.342	15245
846.478	15108
846.614	15074
846.75	14899
846.886	14876
847.022	15055
847.158	14948
847.294	14929
847.429	14998
847.565	14941
847.701	15184
847.837	14769
847.972	14541
848.108	14777
848.244	14686
848.379	14632
848.515	14575
848.65	14530
848.786	14564
848.921	14476
849.057	14568
849.192	14636
849.328	14583
849.463	14522
849.598	14454
849.734	14507
849.869	14313
850.004	14404
850.14	14355
850.275	14267
850.41	14229
850.545	14351
850.68	14305
850.815	14442
850.95	14317
851.085	14545
851.22	14461
851.355	14298
851.49	14324
851.625	14218
851.76	14278
851.895	14176
852.03	14119
852.165	14263
852.299	14343
852.434	14427
852.569	14408
852.703	14396
852.838	14419
852.973	14396
853.107	14465
853.242	14336
853.376	14282
853.511	14077
853.645	14199
853.78	14278
853.914	14180
854.048	14218
854.183	14161
854.317	14142
854.451	14320
854.585	14172
854.72	14130
854.854	14195
854.988	14062
855.122	14134
855.256	14096
855.39	14290
855.524	14256
855.658	14221
855.792	14180
855.926	14263
856.06	14229
856.194	14294
856.327	14218
856.461	14077
856.595	14130
856.729	14176
856.862	14278
856.996	14149
857.13	14298
857.263	14298
857.397	14393
857.53	14195
857.664	14252
857.797	14351
857.931	14263
858.064	14259
858.197	14183
858.331	14168
858.464	14191
858.597	14138
858.731	14240
858.864	14221
858.997	14218
859.13	14191
859.263	14240
859.396	14233
859.529	14202
859.662	14149
859.795	14130
859.928	14145
860.061	14412
860.194	14332
860.327	14157
860.46	14168
860.592	14298
860.725	14263
860.858	14271
860.99	14218
861.123	14149
861.256	14130
861.388	14142
861.521	14823
861.653	14024
861.786	14027
861.918	14073
862.05	14149
862.183	14123
862.315	14195
862.447	14244
862.58	14073
862.712	13940
862.844	13967
862.976	13986
863.108	13928
863.24	14408
863.372	13887
863.504	13967
863.636	13917
863.768	14054
863.9	13944
864.032	13883
864.164	13871
864.296	13906
864.428	14012
864.559	14012
864.691	14138
864.823	14031
864.954	13947
865.086	14073
865.217	13921
865.349	13833
865.48	13944
865.612	14016
865.743	14092
865.875	13947
866.006	13921
866.137	13936
866.269	13932
866.4	13902
866.531	13894
866.662	13932
866.793	13913
866.924	13898
867.055	13917
867.186	13993
867.317	13871
867.448	13894
867.579	13860
867.71	13856
867.841	13978
867.972	14035
868.103	13894
868.233	13997
868.364	13955
868.495	14016
868.625	14214
868.756	14286
868.886	14172
869.017	14210
869.147	14275
869.278	14317
869.408	14187
869.539	14271
869.669	14298
869.799	14275
869.929	14271
870.06	14229
870.19	14351
870.32	14473
870.45	14568
870.58	14686
870.71	14670
870.84	14670
870.97	14606
871.1	14587
871.23	14727
871.36	14807
871.489	14655
871.619	14792
871.749	14815
871.879	14804
872.008	14857
872.138	14754
872.267	14636
872.397	14670
872.526	14686
872.656	14571
872.785	14705
872.915	14804
873.044	14796
873.173	14849
873.303	14883
873.432	14937
873.561	14868
873.69	14754
873.819	14899
873.948	14963
874.077	14834
874.206	14838
874.335	14910
874.464	15032
874.593	15245
874.722	15093
874.851	15146
874.979	15161
875.108	15218
875.237	15077
875.365	15058
875.494	15211
875.623	15237
875.751	15245
875.88	15192
876.008	15283
876.136	15424
876.265	15591
876.393	15663
876.521	15660
876.65	15614
876.778	15572
876.906	15549
877.034	15530
877.162	15473
877.29	15519
877.418	15580
877.546	15553
877.674	15542
877.802	15587
877.93	15633
878.058	15526
878.185	15519
878.313	15523
878.441	15534
878.568	15359
878.696	15447
878.824	15530
878.951	15625
879.079	15743
879.206	15804
879.333	15724
879.461	15690
879.588	15644
879.715	15743
879.842	15907
879.97	15690
880.097	15389
880.224	15351
880.351	15507
880.478	15378
880.605	15405
880.732	15485
880.859	15603
880.986	15477
881.112	15424
881.239	15310
881.366	15211
881.493	15013
881.619	15036
881.746	15157
881.872	15097
881.999	15043
882.125	14990
882.252	15085
882.378	15070
882.505	15233
882.631	15001
882.757	14914
882.883	15009
883.01	14937
883.136	14887
883.262	14838
883.388	14823
883.514	14960
883.64	15005
883.766	14826
883.892	14727
884.018	14773
884.143	14986
884.269	15005
884.395	14686
884.52	14583
884.646	14712
884.772	14541
884.897	14503
885.023	14610
885.148	14716
885.274	14826
885.399	14705
885.524	14568
885.65	14583
885.775	14667
885.9	14644
886.025	14705
886.15	14762
886.275	14541
886.4	14518
886.525	14632
886.65	14473
886.775	14571
886.9	14708
887.025	14811
887.149	14575
887.274	14457
887.399	14457
887.523	14351
887.648	14313
887.773	14309
887.897	14564
888.021	14522
888.146	14366
888.27	14518
888.395	14522
888.519	14473
888.643	14412
888.767	14499
888.891	14374
889.015	14176
889.139	14366
889.263	14267
889.387	14377
889.511	14552
889.635	14434
889.759	14271
889.883	14370
890.006	14290
890.13	14438
890.254	14298
890.377	14263
890.501	14111
890.624	14039
890.748	14107
890.871	14043
890.995	13951
891.118	13856
891.241	13989
891.364	14027
891.488	14107
891.611	14020
891.734	14058
891.857	14149
891.98	14058
892.103	14065
892.226	13974
892.349	13951
892.471	13883
892.594	13951
892.717	14005
892.839	13944
892.962	14035
893.085	14001
893.207	13982
893.33	13906
893.452	13955
893.575	13993
893.697	14054
893.819	14180
893.941	14240
894.064	14168
894.186	13955
894.308	13978
894.43	14149
894.552	14214
894.674	14081
894.796	13997
894.918	14054
895.04	14100
895.161	14077
895.283	14138
895.405	14119
895.526	14142
895.648	14077
895.769	14142
895.891	14199
896.012	14210
896.134	14313
896.255	14225
896.376	14096
896.498	14119
896.619	14142
896.74	14240
896.861	14199
896.982	14514
897.103	14613
897.224	14499
897.345	14511
897.466	14244
897.587	14442
897.708	14541
897.828	14533
897.949	14358
898.07	14263
898.19	14446
898.311	14613
898.431	14575
898.552	14552
898.672	14606
898.792	14697
898.913	14507
899.033	14419
899.153	14434
899.273	14271
899.393	14320
899.513	14446
899.633	14408
899.753	14343
899.873	14377
899.993	14465
900.113	14404
900.232	14442
900.352	14324
900.472	14351
900.591	14256
900.711	14233
900.83	14199
900.95	14427
901.069	14385
901.189	14206
901.308	14020
901.427	13955
901.546	13947
901.665	13982
901.784	13997
901.904	13776
902.023	13731
902.141	13586
902.26	13483
902.379	13590
902.498	13464
902.617	13403
902.735	13609
902.854	13514
902.973	13468
903.091	13297
903.21	13282
903.328	13266
903.446	13160
903.565	13107
903.683	13118
903.801	13095
903.919	13194
904.038	13122
904.156	12882
904.274	13015
904.392	12844
904.51	12928
904.627	12924
904.745	12882
904.863	13034
904.981	12757
905.098	12536
905.216	12601
905.334	12563
905.451	12585
905.569	12570
905.686	12608
905.803	12662
905.921	12319
906.038	12502
906.155	12426
906.272	12342
906.389	12395
906.506	12136
906.623	12254
906.74	12152
906.857	12152
906.974	12095
907.091	12175
907.208	12380
907.324	12209
907.441	12079
907.557	11889
907.674	11935
907.79	11931
907.907	11840
908.023	11935
908.139	11954
908.256	11889
908.372	11767
908.488	11836
908.604	11703
908.72	11653
908.836	11649
908.952	11691
909.068	11695
909.184	11798
909.3	11668
909.415	11733
909.531	11634
909.647	11539
909.762	11535
909.878	11490
909.993	11429
910.108	11421
910.224	11444
910.339	11535
910.454	11360
910.57	11341
910.685	11284
910.8	11516
910.915	11425
911.03	11265
911.145	11132
911.259	11147
911.374	11136
911.489	11098
911.604	11018
911.718	10953
911.833	10980
911.947	10782
912.062	10679
912.176	10904
912.291	10934
912.405	10972
912.519	11014
912.633	11197
912.748	10938
912.862	10900
912.976	10839
913.09	10755
913.204	10774
913.318	10706
913.431	10900
913.545	10949
913.659	10889
913.772	10847
913.886	10744
914	10554
914.113	10767
914.226	10809
914.34	10797
914.453	10531
914.566	10816
914.68	10516
914.793	10656
914.906	10398
915.019	10363
915.132	10280
915.245	10344
915.358	10409
915.47	10390
915.583	10394
915.696	10508
915.809	10588
915.921	10516
916.034	10379
916.146	10379
916.259	10382
916.371	10489
916.483	10421
916.595	10276
916.708	10325
916.82	10341
916.932	10344
917.044	10371
917.156	10299
917.268	10215
917.38	10265
917.491	10246
917.603	10253
917.715	10352
917.826	10436
917.938	10322
918.049	10112
918.161	10280
918.272	10398
918.384	10455
918.495	10265
918.606	10059
918.717	10067
918.828	10166
918.939	10177
919.05	10124
919.161	10173
919.272	9899
919.383	10040
919.494	10246
919.604	10386
919.715	10158
919.826	10048
919.936	10135
920.047	10204
920.157	10185
920.267	10310
920.378	10086
920.488	10139
920.598	10333
920.708	10535
920.818	10325
920.928	10284
921.038	10497
921.148	10462
921.258	10200
921.368	10055
921.477	9934
921.587	9949
921.697	9854
921.806	10036
921.916	9953
922.025	9747
922.134	9675
922.244	9641
922.353	9751
922.462	9660
922.571	9553
922.68	9397
922.789	9393
922.898	9416
923.007	9344
923.116	9424
923.224	9492
923.333	9428
923.442	9313
923.55	9302
923.659	9374
923.767	9393
923.876	9199
923.984	9363
924.092	9237
924.201	9294
924.309	9249
924.417	9332
924.525	9230
924.633	9207
924.741	10162
924.849	9081
924.956	9169
925.064	9104
925.172	8998
925.279	9024
925.387	9089
925.494	9013
925.602	9169
925.709	9211
925.816	8933
925.924	9028
926.031	9142
926.138	9116
926.245	9123
926.352	9058
926.459	9074
926.566	9150
926.673	9013
926.779	8906
926.886	8868
926.993	8819
927.099	8811
927.206	8785
927.312	8705
927.419	8864
927.525	8811
927.631	8807
927.737	8743
927.843	8689
927.95	8556
928.056	8636
928.162	8724
928.267	8705
928.373	9272
928.479	8762
928.585	8571
928.69	8659
928.796	8750
928.901	8606
929.007	8450
929.112	8613
929.218	8530
929.323	8533
929.428	8492
929.533	8651
929.638	8434
929.743	8454
929.848	8571
929.953	8495
930.058	8438
930.163	8271
930.267	8298
930.372	8377
930.477	8282
930.581	8541
930.685	8377
930.79	8244
930.894	8225
930.998	8256
931.103	8298
931.207	8092
931.311	7963
931.415	7917
931.519	7746
931.623	7715
