Data from test_V78500241_2729.txt Node
Date: Fri Mar 25 14:52:43 CST 2022
User: usil
Spectrometer: V785-0024
Trigger mode: 0
Integration Time (sec): 4.000000E-1
Scans to average: 1
Nonlinearity correction enabled: false
Boxcar width: 0
Storing dark spectrum: false
XAxis mode: Wavelengths
Number of Pixels in Spectrum: 1024
>>>>>Begin Spectral Data<<<<<
801.071	21968
801.214	21892
801.356	21583
801.499	21629
801.641	21310
801.783	21382
801.926	21428
802.068	21283
802.211	21226
802.353	21180
802.496	20986
802.638	20868
802.78	20857
802.923	20750
803.065	20705
803.208	20606
803.35	20678
803.492	20762
803.635	20811
803.777	20739
803.919	20746
804.061	21096
804.204	20762
804.346	20632
804.488	20594
804.63	20587
804.773	20514
804.915	20590
805.057	20834
805.199	20625
805.341	20640
805.483	20705
805.626	20743
805.768	20457
805.91	20640
806.052	20674
806.194	20480
806.336	20739
806.478	20648
806.62	20503
806.762	20606
806.904	20750
807.046	20948
807.188	21024
807.33	20925
807.472	20948
807.614	20925
807.756	20811
807.898	20682
808.04	20697
808.182	20655
808.324	20648
808.465	20697
808.607	20872
808.749	21001
808.891	21036
809.033	21165
809.174	20998
809.316	21043
809.458	20994
809.6	20990
809.741	21036
809.883	20956
810.025	21161
810.166	21123
810.308	21112
810.45	20952
810.591	20979
810.733	20842
810.875	20800
811.016	20625
811.158	20659
811.299	20781
811.441	20887
811.582	20804
811.724	20663
811.865	20678
812.007	20720
812.148	20712
812.29	20762
812.431	20830
812.573	21020
812.714	21062
812.855	21207
812.997	21310
813.138	21431
813.279	21485
813.421	21211
813.562	21096
813.703	21066
813.845	20857
813.986	20663
814.127	20427
814.268	20389
814.41	20431
814.551	20290
814.692	20313
814.833	20237
814.974	20202
815.115	20252
815.256	20100
815.397	20077
815.539	20195
815.68	20005
815.821	19967
815.962	20024
816.103	20001
816.244	19909
816.385	19871
816.526	19685
816.666	19495
816.807	19400
816.948	19495
817.089	19502
817.23	19411
817.371	19373
817.512	19483
817.653	19403
817.793	19381
817.934	19419
818.075	19392
818.216	19430
818.356	19362
818.497	19148
818.638	19069
818.778	19122
818.919	19019
819.06	19103
819.2	19148
819.341	19422
819.481	19354
819.622	19430
819.762	19556
819.903	19540
820.043	19578
820.184	19411
820.324	19369
820.465	19388
820.605	19381
820.746	19384
820.886	19179
821.026	19312
821.167	19453
821.307	19308
821.447	19278
821.588	19225
821.728	19122
821.868	18871
822.008	18897
822.149	18798
822.289	18719
822.429	18479
822.569	18464
822.709	18426
822.849	18247
822.99	18410
823.13	18273
823.27	18194
823.41	18190
823.55	18117
823.69	18079
823.83	18129
823.97	18072
824.11	17813
824.25	17760
824.389	17847
824.529	17855
824.669	17840
824.809	17942
824.949	18072
825.089	17931
825.228	17859
825.368	17775
825.508	17741
825.648	17745
825.787	17623
825.927	17752
826.067	17596
826.206	17623
826.346	17623
826.485	17775
826.625	17653
826.765	17707
826.904	17619
827.044	17360
827.183	17330
827.323	17322
827.462	17387
827.601	17337
827.741	17330
827.88	17421
828.02	17280
828.159	17322
828.298	17330
828.437	17459
828.577	17334
828.716	17455
828.855	17235
828.994	17121
829.134	17143
829.273	17048
829.412	17014
829.551	17083
829.69	17136
829.829	17128
829.968	17212
830.107	17071
830.246	17113
830.385	17200
830.524	17041
830.663	16968
830.802	16828
830.941	16668
831.08	16668
831.219	16713
831.357	16790
831.496	16972
831.635	16637
831.774	16717
831.913	16645
832.051	16565
832.19	16478
832.329	16588
832.467	16333
832.606	16306
832.744	16443
832.883	16382
833.022	16375
833.16	16284
833.299	16500
833.437	16409
833.576	16428
833.714	16546
833.852	16459
833.991	16523
834.129	16558
834.267	16550
834.406	16546
834.544	16535
834.682	16489
834.821	16512
834.959	16599
835.097	16409
835.235	16535
835.373	16497
835.511	16580
835.65	16512
835.788	16379
835.926	16181
836.064	16147
836.202	16226
836.34	16516
836.478	16531
836.615	16333
836.753	16394
836.891	16424
837.029	16398
837.167	16352
837.305	16322
837.443	16287
837.58	16246
837.718	16360
837.856	16268
837.993	16196
838.131	16230
838.269	16306
838.406	16147
838.544	16044
838.681	15903
838.819	16116
838.956	15785
839.094	15880
839.231	15918
839.369	16010
839.506	16181
839.643	16040
839.781	15781
839.918	15759
840.055	15739
840.193	15747
840.33	15789
840.467	15770
840.604	15793
840.742	16074
840.879	15713
841.016	15717
841.153	15812
841.29	15884
841.427	15759
841.564	15880
841.701	15770
841.838	15751
841.975	15713
842.112	15709
842.249	15686
842.385	15576
842.522	15774
842.659	15572
842.796	15557
842.933	15568
843.069	15477
843.206	15568
843.343	15629
843.479	15629
843.616	15580
843.752	15382
843.889	15279
844.025	15587
844.162	15313
844.298	15519
844.435	15363
844.571	15378
844.708	15458
844.844	15492
844.98	15515
845.117	15526
845.253	15332
845.389	15310
845.525	15313
845.661	15359
845.798	15150
845.934	15241
846.07	15032
846.206	15173
846.342	15359
846.478	15218
846.614	15001
846.75	14830
846.886	14902
847.022	15032
847.158	14861
847.294	14937
847.429	15005
847.565	14838
847.701	15104
847.837	14724
847.972	14777
848.108	14758
848.244	14800
848.379	14598
848.515	14522
848.65	14484
848.786	14480
848.921	14503
849.057	14762
849.192	14610
849.328	14594
849.463	14530
849.598	14617
849.734	14484
849.869	14400
850.004	14389
850.14	14393
850.275	14400
850.41	14263
850.545	14423
850.68	14294
850.815	14381
850.95	14336
851.085	14469
851.22	14484
851.355	14298
851.49	14286
851.625	14267
851.76	14157
851.895	14180
852.03	14221
852.165	14324
852.299	14240
852.434	14438
852.569	14336
852.703	14313
852.838	14427
852.973	14457
853.107	14560
853.242	14290
853.376	14119
853.511	14145
853.645	14123
853.78	14343
853.914	14180
854.048	14149
854.183	14069
854.317	14210
854.451	14358
854.585	14180
854.72	14062
854.854	14294
854.988	14138
855.122	14130
855.256	14164
855.39	14218
855.524	14381
855.658	14237
855.792	14183
855.926	14191
856.06	14275
856.194	14324
856.327	14218
856.461	14210
856.595	14081
856.729	14237
856.862	14263
856.996	14199
857.13	14252
857.263	14221
857.397	14248
857.53	14096
857.664	14256
857.797	14218
857.931	14343
858.064	14320
858.197	14282
858.331	14123
858.464	14161
858.597	14084
858.731	14119
858.864	14248
858.997	14130
859.13	14271
859.263	14214
859.396	14278
859.529	14100
859.662	14145
859.795	14130
859.928	14195
860.061	14347
860.194	14419
860.327	14244
860.46	14172
860.592	14313
860.725	14381
860.858	14271
860.99	14240
861.123	14123
861.256	14069
861.388	14229
861.521	14861
861.653	14145
861.786	13997
861.918	14111
862.05	14103
862.183	14138
862.315	14221
862.447	14225
862.58	14195
862.712	13928
862.844	13811
862.976	14100
863.108	13982
863.24	14389
863.372	13894
863.504	13936
863.636	13963
863.768	14016
863.9	13982
864.032	13921
864.164	14050
864.296	14005
864.428	14027
864.559	14088
864.691	14123
864.823	14130
864.954	13947
865.086	13989
865.217	13989
865.349	13955
865.48	13925
865.612	14050
865.743	14065
865.875	13951
866.006	13963
866.137	14058
866.269	14001
866.4	13970
866.531	13974
866.662	13826
866.793	13921
866.924	13913
867.055	13997
867.186	13909
867.317	13879
867.448	13894
867.579	13887
867.71	13909
867.841	13902
867.972	13936
868.103	13947
868.233	13970
868.364	13913
868.495	14138
868.625	14263
868.756	14301
868.886	14191
869.017	14221
869.147	14423
869.278	14324
869.408	14275
869.539	14180
869.669	14374
869.799	14221
869.929	14267
870.06	14317
870.19	14370
870.32	14427
870.45	14522
870.58	14625
870.71	14697
870.84	14746
870.97	14644
871.1	14492
871.23	14743
871.36	14811
871.489	14792
871.619	14785
871.749	14727
871.879	14811
872.008	15043
872.138	14948
872.267	14781
872.397	14659
872.526	14590
872.656	14720
872.785	14579
872.915	14712
873.044	14853
873.173	14864
873.303	14891
873.432	14952
873.561	15013
873.69	14887
873.819	14880
873.948	14986
874.077	14891
874.206	14815
874.335	14956
874.464	14952
874.593	15097
874.722	15116
874.851	15272
874.979	15268
875.108	15203
875.237	15108
875.365	15131
875.494	15154
875.623	15245
875.751	15176
875.88	15161
876.008	15389
876.136	15485
876.265	15641
876.393	15789
876.521	15717
876.65	15625
876.778	15599
876.906	15648
877.034	15549
877.162	15625
877.29	15523
877.418	15564
877.546	15625
877.674	15549
877.802	15519
877.93	15538
878.058	15584
878.185	15408
878.313	15481
878.441	15473
878.568	15507
878.696	15542
878.824	15663
878.951	15724
879.079	15785
879.206	15895
879.333	15823
879.461	15622
879.588	15747
879.715	15800
879.842	15854
879.97	15724
880.097	15454
880.224	15313
880.351	15416
880.478	15485
880.605	15443
880.732	15431
880.859	15732
880.986	15545
881.112	15500
881.239	15374
881.366	15203
881.493	15104
881.619	15089
881.746	15157
881.872	15097
881.999	15176
882.125	14982
882.252	15188
882.378	15138
882.505	15298
882.631	15017
882.757	14975
882.883	14933
883.01	14967
883.136	14868
883.262	14838
883.388	14762
883.514	14895
883.64	14933
883.766	14864
883.892	14663
884.018	14746
884.143	14830
884.269	14982
884.395	14651
884.52	14568
884.646	14648
884.772	14583
884.897	14492
885.023	14530
885.148	14765
885.274	14933
885.399	14750
885.524	14632
885.65	14541
885.775	14697
885.9	14655
886.025	14705
886.15	14651
886.275	14590
886.4	14495
886.525	14541
886.65	14594
886.775	14552
886.9	14754
887.025	15013
887.149	14693
887.274	14415
887.399	14377
887.523	14427
887.648	14271
887.773	14400
887.897	14495
888.021	14514
888.146	14408
888.27	14590
888.395	14648
888.519	14511
888.643	14526
888.767	14518
888.891	14427
889.015	14347
889.139	14366
889.263	14328
889.387	14400
889.511	14541
889.635	14499
889.759	14358
889.883	14275
890.006	14366
890.13	14545
890.254	14278
890.377	14240
890.501	14145
890.624	14142
890.748	14237
890.871	14107
890.995	13997
891.118	13928
891.241	14069
891.364	14005
891.488	14164
891.611	13989
891.734	14069
891.857	14024
891.98	14039
892.103	14138
892.226	14046
892.349	14012
892.471	13871
892.594	14035
892.717	14092
892.839	14054
892.962	14027
893.085	14134
893.207	14058
893.33	13997
893.452	13936
893.575	14119
893.697	13989
893.819	14233
893.941	14282
894.064	14157
894.186	13967
894.308	14024
894.43	14138
894.552	14176
894.674	14195
894.796	14050
894.918	14077
895.04	14043
895.161	14138
895.283	14191
895.405	14164
895.526	14183
895.648	14157
895.769	14202
895.891	14248
896.012	14263
896.134	14259
896.255	14237
896.376	14195
896.498	14214
896.619	14237
896.74	14103
896.861	14336
896.982	14629
897.103	14598
897.224	14526
897.345	14412
897.466	14389
897.587	14533
897.708	14625
897.828	14492
897.949	14484
898.07	14317
898.19	14347
898.311	14602
898.431	14484
898.552	14473
898.672	14590
898.792	14590
898.913	14602
899.033	14503
899.153	14522
899.273	14172
899.393	14351
899.513	14381
899.633	14442
899.753	14358
899.873	14351
899.993	14514
900.113	14499
900.232	14473
900.352	14324
900.472	14313
900.591	14305
900.711	14214
900.83	14210
900.95	14351
901.069	14370
901.189	14229
901.308	13947
901.427	13822
901.546	13986
901.665	14035
901.784	14001
901.904	13860
902.023	13753
902.141	13556
902.26	13563
902.379	13685
902.498	13518
902.617	13525
902.735	13658
902.854	13472
902.973	13525
903.091	13335
903.21	13149
903.328	13312
903.446	13179
903.565	13160
903.683	13168
903.801	12954
903.919	13084
904.038	13114
904.156	12856
904.274	13004
904.392	12871
904.51	12924
904.627	12787
904.745	13012
904.863	12970
904.981	12741
905.098	12551
905.216	12677
905.334	12639
905.451	12703
905.569	12585
905.686	12555
905.803	12585
905.921	12399
906.038	12479
906.155	12350
906.272	12353
906.389	12391
906.506	12171
906.623	12266
906.74	12216
906.857	12079
906.974	12114
907.091	12243
907.208	12308
907.324	12167
907.441	12095
907.557	11935
907.674	11954
907.79	11893
907.907	11946
908.023	11954
908.139	11961
908.256	11847
908.372	11847
908.488	11836
908.604	11672
908.72	11600
908.836	11653
908.952	11695
909.068	11691
909.184	11783
909.3	11680
909.415	11756
909.531	11817
909.647	11463
909.762	11589
909.878	11353
909.993	11471
910.108	11493
910.224	11425
910.339	11455
910.454	11372
910.57	11288
910.685	11277
910.8	11615
910.915	11425
911.03	11376
911.145	11246
911.259	11128
911.374	11151
911.489	11128
911.604	11064
911.718	10934
911.833	10953
911.947	10843
912.062	10744
912.176	10900
912.291	10900
912.405	10949
912.519	11079
912.633	11124
912.748	10965
912.862	10961
912.976	10797
913.09	10664
913.204	10786
913.318	10778
913.431	10885
913.545	10915
913.659	10938
913.772	10736
913.886	10694
914	10679
914.113	10763
914.226	10820
914.34	10805
914.453	10584
914.566	10782
914.68	10637
914.793	10641
914.906	10466
915.019	10424
915.132	10379
915.245	10432
915.358	10402
915.47	10462
915.583	10485
915.696	10455
915.809	10607
915.921	10649
916.034	10363
916.146	10356
916.259	10356
916.371	10504
916.483	10428
916.595	10306
916.708	10398
916.82	10402
916.932	10325
917.044	10417
917.156	10367
917.268	10280
917.38	10303
917.491	10215
917.603	10227
917.715	10356
917.826	10344
917.938	10268
918.049	10059
918.161	10360
918.272	10447
918.384	10409
918.495	10318
918.606	10162
918.717	10105
918.828	10215
918.939	10238
919.05	10105
919.161	10051
919.272	9964
919.383	10101
919.494	10223
919.604	10394
919.715	10135
919.826	10067
919.936	10082
920.047	10211
920.157	10219
920.267	10394
920.378	10242
920.488	10253
920.598	10344
920.708	10580
920.818	10398
920.928	10363
921.038	10519
921.148	10500
921.258	10128
921.368	10105
921.477	10025
921.587	10002
921.697	9937
921.806	10067
921.916	9899
922.025	9842
922.134	9717
922.244	9591
922.353	9785
922.462	9614
922.571	9568
922.68	9401
922.789	9439
922.898	9488
923.007	9382
923.116	9412
923.224	9428
923.333	9386
923.442	9382
923.55	9245
923.659	9313
923.767	9401
923.876	9310
923.984	9386
924.092	9222
924.201	9344
924.309	9256
924.417	9321
924.525	9268
924.633	9230
924.741	10010
924.849	9036
924.956	9214
925.064	9077
925.172	9089
925.279	9055
925.387	9176
925.494	9062
925.602	9260
925.709	9127
925.816	9013
925.924	9062
926.031	9222
926.138	9081
926.245	9173
926.352	9051
926.459	9146
926.566	9169
926.673	9017
926.779	9020
926.886	8956
926.993	8807
927.099	8811
927.206	8792
927.312	8766
927.419	8868
927.525	8785
927.631	8880
927.737	8735
927.843	8735
927.95	8556
928.056	8667
928.162	8739
928.267	8811
928.373	9397
928.479	8796
928.585	8522
928.69	8663
928.796	8735
928.901	8621
929.007	8476
929.112	8667
929.218	8651
929.323	8583
929.428	8568
929.533	8606
929.638	8518
929.743	8480
929.848	8564
929.953	8476
930.058	8423
930.163	8271
930.267	8237
930.372	8457
930.477	8233
930.581	8511
930.685	8366
930.79	8237
930.894	8282
930.998	8237
931.103	8298
931.207	8046
931.311	8008
931.415	7917
931.519	7757
931.623	7750
