Data from test_V78500241_2760.txt Node
Date: Fri Mar 25 14:52:55 CST 2022
User: usil
Spectrometer: V785-0024
Trigger mode: 0
Integration Time (sec): 4.000000E-1
Scans to average: 1
Nonlinearity correction enabled: false
Boxcar width: 0
Storing dark spectrum: false
XAxis mode: Wavelengths
Number of Pixels in Spectrum: 1024
>>>>>Begin Spectral Data<<<<<
801.071	21968
801.214	21861
801.356	21717
801.499	21652
801.641	21424
801.783	21447
801.926	21439
802.068	21325
802.211	21241
802.353	21237
802.496	20979
802.638	20902
802.78	20712
802.923	20773
803.065	20758
803.208	20655
803.35	20792
803.492	20910
803.635	20857
803.777	20781
803.919	20842
804.061	21047
804.204	20857
804.346	20670
804.488	20583
804.63	20693
804.773	20598
804.915	20613
805.057	20644
805.199	20552
805.341	20705
805.483	20765
805.626	20769
805.768	20651
805.91	20587
806.052	20667
806.194	20537
806.336	20693
806.478	20655
806.62	20655
806.762	20663
806.904	20861
807.046	21039
807.188	20948
807.33	20948
807.472	21081
807.614	20872
807.756	20876
807.898	20735
808.04	20571
808.182	20788
808.324	20724
808.465	20686
808.607	20857
808.749	20967
808.891	21096
809.033	21165
809.174	21020
809.316	20849
809.458	20899
809.6	20826
809.741	21077
809.883	21169
810.025	21184
810.166	21024
810.308	21093
810.45	21100
810.591	21074
810.733	20815
810.875	20678
811.016	20617
811.158	20670
811.299	20857
811.441	20914
811.582	20834
811.724	20697
811.865	20746
812.007	20735
812.148	20712
812.29	20735
812.431	20952
812.573	21085
812.714	21127
812.855	21199
812.997	21252
813.138	21538
813.279	21389
813.421	21142
813.562	21135
813.703	20910
813.845	20971
813.986	20663
814.127	20423
814.268	20374
814.41	20446
814.551	20256
814.692	20320
814.833	20229
814.974	20168
815.115	20286
815.256	20176
815.397	20145
815.539	20229
815.68	19913
815.821	20024
815.962	20077
816.103	19997
816.244	19845
816.385	19803
816.526	19769
816.666	19521
816.807	19552
816.948	19556
817.089	19518
817.23	19491
817.371	19396
817.512	19460
817.653	19403
817.793	19358
817.934	19441
818.075	19476
818.216	19369
818.356	19403
818.497	19118
818.638	19050
818.778	19091
818.919	19069
819.06	19126
819.2	19236
819.341	19282
819.481	19270
819.622	19430
819.762	19655
819.903	19533
820.043	19502
820.184	19445
820.324	19297
820.465	19400
820.605	19377
820.746	19460
820.886	19202
821.026	19384
821.167	19324
821.307	19381
821.447	19449
821.588	19072
821.728	19061
821.868	18993
822.008	18776
822.149	18871
822.289	18837
822.429	18570
822.569	18437
822.709	18536
822.849	18273
822.99	18327
823.13	18194
823.27	18304
823.41	18220
823.55	18117
823.69	18125
823.83	18152
823.97	17958
824.11	17843
824.25	17901
824.389	17920
824.529	18060
824.669	17908
824.809	18041
824.949	17980
825.089	17954
825.228	17931
825.368	17745
825.508	17760
825.648	17745
825.787	17832
825.927	17836
826.067	17611
826.206	17672
826.346	17714
826.485	17687
826.625	17714
826.765	17840
826.904	17790
827.044	17440
827.183	17379
827.323	17376
827.462	17402
827.601	17322
827.741	17391
827.88	17398
828.02	17345
828.159	17349
828.298	17429
828.437	17433
828.577	17265
828.716	17417
828.855	17360
828.994	17113
829.134	17220
829.273	17117
829.412	17250
829.551	17098
829.69	17178
829.829	17208
829.968	17254
830.107	17261
830.246	17174
830.385	17113
830.524	17075
830.663	16965
830.802	16889
830.941	16839
831.08	16672
831.219	16778
831.357	16877
831.496	16923
831.635	16797
831.774	16622
831.913	16626
832.051	16577
832.19	16599
832.329	16611
832.467	16455
832.606	16436
832.744	16390
832.883	16424
833.022	16363
833.16	16428
833.299	16550
833.437	16474
833.576	16478
833.714	16493
833.852	16481
833.991	16577
834.129	16664
834.267	16634
834.406	16504
834.544	16577
834.682	16508
834.821	16531
834.959	16683
835.097	16478
835.235	16546
835.373	16588
835.511	16405
835.65	16493
835.788	16428
835.926	16421
836.064	16223
836.202	16230
836.34	16512
836.478	16531
836.615	16386
836.753	16519
836.891	16451
837.029	16508
837.167	16402
837.305	16379
837.443	16291
837.58	16253
837.718	16337
837.856	16337
837.993	16234
838.131	16303
838.269	16272
838.406	16299
838.544	16143
838.681	16063
838.819	16055
838.956	15846
839.094	15850
839.231	15918
839.369	16013
839.506	16246
839.643	16067
839.781	15911
839.918	15800
840.055	15743
840.193	15895
840.33	15739
840.467	15797
840.604	15911
840.742	16029
840.879	15656
841.016	15812
841.153	15698
841.29	15975
841.427	15869
841.564	15838
841.701	15850
841.838	15736
841.975	15732
842.112	15709
842.249	15603
842.385	15564
842.522	15918
842.659	15614
842.796	15614
842.933	15709
843.069	15720
843.206	15576
843.343	15591
843.479	15637
843.616	15713
843.752	15412
843.889	15359
844.025	15553
844.162	15348
844.298	15530
844.435	15420
844.571	15298
844.708	15458
844.844	15614
844.98	15549
845.117	15496
845.253	15344
845.389	15268
845.525	15226
845.661	15363
845.798	15195
845.934	15264
846.07	15184
846.206	15260
846.342	15348
846.478	15211
846.614	15043
846.75	14960
846.886	14990
847.022	15017
847.158	14963
847.294	14990
847.429	15028
847.565	14914
847.701	15321
847.837	14712
847.972	14773
848.108	14872
848.244	14788
848.379	14682
848.515	14594
848.65	14533
848.786	14629
848.921	14530
849.057	14731
849.192	14667
849.328	14598
849.463	14663
849.598	14434
849.734	14499
849.869	14427
850.004	14370
850.14	14457
850.275	14446
850.41	14240
850.545	14339
850.68	14282
850.815	14419
850.95	14396
851.085	14499
851.22	14404
851.355	14362
851.49	14286
851.625	14370
851.76	14358
851.895	14267
852.03	14176
852.165	14286
852.299	14336
852.434	14465
852.569	14404
852.703	14343
852.838	14400
852.973	14530
853.107	14503
853.242	14347
853.376	14237
853.511	14237
853.645	14195
853.78	14294
853.914	14271
854.048	14271
854.183	14183
854.317	14233
854.451	14381
854.585	14252
854.72	14088
854.854	14278
854.988	14123
855.122	14278
855.256	14005
855.39	14214
855.524	14294
855.658	14225
855.792	14229
855.926	14206
856.06	14210
856.194	14309
856.327	14271
856.461	14134
856.595	14176
856.729	14180
856.862	14259
856.996	14229
857.13	14275
857.263	14324
857.397	14396
857.53	14229
857.664	14381
857.797	14301
857.931	14290
858.064	14271
858.197	14320
858.331	14149
858.464	14233
858.597	14130
858.731	14218
858.864	14210
858.997	14233
859.13	14294
859.263	14267
859.396	14317
859.529	14199
859.662	14149
859.795	14233
859.928	14290
860.061	14339
860.194	14355
860.327	14290
860.46	14229
860.592	14294
860.725	14366
860.858	14396
860.99	14145
861.123	14168
861.256	14252
861.388	14153
861.521	14861
861.653	14096
861.786	14058
861.918	14054
862.05	14191
862.183	14202
862.315	14259
862.447	14206
862.58	14252
862.712	14054
862.844	13898
862.976	14111
863.108	14134
863.24	14606
863.372	13993
863.504	13921
863.636	14111
863.768	13997
863.9	14012
864.032	13921
864.164	13925
864.296	14024
864.428	14077
864.559	14081
864.691	14180
864.823	14073
864.954	14031
865.086	13989
865.217	13989
865.349	13963
865.48	13997
865.612	14043
865.743	14069
865.875	13913
866.006	13913
866.137	13986
866.269	13967
866.4	13970
866.531	13849
866.662	13936
866.793	13944
866.924	13978
867.055	14008
867.186	13944
867.317	13967
867.448	13902
867.579	13921
867.71	13890
867.841	13849
867.972	14001
868.103	13959
868.233	13993
868.364	13947
868.495	14084
868.625	14317
868.756	14309
868.886	14233
869.017	14233
869.147	14298
869.278	14313
869.408	14218
869.539	14199
869.669	14290
869.799	14240
869.929	14320
870.06	14347
870.19	14663
870.32	14545
870.45	14533
870.58	14575
870.71	14777
870.84	14735
870.97	14575
871.1	14746
871.23	14800
871.36	14811
871.489	14701
871.619	14724
871.749	14872
871.879	14834
872.008	14868
872.138	14857
872.267	14811
872.397	14735
872.526	14674
872.656	14640
872.785	14712
872.915	14849
873.044	14994
873.173	14811
873.303	14887
873.432	14914
873.561	15001
873.69	14971
873.819	14929
873.948	14967
874.077	14830
874.206	14883
874.335	14933
874.464	15081
874.593	15138
874.722	15100
874.851	15256
874.979	15203
875.108	15291
875.237	15093
875.365	15085
875.494	15245
875.623	15249
875.751	15241
875.88	15226
876.008	15321
876.136	15401
876.265	15713
876.393	15808
876.521	15614
876.65	15709
876.778	15644
876.906	15526
877.034	15614
877.162	15595
877.29	15519
877.418	15625
877.546	15648
877.674	15526
877.802	15610
877.93	15629
878.058	15694
878.185	15443
878.313	15591
878.441	15599
878.568	15519
878.696	15511
878.824	15561
878.951	15694
879.079	15720
879.206	15922
879.333	15842
879.461	15736
879.588	15618
879.715	15770
879.842	16010
879.97	15679
880.097	15382
880.224	15424
880.351	15424
880.478	15454
880.605	15450
880.732	15447
880.859	15698
880.986	15523
881.112	15538
881.239	15412
881.366	15237
881.493	15142
881.619	15150
881.746	15127
881.872	15188
881.999	15085
882.125	15123
882.252	15176
882.378	15157
882.505	15310
882.631	15127
882.757	14937
882.883	15017
883.01	14883
883.136	14960
883.262	14804
883.388	14807
883.514	14910
883.64	14872
883.766	14910
883.892	14861
884.018	14636
884.143	14849
884.269	14967
884.395	14724
884.52	14644
884.646	14648
884.772	14571
884.897	14545
885.023	14651
885.148	14743
885.274	14838
885.399	14693
885.524	14670
885.65	14689
885.775	14716
885.9	14613
886.025	14788
886.15	14727
886.275	14621
886.4	14648
886.525	14640
886.65	14556
886.775	14549
886.9	14777
887.025	14857
887.149	14621
887.274	14434
887.399	14377
887.523	14450
887.648	14404
887.773	14362
887.897	14457
888.021	14454
888.146	14469
888.27	14552
888.395	14507
888.519	14518
888.643	14526
888.767	14606
888.891	14431
889.015	14286
889.139	14351
889.263	14431
889.387	14476
889.511	14518
889.635	14465
889.759	14385
889.883	14404
890.006	14396
890.13	14328
890.254	14237
890.377	14294
890.501	14138
890.624	14164
890.748	14229
890.871	14077
890.995	13917
891.118	14005
891.241	14111
891.364	14092
891.488	14180
891.611	14069
891.734	14062
891.857	14183
891.98	14073
892.103	14202
892.226	14077
892.349	14096
892.471	13936
892.594	14005
892.717	14069
892.839	14058
892.962	13982
893.085	14100
893.207	14039
893.33	13970
893.452	13947
893.575	14103
893.697	14001
893.819	14145
893.941	14263
894.064	14161
894.186	14069
894.308	14069
894.43	14187
894.552	14233
894.674	14195
894.796	14027
894.918	14088
895.04	14142
895.161	14176
895.283	14168
895.405	14065
895.526	14142
895.648	14248
895.769	14161
895.891	14145
896.012	14176
896.134	14320
896.255	14278
896.376	14142
896.498	14229
896.619	14370
896.74	14134
896.861	14267
896.982	14419
897.103	14663
897.224	14495
897.345	14484
897.466	14366
897.587	14503
897.708	14598
897.828	14632
897.949	14434
898.07	14347
898.19	14450
898.311	14659
898.431	14590
898.552	14541
898.672	14659
898.792	14674
898.913	14617
899.033	14484
899.153	14484
899.273	14351
899.393	14347
899.513	14343
899.633	14366
899.753	14476
899.873	14446
899.993	14461
900.113	14381
900.232	14492
900.352	14408
900.472	14336
900.591	14229
900.711	14385
900.83	14237
900.95	14305
901.069	14480
901.189	14161
901.308	13875
901.427	14001
901.546	13982
901.665	13913
901.784	13989
901.904	13772
902.023	13761
902.141	13533
902.26	13533
902.379	13582
902.498	13521
902.617	13540
902.735	13605
902.854	13544
902.973	13483
903.091	13244
903.21	13312
903.328	13198
903.446	13236
903.565	13080
903.683	12966
903.801	13019
903.919	13095
904.038	13031
904.156	12962
904.274	13019
904.392	12913
904.51	12989
904.627	12966
904.745	13004
904.863	12928
904.981	12764
905.098	12551
905.216	12597
905.334	12719
905.451	12601
905.569	12578
905.686	12707
905.803	12623
905.921	12441
906.038	12502
906.155	12441
906.272	12338
906.389	12292
906.506	12213
906.623	12247
906.74	12277
906.857	12171
906.974	12121
907.091	12239
907.208	12357
907.324	12270
907.441	12159
907.557	11927
907.674	11946
907.79	11882
907.907	11897
908.023	11923
908.139	11950
908.256	11939
908.372	11870
908.488	11836
908.604	11653
908.72	11756
908.836	11634
908.952	11691
909.068	11638
909.184	11817
909.3	11737
909.415	11760
909.531	11832
909.647	11406
909.762	11433
909.878	11463
909.993	11562
910.108	11448
910.224	11509
910.339	11520
910.454	11303
910.57	11364
910.685	11322
910.8	11558
910.915	11562
911.03	11383
911.145	11246
911.259	11178
911.374	11162
911.489	11010
911.604	11056
911.718	10968
911.833	10896
911.947	10835
912.062	10778
912.176	10904
912.291	10923
912.405	10915
912.519	11121
912.633	11181
912.748	11025
912.862	10927
912.976	10771
913.09	10729
913.204	10721
913.318	10812
913.431	10869
913.545	10809
913.659	10877
913.772	10801
913.886	10725
914	10702
914.113	10835
914.226	10828
914.34	10786
914.453	10660
914.566	10816
914.68	10630
914.793	10649
914.906	10481
915.019	10341
915.132	10344
915.245	10459
915.358	10500
915.47	10478
915.583	10493
915.696	10516
915.809	10554
915.921	10656
916.034	10356
916.146	10341
916.259	10356
916.371	10424
916.483	10489
916.595	10310
916.708	10402
916.82	10360
916.932	10371
917.044	10402
917.156	10295
917.268	10253
917.38	10303
917.491	10276
917.603	10314
917.715	10371
917.826	10409
917.938	10246
918.049	10238
918.161	10268
918.272	10386
918.384	10443
918.495	10310
918.606	10147
918.717	10124
918.828	10196
918.939	10200
919.05	10059
919.161	10265
919.272	9998
919.383	10040
919.494	10223
919.604	10405
919.715	10166
919.826	10120
919.936	10082
920.047	10291
920.157	10223
920.267	10390
920.378	10287
920.488	10196
920.598	10405
920.708	10550
920.818	10341
920.928	10371
921.038	10531
921.148	10535
921.258	10177
921.368	10162
921.477	10025
921.587	10048
921.697	9934
921.806	10010
921.916	9854
922.025	9755
922.134	9774
922.244	9656
922.353	9789
922.462	9633
922.571	9545
922.68	9412
922.789	9359
922.898	9458
923.007	9386
923.116	9473
923.224	9443
923.333	9420
923.442	9340
923.55	9310
923.659	9401
923.767	9397
923.876	9313
923.984	9355
924.092	9195
924.201	9253
924.309	9241
924.417	9264
924.525	9302
924.633	9306
924.741	10044
924.849	9104
924.956	9180
925.064	9043
925.172	9001
925.279	9077
925.387	9077
925.494	9100
925.602	9264
925.709	9135
925.816	8990
925.924	9039
926.031	9192
926.138	9123
926.245	9123
926.352	9043
926.459	9138
926.566	9272
926.673	9036
926.779	8944
926.886	8948
926.993	8739
927.099	8845
927.206	8678
927.312	8735
927.419	8826
927.525	8834
927.631	8762
927.737	8720
927.843	8632
927.95	8629
928.056	8701
928.162	8648
928.267	8693
928.373	9412
928.479	8849
928.585	8594
928.69	8712
928.796	8724
928.901	8629
929.007	8503
929.112	8644
929.218	8541
929.323	8568
929.428	8457
929.533	8602
929.638	8457
929.743	8533
929.848	8484
929.953	8541
930.058	8473
930.163	8309
930.267	8324
930.372	8396
930.477	8248
930.581	8450
930.685	8408
930.79	8256
930.894	8267
930.998	8240
931.103	8385
931.207	8088
931.311	8001
931.415	7890
931.519	7712
931.623	7742
