Data from test_V78500241_489.txt Node
Date: Fri Mar 25 14:37:07 CST 2022
User: usil
Spectrometer: V785-0024
Trigger mode: 0
Integration Time (sec): 4.000000E-1
Scans to average: 1
Nonlinearity correction enabled: false
Boxcar width: 0
Storing dark spectrum: false
XAxis mode: Wavelengths
Number of Pixels in Spectrum: 1024
>>>>>Begin Spectral Data<<<<<
801.071	26575
801.214	26431
801.356	26408
801.499	26199
801.641	26058
801.783	26096
801.926	26142
802.068	25928
802.211	25807
802.353	25723
802.496	25616
802.638	25578
802.78	25548
802.923	25483
803.065	25426
803.208	25582
803.35	25434
803.492	25685
803.635	25635
803.777	25597
803.919	25685
804.061	25822
804.204	25594
804.346	25468
804.488	25316
804.63	25586
804.773	25419
804.915	25590
805.057	25590
805.199	25460
805.341	25411
805.483	25738
805.626	25468
805.768	25460
805.91	25396
806.052	25628
806.194	25457
806.336	25731
806.478	25559
806.62	25483
806.762	25601
806.904	25757
807.046	26130
807.188	26046
807.33	25909
807.472	25883
807.614	25974
807.756	25963
807.898	25746
808.04	25807
808.182	25765
808.324	25818
808.465	25906
808.607	26096
808.749	26237
808.891	26423
809.033	26602
809.174	26404
809.316	26415
809.458	26183
809.6	26149
809.741	26244
809.883	26153
810.025	26332
810.166	26305
810.308	26233
810.45	26157
810.591	26065
810.733	25875
810.875	25860
811.016	25769
811.158	25738
811.299	26012
811.441	26062
811.582	26103
811.724	25826
811.865	25799
812.007	25780
812.148	25807
812.29	25784
812.431	26001
812.573	26008
812.714	26332
812.855	26263
812.997	26507
813.138	26522
813.279	26415
813.421	26358
813.562	26290
813.703	26096
813.845	25947
813.986	25761
814.127	25499
814.268	25373
814.41	25419
814.551	25388
814.692	25445
814.833	25289
814.974	25426
815.115	25434
815.256	25175
815.397	25202
815.539	25194
815.68	25061
815.821	25141
815.962	25110
816.103	25046
816.244	24867
816.385	24753
816.526	24795
816.666	24654
816.807	24494
816.948	24741
817.089	24566
817.23	24452
817.371	24384
817.512	24376
817.653	24361
817.793	24429
817.934	24509
818.075	24467
818.216	24422
818.356	24330
818.497	24369
818.638	24076
818.778	24186
818.919	24129
819.06	24270
819.2	24308
819.341	24308
819.481	24369
819.622	24589
819.762	24608
819.903	24555
820.043	24494
820.184	24525
820.324	24464
820.465	24521
820.605	24471
820.746	24608
820.886	24281
821.026	24342
821.167	24448
821.307	24437
821.447	24399
821.588	24125
821.728	24003
821.868	23946
822.008	23866
822.149	23828
822.289	23699
822.429	23665
822.569	23558
822.709	23436
822.849	23265
822.99	23242
823.13	23231
823.27	23216
823.41	23064
823.55	23033
823.69	23254
823.83	23102
823.97	23083
824.11	22927
824.25	22911
824.389	22824
824.529	22873
824.669	22774
824.809	23022
824.949	22805
825.089	22839
825.228	22953
825.368	22752
825.508	22660
825.648	22679
825.787	22615
825.927	22656
826.067	22793
826.206	22603
826.346	22618
826.485	22683
826.625	22603
826.765	22797
826.904	22603
827.044	22360
827.183	22394
827.323	22367
827.462	22424
827.601	22265
827.741	22234
827.88	22272
828.02	22048
828.159	22177
828.298	22291
828.437	22238
828.577	22215
828.716	22432
828.855	22246
828.994	21960
829.134	22040
829.273	22032
829.412	21987
829.551	22010
829.69	21975
829.829	21915
829.968	22040
830.107	21960
830.246	22029
830.385	21857
830.524	21850
830.663	21755
830.802	21614
830.941	21576
831.08	21580
831.219	21694
831.357	21587
831.496	21854
831.635	21625
831.774	21443
831.913	21405
832.051	21249
832.19	21363
832.329	21363
832.467	21275
832.606	21313
832.744	21226
832.883	21241
833.022	21233
833.16	21291
833.299	21146
833.437	21116
833.576	21100
833.714	21131
833.852	21287
833.991	21298
834.129	21294
834.267	21313
834.406	21321
834.544	21142
834.682	21355
834.821	21195
834.959	21401
835.097	21203
835.235	21336
835.373	21268
835.511	21226
835.65	21066
835.788	21089
835.926	20963
836.064	20857
836.202	20872
836.34	20979
836.478	21188
836.615	21169
836.753	21142
836.891	21112
837.029	21112
837.167	20998
837.305	21017
837.443	20929
837.58	20937
837.718	20948
837.856	20998
837.993	20769
838.131	20918
838.269	20853
838.406	20743
838.544	20617
838.681	20705
838.819	20552
838.956	20446
839.094	20351
839.231	20423
839.369	20613
839.506	20701
839.643	20609
839.781	20552
839.918	20290
840.055	20393
840.193	20237
840.33	20275
840.467	20122
840.604	20343
840.742	20606
840.879	20161
841.016	20214
841.153	20142
841.29	20339
841.427	20290
841.564	20313
841.701	20267
841.838	20142
841.975	20206
842.112	20126
842.249	20046
842.385	20176
842.522	20157
842.659	20107
842.796	20054
842.933	20008
843.069	19970
843.206	20008
843.343	20043
843.479	20100
843.616	20084
843.752	19784
843.889	19788
844.025	20016
844.162	19811
844.298	19921
844.435	19647
844.571	19704
844.708	19864
844.844	19822
844.98	19970
845.117	19932
845.253	19849
845.389	19734
845.525	19757
845.661	19894
845.798	19879
845.934	20073
846.07	19940
846.206	20008
846.342	20035
846.478	19788
846.614	19605
846.75	19354
846.886	19304
847.022	19354
847.158	19316
847.294	19331
847.429	19335
847.565	19251
847.701	19381
847.837	19019
847.972	19015
848.108	19050
848.244	19072
848.379	18913
848.515	18871
848.65	18909
848.786	18814
848.921	18825
849.057	18848
849.192	18966
849.328	18844
849.463	18772
849.598	18882
849.734	18745
849.869	18612
850.004	18574
850.14	18639
850.275	18589
850.41	18483
850.545	18426
850.68	18433
850.815	18601
850.95	18608
851.085	18734
851.22	18551
851.355	18521
851.49	18601
851.625	18532
851.76	18490
851.895	18376
852.03	18429
852.165	18506
852.299	18612
852.434	18608
852.569	18597
852.703	18559
852.838	18494
852.973	18631
853.107	18627
853.242	18570
853.376	18502
853.511	18292
853.645	18342
853.78	18418
853.914	18334
854.048	18407
854.183	18273
854.317	18300
854.451	18536
854.585	18407
854.72	18330
854.854	18388
854.988	18235
855.122	18319
855.256	18140
855.39	18464
855.524	18403
855.658	18365
855.792	18346
855.926	18273
856.06	18414
856.194	18399
856.327	18327
856.461	18251
856.595	18300
856.729	18315
856.862	18296
856.996	18403
857.13	18315
857.263	18483
857.397	18399
857.53	18311
857.664	18277
857.797	18369
857.931	18365
858.064	18315
858.197	18433
858.331	18315
858.464	18327
858.597	18254
858.731	18296
858.864	18330
858.997	18262
859.13	18289
859.263	18327
859.396	18391
859.529	18304
859.662	18289
859.795	18117
859.928	18296
860.061	18395
860.194	18437
860.327	18277
860.46	18315
860.592	18330
860.725	18350
860.858	18467
860.99	18323
861.123	18152
861.256	18232
861.388	18289
861.521	19050
861.653	18098
861.786	18057
861.918	18129
862.05	18327
862.183	18281
862.315	18399
862.447	18353
862.58	18300
862.712	18121
862.844	18022
862.976	18133
863.108	18034
863.24	18403
863.372	18003
863.504	17923
863.636	17912
863.768	18060
863.9	18144
864.032	17984
864.164	18003
864.296	17992
864.428	18045
864.559	17965
864.691	18106
864.823	17931
864.954	18019
865.086	18053
865.217	17889
865.349	17897
865.48	17824
865.612	17882
865.743	18163
865.875	18007
866.006	17931
866.137	17756
866.269	17946
866.4	17973
866.531	17855
866.662	17851
866.793	17897
866.924	17942
867.055	17901
867.186	17931
867.317	17809
867.448	17760
867.579	17851
867.71	17775
867.841	17794
867.972	17912
868.103	17927
868.233	17992
868.364	17939
868.495	17984
868.625	18060
868.756	18228
868.886	18072
869.017	18247
869.147	18285
869.278	18243
869.408	18159
869.539	18079
869.669	18251
869.799	18155
869.929	18228
870.06	18251
870.19	18467
870.32	18376
870.45	18433
870.58	18315
870.71	18513
870.84	18631
870.97	18551
871.1	18433
871.23	18768
871.36	18681
871.489	18570
871.619	18768
871.749	18661
871.879	18608
872.008	18772
872.138	18776
872.267	18730
872.397	18570
872.526	18544
872.656	18551
872.785	18540
872.915	18684
873.044	18795
873.173	18768
873.303	18871
873.432	18753
873.561	18825
873.69	18650
873.819	18707
873.948	18859
874.077	18738
874.206	18852
874.335	18703
874.464	18829
874.593	18996
874.722	18970
874.851	19145
874.979	19053
875.108	19072
875.237	18886
875.365	18973
875.494	18981
875.623	19236
875.751	18947
875.88	19012
876.008	19221
876.136	19255
876.265	19480
876.393	19582
876.521	19441
876.65	19521
876.778	19278
876.906	19487
877.034	19350
877.162	19472
877.29	19301
877.418	19449
877.546	19537
877.674	19426
877.802	19491
877.93	19346
878.058	19392
878.185	19426
878.313	19506
878.441	19476
878.568	19285
878.696	19343
878.824	19540
878.951	19597
879.079	19685
879.206	19864
879.333	19841
879.461	19715
879.588	19731
879.715	19822
879.842	19917
879.97	19689
880.097	19472
880.224	19377
880.351	19358
880.478	19430
880.605	19244
880.732	19381
880.859	19586
880.986	19331
881.112	19266
881.239	19152
881.366	19107
881.493	18985
881.619	18886
881.746	18852
881.872	19008
881.999	18928
882.125	18939
882.252	19046
882.378	18932
882.505	18977
882.631	18913
882.757	18802
882.883	18700
883.01	18681
883.136	18719
883.262	18566
883.388	18498
883.514	18620
883.64	18768
883.766	18654
883.892	18464
884.018	18540
884.143	18684
884.269	18810
884.395	18319
884.52	18399
884.646	18338
884.772	18281
884.897	18319
885.023	18376
885.148	18414
885.274	18574
885.399	18426
885.524	18350
885.65	18327
885.775	18289
885.9	18289
886.025	18578
886.15	18384
886.275	18266
886.4	18323
886.525	18262
886.65	18186
886.775	18254
886.9	18357
887.025	18589
887.149	18190
887.274	18262
887.399	18083
887.523	18121
887.648	18072
887.773	17942
887.897	18133
888.021	18205
888.146	18003
888.27	18178
888.395	18155
888.519	18064
888.643	18114
888.767	18068
888.891	18015
889.015	17984
889.139	17942
889.263	17866
889.387	17961
889.511	18194
889.635	18060
889.759	17878
889.883	17863
890.006	17897
890.13	17965
890.254	17847
890.377	17824
890.501	17775
890.624	17570
890.748	17687
890.871	17570
890.995	17429
891.118	17554
891.241	17493
891.364	17512
891.488	17646
891.611	17448
891.734	17497
891.857	17573
891.98	17497
892.103	17585
892.226	17490
892.349	17547
892.471	17337
892.594	17478
892.717	17444
892.839	17512
892.962	17448
893.085	17615
893.207	17459
893.33	17364
893.452	17368
893.575	17615
893.697	17459
893.819	17581
893.941	17608
894.064	17509
894.186	17398
894.308	17444
894.43	17581
894.552	17554
894.674	17520
894.796	17410
894.918	17486
895.04	17501
895.161	17455
895.283	17493
895.405	17463
895.526	17543
895.648	17406
895.769	17532
895.891	17516
896.012	17630
896.134	17604
896.255	17554
896.376	17486
896.498	17463
896.619	17604
896.74	17535
896.861	17539
896.982	17805
897.103	18026
897.224	17760
897.345	17855
897.466	17817
897.587	17805
897.708	17935
897.828	17809
897.949	17748
898.07	17718
898.19	17748
898.311	17859
898.431	17779
898.552	17866
898.672	17927
898.792	17783
898.913	17878
899.033	17718
899.153	17699
899.273	17410
899.393	17471
899.513	17478
899.633	17558
899.753	17589
899.873	17516
899.993	17703
900.113	17535
900.232	17551
900.352	17562
900.472	17353
900.591	17440
900.711	17417
900.83	17463
900.95	17509
901.069	17372
901.189	17273
901.308	17174
901.427	16972
901.546	17010
901.665	17029
901.784	16995
901.904	16911
902.023	16904
902.141	16596
902.26	16478
902.379	16660
902.498	16615
902.617	16417
902.735	16546
902.854	16470
902.973	16459
903.091	16337
903.21	16173
903.328	16234
903.446	16226
903.565	16097
903.683	16112
903.801	16032
903.919	16051
904.038	16086
904.156	15956
904.274	15876
904.392	15724
904.51	15918
904.627	15732
904.745	15808
904.863	15895
904.981	15694
905.098	15500
905.216	15534
905.334	15564
905.451	15511
905.569	15481
905.686	15561
905.803	15545
905.921	15298
906.038	15332
906.155	15241
906.272	15192
906.389	15195
906.506	15047
906.623	15009
906.74	15020
906.857	14971
906.974	14998
907.091	15097
907.208	15203
907.324	15119
907.441	14960
907.557	14864
907.674	14758
907.79	14693
907.907	14674
908.023	14773
908.139	14792
908.256	14765
908.372	14640
908.488	14674
908.604	14560
908.72	14408
908.836	14427
908.952	14427
909.068	14469
909.184	14579
909.3	14514
909.415	14431
909.531	14503
909.647	14218
909.762	14233
909.878	14199
909.993	14123
910.108	14202
910.224	14195
910.339	14206
910.454	14050
910.57	13902
910.685	13928
910.8	14134
910.915	14202
911.03	13997
911.145	13807
911.259	13807
911.374	13715
911.489	13731
911.604	13727
911.718	13514
911.833	13544
911.947	13434
912.062	13419
912.176	13567
912.291	13563
912.405	13480
912.519	13708
912.633	13761
912.748	13575
912.862	13559
912.976	13460
913.09	13331
913.204	13335
913.318	13358
913.431	13537
913.545	13407
913.659	13518
913.772	13297
913.886	13221
914	13259
914.113	13331
914.226	13320
914.34	13331
914.453	13088
914.566	13270
914.68	13183
914.793	13236
914.906	13000
915.019	12958
915.132	12833
915.245	12856
915.358	12962
915.47	12856
915.583	12913
915.696	12993
915.809	12985
915.921	12985
916.034	12802
916.146	12833
916.259	12817
916.371	13015
916.483	12852
916.595	12768
916.708	12806
916.82	12821
916.932	12772
917.044	12719
917.156	12696
917.268	12570
917.38	12688
917.491	12696
917.603	12673
917.715	12722
917.826	12673
917.938	12616
918.049	12437
918.161	12574
918.272	12654
918.384	12776
918.495	12582
918.606	12429
918.717	12376
918.828	12460
918.939	12528
919.05	12384
919.161	12445
919.272	12186
919.383	12235
919.494	12407
919.604	12620
919.715	12391
919.826	12384
919.936	12380
920.047	12407
920.157	12410
920.267	12612
920.378	12418
920.488	12433
920.598	12559
920.708	12719
920.818	12506
920.928	12547
921.038	12722
921.148	12665
921.258	12315
921.368	12346
921.477	12205
921.587	12178
921.697	12076
921.806	12163
921.916	12019
922.025	11874
922.134	11813
922.244	11794
922.353	11923
922.462	11729
922.571	11672
922.68	11459
922.789	11459
922.898	11512
923.007	11520
923.116	11558
923.224	11402
923.333	11474
923.442	11398
923.55	11360
923.659	11425
923.767	11482
923.876	11311
923.984	11391
924.092	11273
924.201	11303
924.309	11212
924.417	11421
924.525	11231
924.633	11239
924.741	12148
924.849	11060
924.956	11223
925.064	11060
925.172	11071
925.279	10999
925.387	11071
925.494	11136
925.602	11250
925.709	11155
925.816	10946
925.924	10949
926.031	11086
926.138	11010
926.245	11033
926.352	10927
926.459	10980
926.566	10965
926.673	11025
926.779	10847
926.886	10854
926.993	10755
927.099	10763
927.206	10668
927.312	10664
927.419	10664
927.525	10664
927.631	10793
927.737	10664
927.843	10603
927.95	10519
928.056	10462
928.162	10588
928.267	10550
928.373	11109
928.479	10599
928.585	10360
928.69	10523
928.796	10462
928.901	10417
929.007	10249
929.112	10402
929.218	10276
929.323	10299
929.428	10363
929.533	10390
929.638	10284
929.743	10238
929.848	10310
929.953	10303
930.058	10181
930.163	10002
930.267	10044
930.372	10192
930.477	9987
930.581	10215
930.685	10067
930.79	10006
930.894	9892
930.998	9953
931.103	10067
931.207	9667
931.311	9701
931.415	9553
931.519	9367
931.623	9302
