Data from test_V78500241_2033.txt Node
Date: Fri Mar 25 14:47:52 CST 2022
User: usil
Spectrometer: V785-0024
Trigger mode: 0
Integration Time (sec): 4.000000E-1
Scans to average: 1
Nonlinearity correction enabled: false
Boxcar width: 0
Storing dark spectrum: false
XAxis mode: Wavelengths
Number of Pixels in Spectrum: 1024
>>>>>Begin Spectral Data<<<<<
801.071	22112
801.214	22021
801.356	21774
801.499	21743
801.641	21401
801.783	21606
801.926	21431
802.068	21424
802.211	21370
802.353	21306
802.496	21116
802.638	21020
802.78	20883
802.923	20735
803.065	20834
803.208	20788
803.35	20853
803.492	20914
803.635	20842
803.777	20758
803.919	20963
804.061	21116
804.204	20895
804.346	20815
804.488	20663
804.63	20861
804.773	20712
804.915	20705
805.057	20724
805.199	20705
805.341	20811
805.483	20834
805.626	20788
805.768	20796
805.91	20655
806.052	20815
806.194	20663
806.336	20979
806.478	20712
806.62	20598
806.762	20788
806.904	20811
807.046	21146
807.188	21051
807.33	20979
807.472	21157
807.614	20963
807.756	20937
807.898	20811
808.04	20781
808.182	20800
808.324	20857
808.465	20804
808.607	21047
808.749	21070
808.891	21104
809.033	21268
809.174	21081
809.316	20921
809.458	21062
809.6	21138
809.741	21180
809.883	21252
810.025	21313
810.166	21287
810.308	21165
810.45	21321
810.591	21207
810.733	20937
810.875	20899
811.016	20845
811.158	20872
811.299	21058
811.441	20902
811.582	20975
811.724	20769
811.865	20910
812.007	20826
812.148	20849
812.29	20921
812.431	21085
812.573	21161
812.714	21058
812.855	21367
812.997	21378
813.138	21511
813.279	21481
813.421	21306
813.562	21291
813.703	21135
813.845	21020
813.986	20754
814.127	20632
814.268	20575
814.41	20385
814.551	20419
814.692	20495
814.833	20347
814.974	20286
815.115	20499
815.256	20221
815.397	20313
815.539	20210
815.68	20016
815.821	20145
815.962	20103
816.103	20138
816.244	19970
816.385	19845
816.526	19963
816.666	19734
816.807	19521
816.948	19639
817.089	19559
817.23	19597
817.371	19533
817.512	19533
817.653	19639
817.793	19453
817.934	19571
818.075	19556
818.216	19514
818.356	19495
818.497	19327
818.638	19209
818.778	19304
818.919	19266
819.06	19426
819.2	19373
819.341	19362
819.481	19369
819.622	19476
819.762	19818
819.903	19662
820.043	19620
820.184	19533
820.324	19476
820.465	19613
820.605	19537
820.746	19575
820.886	19350
821.026	19487
821.167	19502
821.307	19563
821.447	19476
821.588	19324
821.728	19339
821.868	19148
822.008	19019
822.149	18985
822.289	18935
822.429	18604
822.569	18696
822.709	18559
822.849	18445
822.99	18479
823.13	18471
823.27	18391
823.41	18258
823.55	18186
823.69	18258
823.83	18232
823.97	18224
824.11	18072
824.25	18019
824.389	17992
824.529	18083
824.669	18026
824.809	18190
824.949	18072
825.089	18129
825.228	17969
825.368	17832
825.508	17882
825.648	17847
825.787	17794
825.927	17908
826.067	17726
826.206	17687
826.346	17813
826.485	17832
826.625	17798
826.765	17961
826.904	17885
827.044	17554
827.183	17615
827.323	17368
827.462	17433
827.601	17398
827.741	17455
827.88	17497
828.02	17334
828.159	17581
828.298	17543
828.437	17573
828.577	17524
828.716	17596
828.855	17444
828.994	17250
829.134	17330
829.273	17326
829.412	17197
829.551	17250
829.69	17189
829.829	17261
829.968	17398
830.107	17303
830.246	17204
830.385	17204
830.524	17178
830.663	17140
830.802	16942
830.941	16858
831.08	16900
831.219	16927
831.357	16831
831.496	17071
831.635	16778
831.774	16748
831.913	16733
832.051	16573
832.19	16554
832.329	16694
832.467	16527
832.606	16478
832.744	16649
832.883	16637
833.022	16535
833.16	16603
833.299	16656
833.437	16668
833.576	16721
833.714	16637
833.852	16710
833.991	16672
834.129	16672
834.267	16672
834.406	16535
834.544	16603
834.682	16542
834.821	16649
834.959	16843
835.097	16634
835.235	16634
835.373	16675
835.511	16698
835.65	16478
835.788	16641
835.926	16474
836.064	16306
836.202	16382
836.34	16527
836.478	16592
836.615	16653
836.753	16497
836.891	16504
837.029	16596
837.167	16508
837.305	16512
837.443	16371
837.58	16257
837.718	16474
837.856	16402
837.993	16337
838.131	16375
838.269	16303
838.406	16261
838.544	16333
838.681	16090
838.819	16025
838.956	16055
839.094	15937
839.231	15983
839.369	16124
839.506	16310
839.643	16169
839.781	16048
839.918	15854
840.055	16002
840.193	15960
840.33	15968
840.467	15861
840.604	15972
840.742	16128
840.879	15892
841.016	15873
841.153	15827
841.29	15934
841.427	15930
841.564	15930
841.701	16002
841.838	15899
841.975	15918
842.112	15895
842.249	15747
842.385	15778
842.522	15892
842.659	15816
842.796	15770
842.933	15759
843.069	15720
843.206	15660
843.343	15876
843.479	15766
843.616	15789
843.752	15469
843.889	15496
844.025	15679
844.162	15500
844.298	15610
844.435	15481
844.571	15462
844.708	15519
844.844	15587
844.98	15633
845.117	15561
845.253	15504
845.389	15389
845.525	15401
845.661	15420
845.798	15321
845.934	15355
846.07	15287
846.206	15408
846.342	15408
846.478	15397
846.614	15074
846.75	15005
846.886	15055
847.022	15066
847.158	15055
847.294	15093
847.429	15127
847.565	15085
847.701	15237
847.837	14838
847.972	14746
848.108	14937
848.244	14880
848.379	14796
848.515	14625
848.65	14606
848.786	14678
848.921	14712
849.057	14849
849.192	14773
849.328	14697
849.463	14701
849.598	14632
849.734	14670
849.869	14621
850.004	14556
850.14	14476
850.275	14480
850.41	14427
850.545	14423
850.68	14328
850.815	14484
850.95	14465
851.085	14556
851.22	14594
851.355	14541
851.49	14427
851.625	14465
851.76	14389
851.895	14305
852.03	14396
852.165	14503
852.299	14427
852.434	14541
852.569	14552
852.703	14457
852.838	14476
852.973	14594
853.107	14583
853.242	14427
853.376	14263
853.511	14271
853.645	14271
853.78	14457
853.914	14343
854.048	14267
854.183	14282
854.317	14419
854.451	14533
854.585	14320
854.72	14339
854.854	14465
854.988	14225
855.122	14240
855.256	14134
855.39	14271
855.524	14415
855.658	14275
855.792	14419
855.926	14366
856.06	14396
856.194	14469
856.327	14317
856.461	14229
856.595	14282
856.729	14229
856.862	14419
856.996	14313
857.13	14385
857.263	14377
857.397	14484
857.53	14309
857.664	14415
857.797	14366
857.931	14469
858.064	14454
858.197	14408
858.331	14355
858.464	14256
858.597	14191
858.731	14332
858.864	14339
858.997	14286
859.13	14377
859.263	14404
859.396	14355
859.529	14358
859.662	14259
859.795	14298
859.928	14309
860.061	14507
860.194	14526
860.327	14366
860.46	14313
860.592	14442
860.725	14404
860.858	14408
860.99	14343
861.123	14256
861.256	14301
861.388	14355
861.521	15077
861.653	14221
861.786	14077
861.918	14210
862.05	14278
862.183	14336
862.315	14328
862.447	14343
862.58	14229
862.712	14092
862.844	14027
862.976	14214
863.108	14157
863.24	14412
863.372	14035
863.504	14069
863.636	14092
863.768	14145
863.9	14107
864.032	14046
864.164	14069
864.296	14161
864.428	14206
864.559	14233
864.691	14157
864.823	14176
864.954	14142
865.086	14157
865.217	14020
865.349	14054
865.48	14062
865.612	14107
865.743	14172
865.875	14115
866.006	14005
866.137	14058
866.269	14214
866.4	14088
866.531	14073
866.662	14043
866.793	13959
866.924	14024
867.055	14123
867.186	14164
867.317	13993
867.448	14065
867.579	14031
867.71	13963
867.841	13963
867.972	14077
868.103	14062
868.233	14054
868.364	14046
868.495	14119
868.625	14313
868.756	14503
868.886	14294
869.017	14271
869.147	14423
869.278	14366
869.408	14336
869.539	14282
869.669	14427
869.799	14476
869.929	14480
870.06	14492
870.19	14674
870.32	14602
870.45	14724
870.58	14838
870.71	14842
870.84	14842
870.97	14765
871.1	14682
871.23	14948
871.36	14937
871.489	14857
871.619	14956
871.749	14960
871.879	15032
872.008	15077
872.138	14979
872.267	14952
872.397	14933
872.526	14811
872.656	14838
872.785	14739
872.915	15020
873.044	15062
873.173	14998
873.303	14902
873.432	14986
873.561	15100
873.69	14998
873.819	14937
873.948	15097
874.077	15066
874.206	14872
874.335	14872
874.464	15203
874.593	15188
874.722	15283
874.851	15279
874.979	15298
875.108	15332
875.237	15241
875.365	15241
875.494	15199
875.623	15370
875.751	15329
875.88	15329
876.008	15424
876.136	15496
876.265	15667
876.393	15907
876.521	15778
876.65	15812
876.778	15724
876.906	15747
877.034	15656
877.162	15789
877.29	15679
877.418	15694
877.546	15739
877.674	15690
877.802	15660
877.93	15774
878.058	15591
878.185	15591
878.313	15728
878.441	15648
878.568	15584
878.696	15663
878.824	15652
878.951	15755
879.079	15819
879.206	15983
879.333	15850
879.461	15880
879.588	15816
879.715	15888
879.842	15972
879.97	15869
880.097	15561
880.224	15572
880.351	15584
880.478	15603
880.605	15564
880.732	15477
880.859	15781
880.986	15523
881.112	15633
881.239	15408
881.366	15317
881.493	15249
881.619	15173
881.746	15268
881.872	15192
881.999	15169
882.125	15203
882.252	15256
882.378	15222
882.505	15336
882.631	15142
882.757	15028
882.883	14998
883.01	15119
883.136	14975
883.262	14872
883.388	14883
883.514	15081
883.64	15047
883.766	15001
883.892	14864
884.018	14739
884.143	15013
884.269	15024
884.395	14788
884.52	14746
884.646	14758
884.772	14659
884.897	14648
885.023	14826
885.148	14834
885.274	14864
885.399	14853
885.524	14788
885.65	14777
885.775	14727
885.9	14655
886.025	14826
886.15	14895
886.275	14644
886.4	14663
886.525	14701
886.65	14697
886.775	14667
886.9	14864
887.025	14982
887.149	14765
887.274	14530
887.399	14522
887.523	14629
887.648	14476
887.773	14434
887.897	14746
888.021	14621
888.146	14495
888.27	14762
888.395	14819
888.519	14541
888.643	14720
888.767	14644
888.891	14579
889.015	14389
889.139	14370
889.263	14358
889.387	14465
889.511	14552
889.635	14518
889.759	14450
889.883	14320
890.006	14454
890.13	14533
890.254	14362
890.377	14385
890.501	14267
890.624	14301
890.748	14282
890.871	14149
890.995	14069
891.118	14024
891.241	14149
891.364	14252
891.488	14244
891.611	14202
891.734	14054
891.857	14202
891.98	14202
892.103	14187
892.226	14157
892.349	14130
892.471	14096
892.594	14092
892.717	14221
892.839	14202
892.962	14123
893.085	14214
893.207	14172
893.33	14031
893.452	14027
893.575	14252
893.697	14058
893.819	14301
893.941	14343
894.064	14237
894.186	14088
894.308	14153
894.43	14176
894.552	14339
894.674	14290
894.796	14111
894.918	14218
895.04	14187
895.161	14286
895.283	14305
895.405	14172
895.526	14195
895.648	14237
895.769	14252
895.891	14317
896.012	14324
896.134	14351
896.255	14313
896.376	14275
896.498	14324
896.619	14374
896.74	14282
896.861	14396
896.982	14678
897.103	14807
897.224	14632
897.345	14507
897.466	14511
897.587	14556
897.708	14689
897.828	14659
897.949	14465
898.07	14495
898.19	14564
898.311	14727
898.431	14564
898.552	14674
898.672	14773
898.792	14765
898.913	14568
899.033	14674
899.153	14583
899.273	14518
899.393	14450
899.513	14492
899.633	14564
899.753	14545
899.873	14457
899.993	14518
900.113	14587
900.232	14492
900.352	14492
900.472	14442
900.591	14355
900.711	14431
900.83	14370
900.95	14503
901.069	14526
901.189	14286
901.308	14065
901.427	13982
901.546	14050
901.665	14119
901.784	14058
901.904	14050
902.023	13868
902.141	13628
902.26	13632
902.379	13620
902.498	13540
902.617	13590
902.735	13651
902.854	13559
902.973	13521
903.091	13350
903.21	13343
903.328	13343
903.446	13285
903.565	13129
903.683	13217
903.801	13145
903.919	13175
904.038	13145
904.156	13034
904.274	13095
904.392	12909
904.51	12962
904.627	12970
904.745	13004
904.863	13080
904.981	12692
905.098	12772
905.216	12703
905.334	12825
905.451	12658
905.569	12646
905.686	12715
905.803	12673
905.921	12490
906.038	12597
906.155	12521
906.272	12391
906.389	12464
906.506	12292
906.623	12205
906.74	12239
906.857	12076
906.974	12110
907.091	12330
907.208	12448
907.324	12319
907.441	12159
907.557	12041
907.674	12034
907.79	11961
907.907	11950
908.023	12041
908.139	12091
908.256	11965
908.372	11939
908.488	11836
908.604	11840
908.72	11741
908.836	11802
908.952	11710
909.068	11775
909.184	11878
909.3	11855
909.415	11817
909.531	11752
909.647	11623
909.762	11528
909.878	11535
909.993	11566
910.108	11581
910.224	11440
910.339	11547
910.454	11524
910.57	11532
910.685	11356
910.8	11630
910.915	11627
911.03	11467
911.145	11239
911.259	11227
911.374	11235
911.489	11178
911.604	11117
911.718	10991
911.833	11102
911.947	10999
912.062	10847
912.176	10976
912.291	10965
912.405	10999
912.519	11189
912.633	11242
912.748	11147
912.862	10984
912.976	10957
913.09	10812
913.204	10790
913.318	10873
913.431	11014
913.545	10987
913.659	11029
913.772	10889
913.886	10752
914	10683
914.113	10923
914.226	11010
914.34	10908
914.453	10641
914.566	10862
914.68	10721
914.793	10691
914.906	10565
915.019	10470
915.132	10379
915.245	10478
915.358	10516
915.47	10546
915.583	10565
915.696	10622
915.809	10561
915.921	10615
916.034	10474
916.146	10478
916.259	10424
916.371	10542
916.483	10615
916.595	10344
916.708	10424
916.82	10519
916.932	10413
917.044	10462
917.156	10443
917.268	10344
917.38	10310
917.491	10382
917.603	10303
917.715	10409
917.826	10394
917.938	10310
918.049	10219
918.161	10341
918.272	10466
918.384	10531
918.495	10371
918.606	10276
918.717	10188
918.828	10192
918.939	10215
919.05	10196
919.161	10158
919.272	10055
919.383	10078
919.494	10230
919.604	10421
919.715	10268
919.826	10143
919.936	10196
920.047	10337
920.157	10234
920.267	10455
920.378	10280
920.488	10185
920.598	10462
920.708	10630
920.818	10413
920.928	10375
921.038	10558
921.148	10607
921.258	10329
921.368	10200
921.477	10147
921.587	10169
921.697	9972
921.806	10059
921.916	9994
922.025	9838
922.134	9823
922.244	9747
922.353	9785
922.462	9660
922.571	9682
922.68	9519
922.789	9450
922.898	9485
923.007	9420
923.116	9542
923.224	9568
923.333	9477
923.442	9325
923.55	9382
923.659	9431
923.767	9405
923.876	9344
923.984	9431
924.092	9272
924.201	9306
924.309	9321
924.417	9359
924.525	9298
924.633	9275
924.741	10246
924.849	9070
924.956	9287
925.064	9074
925.172	9123
925.279	9077
925.387	9199
925.494	9100
925.602	9249
925.709	9214
925.816	9104
925.924	9097
926.031	9245
926.138	9260
926.245	9154
926.352	9089
926.459	9218
926.566	9275
926.673	9112
926.779	9062
926.886	8998
926.993	8872
927.099	8792
927.206	8773
927.312	8785
927.419	8883
927.525	8819
927.631	8891
927.737	8746
927.843	8849
927.95	8632
928.056	8674
928.162	8743
928.267	8868
928.373	9408
928.479	8807
928.585	8617
928.69	8777
928.796	8804
928.901	8788
929.007	8518
929.112	8651
929.218	8575
929.323	8617
929.428	8545
929.533	8766
929.638	8503
929.743	8469
929.848	8625
929.953	8579
930.058	8438
930.163	8328
930.267	8347
930.372	8438
930.477	8347
930.581	8522
930.685	8476
930.79	8259
930.894	8252
930.998	8309
931.103	8404
931.207	8084
931.311	8027
931.415	7951
931.519	7780
931.623	7814
