Data from test_V78500241_114.txt Node
Date: Fri Mar 25 14:34:31 CST 2022
User: usil
Spectrometer: V785-0024
Trigger mode: 0
Integration Time (sec): 4.000000E-1
Scans to average: 1
Nonlinearity correction enabled: false
Boxcar width: 0
Storing dark spectrum: false
XAxis mode: Wavelengths
Number of Pixels in Spectrum: 1024
>>>>>Begin Spectral Data<<<<<
801.071	31658
801.214	31753
801.356	31312
801.499	31213
801.641	31168
801.783	31270
801.926	31221
802.068	31076
802.211	31061
802.353	31080
802.496	30924
802.638	30943
802.78	30966
802.923	30886
803.065	30848
803.208	31008
803.35	31122
803.492	31160
803.635	31168
803.777	31164
803.919	31285
804.061	31426
804.204	31263
804.346	31293
804.488	31274
804.63	31187
804.773	31221
804.915	31346
805.057	31453
805.199	31392
805.341	31696
805.483	31567
805.626	31696
805.768	31643
805.91	31715
806.052	31871
806.194	31894
806.336	32320
806.478	32172
806.62	32313
806.762	32476
806.904	32678
807.046	33062
807.188	33348
807.33	33500
807.472	33838
807.614	34090
807.756	34710
807.898	35147
808.04	36102
808.182	37099
808.324	38621
808.465	40226
808.607	42018
808.749	43696
808.891	44339
809.033	44427
809.174	43712
809.316	42064
809.458	40181
809.6	38271
809.741	36966
809.883	35760
810.025	35079
810.166	34443
810.308	34082
810.45	33637
810.591	33473
810.733	33112
810.875	32777
811.016	32617
811.158	32408
811.299	32507
811.441	32526
811.582	32419
811.724	32263
811.865	32096
812.007	32290
812.148	32168
812.29	32126
812.431	32218
812.573	32240
812.714	32244
812.855	32294
812.997	32488
813.138	32511
813.279	32480
813.421	32473
813.562	32180
813.703	32069
813.845	31944
813.986	31746
814.127	31384
814.268	31415
814.41	31384
814.551	31012
814.692	31381
814.833	31209
814.974	31126
815.115	31160
815.256	31148
815.397	30947
815.539	31034
815.68	31076
815.821	30894
815.962	30863
816.103	30882
816.244	30677
816.385	30464
816.526	30536
816.666	30254
816.807	30106
816.948	30281
817.089	30281
817.23	30266
817.371	30087
817.512	30133
817.653	30060
817.793	30072
817.934	30194
818.075	30117
818.216	30186
818.356	30129
818.497	30072
818.638	29794
818.778	29923
818.919	29893
819.06	29897
819.2	29904
819.341	30091
819.481	30087
819.622	30167
819.762	30380
819.903	30273
820.043	30171
820.184	30022
820.324	30171
820.465	30068
820.605	29901
820.746	29961
820.886	29950
821.026	29866
821.167	29999
821.307	30038
821.447	29870
821.588	29775
821.728	29566
821.868	29471
822.008	29261
822.149	29311
822.289	29269
822.429	28991
822.569	28957
822.709	28869
822.849	28679
822.99	28607
823.13	28607
823.27	28603
823.41	28455
823.55	28390
823.69	28481
823.83	28554
823.97	28356
824.11	28116
824.25	28219
824.389	28322
824.529	28238
824.669	28242
824.809	28348
824.949	28367
825.089	28261
825.228	28268
825.368	28120
825.508	27918
825.648	27926
825.787	27994
825.927	27983
826.067	28013
826.206	28036
826.346	27983
826.485	28078
826.625	28029
826.765	28036
826.904	27956
827.044	27732
827.183	27629
827.323	27625
827.462	27827
827.601	27633
827.741	27686
827.88	27701
828.02	27542
828.159	27637
828.298	27682
828.437	27614
828.577	27534
828.716	27831
828.855	27515
828.994	27393
829.134	27355
829.273	27370
829.412	27207
829.551	27283
829.69	27256
829.829	27245
829.968	27424
830.107	27363
830.246	27184
830.385	27199
830.524	27157
830.663	27036
830.802	26918
830.941	26940
831.08	26716
831.219	26899
831.357	26849
831.496	26982
831.635	26853
831.774	26651
831.913	26731
832.051	26655
832.19	26556
832.329	26594
832.467	26629
832.606	26560
832.744	26575
832.883	26560
833.022	26499
833.16	26644
833.299	26823
833.437	26773
833.576	26842
833.714	26807
833.852	26979
833.991	27058
834.129	27127
834.267	27119
834.406	27108
834.544	27131
834.682	26944
834.821	26918
834.959	26910
835.097	26777
835.235	26712
835.373	26518
835.511	26587
835.65	26347
835.788	26309
835.926	26210
836.064	26191
836.202	26225
836.34	26073
836.478	26275
836.615	26313
836.753	26172
836.891	26263
837.029	26157
837.167	26195
837.305	26062
837.443	26024
837.58	26054
837.718	26039
837.856	26008
837.993	25940
838.131	25986
838.269	25887
838.406	25776
838.544	25856
838.681	25540
838.819	25590
838.956	25460
839.094	25369
839.231	25365
839.369	25651
839.506	25647
839.643	25556
839.781	25282
839.918	25255
840.055	25156
840.193	25221
840.33	25217
840.467	25266
840.604	25282
840.742	25438
840.879	25084
841.016	24958
841.153	25114
841.29	25297
841.427	25164
841.564	25118
841.701	25076
841.838	25034
841.975	25107
842.112	25099
842.249	25000
842.385	24913
842.522	25114
842.659	25000
842.796	24821
842.933	24859
843.069	24897
843.206	24890
843.343	24996
843.479	24973
843.616	25027
843.752	24703
843.889	24814
844.025	24977
844.162	24848
844.298	25069
844.435	24981
844.571	25103
844.708	25225
844.844	25525
844.98	25799
845.117	26191
845.253	26522
845.389	27500
845.525	29250
845.661	32396
845.798	36015
845.934	38971
846.07	40029
846.206	39458
846.342	36951
846.478	33112
846.614	29843
846.75	27781
846.886	26469
847.022	25780
847.158	25091
847.294	24875
847.429	24661
847.565	24376
847.701	24505
847.837	24072
847.972	23923
848.108	24003
848.244	23996
848.379	23889
848.515	23710
848.65	23646
848.786	23707
848.921	23756
849.057	23630
849.192	23840
849.328	23676
849.463	23570
849.598	23482
849.734	23444
849.869	23452
850.004	23280
850.14	23452
850.275	23395
850.41	23376
850.545	23246
850.68	23235
850.815	23303
850.95	23288
851.085	23429
851.22	23337
851.355	23292
851.49	23261
851.625	23197
851.76	23143
851.895	23128
852.03	23044
852.165	23143
852.299	23277
852.434	23379
852.569	23303
852.703	23482
852.838	23429
852.973	23353
853.107	23341
853.242	23337
853.376	23140
853.511	23151
853.645	23117
853.78	23398
853.914	23235
854.048	23174
854.183	23140
854.317	23261
854.451	23486
854.585	23296
854.72	23391
854.854	23414
854.988	23178
855.122	23200
855.256	23003
855.39	23166
855.524	23239
855.658	23151
855.792	23098
855.926	23174
856.06	23105
856.194	23071
856.327	23033
856.461	23003
856.595	23067
856.729	23025
856.862	23006
856.996	23071
857.13	23006
857.263	23155
857.397	23105
857.53	23006
857.664	22968
857.797	23060
857.931	23113
858.064	23037
858.197	23094
858.331	22847
858.464	22778
858.597	22847
858.731	22862
858.864	22866
858.997	22778
859.13	22869
859.263	22892
859.396	22953
859.529	22774
859.662	22710
859.795	22801
859.928	22774
860.061	22987
860.194	23079
860.327	22839
860.46	22748
860.592	22862
860.725	22820
860.858	22953
860.99	22767
861.123	22736
861.256	22672
861.388	22744
861.521	23478
861.653	22675
861.786	22542
861.918	22687
862.05	22725
862.183	22759
862.315	22908
862.447	22839
862.58	22946
862.712	22698
862.844	22596
862.976	22694
863.108	22588
863.24	22873
863.372	22474
863.504	22497
863.636	22424
863.768	22447
863.9	22462
864.032	22341
864.164	22409
864.296	22402
864.428	22531
864.559	22474
864.691	22557
864.823	22432
864.954	22455
865.086	22295
865.217	22265
865.349	22303
865.48	22329
865.612	22379
865.743	22432
865.875	22310
866.006	22291
866.137	22337
866.269	22432
866.4	22356
866.531	22268
866.662	22215
866.793	22306
866.924	22253
867.055	22238
867.186	22382
867.317	22192
867.448	22169
867.579	22169
867.71	22211
867.841	22185
867.972	22223
868.103	22226
868.233	22295
868.364	22173
868.495	22329
868.625	22382
868.756	22424
868.886	22428
869.017	22360
869.147	22447
869.278	22580
869.408	22440
869.539	22504
869.669	22474
869.799	22607
869.929	22588
870.06	22596
870.19	22721
870.32	22740
870.45	22858
870.58	22919
870.71	22999
870.84	22949
870.97	22790
871.1	22892
871.23	23006
871.36	23083
871.489	22957
871.619	22987
871.749	23098
871.879	23143
872.008	23307
872.138	23128
872.267	23151
872.397	23037
872.526	22968
872.656	23029
872.785	23010
872.915	23254
873.044	23231
873.173	23258
873.303	23277
873.432	23372
873.561	23315
873.69	23250
873.819	23307
873.948	23474
874.077	23288
874.206	23322
874.335	23406
874.464	23490
874.593	23566
874.722	23539
874.851	23638
874.979	23817
875.108	23764
875.237	23687
875.365	23604
875.494	23661
875.623	23897
875.751	23764
875.88	23859
876.008	23999
876.136	24041
876.265	24407
876.393	24391
876.521	24380
876.65	24456
876.778	24483
876.906	24330
877.034	24289
877.162	24483
877.29	24422
877.418	24452
877.546	24597
877.674	24475
877.802	24715
877.93	24760
878.058	24871
878.185	24871
878.313	25088
878.441	25316
878.568	25415
878.696	25746
878.824	26176
878.951	26868
879.079	27553
879.206	29048
879.333	29988
879.461	30875
879.588	31575
879.715	31540
879.842	31103
879.97	29954
880.097	28736
880.224	27861
880.351	27207
880.478	26804
880.605	26434
880.732	26229
880.859	26343
880.986	26062
881.112	25936
881.239	25765
881.366	25620
881.493	25556
881.619	25464
881.746	25487
881.872	25457
881.999	25400
882.125	25358
882.252	25597
882.378	25472
882.505	25597
882.631	25567
882.757	25285
882.883	25506
883.01	25343
883.136	25304
883.262	25304
883.388	25129
883.514	25350
883.64	25282
883.766	25202
883.892	25076
884.018	25209
884.143	25160
884.269	25263
884.395	24970
884.52	24901
884.646	25091
884.772	24939
884.897	24954
885.023	24901
885.148	24992
885.274	24970
885.399	24920
885.524	24692
885.65	24700
885.775	24741
885.9	24517
886.025	24673
886.15	24528
886.275	24273
886.4	24220
886.525	24155
886.65	24049
886.775	23916
886.9	24121
887.025	24133
887.149	23813
887.274	23592
887.399	23482
887.523	23585
887.648	23482
887.773	23398
887.897	23444
888.021	23395
888.146	23181
888.27	23341
888.395	23166
888.519	23265
888.643	23223
888.767	23178
888.891	22908
889.015	23003
889.139	22965
889.263	22869
889.387	22961
889.511	22972
889.635	22972
889.759	22736
889.883	22733
890.006	22577
890.13	22790
890.254	22634
890.377	22542
890.501	22398
890.624	22280
890.748	22519
890.871	22284
890.995	22166
891.118	22090
891.241	22101
891.364	22166
891.488	22173
891.611	22139
891.734	22002
891.857	22135
891.98	22013
892.103	22059
892.226	22105
892.349	21903
892.471	21682
892.594	21770
892.717	21701
892.839	21759
892.962	21762
893.085	21774
893.207	21694
893.33	21698
893.452	21576
893.575	21709
893.697	21618
893.819	21808
893.941	21759
894.064	21644
894.186	21568
894.308	21473
894.43	21564
894.552	21675
894.674	21629
894.796	21500
894.918	21545
895.04	21447
895.161	21564
895.283	21515
895.405	21458
895.526	21424
895.648	21386
895.769	21450
895.891	21473
896.012	21561
896.134	21496
896.255	21439
896.376	21310
896.498	21374
896.619	21469
896.74	21454
896.861	21481
896.982	21865
897.103	21819
897.224	21625
897.345	21652
897.466	21568
897.587	21542
897.708	21701
897.828	21530
897.949	21397
898.07	21310
898.19	21313
898.311	21591
898.431	21481
898.552	21496
898.672	21260
898.792	21481
898.913	21340
899.033	21291
899.153	21176
899.273	21051
899.393	21085
899.513	21119
899.633	20960
899.753	21119
899.873	20975
899.993	21009
900.113	20883
900.232	21043
900.352	20963
900.472	20975
900.591	20868
900.711	20857
900.83	20826
900.95	20937
901.069	21028
901.189	20807
901.308	20446
901.427	20427
901.546	20370
901.665	20454
901.784	20499
901.904	20225
902.023	20122
902.141	19955
902.26	19940
902.379	20027
902.498	19856
902.617	19852
902.735	19864
902.854	19780
902.973	19734
903.091	19544
903.21	19434
903.328	19510
903.446	19377
903.565	19335
903.683	19331
903.801	19289
903.919	19308
904.038	19236
904.156	19152
904.274	19187
904.392	19034
904.51	18958
904.627	18996
904.745	18970
904.863	19012
904.981	18825
905.098	18703
905.216	18563
905.334	18719
905.451	18646
905.569	18601
905.686	18700
905.803	18703
905.921	18384
906.038	18570
906.155	18566
906.272	18353
906.389	18334
906.506	18117
906.623	18155
906.74	18281
906.857	18114
906.974	18076
907.091	18323
907.208	18319
907.324	18182
907.441	18079
907.557	17878
907.674	17901
907.79	17847
907.907	17779
908.023	17859
908.139	17908
908.256	17786
908.372	17756
908.488	17703
908.604	17608
908.72	17558
908.836	17592
908.952	17585
909.068	17611
909.184	17608
909.3	17402
909.415	17547
909.531	17425
909.647	17273
909.762	17197
909.878	17296
909.993	17235
910.108	17231
910.224	17086
910.339	17151
910.454	17166
910.57	17037
910.685	16915
910.8	17170
910.915	17208
911.03	16862
911.145	16843
911.259	16801
911.374	16729
911.489	16634
911.604	16611
911.718	16580
911.833	16599
911.947	16474
912.062	16443
912.176	16504
912.291	16584
912.405	16485
912.519	16710
912.633	16660
912.748	16519
912.862	16417
912.976	16398
913.09	16246
913.204	16325
913.318	16375
913.431	16325
913.545	16390
913.659	16257
913.772	16306
913.886	16116
914	16131
914.113	16181
914.226	16196
914.34	16223
914.453	16025
914.566	16207
914.68	16032
914.793	15880
914.906	15865
915.019	15759
915.132	15781
915.245	15793
915.358	15728
915.47	15785
915.583	15694
915.696	15701
915.809	15876
915.921	15895
916.034	15629
916.146	15671
916.259	15610
916.371	15690
916.483	15648
916.595	15534
916.708	15610
916.82	15694
916.932	15488
917.044	15519
917.156	15454
917.268	15397
917.38	15397
917.491	15332
917.603	15313
917.715	15291
917.826	15462
917.938	15252
918.049	15131
918.161	15291
918.272	15420
918.384	15363
918.495	15275
918.606	15081
918.717	15085
918.828	14994
918.939	15089
919.05	14864
919.161	14986
919.272	14823
919.383	14842
919.494	15020
919.604	15146
919.715	15032
919.826	14929
919.936	14838
920.047	14994
920.157	14967
920.267	15020
920.378	14948
920.488	14876
920.598	15093
920.708	15329
920.818	15070
920.928	15013
921.038	15195
921.148	15119
921.258	14773
921.368	14823
921.477	14716
921.587	14655
921.697	14564
921.806	14693
921.916	14469
922.025	14336
922.134	14275
922.244	14183
922.353	14278
922.462	14126
922.571	14088
922.68	13967
922.789	13864
922.898	13902
923.007	13902
923.116	13871
923.224	13864
923.333	13822
923.442	13814
923.55	13719
923.659	13719
923.767	13734
923.876	13624
923.984	13632
924.092	13594
924.201	13624
924.309	13605
924.417	13544
924.525	13582
924.633	13537
924.741	14484
924.849	13316
924.956	13438
925.064	13289
925.172	13217
925.279	13236
925.387	13335
925.494	13362
925.602	13392
925.709	13365
925.816	13270
925.924	13278
926.031	13324
926.138	13156
926.245	13129
926.352	13145
926.459	13293
926.566	13335
926.673	13171
926.779	13015
926.886	13126
926.993	12787
927.099	12840
927.206	12707
927.312	12795
927.419	12840
927.525	12783
927.631	12810
927.737	12715
927.843	12631
927.95	12574
928.056	12589
928.162	12684
928.267	12627
928.373	13225
928.479	12642
928.585	12418
928.69	12532
928.796	12566
928.901	12540
929.007	12216
929.112	12498
929.218	12323
929.323	12342
929.428	12247
929.533	12475
929.638	12266
929.743	12258
929.848	12270
929.953	12216
930.058	12171
930.163	12026
930.267	12068
930.372	12129
930.477	11908
930.581	12144
930.685	12026
930.79	11901
930.894	11901
930.998	11863
931.103	11893
931.207	11551
931.311	11509
931.415	11364
931.519	11162
931.623	11181
