Data from test_V78500241_3059.txt Node
Date: Fri Mar 25 14:55:00 CST 2022
User: usil
Spectrometer: V785-0024
Trigger mode: 0
Integration Time (sec): 4.000000E-1
Scans to average: 1
Nonlinearity correction enabled: false
Boxcar width: 0
Storing dark spectrum: false
XAxis mode: Wavelengths
Number of Pixels in Spectrum: 1024
>>>>>Begin Spectral Data<<<<<
801.071	22105
801.214	21907
801.356	21709
801.499	21644
801.641	21458
801.783	21435
801.926	21496
802.068	21279
802.211	21241
802.353	21245
802.496	21112
802.638	20937
802.78	20925
802.923	20842
803.065	20724
803.208	20667
803.35	20769
803.492	20899
803.635	20994
803.777	20781
803.919	20815
804.061	21093
804.204	20883
804.346	20644
804.488	20526
804.63	20796
804.773	20663
804.915	20708
805.057	20910
805.199	20697
805.341	20777
805.483	20674
805.626	20838
805.768	20617
805.91	20705
806.052	20609
806.194	20579
806.336	20765
806.478	20674
806.62	20644
806.762	20670
806.904	20876
807.046	21214
807.188	21017
807.33	21005
807.472	21036
807.614	20868
807.756	20880
807.898	20796
808.04	20697
808.182	20773
808.324	20750
808.465	20899
808.607	20979
808.749	21017
808.891	21192
809.033	21218
809.174	21146
809.316	21005
809.458	21077
809.6	21024
809.741	21233
809.883	21013
810.025	21218
810.166	21256
810.308	21256
810.45	21131
810.591	21066
810.733	21039
810.875	20826
811.016	20807
811.158	20686
811.299	20982
811.441	20982
811.582	21066
811.724	20804
811.865	20872
812.007	20670
812.148	20746
812.29	20861
812.431	21070
812.573	21161
812.714	21275
812.855	21386
812.997	21405
813.138	21557
813.279	21428
813.421	21332
813.562	21275
813.703	21119
813.845	21013
813.986	20720
814.127	20522
814.268	20328
814.41	20454
814.551	20389
814.692	20404
814.833	20320
814.974	20415
815.115	20355
815.256	20252
815.397	20298
815.539	20244
815.68	20142
815.821	20031
815.962	20119
816.103	20073
816.244	19871
816.385	19917
816.526	19795
816.666	19681
816.807	19483
816.948	19734
817.089	19575
817.23	19582
817.371	19510
817.512	19438
817.653	19552
817.793	19468
817.934	19540
818.075	19620
818.216	19495
818.356	19552
818.497	19259
818.638	19213
818.778	19266
818.919	19293
819.06	19251
819.2	19282
819.341	19251
819.481	19335
819.622	19449
819.762	19753
819.903	19620
820.043	19643
820.184	19453
820.324	19377
820.465	19476
820.605	19388
820.746	19426
820.886	19457
821.026	19480
821.167	19304
821.307	19472
821.447	19411
821.588	19221
821.728	19202
821.868	19160
822.008	18894
822.149	18909
822.289	18787
822.429	18654
822.569	18589
822.709	18528
822.849	18388
822.99	18422
823.13	18418
823.27	18262
823.41	18148
823.55	18045
823.69	18148
823.83	18194
823.97	18194
824.11	17889
824.25	17847
824.389	17878
824.529	18057
824.669	18003
824.809	18076
824.949	18057
825.089	17992
825.228	17992
825.368	17805
825.508	17783
825.648	17821
825.787	17794
825.927	17718
826.067	17630
826.206	17771
826.346	17707
826.485	17699
826.625	17802
826.765	17741
826.904	17653
827.044	17532
827.183	17414
827.323	17440
827.462	17383
827.601	17490
827.741	17402
827.88	17444
828.02	17254
828.159	17455
828.298	17459
828.437	17364
828.577	17410
828.716	17505
828.855	17299
828.994	17265
829.134	17208
829.273	17231
829.412	17159
829.551	17048
829.69	17220
829.829	17124
829.968	17200
830.107	17166
830.246	17094
830.385	17105
830.524	17022
830.663	16980
830.802	16828
830.941	16767
831.08	16786
831.219	16869
831.357	16748
831.496	16976
831.635	16744
831.774	16694
831.913	16675
832.051	16523
832.19	16538
832.329	16440
832.467	16447
832.606	16398
832.744	16485
832.883	16440
833.022	16474
833.16	16432
833.299	16512
833.437	16508
833.576	16432
833.714	16386
833.852	16512
833.991	16538
834.129	16618
834.267	16535
834.406	16481
834.544	16542
834.682	16443
834.821	16493
834.959	16660
835.097	16508
835.235	16516
835.373	16432
835.511	16409
835.65	16398
835.788	16466
835.926	16215
836.064	16143
836.202	16249
836.34	16428
836.478	16478
836.615	16371
836.753	16409
836.891	16493
837.029	16462
837.167	16394
837.305	16341
837.443	16230
837.58	16303
837.718	16287
837.856	16325
837.993	16112
838.131	16226
838.269	16204
838.406	16150
838.544	16147
838.681	15888
838.819	15876
838.956	15831
839.094	15766
839.231	15808
839.369	15869
839.506	16173
839.643	15972
839.781	15937
839.918	15781
840.055	15762
840.193	15812
840.33	15789
840.467	15854
840.604	15880
840.742	16040
840.879	15656
841.016	15717
841.153	15682
841.29	15884
841.427	15812
841.564	15865
841.701	15785
841.838	15671
841.975	15728
842.112	15652
842.249	15572
842.385	15561
842.522	15781
842.659	15698
842.796	15561
842.933	15504
843.069	15515
843.206	15458
843.343	15587
843.479	15591
843.616	15637
843.752	15313
843.889	15351
844.025	15466
844.162	15317
844.298	15511
844.435	15332
844.571	15359
844.708	15496
844.844	15405
844.98	15538
845.117	15412
845.253	15283
845.389	15165
845.525	15291
845.661	15344
845.798	15058
845.934	15226
846.07	15055
846.206	15272
846.342	15302
846.478	15241
846.614	14883
846.75	14845
846.886	14967
847.022	14963
847.158	14952
847.294	14990
847.429	14914
847.565	14948
847.701	15104
847.837	14712
847.972	14689
848.108	14743
848.244	14804
848.379	14533
848.515	14602
848.65	14499
848.786	14518
848.921	14492
849.057	14674
849.192	14587
849.328	14522
849.463	14518
849.598	14465
849.734	14469
849.869	14431
850.004	14290
850.14	14298
850.275	14282
850.41	14332
850.545	14336
850.68	14351
850.815	14278
850.95	14339
851.085	14480
851.22	14366
851.355	14328
851.49	14214
851.625	14138
851.76	14370
851.895	14210
852.03	14073
852.165	14301
852.299	14396
852.434	14202
852.569	14309
852.703	14263
852.838	14423
852.973	14488
853.107	14545
853.242	14206
853.376	14111
853.511	14043
853.645	14084
853.78	14237
853.914	14214
854.048	14107
854.183	14210
854.317	14145
854.451	14343
854.585	14145
854.72	14176
854.854	14187
854.988	14115
855.122	14134
855.256	14050
855.39	14157
855.524	14237
855.658	14218
855.792	14183
855.926	14214
856.06	14225
856.194	14233
856.327	14164
856.461	14024
856.595	14031
856.729	14142
856.862	14317
856.996	14172
857.13	14195
857.263	14195
857.397	14328
857.53	14183
857.664	14294
857.797	14195
857.931	14351
858.064	14187
858.197	14221
858.331	14149
858.464	14043
858.597	14008
858.731	14115
858.864	14145
858.997	14157
859.13	14206
859.263	14199
859.396	14263
859.529	14100
859.662	14145
859.795	14111
859.928	14199
860.061	14187
860.194	14343
860.327	14199
860.46	14263
860.592	14317
860.725	14271
860.858	14290
860.99	14172
861.123	14161
861.256	14054
861.388	14176
861.521	14811
861.653	14001
861.786	14020
861.918	14035
862.05	14107
862.183	14103
862.315	14130
862.447	14248
862.58	14088
862.712	13898
862.844	13909
862.976	14016
863.108	14069
863.24	14237
863.372	13955
863.504	13982
863.636	13955
863.768	13959
863.9	14020
864.032	13879
864.164	13925
864.296	13944
864.428	14081
864.559	14115
864.691	14058
864.823	14062
864.954	14012
865.086	14020
865.217	13807
865.349	13875
865.48	13856
865.612	13974
865.743	14073
865.875	13951
866.006	13906
866.137	13986
866.269	13864
866.4	13909
866.531	13856
866.662	13841
866.793	13868
866.924	13879
867.055	13955
867.186	13986
867.317	13871
867.448	13750
867.579	13917
867.71	13852
867.841	13807
867.972	13970
868.103	13921
868.233	13906
868.364	13921
868.495	13982
868.625	14111
868.756	14111
868.886	14103
869.017	14202
869.147	14339
869.278	14366
869.408	14138
869.539	14202
869.669	14320
869.799	14202
869.929	14366
870.06	14248
870.19	14495
870.32	14488
870.45	14545
870.58	14499
870.71	14625
870.84	14731
870.97	14587
871.1	14598
871.23	14895
871.36	14697
871.489	14724
871.619	14735
871.749	14815
871.879	14872
872.008	14807
872.138	14876
872.267	14712
872.397	14621
872.526	14720
872.656	14587
872.785	14526
872.915	14815
873.044	14864
873.173	14754
873.303	14876
873.432	14891
873.561	14982
873.69	14788
873.819	14807
873.948	14933
874.077	14861
874.206	14861
874.335	14849
874.464	15009
874.593	15077
874.722	15070
874.851	15192
874.979	15214
875.108	15233
875.237	15081
875.365	15017
875.494	15017
875.623	15207
875.751	15043
875.88	15222
876.008	15351
876.136	15367
876.265	15538
876.393	15743
876.521	15713
876.65	15682
876.778	15549
876.906	15443
877.034	15553
877.162	15435
877.29	15435
877.418	15496
877.546	15534
877.674	15587
877.802	15526
877.93	15469
878.058	15420
878.185	15435
878.313	15595
878.441	15561
878.568	15428
878.696	15477
878.824	15545
878.951	15629
879.079	15816
879.206	15857
879.333	15690
879.461	15591
879.588	15644
879.715	15724
879.842	15778
879.97	15618
880.097	15416
880.224	15416
880.351	15416
880.478	15542
880.605	15428
880.732	15374
880.859	15576
880.986	15374
881.112	15450
881.239	15291
881.366	15188
881.493	15108
881.619	15058
881.746	15154
881.872	15100
881.999	15146
882.125	15013
882.252	15150
882.378	15081
882.505	15222
882.631	15062
882.757	14937
882.883	14891
883.01	14914
883.136	14830
883.262	14815
883.388	14670
883.514	14887
883.64	14986
883.766	14944
883.892	14693
884.018	14697
884.143	14910
884.269	14963
884.395	14686
884.52	14598
884.646	14556
884.772	14648
884.897	14469
885.023	14575
885.148	14625
885.274	14792
885.399	14678
885.524	14598
885.65	14598
885.775	14613
885.9	14541
886.025	14667
886.15	14648
886.275	14457
886.4	14507
886.525	14450
886.65	14503
886.775	14545
886.9	14762
887.025	14891
887.149	14579
887.274	14450
887.399	14358
887.523	14404
887.648	14381
887.773	14358
887.897	14488
888.021	14537
888.146	14450
888.27	14492
888.395	14590
888.519	14526
888.643	14431
888.767	14518
888.891	14438
889.015	14252
889.139	14351
889.263	14248
889.387	14408
889.511	14495
889.635	14408
889.759	14244
889.883	14195
890.006	14256
890.13	14438
890.254	14290
890.377	14271
890.501	14126
890.624	13925
890.748	14202
890.871	14123
890.995	13890
891.118	13803
891.241	13875
891.364	13978
891.488	14119
891.611	13913
891.734	14016
891.857	14084
891.98	14065
892.103	14107
892.226	14119
892.349	13951
892.471	13811
892.594	13887
892.717	14065
892.839	13955
892.962	13982
893.085	14043
893.207	13928
893.33	13913
893.452	13887
893.575	14084
893.697	14054
893.819	14161
893.941	14161
894.064	14130
894.186	13989
894.308	13864
894.43	14183
894.552	14229
894.674	14092
894.796	13947
894.918	14031
895.04	14077
895.161	14107
895.283	14107
895.405	14001
895.526	14126
895.648	14107
895.769	14161
895.891	14229
896.012	14278
896.134	14149
896.255	14221
896.376	14161
896.498	14031
896.619	14221
896.74	14233
896.861	14214
896.982	14495
897.103	14682
897.224	14404
897.345	14400
897.466	14313
897.587	14469
897.708	14640
897.828	14590
897.949	14457
898.07	14282
898.19	14358
898.311	14617
898.431	14400
898.552	14541
898.672	14583
898.792	14667
898.913	14606
899.033	14465
899.153	14355
899.273	14313
899.393	14301
899.513	14434
899.633	14393
899.753	14469
899.873	14347
899.993	14492
900.113	14336
900.232	14438
900.352	14374
900.472	14282
900.591	14298
900.711	14259
900.83	14256
900.95	14374
901.069	14328
901.189	14183
901.308	14039
901.427	13837
901.546	13845
901.665	13890
901.784	14016
901.904	13776
902.023	13742
902.141	13571
902.26	13445
902.379	13582
902.498	13457
902.617	13499
902.735	13491
902.854	13506
902.973	13415
903.091	13213
903.21	13225
903.328	13221
903.446	13156
903.565	13019
903.683	13103
903.801	13015
903.919	13050
904.038	12966
904.156	12958
904.274	12970
904.392	12886
904.51	12859
904.627	12760
904.745	12993
904.863	12863
904.981	12696
905.098	12544
905.216	12570
905.334	12665
905.451	12650
905.569	12589
905.686	12566
905.803	12639
905.921	12452
906.038	12517
906.155	12517
906.272	12323
906.389	12273
906.506	12159
906.623	12136
906.74	12083
906.857	11882
906.974	12095
907.091	12190
907.208	12323
907.324	12273
907.441	12053
907.557	11817
907.674	11908
907.79	11885
907.907	11923
908.023	11920
908.139	11923
908.256	11885
908.372	11828
908.488	11783
908.604	11722
908.72	11642
908.836	11680
908.952	11672
909.068	11786
909.184	11718
909.3	11688
909.415	11688
909.531	11703
909.647	11467
909.762	11425
909.878	11364
909.993	11482
910.108	11471
910.224	11395
910.339	11490
910.454	11379
910.57	11326
910.685	11277
910.8	11558
910.915	11467
911.03	11410
911.145	11181
911.259	11109
911.374	11083
911.489	11075
911.604	10999
911.718	10949
911.833	10991
911.947	10812
912.062	10714
912.176	10900
912.291	10820
912.405	10847
912.519	11048
912.633	11086
912.748	11029
912.862	10881
912.976	10752
913.09	10698
913.204	10717
913.318	10744
913.431	10812
913.545	10904
913.659	10873
913.772	10847
913.886	10782
914	10660
914.113	10725
914.226	10805
914.34	10748
914.453	10588
914.566	10691
914.68	10626
914.793	10569
914.906	10356
915.019	10333
915.132	10352
915.245	10421
915.358	10371
915.47	10523
915.583	10382
915.696	10447
915.809	10607
915.921	10592
916.034	10360
916.146	10421
916.259	10333
916.371	10527
916.483	10436
916.595	10344
916.708	10295
916.82	10375
916.932	10318
917.044	10333
917.156	10265
917.268	10196
917.38	10249
917.491	10242
917.603	10276
917.715	10329
917.826	10360
917.938	10234
918.049	10120
918.161	10192
918.272	10409
918.384	10344
918.495	10295
918.606	10173
918.717	10067
918.828	10139
918.939	10181
919.05	10097
919.161	10032
919.272	9915
919.383	9994
919.494	10139
919.604	10344
919.715	10173
919.826	10090
919.936	10154
920.047	10257
920.157	10158
920.267	10363
920.378	10257
920.488	10169
920.598	10375
920.708	10542
920.818	10363
920.928	10371
921.038	10538
921.148	10493
921.258	10192
921.368	10090
921.477	10032
921.587	10013
921.697	9857
921.806	10032
921.916	9994
922.025	9778
922.134	9728
922.244	9671
922.353	9762
922.462	9553
922.571	9485
922.68	9447
922.789	9374
922.898	9416
923.007	9382
923.116	9416
923.224	9420
923.333	9435
923.442	9325
923.55	9249
923.659	9363
923.767	9450
923.876	9279
923.984	9336
924.092	9275
924.201	9291
924.309	9275
924.417	9245
924.525	9184
924.633	9226
924.741	10215
924.849	9100
924.956	9161
925.064	9032
925.172	8937
925.279	9009
925.387	9070
925.494	9032
925.602	9192
925.709	9123
925.816	9039
925.924	9043
926.031	9138
926.138	9032
926.245	9085
926.352	8902
926.459	9142
926.566	9199
926.673	8979
926.779	8883
926.886	8895
926.993	8880
927.099	8769
927.206	8644
927.312	8720
927.419	8834
927.525	8842
927.631	8788
927.737	8743
927.843	8693
927.95	8568
928.056	8735
928.162	8667
928.267	8804
928.373	9275
928.479	8762
928.585	8587
928.69	8724
928.796	8651
928.901	8571
929.007	8499
929.112	8629
929.218	8518
929.323	8461
929.428	8434
929.533	8667
929.638	8461
929.743	8537
929.848	8541
929.953	8476
930.058	8381
930.163	8294
930.267	8309
930.372	8370
930.477	8248
930.581	8469
930.685	8404
930.79	8142
930.894	8225
930.998	8168
931.103	8286
931.207	8001
931.311	7875
931.415	7883
931.519	7704
931.623	7658
