Data from test_V78500241_2160.txt Node
Date: Fri Mar 25 14:48:45 CST 2022
User: usil
Spectrometer: V785-0024
Trigger mode: 0
Integration Time (sec): 4.000000E-1
Scans to average: 1
Nonlinearity correction enabled: false
Boxcar width: 0
Storing dark spectrum: false
XAxis mode: Wavelengths
Number of Pixels in Spectrum: 1024
>>>>>Begin Spectral Data<<<<<
801.071	22192
801.214	22082
801.356	21835
801.499	21739
801.641	21614
801.783	21583
801.926	21599
802.068	21469
802.211	21370
802.353	21306
802.496	21230
802.638	21055
802.78	20963
802.923	20998
803.065	20864
803.208	20773
803.35	20868
803.492	20960
803.635	20933
803.777	20823
803.919	20876
804.061	21325
804.204	20956
804.346	20773
804.488	20845
804.63	20838
804.773	20655
804.915	20720
805.057	20842
805.199	20720
805.341	20853
805.483	20937
805.626	20857
805.768	20792
805.91	20876
806.052	20758
806.194	20651
806.336	20960
806.478	20655
806.62	20804
806.762	20872
806.904	21028
807.046	21260
807.188	21180
807.33	21184
807.472	21009
807.614	20979
807.756	21119
807.898	20986
808.04	20765
808.182	20914
808.324	20933
808.465	20929
808.607	21009
808.749	21218
808.891	21310
809.033	21416
809.174	21192
809.316	21154
809.458	21138
809.6	21237
809.741	21279
809.883	21332
810.025	21291
810.166	21386
810.308	21203
810.45	21275
810.591	21112
810.733	21089
810.875	20921
811.016	20864
811.158	20952
811.299	20990
811.441	21188
811.582	21013
811.724	20998
811.865	20891
812.007	20804
812.148	20948
812.29	20960
812.431	21264
812.573	21287
812.714	21393
812.855	21393
812.997	21511
813.138	21701
813.279	21473
813.421	21355
813.562	21348
813.703	21260
813.845	21161
813.986	20826
814.127	20545
814.268	20606
814.41	20621
814.551	20571
814.692	20492
814.833	20552
814.974	20419
815.115	20362
815.256	20415
815.397	20358
815.539	20328
815.68	20294
815.821	20195
815.962	20233
816.103	20252
816.244	20081
816.385	19974
816.526	19970
816.666	19765
816.807	19590
816.948	19658
817.089	19803
817.23	19708
817.371	19563
817.512	19552
817.653	19556
817.793	19742
817.934	19597
818.075	19601
818.216	19563
818.356	19540
818.497	19495
818.638	19403
818.778	19240
818.919	19312
819.06	19369
819.2	19518
819.341	19358
819.481	19445
819.622	19575
819.762	19719
819.903	19712
820.043	19666
820.184	19639
820.324	19639
820.465	19693
820.605	19590
820.746	19605
820.886	19506
821.026	19582
821.167	19499
821.307	19670
821.447	19453
821.588	19434
821.728	19384
821.868	19240
822.008	19019
822.149	19069
822.289	18951
822.429	18825
822.569	18627
822.709	18741
822.849	18601
822.99	18544
823.13	18563
823.27	18418
823.41	18327
823.55	18277
823.69	18243
823.83	18273
823.97	18311
824.11	18041
824.25	18019
824.389	18178
824.529	18163
824.669	18034
824.809	18197
824.949	18034
825.089	18140
825.228	17958
825.368	17809
825.508	17942
825.648	17942
825.787	17901
825.927	17920
826.067	17752
826.206	17832
826.346	17965
826.485	17904
826.625	17866
826.765	17984
826.904	17920
827.044	17649
827.183	17600
827.323	17547
827.462	17554
827.601	17471
827.741	17505
827.88	17562
828.02	17467
828.159	17551
828.298	17547
828.437	17729
828.577	17467
828.716	17687
828.855	17642
828.994	17231
829.134	17406
829.273	17280
829.412	17273
829.551	17197
829.69	17322
829.829	17349
829.968	17383
830.107	17280
830.246	17223
830.385	17322
830.524	17239
830.663	17200
830.802	17014
830.941	16991
831.08	16847
831.219	17128
831.357	16987
831.496	17185
831.635	16946
831.774	16797
831.913	16801
832.051	16713
832.19	16683
832.329	16828
832.467	16664
832.606	16615
832.744	16592
832.883	16634
833.022	16478
833.16	16725
833.299	16653
833.437	16596
833.576	16637
833.714	16618
833.852	16717
833.991	16687
834.129	16736
834.267	16740
834.406	16653
834.544	16717
834.682	16668
834.821	16622
834.959	16866
835.097	16599
835.235	16790
835.373	16611
835.511	16706
835.65	16618
835.788	16538
835.926	16500
836.064	16333
836.202	16295
836.34	16451
836.478	16592
836.615	16466
836.753	16573
836.891	16641
837.029	16573
837.167	16523
837.305	16500
837.443	16394
837.58	16398
837.718	16402
837.856	16413
837.993	16451
838.131	16432
838.269	16363
838.406	16432
838.544	16337
838.681	16192
838.819	16150
838.956	16013
839.094	15994
839.231	15930
839.369	16173
839.506	16379
839.643	16158
839.781	16051
839.918	15994
840.055	15968
840.193	15934
840.33	15899
840.467	16002
840.604	15956
840.742	16291
840.879	15766
841.016	15876
841.153	15907
841.29	16105
841.427	15934
841.564	15968
841.701	15835
841.838	15918
841.975	15827
842.112	15960
842.249	15762
842.385	15732
842.522	15884
842.659	15873
842.796	15732
842.933	15793
843.069	15743
843.206	15705
843.343	15812
843.479	15717
843.616	15785
843.752	15545
843.889	15549
844.025	15720
844.162	15492
844.298	15679
844.435	15500
844.571	15462
844.708	15511
844.844	15648
844.98	15663
845.117	15618
845.253	15477
845.389	15382
845.525	15397
845.661	15454
845.798	15344
845.934	15374
846.07	15226
846.206	15496
846.342	15557
846.478	15245
846.614	15066
846.75	15131
846.886	15036
847.022	15214
847.158	15116
847.294	15081
847.429	15192
847.565	15039
847.701	15272
847.837	14868
847.972	14868
848.108	15108
848.244	14876
848.379	14823
848.515	14785
848.65	14686
848.786	14701
848.921	14659
849.057	14872
849.192	14716
849.328	14800
849.463	14686
849.598	14640
849.734	14670
849.869	14571
850.004	14571
850.14	14461
850.275	14640
850.41	14370
850.545	14389
850.68	14404
850.815	14511
850.95	14465
851.085	14575
851.22	14530
851.355	14476
851.49	14514
851.625	14476
851.76	14480
851.895	14278
852.03	14358
852.165	14400
852.299	14522
852.434	14530
852.569	14537
852.703	14457
852.838	14583
852.973	14731
853.107	14526
853.242	14507
853.376	14358
853.511	14221
853.645	14366
853.78	14431
853.914	14347
854.048	14298
854.183	14355
854.317	14309
854.451	14431
854.585	14370
854.72	14309
854.854	14434
854.988	14256
855.122	14351
855.256	14248
855.39	14301
855.524	14381
855.658	14328
855.792	14385
855.926	14336
856.06	14358
856.194	14450
856.327	14377
856.461	14244
856.595	14298
856.729	14248
856.862	14370
856.996	14339
857.13	14351
857.263	14465
857.397	14423
857.53	14385
857.664	14351
857.797	14412
857.931	14423
858.064	14343
858.197	14431
858.331	14294
858.464	14313
858.597	14286
858.731	14320
858.864	14290
858.997	14294
859.13	14336
859.263	14351
859.396	14473
859.529	14290
859.662	14206
859.795	14324
859.928	14374
860.061	14415
860.194	14473
860.327	14366
860.46	14317
860.592	14480
860.725	14396
860.858	14454
860.99	14298
861.123	14275
861.256	14229
861.388	14183
861.521	15116
861.653	14259
861.786	14126
861.918	14206
862.05	14305
862.183	14294
862.315	14351
862.447	14438
862.58	14317
862.712	14290
862.844	14005
862.976	14145
863.108	14130
863.24	14461
863.372	14039
863.504	14161
863.636	14073
863.768	14164
863.9	14077
864.032	14043
864.164	14005
864.296	14069
864.428	14161
864.559	14210
864.691	14176
864.823	14210
864.954	14172
865.086	14218
865.217	14092
865.349	14069
865.48	14111
865.612	14149
865.743	14309
865.875	14218
866.006	14069
866.137	14092
866.269	14157
866.4	14096
866.531	14088
866.662	14050
866.793	14115
866.924	14020
867.055	14016
867.186	14084
867.317	14043
867.448	14039
867.579	14069
867.71	14081
867.841	14043
867.972	14119
868.103	14100
868.233	14016
868.364	14065
868.495	14164
868.625	14301
868.756	14484
868.886	14298
869.017	14317
869.147	14434
869.278	14400
869.408	14271
869.539	14324
869.669	14537
869.799	14465
869.929	14469
870.06	14427
870.19	14762
870.32	14686
870.45	14811
870.58	14701
870.71	14845
870.84	14887
870.97	14667
871.1	14735
871.23	14914
871.36	14952
871.489	14830
871.619	14921
871.749	14925
871.879	15009
872.008	15085
872.138	14967
872.267	14941
872.397	14872
872.526	14773
872.656	14769
872.785	14811
872.915	14921
873.044	15074
873.173	15058
873.303	14960
873.432	15024
873.561	15055
873.69	14979
873.819	15001
873.948	15055
874.077	15036
874.206	14887
874.335	15074
874.464	15131
874.593	15275
874.722	15214
874.851	15348
874.979	15374
875.108	15450
875.237	15294
875.365	15256
875.494	15260
875.623	15374
875.751	15325
875.88	15340
876.008	15458
876.136	15534
876.265	15667
876.393	15979
876.521	15842
876.65	15789
876.778	15816
876.906	15705
877.034	15614
877.162	15679
877.29	15641
877.418	15701
877.546	15679
877.674	15793
877.802	15656
877.93	15675
878.058	15667
878.185	15694
878.313	15671
878.441	15698
878.568	15549
878.696	15686
878.824	15747
878.951	15812
879.079	15838
879.206	16048
879.333	15842
879.461	15808
879.588	15812
879.715	16017
879.842	15949
879.97	15679
880.097	15564
880.224	15557
880.351	15625
880.478	15599
880.605	15580
880.732	15431
880.859	15789
880.986	15564
881.112	15663
881.239	15481
881.366	15370
881.493	15241
881.619	15222
881.746	15272
881.872	15264
881.999	15169
882.125	15214
882.252	15218
882.378	15249
882.505	15473
882.631	15230
882.757	15009
882.883	15150
883.01	14982
883.136	15028
883.262	14887
883.388	14883
883.514	15074
883.64	15055
883.766	15066
883.892	14853
884.018	14883
884.143	15070
884.269	15135
884.395	14754
884.52	14758
884.646	14697
884.772	14549
884.897	14727
885.023	14686
885.148	14891
885.274	14937
885.399	14864
885.524	14716
885.65	14845
885.775	14682
885.9	14830
886.025	14823
886.15	14823
886.275	14663
886.4	14689
886.525	14697
886.65	14781
886.775	14712
886.9	14842
887.025	14952
887.149	14712
887.274	14552
887.399	14541
887.523	14518
887.648	14530
887.773	14530
887.897	14693
888.021	14682
888.146	14590
888.27	14769
888.395	14735
888.519	14518
888.643	14594
888.767	14621
888.891	14473
889.015	14446
889.139	14526
889.263	14309
889.387	14552
889.511	14716
889.635	14545
889.759	14450
889.883	14332
890.006	14400
890.13	14606
890.254	14434
890.377	14362
890.501	14168
890.624	14248
890.748	14328
890.871	14161
890.995	14069
891.118	14092
891.241	14134
891.364	14176
891.488	14256
891.611	14271
891.734	14202
891.857	14164
891.98	14103
892.103	14320
892.226	14168
892.349	14206
892.471	13974
892.594	14161
892.717	14161
892.839	14050
892.962	14142
893.085	14161
893.207	14252
893.33	14020
893.452	13978
893.575	14259
893.697	14100
893.819	14237
893.941	14423
894.064	14256
894.186	14020
894.308	14081
894.43	14252
894.552	14370
894.674	14199
894.796	14168
894.918	14157
895.04	14153
895.161	14244
895.283	14305
895.405	14164
895.526	14176
895.648	14332
895.769	14225
895.891	14324
896.012	14408
896.134	14404
896.255	14336
896.376	14278
896.498	14309
896.619	14343
896.74	14282
896.861	14488
896.982	14701
897.103	14853
897.224	14629
897.345	14526
897.466	14503
897.587	14644
897.708	14712
897.828	14670
897.949	14556
898.07	14465
898.19	14571
898.311	14682
898.431	14484
898.552	14644
898.672	14743
898.792	14785
898.913	14727
899.033	14644
899.153	14545
899.273	14393
899.393	14571
899.513	14587
899.633	14442
899.753	14549
899.873	14385
899.993	14594
900.113	14518
900.232	14621
900.352	14492
900.472	14400
900.591	14328
900.711	14476
900.83	14339
900.95	14499
901.069	14511
901.189	14347
901.308	14130
901.427	14092
901.546	14043
901.665	14134
901.784	14111
901.904	13925
902.023	13875
902.141	13689
902.26	13605
902.379	13670
902.498	13597
902.617	13582
902.735	13696
902.854	13651
902.973	13613
903.091	13339
903.21	13411
903.328	13327
903.446	13285
903.565	13221
903.683	13202
903.801	13118
903.919	13171
904.038	13168
904.156	13069
904.274	13156
904.392	12958
904.51	12928
904.627	13027
904.745	13050
904.863	13050
904.981	12905
905.098	12620
905.216	12711
905.334	12726
905.451	12639
905.569	12726
905.686	12734
905.803	12738
905.921	12513
906.038	12574
906.155	12563
906.272	12350
906.389	12403
906.506	12315
906.623	12315
906.74	12334
906.857	12148
906.974	12258
907.091	12330
907.208	12433
907.324	12338
907.441	12258
907.557	12049
907.674	11996
907.79	11996
907.907	12068
908.023	12049
908.139	12003
908.256	11927
908.372	12064
908.488	11912
908.604	11718
908.72	11783
908.836	11805
908.952	11794
909.068	11779
909.184	11988
909.3	11802
909.415	11870
909.531	11832
909.647	11619
909.762	11524
909.878	11551
909.993	11623
910.108	11535
910.224	11570
910.339	11611
910.454	11547
910.57	11364
910.685	11410
910.8	11726
910.915	11676
911.03	11490
911.145	11273
911.259	11239
911.374	11307
911.489	11113
911.604	11216
911.718	11048
911.833	11037
911.947	10927
912.062	10850
912.176	11006
912.291	11010
912.405	10938
912.519	11174
912.633	11197
912.748	11098
912.862	11025
912.976	10934
913.09	10740
913.204	10869
913.318	10976
913.431	10938
913.545	11075
913.659	10999
913.772	10843
913.886	10774
914	10702
914.113	10774
914.226	10938
914.34	10828
914.453	10694
914.566	10889
914.68	10717
914.793	10759
914.906	10558
915.019	10432
915.132	10497
915.245	10577
915.358	10569
915.47	10558
915.583	10580
915.696	10588
915.809	10645
915.921	10630
916.034	10459
916.146	10504
916.259	10550
916.371	10531
916.483	10599
916.595	10367
916.708	10481
916.82	10440
916.932	10421
917.044	10459
917.156	10341
917.268	10284
917.38	10268
917.491	10386
917.603	10382
917.715	10462
917.826	10428
917.938	10360
918.049	10268
918.161	10322
918.272	10519
918.384	10504
918.495	10382
918.606	10166
918.717	10143
918.828	10242
918.939	10280
919.05	10128
919.161	10215
919.272	10029
919.383	10044
919.494	10325
919.604	10398
919.715	10234
919.826	10284
919.936	10215
920.047	10360
920.157	10219
920.267	10466
920.378	10207
920.488	10242
920.598	10424
920.708	10573
920.818	10409
920.928	10451
921.038	10599
921.148	10546
921.258	10253
921.368	10211
921.477	10128
921.587	10124
921.697	9991
921.806	10120
921.916	10036
922.025	9873
922.134	9800
922.244	9819
922.353	9819
922.462	9660
922.571	9667
922.68	9462
922.789	9431
922.898	9485
923.007	9359
923.116	9538
923.224	9511
923.333	9553
923.442	9344
923.55	9332
923.659	9412
923.767	9473
923.876	9351
923.984	9408
924.092	9340
924.201	9412
924.309	9344
924.417	9374
924.525	9268
924.633	9283
924.741	10063
924.849	9218
924.956	9325
925.064	9195
925.172	9066
925.279	9123
925.387	9066
925.494	9211
925.602	9237
925.709	9211
925.816	9112
925.924	9214
926.031	9211
926.138	9180
926.245	9226
926.352	9058
926.459	9218
926.566	9218
926.673	9146
926.779	9074
926.886	8933
926.993	8929
927.099	8880
927.206	8838
927.312	8815
927.419	8948
927.525	8826
927.631	8933
927.737	8804
927.843	8766
927.95	8632
928.056	8712
928.162	8746
928.267	8743
928.373	9332
928.479	8868
928.585	8606
928.69	8724
928.796	8762
928.901	8682
929.007	8518
929.112	8724
929.218	8678
929.323	8556
929.428	8606
929.533	8701
929.638	8590
929.743	8579
929.848	8636
929.953	8587
930.058	8404
930.163	8396
930.267	8381
930.372	8514
930.477	8343
930.581	8575
930.685	8476
930.79	8240
930.894	8347
930.998	8309
931.103	8377
931.207	8073
931.311	8020
931.415	7959
931.519	7803
931.623	7795
