Data from test_V78500241_1507.txt Node
Date: Fri Mar 25 14:44:12 CST 2022
User: usil
Spectrometer: V785-0024
Trigger mode: 0
Integration Time (sec): 4.000000E-1
Scans to average: 1
Nonlinearity correction enabled: false
Boxcar width: 0
Storing dark spectrum: false
XAxis mode: Wavelengths
Number of Pixels in Spectrum: 1024
>>>>>Begin Spectral Data<<<<<
801.071	22398
801.214	22367
801.356	22074
801.499	21892
801.641	21766
801.783	21682
801.926	21789
802.068	21637
802.211	21603
802.353	21644
802.496	21325
802.638	21241
802.78	21226
802.923	21184
803.065	21169
803.208	21112
803.35	21142
803.492	21245
803.635	21157
803.777	21119
803.919	21241
804.061	21439
804.204	21180
804.346	21062
804.488	21005
804.63	20891
804.773	20948
804.915	20944
805.057	21112
805.199	21142
805.341	21047
805.483	21268
805.626	21062
805.768	20944
805.91	21024
806.052	21009
806.194	20872
806.336	21104
806.478	21062
806.62	20887
806.762	21024
806.904	21104
807.046	21386
807.188	21287
807.33	21386
807.472	21519
807.614	21393
807.756	21306
807.898	21256
808.04	21036
808.182	21146
808.324	21199
808.465	21237
808.607	21405
808.749	21637
808.891	21682
809.033	21770
809.174	21701
809.316	21580
809.458	21534
809.6	21511
809.741	21542
809.883	21515
810.025	21694
810.166	21603
810.308	21603
810.45	21553
810.591	21526
810.733	21363
810.875	21329
811.016	21070
811.158	21116
811.299	21268
811.441	21412
811.582	21332
811.724	21138
811.865	21157
812.007	21169
812.148	21157
812.29	21192
812.431	21420
812.573	21549
812.714	21606
812.855	21644
812.997	21789
813.138	21987
813.279	21812
813.421	21751
813.562	21591
813.703	21317
813.845	21405
813.986	21058
814.127	20986
814.268	20853
814.41	20804
814.551	20834
814.692	20845
814.833	20750
814.974	20640
815.115	20754
815.256	20590
815.397	20503
815.539	20632
815.68	20396
815.821	20336
815.962	20419
816.103	20423
816.244	20271
816.385	20233
816.526	20214
816.666	20008
816.807	19830
816.948	19947
817.089	20050
817.23	19890
817.371	19898
817.512	19978
817.653	19940
817.793	19879
817.934	19868
818.075	19837
818.216	19887
818.356	19906
818.497	19674
818.638	19567
818.778	19487
818.919	19567
819.06	19655
819.2	19639
819.341	19689
819.481	19818
819.622	19921
819.762	20043
819.903	20027
820.043	19928
820.184	19795
820.324	19898
820.465	19978
820.605	19883
820.746	19841
820.886	19807
821.026	19845
821.167	19875
821.307	19894
821.447	19769
821.588	19681
821.728	19578
821.868	19480
822.008	19225
822.149	19335
822.289	19137
822.429	18973
822.569	18882
822.709	18837
822.849	18764
822.99	18764
823.13	18806
823.27	18760
823.41	18460
823.55	18399
823.69	18521
823.83	18555
823.97	18426
824.11	18319
824.25	18296
824.389	18429
824.529	18441
824.669	18323
824.809	18418
824.949	18540
825.089	18486
825.228	18323
825.368	18148
825.508	18117
825.648	18163
825.787	18239
825.927	18140
826.067	18030
826.206	18007
826.346	18213
826.485	18163
826.625	18095
826.765	18190
826.904	18136
827.044	17893
827.183	17817
827.323	17843
827.462	17863
827.601	17619
827.741	17843
827.88	17870
828.02	17783
828.159	17726
828.298	17813
828.437	17851
828.577	17691
828.716	17889
828.855	17764
828.994	17512
829.134	17566
829.273	17699
829.412	17577
829.551	17562
829.69	17551
829.829	17562
829.968	17668
830.107	17627
830.246	17570
830.385	17528
830.524	17368
830.663	17391
830.802	17246
830.941	17227
831.08	17109
831.219	17220
831.357	17212
831.496	17387
831.635	17223
831.774	17083
831.913	17064
832.051	16961
832.19	16968
832.329	16873
832.467	16900
832.606	16706
832.744	16771
832.883	16790
833.022	16850
833.16	16991
833.299	16995
833.437	16847
833.576	16904
833.714	16869
833.852	16938
833.991	16965
834.129	16904
834.267	16942
834.406	16972
834.544	16961
834.682	16968
834.821	16869
834.959	16961
835.097	16850
835.235	16972
835.373	16889
835.511	16889
835.65	16797
835.788	16763
835.926	16649
836.064	16607
836.202	16546
836.34	16831
836.478	16869
836.615	16805
836.753	16885
836.891	16790
837.029	16843
837.167	16645
837.305	16733
837.443	16706
837.58	16653
837.718	16774
837.856	16664
837.993	16569
838.131	16698
838.269	16554
838.406	16630
838.544	16508
838.681	16280
838.819	16379
838.956	16291
839.094	16139
839.231	16265
839.369	16352
839.506	16637
839.643	16360
839.781	16204
839.918	16143
840.055	16257
840.193	16234
840.33	16169
840.467	16215
840.604	16135
840.742	16314
840.879	16101
841.016	15922
841.153	16116
841.29	16257
841.427	16147
841.564	16268
841.701	16147
841.838	16067
841.975	16112
842.112	16063
842.249	15968
842.385	15930
842.522	16181
842.659	15915
842.796	15945
842.933	15994
843.069	15987
843.206	15949
843.343	16048
843.479	15998
843.616	16013
843.752	15720
843.889	15751
844.025	15903
844.162	15743
844.298	15835
844.435	15800
844.571	15759
844.708	15854
844.844	15873
844.98	15903
845.117	15937
845.253	15728
845.389	15713
845.525	15682
845.661	15762
845.798	15709
845.934	15778
846.07	15682
846.206	15800
846.342	15812
846.478	15610
846.614	15428
846.75	15329
846.886	15275
847.022	15439
847.158	15397
847.294	15237
847.429	15389
847.565	15245
847.701	15595
847.837	15085
847.972	15039
848.108	15165
848.244	15150
848.379	15039
848.515	14899
848.65	14765
848.786	14880
848.921	14887
849.057	15062
849.192	14971
849.328	14986
849.463	15005
849.598	14857
849.734	14807
849.869	14727
850.004	14632
850.14	14773
850.275	14670
850.41	14617
850.545	14629
850.68	14701
850.815	14739
850.95	14648
851.085	14864
851.22	14830
851.355	14708
851.49	14579
851.625	14629
851.76	14644
851.895	14503
852.03	14537
852.165	14697
852.299	14655
852.434	14804
852.569	14674
852.703	14678
852.838	14872
852.973	14887
853.107	14739
853.242	14575
853.376	14492
853.511	14522
853.645	14488
853.78	14640
853.914	14606
854.048	14579
854.183	14495
854.317	14514
854.451	14651
854.585	14461
854.72	14511
854.854	14606
854.988	14446
855.122	14507
855.256	14252
855.39	14518
855.524	14655
855.658	14617
855.792	14549
855.926	14602
856.06	14571
856.194	14674
856.327	14571
856.461	14518
856.595	14488
856.729	14545
856.862	14682
856.996	14594
857.13	14602
857.263	14686
857.397	14651
857.53	14499
857.664	14568
857.797	14583
857.931	14606
858.064	14583
858.197	14598
858.331	14568
858.464	14522
858.597	14434
858.731	14503
858.864	14610
858.997	14488
859.13	14560
859.263	14537
859.396	14651
859.529	14533
859.662	14549
859.795	14514
859.928	14602
860.061	14758
860.194	14716
860.327	14640
860.46	14621
860.592	14621
860.725	14727
860.858	14617
860.99	14556
861.123	14469
861.256	14610
861.388	14533
861.521	15222
861.653	14454
861.786	14419
861.918	14347
862.05	14473
862.183	14419
862.315	14594
862.447	14625
862.58	14495
862.712	14362
862.844	14240
862.976	14427
863.108	14377
863.24	14678
863.372	14221
863.504	14237
863.636	14404
863.768	14404
863.9	14286
864.032	14126
864.164	14339
864.296	14400
864.428	14446
864.559	14366
864.691	14396
864.823	14450
864.954	14393
865.086	14370
865.217	14336
865.349	14313
865.48	14309
865.612	14263
865.743	14469
865.875	14355
866.006	14142
866.137	14271
866.269	14282
866.4	14286
866.531	14286
866.662	14233
866.793	14233
866.924	14286
867.055	14271
867.186	14134
867.317	14237
867.448	14176
867.579	14145
867.71	14218
867.841	14229
867.972	14267
868.103	14256
868.233	14263
868.364	14358
868.495	14358
868.625	14488
868.756	14640
868.886	14610
869.017	14503
869.147	14644
869.278	14678
869.408	14571
869.539	14537
869.669	14667
869.799	14579
869.929	14678
870.06	14724
870.19	14937
870.32	14853
870.45	14857
870.58	14952
870.71	15055
870.84	15123
870.97	14880
871.1	14929
871.23	15119
871.36	15199
871.489	15024
871.619	15176
871.749	15203
871.879	15214
872.008	15214
872.138	15173
872.267	15241
872.397	14963
872.526	14929
872.656	14948
872.785	14910
872.915	15192
873.044	15325
873.173	15154
873.303	15279
873.432	15283
873.561	15344
873.69	15325
873.819	15207
873.948	15302
874.077	15249
874.206	15256
874.335	15275
874.464	15405
874.593	15507
874.722	15454
874.851	15545
874.979	15549
875.108	15584
875.237	15469
875.365	15450
875.494	15576
875.623	15584
875.751	15580
875.88	15652
876.008	15766
876.136	15781
876.265	15903
876.393	16128
876.521	15911
876.65	16013
876.778	15983
876.906	15934
877.034	15865
877.162	15998
877.29	15884
877.418	16013
877.546	15903
877.674	16006
877.802	15895
877.93	16074
878.058	15827
878.185	15873
878.313	15899
878.441	16002
878.568	15842
878.696	16010
878.824	16063
878.951	16082
879.079	16192
879.206	16337
879.333	16215
879.461	16017
879.588	16276
879.715	16291
879.842	16337
879.97	16116
880.097	15918
880.224	15766
880.351	15865
880.478	15903
880.605	15770
880.732	15759
880.859	16105
880.986	15842
881.112	15846
881.239	15675
881.366	15595
881.493	15500
881.619	15454
881.746	15557
881.872	15496
881.999	15500
882.125	15428
882.252	15454
882.378	15450
882.505	15538
882.631	15344
882.757	15260
882.883	15374
883.01	15287
883.136	15214
883.262	15188
883.388	15157
883.514	15256
883.64	15325
883.766	15287
883.892	15089
884.018	15199
884.143	15275
884.269	15401
884.395	15066
884.52	14960
884.646	15001
884.772	14998
884.897	14910
885.023	14967
885.148	15055
885.274	15142
885.399	15119
885.524	15032
885.65	14956
885.775	15036
885.9	15032
886.025	15093
886.15	15032
886.275	14994
886.4	14933
886.525	14960
886.65	14899
886.775	14864
886.9	15142
887.025	15294
887.149	15001
887.274	14819
887.399	14746
887.523	14758
887.648	14762
887.773	14667
887.897	14830
888.021	14868
888.146	14716
888.27	14906
888.395	14826
888.519	14815
888.643	14792
888.767	14937
888.891	14625
889.015	14621
889.139	14693
889.263	14648
889.387	14792
889.511	14921
889.635	14823
889.759	14651
889.883	14587
890.006	14724
890.13	14708
890.254	14678
890.377	14632
890.501	14594
890.624	14434
890.748	14606
890.871	14415
890.995	14358
891.118	14214
891.241	14366
891.364	14419
891.488	14541
891.611	14427
891.734	14389
891.857	14442
891.98	14423
892.103	14454
892.226	14476
892.349	14355
892.471	14199
892.594	14343
892.717	14404
892.839	14370
892.962	14317
893.085	14362
893.207	14339
893.33	14332
893.452	14202
893.575	14476
893.697	14317
893.819	14473
893.941	14541
894.064	14514
894.186	14237
894.308	14267
894.43	14579
894.552	14583
894.674	14545
894.796	14233
894.918	14412
895.04	14385
895.161	14560
895.283	14469
895.405	14419
895.526	14434
895.648	14412
895.769	14457
895.891	14503
896.012	14610
896.134	14419
896.255	14541
896.376	14522
896.498	14522
896.619	14583
896.74	14564
896.861	14610
896.982	14891
897.103	14994
897.224	14819
897.345	14781
897.466	14716
897.587	14758
897.708	14910
897.828	14868
897.949	14750
898.07	14594
898.19	14716
898.311	14952
898.431	14750
898.552	14834
898.672	14906
898.792	14937
898.913	14914
899.033	14857
899.153	14636
899.273	14545
899.393	14712
899.513	14689
899.633	14743
899.753	14765
899.873	14670
899.993	14762
900.113	14674
900.232	14727
900.352	14670
900.472	14526
900.591	14545
900.711	14705
900.83	14549
900.95	14651
901.069	14773
901.189	14499
901.308	14199
901.427	14206
901.546	14195
901.665	14286
901.784	14294
901.904	14119
902.023	14046
902.141	13902
902.26	13841
902.379	13860
902.498	13849
902.617	13803
902.735	13864
902.854	13807
902.973	13731
903.091	13502
903.21	13563
903.328	13529
903.446	13384
903.565	13457
903.683	13449
903.801	13240
903.919	13331
904.038	13331
904.156	13206
904.274	13316
904.392	13198
904.51	13114
904.627	13103
904.745	13301
904.863	13335
904.981	12996
905.098	12871
905.216	12947
905.334	12913
905.451	12856
905.569	12798
905.686	12970
905.803	12928
905.921	12673
906.038	12905
906.155	12707
906.272	12654
906.389	12650
906.506	12452
906.623	12525
906.74	12437
906.857	12350
906.974	12353
907.091	12582
907.208	12711
907.324	12513
907.441	12391
907.557	12285
907.674	12140
907.79	12129
907.907	12155
908.023	12266
908.139	12224
908.256	12155
908.372	12144
908.488	12087
908.604	12015
908.72	11927
908.836	11969
908.952	11999
909.068	11977
909.184	12106
909.3	11973
909.415	12041
909.531	11969
909.647	11748
909.762	11779
909.878	11752
909.993	11821
910.108	11684
910.224	11748
910.339	11752
910.454	11676
910.57	11649
910.685	11532
910.8	11847
910.915	11775
911.03	11699
911.145	11459
911.259	11398
911.374	11356
911.489	11398
911.604	11296
911.718	11155
911.833	11273
911.947	11037
912.062	11045
912.176	11132
912.291	11197
912.405	11147
912.519	11368
912.633	11360
912.748	11166
912.862	11269
912.976	11064
913.09	10953
913.204	10991
913.318	11041
913.431	11185
913.545	11105
913.659	11147
913.772	11132
913.886	10968
914	10908
914.113	10927
914.226	10984
914.34	11041
914.453	10858
914.566	11003
914.68	10881
914.793	10816
914.906	10691
915.019	10687
915.132	10565
915.245	10698
915.358	10771
915.47	10744
915.583	10668
915.696	10729
915.809	10782
915.921	10824
916.034	10645
916.146	10592
916.259	10637
916.371	10649
916.483	10641
916.595	10588
916.708	10618
916.82	10637
916.932	10550
917.044	10603
917.156	10637
917.268	10386
917.38	10519
917.491	10535
917.603	10512
917.715	10622
917.826	10573
917.938	10519
918.049	10356
918.161	10561
918.272	10535
918.384	10588
918.495	10603
918.606	10402
918.717	10390
918.828	10424
918.939	10489
919.05	10314
919.161	10344
919.272	10154
919.383	10234
919.494	10440
919.604	10596
919.715	10409
919.826	10333
919.936	10398
920.047	10432
920.157	10382
920.267	10664
920.378	10451
920.488	10398
920.598	10626
920.708	10729
920.818	10542
920.928	10649
921.038	10736
921.148	10710
921.258	10470
921.368	10333
921.477	10276
921.587	10246
921.697	10177
921.806	10238
921.916	10135
922.025	9888
922.134	9975
922.244	9880
922.353	9945
922.462	9819
922.571	9838
922.68	9584
922.789	9622
922.898	9564
923.007	9504
923.116	9701
923.224	9603
923.333	9625
923.442	9515
923.55	9504
923.659	9526
923.767	9637
923.876	9408
923.984	9564
924.092	9382
924.201	9473
924.309	9523
924.417	9431
924.525	9370
924.633	9511
924.741	10360
924.849	9233
924.956	9386
925.064	9207
925.172	9173
925.279	9180
925.387	9317
925.494	9230
925.602	9389
925.709	9389
925.816	9321
925.924	9272
926.031	9348
926.138	9332
926.245	9325
926.352	9287
926.459	9294
926.566	9428
926.673	9214
926.779	9104
926.886	9138
926.993	8986
927.099	8998
927.206	8880
927.312	8994
927.419	8994
927.525	9051
927.631	9047
927.737	9020
927.843	8929
927.95	8708
928.056	8842
928.162	8876
928.267	8952
928.373	9424
928.479	8982
928.585	8739
928.69	8838
928.796	8842
928.901	8758
929.007	8655
929.112	8743
929.218	8792
929.323	8670
929.428	8727
929.533	8899
929.638	8655
929.743	8659
929.848	8739
929.953	8659
930.058	8571
930.163	8549
930.267	8461
930.372	8621
930.477	8381
930.581	8766
930.685	8556
930.79	8446
930.894	8495
930.998	8396
931.103	8541
931.207	8214
931.311	8138
931.415	8077
931.519	7898
931.623	7932
