Data from test_V78500241_1132.txt Node
Date: Fri Mar 25 14:41:35 CST 2022
User: usil
Spectrometer: V785-0024
Trigger mode: 0
Integration Time (sec): 4.000000E-1
Scans to average: 1
Nonlinearity correction enabled: false
Boxcar width: 0
Storing dark spectrum: false
XAxis mode: Wavelengths
Number of Pixels in Spectrum: 1024
>>>>>Begin Spectral Data<<<<<
801.071	22615
801.214	22459
801.356	22173
801.499	22040
801.641	22044
801.783	21892
801.926	21907
802.068	21884
802.211	21781
802.353	21751
802.496	21462
802.638	21378
802.78	21340
802.923	21317
803.065	21230
803.208	21230
803.35	21173
803.492	21420
803.635	21485
803.777	21336
803.919	21321
804.061	21641
804.204	21420
804.346	21374
804.488	21222
804.63	21173
804.773	21066
804.915	21298
805.057	21367
805.199	21165
805.341	21127
805.483	21275
805.626	21192
805.768	21188
805.91	21218
806.052	21306
806.194	21169
806.336	21336
806.478	21131
806.62	21150
806.762	21252
806.904	21466
807.046	21572
807.188	21660
807.33	21641
807.472	21591
807.614	21443
807.756	21561
807.898	21355
808.04	21420
808.182	21348
808.324	21412
808.465	21572
808.607	21686
808.749	21934
808.891	22067
809.033	21892
809.174	21876
809.316	21778
809.458	21770
809.6	21686
809.741	21945
809.883	21736
810.025	21804
810.166	21793
810.308	21827
810.45	21846
810.591	21660
810.733	21538
810.875	21469
811.016	21428
811.158	21287
811.299	21538
811.441	21599
811.582	21511
811.724	21447
811.865	21485
812.007	21348
812.148	21439
812.29	21336
812.431	21515
812.573	21751
812.714	21713
812.855	21903
812.997	21907
813.138	22128
813.279	22040
813.421	21873
813.562	21846
813.703	21641
813.845	21606
813.986	21275
814.127	21188
814.268	20986
814.41	20975
814.551	20914
814.692	20979
814.833	20876
814.974	20834
815.115	20819
815.256	20826
815.397	20887
815.539	20883
815.68	20659
815.821	20648
815.962	20765
816.103	20583
816.244	20499
816.385	20579
816.526	20450
816.666	20271
816.807	20107
816.948	20210
817.089	20191
817.23	20294
817.371	20221
817.512	20180
817.653	20065
817.793	19974
817.934	20176
818.075	20039
818.216	20050
818.356	20012
818.497	20001
818.638	19700
818.778	19803
818.919	19890
819.06	19727
819.2	19951
819.341	20008
819.481	20024
819.622	20180
819.762	20286
819.903	20149
820.043	20107
820.184	20130
820.324	20016
820.465	20221
820.605	20016
820.746	20069
820.886	19936
821.026	20054
821.167	20088
821.307	20183
821.447	20157
821.588	19978
821.728	19830
821.868	19624
822.008	19449
822.149	19613
822.289	19430
822.429	19266
822.569	19133
822.709	19278
822.849	19057
822.99	19034
823.13	18939
823.27	18935
823.41	18760
823.55	18760
823.69	18760
823.83	18795
823.97	18810
824.11	18426
824.25	18544
824.389	18631
824.529	18642
824.669	18578
824.809	18669
824.949	18764
825.089	18623
825.228	18604
825.368	18395
825.508	18445
825.648	18350
825.787	18422
825.927	18365
826.067	18380
826.206	18209
826.346	18365
826.485	18247
826.625	18388
826.765	18433
826.904	18429
827.044	18197
827.183	18038
827.323	18015
827.462	17950
827.601	18003
827.741	18079
827.88	18083
828.02	17870
828.159	17980
828.298	18015
828.437	18163
828.577	18019
828.716	18102
828.855	18049
828.994	17794
829.134	17779
829.273	17901
829.412	17748
829.551	17630
829.69	17775
829.829	17847
829.968	18038
830.107	17927
830.246	17824
830.385	17741
830.524	17615
830.663	17592
830.802	17528
830.941	17455
831.08	17410
831.219	17478
831.357	17524
831.496	17573
831.635	17383
831.774	17292
831.913	17368
832.051	17235
832.19	17235
832.329	17147
832.467	17147
832.606	17064
832.744	17117
832.883	17200
833.022	17105
833.16	17018
833.299	17170
833.437	17250
833.576	17223
833.714	17181
833.852	17166
833.991	17197
834.129	17273
834.267	17307
834.406	17193
834.544	17174
834.682	17269
834.821	17143
834.959	17345
835.097	17151
835.235	17307
835.373	17193
835.511	17235
835.65	17037
835.788	17102
835.926	16828
836.064	16946
836.202	16744
836.34	17094
836.478	17121
836.615	17197
836.753	17075
836.891	17132
837.029	17185
837.167	17071
837.305	16995
837.443	17045
837.58	16995
837.718	17105
837.856	16984
837.993	16858
838.131	16923
838.269	16847
838.406	16942
838.544	16778
838.681	16725
838.819	16615
838.956	16447
839.094	16413
839.231	16402
839.369	16607
839.506	16831
839.643	16649
839.781	16531
839.918	16402
840.055	16523
840.193	16462
840.33	16417
840.467	16481
840.604	16402
840.742	16755
840.879	16394
841.016	16436
841.153	16333
841.29	16656
841.427	16493
841.564	16421
841.701	16459
841.838	16390
841.975	16405
842.112	16428
842.249	16200
842.385	16173
842.522	16390
842.659	16310
842.796	16150
842.933	16352
843.069	16124
843.206	16128
843.343	16280
843.479	16352
843.616	16242
843.752	16036
843.889	16032
844.025	16055
844.162	16032
844.298	16204
844.435	15926
844.571	16021
844.708	16025
844.844	16158
844.98	16169
845.117	16188
845.253	15998
845.389	15934
845.525	16025
845.661	16192
845.798	16143
845.934	16173
846.07	16200
846.206	16150
846.342	16230
846.478	16002
846.614	15808
846.75	15698
846.886	15603
847.022	15717
847.158	15549
847.294	15576
847.429	15690
847.565	15473
847.701	15876
847.837	15412
847.972	15344
848.108	15359
848.244	15443
848.379	15199
848.515	15180
848.65	15207
848.786	15199
848.921	15291
849.057	15351
849.192	15268
849.328	15287
849.463	15116
849.598	15260
849.734	15028
849.869	15085
850.004	14963
850.14	14994
850.275	15001
850.41	14956
850.545	14986
850.68	14891
850.815	15024
850.95	14921
851.085	15108
851.22	15180
851.355	14975
851.49	14967
851.625	14941
851.76	14925
851.895	14876
852.03	14765
852.165	14952
852.299	15013
852.434	15028
852.569	14956
852.703	15001
852.838	15074
852.973	15135
853.107	15150
853.242	14933
853.376	14842
853.511	14678
853.645	14769
853.78	14941
853.914	14823
854.048	14845
854.183	14769
854.317	14838
854.451	15009
854.585	14880
854.72	14861
854.854	14853
854.988	14735
855.122	14819
855.256	14651
855.39	14788
855.524	14906
855.658	14967
855.792	14804
855.926	14925
856.06	14834
856.194	15005
856.327	14849
856.461	14792
856.595	14754
856.729	14819
856.862	14887
856.996	14819
857.13	14876
857.263	14948
857.397	14990
857.53	14769
857.664	14918
857.797	14990
857.931	14971
858.064	14929
858.197	14967
858.331	14861
858.464	14777
858.597	14746
858.731	14746
858.864	14796
858.997	14849
859.13	14826
859.263	14857
859.396	14880
859.529	14819
859.662	14731
859.795	14670
859.928	14830
860.061	15020
860.194	15074
860.327	14868
860.46	14838
860.592	14986
860.725	14948
860.858	14956
860.99	14845
861.123	14834
861.256	14800
861.388	14765
861.521	15603
861.653	14758
861.786	14701
861.918	14689
862.05	14667
862.183	14842
862.315	14876
862.447	14979
862.58	14823
862.712	14613
862.844	14636
862.976	14625
863.108	14697
863.24	15173
863.372	14556
863.504	14648
863.636	14625
863.768	14705
863.9	14720
864.032	14545
864.164	14724
864.296	14621
864.428	14777
864.559	14788
864.691	14716
864.823	14651
864.954	14762
865.086	14659
865.217	14629
865.349	14454
865.48	14602
865.612	14659
865.743	14765
865.875	14602
866.006	14568
866.137	14731
866.269	14689
866.4	14651
866.531	14617
866.662	14579
866.793	14617
866.924	14533
867.055	14629
867.186	14629
867.317	14663
867.448	14530
867.579	14583
867.71	14545
867.841	14560
867.972	14610
868.103	14613
868.233	14625
868.364	14636
868.495	14689
868.625	14811
868.756	14941
868.886	14773
869.017	14849
869.147	14982
869.278	14937
869.408	14815
869.539	14910
869.669	14876
869.799	14891
869.929	15043
870.06	14990
870.19	15264
870.32	15135
870.45	15142
870.58	15237
870.71	15397
870.84	15447
870.97	15199
871.1	15214
871.23	15370
871.36	15454
871.489	15412
871.619	15370
871.749	15515
871.879	15473
872.008	15599
872.138	15443
872.267	15408
872.397	15264
872.526	15207
872.656	15321
872.785	15291
872.915	15530
873.044	15485
873.173	15523
873.303	15644
873.432	15511
873.561	15584
873.69	15389
873.819	15405
873.948	15515
874.077	15564
874.206	15462
874.335	15469
874.464	15709
874.593	15857
874.722	15675
874.851	15899
874.979	15876
875.108	15808
875.237	15701
875.365	15709
875.494	15759
875.623	15892
875.751	15808
875.88	15854
876.008	15892
876.136	16048
876.265	16291
876.393	16318
876.521	16333
876.65	16337
876.778	16238
876.906	16120
877.034	16158
877.162	16188
877.29	16181
877.418	16169
877.546	16272
877.674	16234
877.802	16211
877.93	16154
878.058	16185
878.185	16105
878.313	16207
878.441	16158
878.568	16185
878.696	16238
878.824	16223
878.951	16344
879.079	16470
879.206	16588
879.333	16535
879.461	16462
879.588	16504
879.715	16554
879.842	16660
879.97	16318
880.097	16158
880.224	16017
880.351	16207
880.478	16154
880.605	16204
880.732	16086
880.859	16363
880.986	16082
881.112	16158
881.239	16147
881.366	15873
881.493	15713
881.619	15709
881.746	15739
881.872	15778
881.999	15694
882.125	15774
882.252	15804
882.378	15880
882.505	15873
882.631	15778
882.757	15542
882.883	15564
883.01	15515
883.136	15443
883.262	15545
883.388	15477
883.514	15633
883.64	15492
883.766	15553
883.892	15393
884.018	15431
884.143	15496
884.269	15720
884.395	15332
884.52	15218
884.646	15313
884.772	15245
884.897	15192
885.023	15321
885.148	15355
885.274	15393
885.399	15359
885.524	15268
885.65	15294
885.775	15252
885.9	15329
886.025	15344
886.15	15306
886.275	15298
886.4	15150
886.525	15252
886.65	15154
886.775	15218
886.9	15367
887.025	15454
887.149	15237
887.274	15169
887.399	15055
887.523	15036
887.648	15005
887.773	15051
887.897	15104
888.021	15097
888.146	14994
888.27	15150
888.395	15077
888.519	15089
888.643	15123
888.767	15085
888.891	14986
889.015	14967
889.139	14982
889.263	14929
889.387	15070
889.511	15108
889.635	14921
889.759	14967
889.883	14861
890.006	15055
890.13	14944
890.254	14853
890.377	14815
890.501	14678
890.624	14674
890.748	14758
890.871	14758
890.995	14556
891.118	14473
891.241	14724
891.364	14667
891.488	14655
891.611	14651
891.734	14514
891.857	14739
891.98	14682
892.103	14670
892.226	14655
892.349	14651
892.471	14419
892.594	14598
892.717	14655
892.839	14575
892.962	14693
893.085	14743
893.207	14594
893.33	14503
893.452	14492
893.575	14621
893.697	14629
893.819	14667
893.941	14708
894.064	14800
894.186	14640
894.308	14469
894.43	14678
894.552	14750
894.674	14762
894.796	14545
894.918	14693
895.04	14659
895.161	14670
895.283	14632
895.405	14587
895.526	14731
895.648	14682
895.769	14727
895.891	14746
896.012	14796
896.134	14754
896.255	14697
896.376	14670
896.498	14735
896.619	14838
896.74	14773
896.861	14800
896.982	15104
897.103	15214
897.224	14963
897.345	15032
897.466	15058
897.587	14899
897.708	15207
897.828	15085
897.949	15005
898.07	14906
898.19	14998
898.311	15108
898.431	15043
898.552	15032
898.672	15100
898.792	15146
898.913	15036
899.033	15020
899.153	14796
899.273	14845
899.393	14887
899.513	14849
899.633	14861
899.753	14994
899.873	14921
899.993	15028
900.113	14910
900.232	14929
900.352	14883
900.472	14868
900.591	14754
900.711	14823
900.83	14765
900.95	14918
901.069	14895
901.189	14663
901.308	14610
901.427	14408
901.546	14431
901.665	14442
901.784	14465
901.904	14396
902.023	14271
902.141	14062
902.26	14020
902.379	14153
902.498	14005
902.617	14016
902.735	14024
902.854	13978
902.973	13890
903.091	13757
903.21	13761
903.328	13734
903.446	13662
903.565	13590
903.683	13632
903.801	13460
903.919	13563
904.038	13533
904.156	13301
904.274	13449
904.392	13358
904.51	13388
904.627	13350
904.745	13521
904.863	13449
904.981	13171
905.098	13023
905.216	12985
905.334	13065
905.451	13050
905.569	12970
905.686	13175
905.803	13156
905.921	12916
906.038	12909
906.155	12981
906.272	12779
906.389	12798
906.506	12658
906.623	12662
906.74	12620
906.857	12525
906.974	12559
907.091	12745
907.208	12867
907.324	12688
907.441	12563
907.557	12437
907.674	12490
907.79	12330
907.907	12361
908.023	12395
908.139	12369
908.256	12334
908.372	12327
908.488	12285
908.604	12262
908.72	12136
908.836	12182
908.952	12144
909.068	12197
909.184	12247
909.3	12216
909.415	12239
909.531	12228
909.647	11882
909.762	11870
909.878	11866
909.993	11927
910.108	11912
910.224	11836
910.339	11969
910.454	11790
910.57	11798
910.685	11767
910.8	12026
910.915	11901
911.03	11805
911.145	11649
911.259	11627
911.374	11668
911.489	11528
911.604	11512
911.718	11341
911.833	11341
911.947	11311
912.062	11193
912.176	11303
912.291	11379
912.405	11376
912.519	11558
912.633	11634
912.748	11471
912.862	11395
912.976	11273
913.09	11113
913.204	11197
913.318	11330
913.431	11303
913.545	11315
913.659	11376
913.772	11265
913.886	11105
914	11159
914.113	11197
914.226	11227
914.34	11204
914.453	11010
914.566	11231
914.68	11178
914.793	11075
914.906	10927
915.019	10801
915.132	10790
915.245	10843
915.358	10908
915.47	10801
915.583	10854
915.696	10869
915.809	11029
915.921	11033
916.034	10862
916.146	10774
916.259	10752
916.371	10866
916.483	10900
916.595	10858
916.708	10839
916.82	10714
916.932	10729
917.044	10729
917.156	10767
917.268	10637
917.38	10702
917.491	10615
917.603	10630
917.715	10679
917.826	10744
917.938	10691
918.049	10542
918.161	10710
918.272	10820
918.384	10843
918.495	10771
918.606	10542
918.717	10466
918.828	10599
918.939	10637
919.05	10455
919.161	10497
919.272	10299
919.383	10382
919.494	10584
919.604	10786
919.715	10596
919.826	10481
919.936	10573
920.047	10580
920.157	10580
920.267	10691
920.378	10554
920.488	10573
920.598	10797
920.708	10877
920.818	10694
920.928	10729
921.038	10949
921.148	10812
921.258	10554
921.368	10470
921.477	10356
921.587	10322
921.697	10257
921.806	10424
921.916	10230
922.025	10131
922.134	10029
922.244	10078
922.353	10147
922.462	9987
922.571	9911
922.68	9766
922.789	9724
922.898	9854
923.007	9736
923.116	9842
923.224	9804
923.333	9842
923.442	9633
923.55	9584
923.659	9682
923.767	9778
923.876	9542
923.984	9679
924.092	9587
924.201	9671
924.309	9644
924.417	9701
924.525	9587
924.633	9614
924.741	10379
924.849	9386
924.956	9530
925.064	9378
925.172	9386
925.279	9374
925.387	9412
925.494	9393
925.602	9542
925.709	9504
925.816	9382
925.924	9405
926.031	9504
926.138	9367
926.245	9469
926.352	9355
926.459	9492
926.566	9587
926.673	9332
926.779	9321
926.886	9306
926.993	9207
927.099	9123
927.206	9089
927.312	9093
927.419	9142
927.525	9253
927.631	9230
927.737	9036
927.843	9017
927.95	8960
928.056	8982
928.162	9070
928.267	9089
928.373	9675
928.479	9127
928.585	8830
928.69	8986
928.796	9119
928.901	8944
929.007	8849
929.112	9013
929.218	8906
929.323	8830
929.428	8834
929.533	9024
929.638	8785
929.743	8868
929.848	8914
929.953	8921
930.058	8792
930.163	8667
930.267	8693
930.372	8853
930.477	8579
930.581	8804
930.685	8716
930.79	8579
930.894	8651
930.998	8442
931.103	8697
931.207	8374
931.311	8389
931.415	8240
931.519	8088
931.623	8069
