Data from test_V78500241_3345.txt Node
Date: Fri Mar 25 14:57:00 CST 2022
User: usil
Spectrometer: V785-0024
Trigger mode: 0
Integration Time (sec): 4.000000E-1
Scans to average: 1
Nonlinearity correction enabled: false
Boxcar width: 0
Storing dark spectrum: false
XAxis mode: Wavelengths
Number of Pixels in Spectrum: 1024
>>>>>Begin Spectral Data<<<<<
801.071	21907
801.214	21698
801.356	21572
801.499	21568
801.641	21332
801.783	21310
801.926	21298
802.068	21218
802.211	21226
802.353	21039
802.496	20895
802.638	20781
802.78	20686
802.923	20632
803.065	20552
803.208	20590
803.35	20621
803.492	20754
803.635	20785
803.777	20686
803.919	20651
804.061	21017
804.204	20712
804.346	20583
804.488	20488
804.63	20621
804.773	20507
804.915	20587
805.057	20648
805.199	20473
805.341	20507
805.483	20606
805.626	20739
805.768	20594
805.91	20484
806.052	20541
806.194	20511
806.336	20575
806.478	20503
806.62	20511
806.762	20602
806.904	20716
807.046	20887
807.188	20895
807.33	20880
807.472	20895
807.614	20765
807.756	20834
807.898	20697
808.04	20617
808.182	20636
808.324	20693
808.465	20590
808.607	20739
808.749	20918
808.891	20979
809.033	21184
809.174	20960
809.316	20762
809.458	20986
809.6	20834
809.741	20975
809.883	20967
810.025	21131
810.166	21070
810.308	20990
810.45	20910
810.591	21017
810.733	20781
810.875	20735
811.016	20629
811.158	20541
811.299	20674
811.441	20788
811.582	20781
811.724	20590
811.865	20613
812.007	20568
812.148	20636
812.29	20804
812.431	20857
812.573	20933
812.714	21058
812.855	21009
812.997	21176
813.138	21363
813.279	21233
813.421	20982
813.562	21108
813.703	20925
813.845	20758
813.986	20579
814.127	20427
814.268	20370
814.41	20164
814.551	20229
814.692	20271
814.833	20168
814.974	20092
815.115	20130
815.256	20050
815.397	20062
815.539	19970
815.68	19871
815.821	19898
815.962	20050
816.103	19970
816.244	19856
816.385	19681
816.526	19609
816.666	19502
816.807	19278
816.948	19392
817.089	19438
817.23	19445
817.371	19278
817.512	19396
817.653	19274
817.793	19244
817.934	19324
818.075	19346
818.216	19350
818.356	19133
818.497	19038
818.638	19015
818.778	19015
818.919	19057
819.06	19187
819.2	19061
819.341	19137
819.481	19206
819.622	19377
819.762	19514
819.903	19567
820.043	19449
820.184	19403
820.324	19324
820.465	19381
820.605	19308
820.746	19396
820.886	19122
821.026	19304
821.167	19293
821.307	19312
821.447	19327
821.588	19133
821.728	19027
821.868	18878
822.008	18738
822.149	18791
822.289	18696
822.429	18467
822.569	18521
822.709	18376
822.849	18258
822.99	18281
823.13	18197
823.27	18098
823.41	17992
823.55	18003
823.69	18026
823.83	18049
823.97	17988
824.11	17813
824.25	17760
824.389	17821
824.529	17775
824.669	17783
824.809	17821
824.949	17786
825.089	17908
825.228	17729
825.368	17585
825.508	17589
825.648	17596
825.787	17608
825.927	17649
826.067	17474
826.206	17501
826.346	17543
826.485	17623
826.625	17520
826.765	17638
826.904	17570
827.044	17402
827.183	17326
827.323	17341
827.462	17448
827.601	17334
827.741	17258
827.88	17311
828.02	17109
828.159	17299
828.298	17307
828.437	17410
828.577	17269
828.716	17421
828.855	17189
828.994	17079
829.134	17105
829.273	17083
829.412	17094
829.551	16927
829.69	17117
829.829	17018
829.968	17090
830.107	17098
830.246	17037
830.385	16991
830.524	16942
830.663	16771
830.802	16725
830.941	16546
831.08	16588
831.219	16733
831.357	16755
831.496	16900
831.635	16588
831.774	16569
831.913	16478
832.051	16500
832.19	16333
832.329	16493
832.467	16371
832.606	16238
832.744	16295
832.883	16303
833.022	16303
833.16	16238
833.299	16405
833.437	16386
833.576	16417
833.714	16333
833.852	16375
833.991	16459
834.129	16500
834.267	16462
834.406	16417
834.544	16489
834.682	16375
834.821	16436
834.959	16527
835.097	16333
835.235	16542
835.373	16363
835.511	16573
835.65	16382
835.788	16261
835.926	16219
836.064	16112
836.202	16128
836.34	16398
836.478	16512
836.615	16341
836.753	16310
836.891	16375
837.029	16344
837.167	16310
837.305	16348
837.443	16219
837.58	16181
837.718	16325
837.856	16101
837.993	16230
838.131	16185
838.269	16162
838.406	16166
838.544	16025
838.681	15937
838.819	15876
838.956	15781
839.094	15789
839.231	15865
839.369	15972
839.506	16200
839.643	16051
839.781	15785
839.918	15633
840.055	15819
840.193	15816
840.33	15816
840.467	15762
840.604	15739
840.742	16044
840.879	15652
841.016	15739
841.153	15644
841.29	15766
841.427	15759
841.564	15728
841.701	15736
841.838	15739
841.975	15660
842.112	15667
842.249	15587
842.385	15530
842.522	15747
842.659	15576
842.796	15553
842.933	15606
843.069	15488
843.206	15488
843.343	15629
843.479	15625
843.616	15557
843.752	15279
843.889	15370
844.025	15488
844.162	15329
844.298	15420
844.435	15431
844.571	15336
844.708	15401
844.844	15340
844.98	15515
845.117	15439
845.253	15226
845.389	15184
845.525	15287
845.661	15157
845.798	15131
845.934	15214
846.07	15074
846.206	15055
846.342	15260
846.478	15176
846.614	15017
846.75	14716
846.886	14914
847.022	15036
847.158	14902
847.294	14895
847.429	15009
847.565	14941
847.701	15169
847.837	14750
847.972	14689
848.108	14739
848.244	14727
848.379	14594
848.515	14461
848.65	14518
848.786	14480
848.921	14522
849.057	14590
849.192	14625
849.328	14610
849.463	14518
849.598	14541
849.734	14545
849.869	14457
850.004	14263
850.14	14355
850.275	14256
850.41	14317
850.545	14256
850.68	14290
850.815	14355
850.95	14275
851.085	14427
851.22	14381
851.355	14389
851.49	14237
851.625	14305
851.76	14374
851.895	14229
852.03	14142
852.165	14336
852.299	14278
852.434	14438
852.569	14362
852.703	14298
852.838	14480
852.973	14393
853.107	14400
853.242	14305
853.376	14149
853.511	14096
853.645	14218
853.78	14202
853.914	14267
854.048	14107
854.183	14164
854.317	14206
854.451	14358
854.585	14206
854.72	14115
854.854	14225
854.988	14058
855.122	14142
855.256	14024
855.39	14153
855.524	14225
855.658	14225
855.792	14237
855.926	14332
856.06	14278
856.194	14305
856.327	14145
856.461	14161
856.595	14157
856.729	14107
856.862	14301
856.996	14153
857.13	14366
857.263	14290
857.397	14336
857.53	14259
857.664	14259
857.797	14355
857.931	14381
858.064	14130
858.197	14210
858.331	14142
858.464	14172
858.597	14043
858.731	14214
858.864	14168
858.997	14149
859.13	14294
859.263	14172
859.396	14278
859.529	14202
859.662	14046
859.795	14218
859.928	14176
860.061	14362
860.194	14389
860.327	14221
860.46	14206
860.592	14240
860.725	14290
860.858	14237
860.99	14176
861.123	14111
861.256	14138
861.388	14103
861.521	15028
861.653	14111
861.786	13997
861.918	14031
862.05	14126
862.183	14115
862.315	14096
862.447	14187
862.58	14126
862.712	14012
862.844	13898
862.976	14054
863.108	14001
863.24	14374
863.372	13879
863.504	13940
863.636	13925
863.768	14031
863.9	13974
864.032	13868
864.164	13864
864.296	14005
864.428	14050
864.559	14145
864.691	14103
864.823	14096
864.954	13978
865.086	13944
865.217	13917
865.349	13833
865.48	14016
865.612	13970
865.743	14016
865.875	13951
866.006	13871
866.137	13970
866.269	13860
866.4	13940
866.531	13913
866.662	13898
866.793	13940
866.924	13860
867.055	14001
867.186	13898
867.317	13978
867.448	13818
867.579	13811
867.71	13822
867.841	13906
867.972	13845
868.103	14016
868.233	14081
868.364	13845
868.495	13978
868.625	14130
868.756	14259
868.886	14062
869.017	14180
869.147	14324
869.278	14343
869.408	14225
869.539	14210
869.669	14351
869.799	14237
869.929	14290
870.06	14324
870.19	14484
870.32	14450
870.45	14537
870.58	14587
870.71	14632
870.84	14769
870.97	14625
871.1	14594
871.23	14773
871.36	14773
871.489	14724
871.619	14716
871.749	14792
871.879	14914
872.008	14895
872.138	14864
872.267	14849
872.397	14613
872.526	14651
872.656	14731
872.785	14644
872.915	14815
873.044	14914
873.173	14785
873.303	14868
873.432	14895
873.561	14914
873.69	14895
873.819	14823
873.948	14918
874.077	14887
874.206	14895
874.335	14872
874.464	14963
874.593	15127
874.722	15047
874.851	15226
874.979	15165
875.108	15195
875.237	15047
875.365	15074
875.494	15093
875.623	15264
875.751	15127
875.88	15306
876.008	15245
876.136	15386
876.265	15595
876.393	15694
876.521	15698
876.65	15648
876.778	15690
876.906	15462
877.034	15584
877.162	15587
877.29	15534
877.418	15644
877.546	15641
877.674	15622
877.802	15534
877.93	15447
878.058	15561
878.185	15428
878.313	15629
878.441	15603
878.568	15408
878.696	15447
878.824	15637
878.951	15629
879.079	15759
879.206	15797
879.333	15698
879.461	15584
879.588	15622
879.715	15686
879.842	15781
879.97	15671
880.097	15310
880.224	15370
880.351	15439
880.478	15397
880.605	15389
880.732	15329
880.859	15660
880.986	15458
881.112	15416
881.239	15332
881.366	15226
881.493	15180
881.619	15119
881.746	15104
881.872	15074
881.999	15077
882.125	15123
882.252	15100
882.378	15218
882.505	15279
882.631	14967
882.757	14895
882.883	14967
883.01	14838
883.136	14883
883.262	14777
883.388	14861
883.514	14971
883.64	14895
883.766	14838
883.892	14727
884.018	14636
884.143	14823
884.269	15001
884.395	14682
884.52	14621
884.646	14689
884.772	14568
884.897	14545
885.023	14705
885.148	14807
885.274	14804
885.399	14781
885.524	14617
885.65	14670
885.775	14644
885.9	14594
886.025	14769
886.15	14788
886.275	14541
886.4	14541
886.525	14564
886.65	14484
886.775	14598
886.9	14834
887.025	14811
887.149	14678
887.274	14465
887.399	14389
887.523	14431
887.648	14419
887.773	14362
887.897	14518
888.021	14568
888.146	14358
888.27	14545
888.395	14568
888.519	14526
888.643	14514
888.767	14613
888.891	14522
889.015	14229
889.139	14370
889.263	14301
889.387	14343
889.511	14530
889.635	14415
889.759	14286
889.883	14351
890.006	14298
890.13	14423
890.254	14195
890.377	14202
890.501	14050
890.624	14043
890.748	14233
890.871	14031
890.995	13887
891.118	13978
891.241	13986
891.364	13955
891.488	14088
891.611	14035
891.734	14058
891.857	14073
891.98	14077
892.103	14115
892.226	14024
892.349	14024
892.471	13860
892.594	14027
892.717	13967
892.839	14020
892.962	14031
893.085	14077
893.207	14031
893.33	13845
893.452	13951
893.575	14119
893.697	13978
893.819	14218
893.941	14142
894.064	14115
894.186	14001
894.308	13967
894.43	14191
894.552	14218
894.674	14305
894.796	14012
894.918	14008
895.04	14100
895.161	14161
895.283	14054
895.405	14046
895.526	14092
895.648	14145
895.769	14149
895.891	14111
896.012	14130
896.134	14286
896.255	14145
896.376	14043
896.498	14176
896.619	14199
896.74	14183
896.861	14142
896.982	14476
897.103	14587
897.224	14408
897.345	14351
897.466	14377
897.587	14488
897.708	14499
897.828	14423
897.949	14431
898.07	14320
898.19	14320
898.311	14617
898.431	14564
898.552	14587
898.672	14613
898.792	14632
898.913	14514
899.033	14431
899.153	14339
899.273	14362
899.393	14362
899.513	14450
899.633	14339
899.753	14305
899.873	14290
899.993	14507
900.113	14336
900.232	14396
900.352	14400
900.472	14282
900.591	14153
900.711	14294
900.83	14210
900.95	14278
901.069	14305
901.189	14206
901.308	14005
901.427	13791
901.546	13852
901.665	14012
901.784	13947
901.904	13822
902.023	13727
902.141	13487
902.26	13537
902.379	13575
902.498	13483
902.617	13506
902.735	13624
902.854	13563
902.973	13453
903.091	13202
903.21	13312
903.328	13202
903.446	13183
903.565	13038
903.683	13057
903.801	12943
903.919	12962
904.038	13103
904.156	12951
904.274	12954
904.392	12890
904.51	12848
904.627	12810
904.745	12954
904.863	12909
904.981	12734
905.098	12486
905.216	12479
905.334	12597
905.451	12578
905.569	12563
905.686	12593
905.803	12563
905.921	12426
906.038	12433
906.155	12395
906.272	12319
906.389	12273
906.506	12175
906.623	12186
906.74	12125
906.857	12072
906.974	12057
907.091	12251
907.208	12300
907.324	12114
907.441	12095
907.557	11931
907.674	11904
907.79	11870
907.907	11912
908.023	11939
908.139	11935
908.256	11863
908.372	11767
908.488	11851
908.604	11722
908.72	11699
908.836	11672
908.952	11665
909.068	11718
909.184	11863
909.3	11596
909.415	11764
909.531	11729
909.647	11436
909.762	11467
909.878	11452
909.993	11417
910.108	11425
910.224	11322
910.339	11440
910.454	11330
910.57	11360
910.685	11174
910.8	11585
910.915	11436
911.03	11280
911.145	11147
911.259	11090
911.374	11174
911.489	11041
911.604	11102
911.718	10889
911.833	10946
911.947	10824
912.062	10736
912.176	10915
912.291	10858
912.405	10900
912.519	11025
912.633	11121
912.748	11014
912.862	10820
912.976	10782
913.09	10656
913.204	10744
913.318	10885
913.431	10927
913.545	10828
913.659	10862
913.772	10790
913.886	10653
914	10672
914.113	10805
914.226	10793
914.34	10736
914.453	10630
914.566	10729
914.68	10588
914.793	10622
914.906	10500
915.019	10390
915.132	10363
915.245	10413
915.358	10459
915.47	10443
915.583	10405
915.696	10508
915.809	10584
915.921	10615
916.034	10428
916.146	10386
916.259	10382
916.371	10493
916.483	10478
916.595	10356
916.708	10398
916.82	10306
916.932	10451
917.044	10356
917.156	10329
917.268	10303
917.38	10253
917.491	10234
917.603	10337
917.715	10382
917.826	10443
917.938	10287
918.049	10154
918.161	10177
918.272	10348
918.384	10394
918.495	10363
918.606	10147
918.717	10040
918.828	10196
918.939	10124
919.05	10074
919.161	10147
919.272	9987
919.383	10059
919.494	10242
919.604	10390
919.715	10185
919.826	10044
919.936	10128
920.047	10306
920.157	10147
920.267	10329
920.378	10318
920.488	10128
920.598	10390
920.708	10516
920.818	10402
920.928	10394
921.038	10497
921.148	10493
921.258	10181
921.368	10124
921.477	10040
921.587	10055
921.697	9941
921.806	9994
921.916	9930
922.025	9736
922.134	9690
922.244	9690
922.353	9823
922.462	9629
922.571	9591
922.68	9462
922.789	9431
922.898	9424
923.007	9408
923.116	9458
923.224	9504
923.333	9416
923.442	9287
923.55	9348
923.659	9279
923.767	9431
923.876	9370
923.984	9420
924.092	9203
924.201	9275
924.309	9340
924.417	9279
924.525	9241
924.633	9256
924.741	10238
924.849	9104
924.956	9203
925.064	9032
925.172	9051
925.279	9116
925.387	9100
925.494	9142
925.602	9249
925.709	9169
925.816	9024
925.924	9036
926.031	9195
926.138	9173
926.245	9203
926.352	9043
926.459	9154
926.566	9169
926.673	8998
926.779	8933
926.886	8929
926.993	8766
927.099	8800
927.206	8804
927.312	8720
927.419	8864
927.525	8792
927.631	8910
927.737	8750
927.843	8826
927.95	8636
928.056	8655
928.162	8727
928.267	8758
928.373	9435
928.479	8788
928.585	8541
928.69	8693
928.796	8762
928.901	8571
929.007	8522
929.112	8640
929.218	8648
929.323	8560
929.428	8587
929.533	8712
929.638	8446
929.743	8484
929.848	8545
929.953	8522
930.058	8484
930.163	8221
930.267	8279
930.372	8476
930.477	8275
930.581	8484
930.685	8408
930.79	8229
930.894	8240
930.998	8252
931.103	8434
931.207	8012
931.311	8001
931.415	7864
931.519	7723
931.623	7689
