Data from test_V78500241_509.txt Node
Date: Fri Mar 25 14:37:15 CST 2022
User: usil
Spectrometer: V785-0024
Trigger mode: 0
Integration Time (sec): 4.000000E-1
Scans to average: 1
Nonlinearity correction enabled: false
Boxcar width: 0
Storing dark spectrum: false
XAxis mode: Wavelengths
Number of Pixels in Spectrum: 1024
>>>>>Begin Spectral Data<<<<<
801.071	27062
801.214	26948
801.356	26636
801.499	26629
801.641	26480
801.783	26404
801.926	26453
802.068	26408
802.211	26221
802.353	26103
802.496	26088
802.638	26073
802.78	25864
802.923	25731
803.065	25689
803.208	25780
803.35	25849
803.492	25906
803.635	25966
803.777	25799
803.919	25841
804.061	26218
804.204	25871
804.346	25871
804.488	25799
804.63	25723
804.773	25616
804.915	25757
805.057	25993
805.199	25734
805.341	25917
805.483	25932
805.626	25928
805.768	25830
805.91	25906
806.052	25936
806.194	25841
806.336	26206
806.478	25902
806.62	25856
806.762	26077
806.904	26381
807.046	26575
807.188	26461
807.33	26488
807.472	26564
807.614	26629
807.756	26746
807.898	26667
808.04	26739
808.182	26906
808.324	27332
808.465	27656
808.607	28067
808.749	28466
808.891	28812
809.033	28702
809.174	28386
809.316	28166
809.458	27812
809.6	27336
809.741	27237
809.883	27009
810.025	27036
810.166	27077
810.308	26769
810.45	26838
810.591	26712
810.733	26442
810.875	26358
811.016	26282
811.158	26130
811.299	26358
811.441	26400
811.582	26415
811.724	26233
811.865	26176
812.007	26252
812.148	26214
812.29	26259
812.431	26419
812.573	26511
812.714	26473
812.855	26674
812.997	26819
813.138	26861
813.279	26925
813.421	26568
813.562	26522
813.703	26412
813.845	26244
813.986	26020
814.127	25898
814.268	25620
814.41	25662
814.551	25635
814.692	25845
814.833	25776
814.974	25689
815.115	25681
815.256	25556
815.397	25438
815.539	25582
815.68	25373
815.821	25384
815.962	25453
816.103	25263
816.244	25247
816.385	25160
816.526	25084
816.666	24882
816.807	24791
816.948	24859
817.089	24905
817.23	24947
817.371	24817
817.512	24673
817.653	24779
817.793	24688
817.934	24772
818.075	24783
818.216	24681
818.356	24707
818.497	24593
818.638	24418
818.778	24448
818.919	24551
819.06	24540
819.2	24570
819.341	24715
819.481	24738
819.622	24688
819.762	24996
819.903	24966
820.043	24840
820.184	24741
820.324	24673
820.465	24757
820.605	24646
820.746	24791
820.886	24620
821.026	24768
821.167	24608
821.307	24639
821.447	24631
821.588	24570
821.728	24167
821.868	24129
822.008	24083
822.149	24155
822.289	23980
822.429	23817
822.569	23745
822.709	23687
822.849	23562
822.99	23493
823.13	23509
823.27	23383
823.41	23303
823.55	23105
823.69	23299
823.83	23242
823.97	23170
824.11	22976
824.25	23075
824.389	23025
824.529	23162
824.669	23056
824.809	23140
824.949	23178
825.089	23162
825.228	22980
825.368	22820
825.508	22889
825.648	22927
825.787	22801
825.927	22843
826.067	22748
826.206	22755
826.346	22877
826.485	22786
826.625	22869
826.765	22797
826.904	22812
827.044	22538
827.183	22561
827.323	22379
827.462	22519
827.601	22531
827.741	22440
827.88	22508
828.02	22379
828.159	22443
828.298	22402
828.437	22481
828.577	22356
828.716	22485
828.855	22466
828.994	22143
829.134	22291
829.273	22196
829.412	22116
829.551	22169
829.69	22078
829.829	22158
829.968	22234
830.107	22223
830.246	22204
830.385	22154
830.524	22105
830.663	21956
830.802	21838
830.941	21732
831.08	21842
831.219	21816
831.357	21789
831.496	22013
831.635	21755
831.774	21717
831.913	21637
832.051	21492
832.19	21568
832.329	21595
832.467	21443
832.606	21447
832.744	21302
832.883	21378
833.022	21466
833.16	21416
833.299	21530
833.437	21481
833.576	21545
833.714	21534
833.852	21595
833.991	21743
834.129	21564
834.267	21652
834.406	21504
834.544	21603
834.682	21553
834.821	21469
834.959	21675
835.097	21507
835.235	21492
835.373	21443
835.511	21439
835.65	21260
835.788	21298
835.926	21108
836.064	21066
836.202	21119
836.34	21332
836.478	21226
836.615	21272
836.753	21272
836.891	21233
837.029	21268
837.167	21051
837.305	21165
837.443	21154
837.58	21077
837.718	21214
837.856	21176
837.993	21024
838.131	21081
838.269	20891
838.406	21108
838.544	20944
838.681	20743
838.819	20743
838.956	20686
839.094	20667
839.231	20670
839.369	20625
839.506	20948
839.643	20849
839.781	20537
839.918	20526
840.055	20579
840.193	20522
840.33	20374
840.467	20408
840.604	20400
840.742	20727
840.879	20282
841.016	20393
841.153	20320
841.29	20552
841.427	20492
841.564	20522
841.701	20552
841.838	20450
841.975	20301
842.112	20362
842.249	20153
842.385	20134
842.522	20495
842.659	20195
842.796	20164
842.933	20100
843.069	20142
843.206	20145
843.343	20195
843.479	20237
843.616	20187
843.752	19997
843.889	19944
844.025	20058
844.162	20001
844.298	19978
844.435	20005
844.571	19986
844.708	20103
844.844	20252
844.98	20062
845.117	20199
845.253	20218
845.389	20256
845.525	20651
845.661	21089
845.798	21857
845.934	22356
846.07	22584
846.206	22360
846.342	22032
846.478	21329
846.614	20545
846.75	20062
846.886	19875
847.022	19795
847.158	19571
847.294	19544
847.429	19495
847.565	19460
847.701	19666
847.837	19152
847.972	19213
848.108	19209
848.244	19236
848.379	19080
848.515	19099
848.65	18859
848.786	18954
848.921	18920
849.057	19072
849.192	19050
849.328	19034
849.463	18894
849.598	18954
849.734	18707
849.869	18848
850.004	18776
850.14	18673
850.275	18692
850.41	18551
850.545	18677
850.68	18639
850.815	18616
850.95	18707
851.085	18753
851.22	18795
851.355	18745
851.49	18604
851.625	18711
851.76	18719
851.895	18506
852.03	18559
852.165	18616
852.299	18646
852.434	18871
852.569	18730
852.703	18661
852.838	18760
852.973	18764
853.107	18810
853.242	18555
853.376	18536
853.511	18517
853.645	18475
853.78	18631
853.914	18467
854.048	18471
854.183	18490
854.317	18506
854.451	18661
854.585	18547
854.72	18536
854.854	18551
854.988	18296
855.122	18475
855.256	18422
855.39	18441
855.524	18574
855.658	18528
855.792	18426
855.926	18456
856.06	18452
856.194	18513
856.327	18506
856.461	18369
856.595	18433
856.729	18452
856.862	18521
856.996	18570
857.13	18593
857.263	18563
857.397	18517
857.53	18429
857.664	18452
857.797	18555
857.931	18517
858.064	18517
858.197	18498
858.331	18422
858.464	18486
858.597	18304
858.731	18490
858.864	18448
858.997	18395
859.13	18380
859.263	18433
859.396	18464
859.529	18365
859.662	18399
859.795	18308
859.928	18376
860.061	18578
860.194	18464
860.327	18475
860.46	18403
860.592	18502
860.725	18384
860.858	18464
860.99	18403
861.123	18346
861.256	18304
861.388	18365
861.521	19225
861.653	18270
861.786	18155
861.918	18319
862.05	18273
862.183	18384
862.315	18403
862.447	18509
862.58	18384
862.712	18251
862.844	18186
862.976	18258
863.108	18190
863.24	18471
863.372	18076
863.504	18117
863.636	18133
863.768	18167
863.9	18163
864.032	18011
864.164	18007
864.296	18072
864.428	18190
864.559	18068
864.691	18235
864.823	18098
864.954	18239
865.086	18174
865.217	18174
865.349	17977
865.48	17927
865.612	18110
865.743	18098
865.875	18019
866.006	18117
866.137	18060
866.269	18060
866.4	17973
866.531	17961
866.662	17897
866.793	18041
866.924	17988
867.055	18026
867.186	18015
867.317	17988
867.448	17863
867.579	17901
867.71	17942
867.841	17897
867.972	17973
868.103	18019
868.233	18045
868.364	18022
868.495	18015
868.625	18277
868.756	18323
868.886	18083
869.017	18190
869.147	18308
869.278	18433
869.408	18270
869.539	18262
869.669	18262
869.799	18201
869.929	18338
870.06	18353
870.19	18585
870.32	18536
870.45	18589
870.58	18635
870.71	18673
870.84	18764
870.97	18631
871.1	18639
871.23	18837
871.36	18783
871.489	18726
871.619	18871
871.749	18901
871.879	18798
872.008	18825
872.138	18913
872.267	18825
872.397	18741
872.526	18650
872.656	18707
872.785	18593
872.915	18791
873.044	19110
873.173	18924
873.303	18951
873.432	18905
873.561	18901
873.69	18757
873.819	18962
873.948	18867
874.077	18947
874.206	18871
874.335	18913
874.464	18973
874.593	19179
874.722	19065
874.851	19225
874.979	19209
875.108	19152
875.237	19324
875.365	19141
875.494	19217
875.623	19343
875.751	19198
875.88	19206
876.008	19282
876.136	19400
876.265	19597
876.393	19727
876.521	19712
876.65	19643
876.778	19655
876.906	19643
877.034	19681
877.162	19575
877.29	19514
877.418	19639
877.546	19681
877.674	19632
877.802	19594
877.93	19662
878.058	19693
878.185	19518
878.313	19788
878.441	19795
878.568	19715
878.696	19830
878.824	20039
878.951	20100
879.079	20396
879.206	20735
879.333	20777
879.461	20952
879.588	21138
879.715	21104
879.842	21001
879.97	20701
880.097	20351
880.224	20134
880.351	20065
880.478	19902
880.605	19894
880.732	19746
880.859	20005
880.986	19738
881.112	19837
881.239	19590
881.366	19472
881.493	19476
881.619	19331
881.746	19426
881.872	19438
881.999	19350
882.125	19388
882.252	19411
882.378	19346
882.505	19483
882.631	19312
882.757	19183
882.883	19304
883.01	19194
883.136	19046
883.262	19038
883.388	19053
883.514	19141
883.64	19259
883.766	19107
883.892	18985
884.018	18935
884.143	19179
884.269	19327
884.395	18970
884.52	18863
884.646	18844
884.772	18768
884.897	18772
885.023	18795
885.148	18951
885.274	19053
885.399	18909
885.524	18833
885.65	18863
885.775	18875
885.9	18738
886.025	18863
886.15	18745
886.275	18650
886.4	18525
886.525	18715
886.65	18669
886.775	18585
886.9	18757
887.025	18859
887.149	18532
887.274	18414
887.399	18323
887.523	18338
887.648	18361
887.773	18323
887.897	18464
888.021	18464
888.146	18304
888.27	18475
888.395	18486
888.519	18334
888.643	18422
888.767	18414
888.891	18254
889.015	18190
889.139	18197
889.263	18239
889.387	18258
889.511	18361
889.635	18270
889.759	18060
889.883	18030
890.006	18121
890.13	18277
890.254	18106
890.377	18076
890.501	17950
890.624	17901
890.748	17927
890.871	17764
890.995	17802
891.118	17752
891.241	17718
891.364	17627
891.488	17821
891.611	17653
891.734	17737
891.857	17783
891.98	17745
892.103	17779
892.226	17798
892.349	17684
892.471	17516
892.594	17676
892.717	17627
892.839	17619
892.962	17653
893.085	17707
893.207	17752
893.33	17585
893.452	17623
893.575	17764
893.697	17516
893.819	17783
893.941	17786
894.064	17680
894.186	17627
894.308	17547
894.43	17710
894.552	17863
894.674	17741
894.796	17558
894.918	17543
895.04	17695
895.161	17760
895.283	17714
895.405	17493
895.526	17615
895.648	17718
895.769	17604
895.891	17638
896.012	17775
896.134	17718
896.255	17699
896.376	17745
896.498	17684
896.619	17634
896.74	17756
896.861	17783
896.982	18072
897.103	18220
897.224	18045
897.345	17931
897.466	17965
897.587	17954
897.708	18083
897.828	18060
897.949	17923
898.07	17805
898.19	17927
898.311	18011
898.431	17836
898.552	17923
898.672	18034
898.792	18022
898.913	17973
899.033	17836
899.153	17870
899.273	17699
899.393	17680
899.513	17748
899.633	17752
899.753	17783
899.873	17703
899.993	17958
900.113	17687
900.232	17726
900.352	17680
900.472	17627
900.591	17570
900.711	17547
900.83	17532
900.95	17668
901.069	17710
901.189	17535
901.308	17242
901.427	17231
901.546	17124
901.665	17364
901.784	17284
901.904	17143
902.023	16869
902.141	16858
902.26	16710
902.379	16869
902.498	16733
902.617	16592
902.735	16736
902.854	16683
902.973	16584
903.091	16344
903.21	16344
903.328	16356
903.446	16276
903.565	16185
903.683	16169
903.801	16021
903.919	16295
904.038	16162
904.156	15926
904.274	16112
904.392	15930
904.51	15846
904.627	15922
904.745	16101
904.863	16040
904.981	15766
905.098	15675
905.216	15663
905.334	15690
905.451	15637
905.569	15622
905.686	15595
905.803	15542
905.921	15378
906.038	15534
906.155	15325
906.272	15306
906.389	15317
906.506	15233
906.623	15138
906.74	15100
906.857	14979
906.974	15062
907.091	15230
907.208	15211
907.324	15108
907.441	15047
907.557	14956
907.674	14811
907.79	14895
907.907	14735
908.023	14792
908.139	14834
908.256	14731
908.372	14754
908.488	14724
908.604	14537
908.72	14530
908.836	14549
908.952	14488
909.068	14678
909.184	14594
909.3	14514
909.415	14606
909.531	14473
909.647	14263
909.762	14259
909.878	14294
909.993	14248
910.108	14229
910.224	14210
910.339	14275
910.454	14134
910.57	14046
910.685	14054
910.8	14362
910.915	14233
911.03	14111
911.145	13921
911.259	13864
911.374	13799
911.489	13875
911.604	13784
911.718	13662
911.833	13662
911.947	13556
912.062	13430
912.176	13628
912.291	13666
912.405	13495
912.519	13776
912.633	13772
912.748	13670
912.862	13723
912.976	13476
913.09	13354
913.204	13464
913.318	13453
913.431	13563
913.545	13586
913.659	13548
913.772	13445
913.886	13308
914	13285
914.113	13362
914.226	13434
914.34	13449
914.453	13198
914.566	13343
914.68	13228
914.793	13126
914.906	13084
915.019	12913
915.132	12863
915.245	13000
915.358	13046
915.47	13027
915.583	12913
915.696	12981
915.809	13126
915.921	13122
916.034	12897
916.146	12875
916.259	12817
916.371	13069
916.483	12970
916.595	12844
916.708	12844
916.82	12905
916.932	12867
917.044	12837
917.156	12734
917.268	12646
917.38	12791
917.491	12722
917.603	12802
917.715	12715
917.826	12772
917.938	12574
918.049	12684
918.161	12669
918.272	12867
918.384	12779
918.495	12703
918.606	12536
918.717	12467
918.828	12532
918.939	12559
919.05	12429
919.161	12467
919.272	12315
919.383	12357
919.494	12528
919.604	12650
919.715	12441
919.826	12414
919.936	12483
920.047	12486
920.157	12464
920.267	12616
920.378	12479
920.488	12437
920.598	12654
920.708	12840
920.818	12631
920.928	12585
921.038	12749
921.148	12760
921.258	12429
921.368	12403
921.477	12258
921.587	12258
921.697	12106
921.806	12209
921.916	12190
922.025	11920
922.134	11912
922.244	11885
922.353	11931
922.462	11824
922.571	11745
922.68	11573
922.789	11562
922.898	11566
923.007	11478
923.116	11619
923.224	11554
923.333	11497
923.442	11448
923.55	11474
923.659	11459
923.767	11486
923.876	11341
923.984	11395
924.092	11452
924.201	11429
924.309	11356
924.417	11364
924.525	11334
924.633	11284
924.741	12300
924.849	11094
924.956	11318
925.064	11178
925.172	11041
925.279	11147
925.387	11083
925.494	11216
925.602	11269
925.709	11090
925.816	11064
925.924	11090
926.031	11178
926.138	11117
926.245	11113
926.352	11071
926.459	11166
926.566	11193
926.673	11090
926.779	10991
926.886	10953
926.993	10797
927.099	10744
927.206	10714
927.312	10649
927.419	10793
927.525	10679
927.631	10683
927.737	10755
927.843	10645
927.95	10569
928.056	10538
928.162	10569
928.267	10656
928.373	11162
928.479	10664
928.585	10474
928.69	10565
928.796	10584
928.901	10531
929.007	10322
929.112	10474
929.218	10443
929.323	10402
929.428	10356
929.533	10462
929.638	10253
929.743	10322
929.848	10341
929.953	10405
930.058	10230
930.163	10112
930.267	10147
930.372	10253
930.477	10044
930.581	10257
930.685	10128
930.79	9895
930.894	9994
930.998	10040
931.103	10059
931.207	9713
931.311	9682
931.415	9618
931.519	9397
931.623	9412
