Data from test_V78500241_2045.txt Node
Date: Fri Mar 25 14:47:57 CST 2022
User: usil
Spectrometer: V785-0024
Trigger mode: 0
Integration Time (sec): 4.000000E-1
Scans to average: 1
Nonlinearity correction enabled: false
Boxcar width: 0
Storing dark spectrum: false
XAxis mode: Wavelengths
Number of Pixels in Spectrum: 1024
>>>>>Begin Spectral Data<<<<<
801.071	22169
801.214	22093
801.356	21675
801.499	21553
801.641	21568
801.783	21424
801.926	21439
802.068	21511
802.211	21370
802.353	21241
802.496	21017
802.638	21032
802.78	20853
802.923	20918
803.065	20895
803.208	20705
803.35	20800
803.492	20735
803.635	20895
803.777	20819
803.919	21066
804.061	21135
804.204	20880
804.346	20640
804.488	20621
804.63	20800
804.773	20724
804.915	20857
805.057	20842
805.199	20754
805.341	20861
805.483	20986
805.626	20845
805.768	20629
805.91	20845
806.052	20804
806.194	20587
806.336	20921
806.478	20754
806.62	20800
806.762	20815
806.904	20982
807.046	21138
807.188	21066
807.33	21001
807.472	21112
807.614	20952
807.756	20990
807.898	20937
808.04	20727
808.182	20807
808.324	20777
808.465	20838
808.607	21131
808.749	21051
808.891	21233
809.033	21176
809.174	21135
809.316	20990
809.458	21195
809.6	21108
809.741	21173
809.883	21184
810.025	21279
810.166	21218
810.308	21199
810.45	21302
810.591	21104
810.733	20937
810.875	20864
811.016	20853
811.158	20804
811.299	20944
811.441	21009
811.582	20864
811.724	20861
811.865	20861
812.007	20777
812.148	20960
812.29	21009
812.431	21070
812.573	21169
812.714	21294
812.855	21348
812.997	21397
813.138	21568
813.279	21462
813.421	21386
813.562	21272
813.703	21176
813.845	21051
813.986	20743
814.127	20648
814.268	20537
814.41	20511
814.551	20351
814.692	20446
814.833	20256
814.974	20385
815.115	20454
815.256	20396
815.397	20313
815.539	20225
815.68	20111
815.821	20168
815.962	20115
816.103	20229
816.244	19982
816.385	19967
816.526	19925
816.666	19727
816.807	19594
816.948	19620
817.089	19700
817.23	19639
817.371	19548
817.512	19506
817.653	19582
817.793	19457
817.934	19571
818.075	19540
818.216	19632
818.356	19575
818.497	19308
818.638	19244
818.778	19240
818.919	19251
819.06	19228
819.2	19278
819.341	19476
819.481	19483
819.622	19601
819.762	19681
819.903	19696
820.043	19506
820.184	19540
820.324	19502
820.465	19563
820.605	19502
820.746	19510
820.886	19434
821.026	19514
821.167	19552
821.307	19552
821.447	19571
821.588	19339
821.728	19175
821.868	19148
822.008	18947
822.149	18837
822.289	18905
822.429	18646
822.569	18631
822.709	18627
822.849	18361
822.99	18452
823.13	18475
823.27	18403
823.41	18315
823.55	18251
823.69	18243
823.83	18254
823.97	18110
824.11	18057
824.25	17950
824.389	18106
824.529	18140
824.669	18026
824.809	18197
824.949	18106
825.089	18057
825.228	18117
825.368	17908
825.508	17790
825.648	17764
825.787	17908
825.927	17863
826.067	17661
826.206	17775
826.346	17771
826.485	17805
826.625	17775
826.765	17859
826.904	17813
827.044	17649
827.183	17577
827.323	17360
827.462	17573
827.601	17642
827.741	17497
827.88	17486
828.02	17356
828.159	17467
828.298	17474
828.437	17444
828.577	17417
828.716	17600
828.855	17440
828.994	17349
829.134	17185
829.273	17235
829.412	17239
829.551	17166
829.69	17220
829.829	17334
829.968	17296
830.107	17345
830.246	17315
830.385	17166
830.524	17204
830.663	17155
830.802	17041
830.941	16793
831.08	16778
831.219	17003
831.357	16847
831.496	17022
831.635	16752
831.774	16782
831.913	16892
832.051	16710
832.19	16630
832.329	16748
832.467	16622
832.606	16474
832.744	16538
832.883	16542
833.022	16512
833.16	16535
833.299	16519
833.437	16668
833.576	16656
833.714	16729
833.852	16569
833.991	16683
834.129	16664
834.267	16569
834.406	16577
834.544	16717
834.682	16679
834.821	16660
834.959	16713
835.097	16599
835.235	16702
835.373	16558
835.511	16626
835.65	16478
835.788	16508
835.926	16428
836.064	16341
836.202	16440
836.34	16497
836.478	16607
836.615	16558
836.753	16565
836.891	16649
837.029	16607
837.167	16432
837.305	16413
837.443	16527
837.58	16379
837.718	16550
837.856	16360
837.993	16363
838.131	16428
838.269	16382
838.406	16303
838.544	16371
838.681	16040
838.819	16017
838.956	16032
839.094	15899
839.231	15873
839.369	16128
839.506	16428
839.643	16169
839.781	15979
839.918	15941
840.055	15956
840.193	15991
840.33	15899
840.467	15941
840.604	15918
840.742	16166
840.879	15755
841.016	15842
841.153	15770
841.29	15983
841.427	15983
841.564	16017
841.701	15983
841.838	15861
841.975	15907
842.112	15793
842.249	15675
842.385	15694
842.522	15956
842.659	15751
842.796	15724
842.933	15663
843.069	15732
843.206	15724
843.343	15831
843.479	15663
843.616	15713
843.752	15618
843.889	15549
844.025	15667
844.162	15538
844.298	15641
844.435	15515
844.571	15454
844.708	15572
844.844	15682
844.98	15667
845.117	15732
845.253	15526
845.389	15321
845.525	15469
845.661	15447
845.798	15363
845.934	15310
846.07	15336
846.206	15454
846.342	15454
846.478	15359
846.614	15252
846.75	15043
846.886	15081
847.022	15150
847.158	15116
847.294	15070
847.429	15184
847.565	15195
847.701	15298
847.837	14796
847.972	14765
848.108	14960
848.244	14937
848.379	14800
848.515	14590
848.65	14602
848.786	14743
848.921	14640
849.057	14826
849.192	14678
849.328	14716
849.463	14746
849.598	14625
849.734	14461
849.869	14454
850.004	14454
850.14	14427
850.275	14511
850.41	14336
850.545	14415
850.68	14469
850.815	14545
850.95	14488
851.085	14678
851.22	14518
851.355	14457
851.49	14434
851.625	14427
851.76	14343
851.895	14408
852.03	14393
852.165	14347
852.299	14358
852.434	14552
852.569	14461
852.703	14404
852.838	14579
852.973	14587
853.107	14621
853.242	14419
853.376	14286
853.511	14221
853.645	14275
853.78	14480
853.914	14328
854.048	14252
854.183	14301
854.317	14267
854.451	14473
854.585	14317
854.72	14240
854.854	14389
854.988	14252
855.122	14282
855.256	14191
855.39	14336
855.524	14332
855.658	14358
855.792	14225
855.926	14290
856.06	14404
856.194	14488
856.327	14381
856.461	14275
856.595	14168
856.729	14324
856.862	14492
856.996	14336
857.13	14381
857.263	14389
857.397	14492
857.53	14351
857.664	14366
857.797	14400
857.931	14492
858.064	14305
858.197	14377
858.331	14248
858.464	14278
858.597	14271
858.731	14324
858.864	14218
858.997	14244
859.13	14339
859.263	14370
859.396	14332
859.529	14332
859.662	14298
859.795	14282
859.928	14301
860.061	14568
860.194	14537
860.327	14366
860.46	14370
860.592	14351
860.725	14492
860.858	14362
860.99	14317
861.123	14221
861.256	14313
861.388	14294
861.521	15055
861.653	14221
861.786	14092
861.918	14225
862.05	14218
862.183	14431
862.315	14256
862.447	14370
862.58	14218
862.712	14084
862.844	14069
862.976	14202
863.108	14145
863.24	14465
863.372	14058
863.504	14130
863.636	14103
863.768	14145
863.9	14134
864.032	14001
864.164	14084
864.296	14130
864.428	14084
864.559	14161
864.691	14183
864.823	14145
864.954	14153
865.086	14096
865.217	14107
865.349	14012
865.48	14058
865.612	14134
865.743	14210
865.875	14161
866.006	14058
866.137	14142
866.269	14103
866.4	14084
866.531	14050
866.662	13970
866.793	13989
866.924	14088
867.055	14195
867.186	13989
867.317	13993
867.448	13856
867.579	13967
867.71	14001
867.841	13970
867.972	14069
868.103	14092
868.233	14039
868.364	14008
868.495	14172
868.625	14301
868.756	14450
868.886	14259
869.017	14324
869.147	14381
869.278	14473
869.408	14358
869.539	14351
869.669	14404
869.799	14423
869.929	14355
870.06	14469
870.19	14636
870.32	14625
870.45	14720
870.58	14716
870.71	14883
870.84	14815
870.97	14746
871.1	14655
871.23	14872
871.36	14887
871.489	14914
871.619	14861
871.749	14899
871.879	14971
872.008	15051
872.138	15051
872.267	14868
872.397	14921
872.526	14788
872.656	14811
872.785	14750
872.915	15009
873.044	14952
873.173	15005
873.303	14998
873.432	15017
873.561	14979
873.69	14941
873.819	14990
873.948	15100
874.077	14937
874.206	14982
874.335	15085
874.464	15146
874.593	15226
874.722	15272
874.851	15287
874.979	15325
875.108	15367
875.237	15184
875.365	15245
875.494	15264
875.623	15329
875.751	15279
875.88	15378
876.008	15458
876.136	15526
876.265	15755
876.393	15869
876.521	15789
876.65	15797
876.778	15720
876.906	15644
877.034	15660
877.162	15709
877.29	15713
877.418	15701
877.546	15682
877.674	15701
877.802	15713
877.93	15656
878.058	15690
878.185	15618
878.313	15542
878.441	15728
878.568	15622
878.696	15736
878.824	15793
878.951	15800
879.079	15888
879.206	15983
879.333	15888
879.461	15778
879.588	15865
879.715	15907
879.842	16078
879.97	15861
880.097	15595
880.224	15447
880.351	15656
880.478	15599
880.605	15629
880.732	15568
880.859	15713
880.986	15591
881.112	15618
881.239	15416
881.366	15340
881.493	15249
881.619	15188
881.746	15321
881.872	15241
881.999	15165
882.125	15047
882.252	15272
882.378	15245
882.505	15306
882.631	15176
882.757	15005
882.883	15089
883.01	15039
883.136	14910
883.262	14857
883.388	14910
883.514	15032
883.64	15135
883.766	15001
883.892	14830
884.018	14834
884.143	14941
884.269	15097
884.395	14876
884.52	14731
884.646	14686
884.772	14712
884.897	14705
885.023	14701
885.148	14853
885.274	14929
885.399	14819
885.524	14727
885.65	14781
885.775	14773
885.9	14712
886.025	14861
886.15	14857
886.275	14739
886.4	14606
886.525	14773
886.65	14674
886.775	14674
886.9	14845
887.025	14956
887.149	14773
887.274	14552
887.399	14457
887.523	14602
887.648	14446
887.773	14446
887.897	14644
888.021	14644
888.146	14552
888.27	14636
888.395	14659
888.519	14583
888.643	14587
888.767	14663
888.891	14488
889.015	14488
889.139	14560
889.263	14495
889.387	14511
889.511	14636
889.635	14659
889.759	14343
889.883	14400
890.006	14461
890.13	14541
890.254	14381
890.377	14294
890.501	14237
890.624	14275
890.748	14267
890.871	14111
890.995	14058
891.118	14077
891.241	14161
891.364	14046
891.488	14286
891.611	14111
891.734	14176
891.857	14180
891.98	14062
892.103	14218
892.226	14271
892.349	14115
892.471	14054
892.594	14039
892.717	14077
892.839	14126
892.962	14115
893.085	14278
893.207	14153
893.33	14073
893.452	14043
893.575	14088
893.697	14145
893.819	14278
893.941	14404
894.064	14290
894.186	14199
894.308	14164
894.43	14278
894.552	14423
894.674	14263
894.796	14206
894.918	14187
895.04	14153
895.161	14328
895.283	14225
895.405	14252
895.526	14225
895.648	14187
895.769	14343
895.891	14267
896.012	14263
896.134	14320
896.255	14267
896.376	14275
896.498	14271
896.619	14434
896.74	14328
896.861	14320
896.982	14621
897.103	14804
897.224	14530
897.345	14522
897.466	14503
897.587	14560
897.708	14750
897.828	14575
897.949	14533
898.07	14480
898.19	14473
898.311	14693
898.431	14522
898.552	14598
898.672	14739
898.792	14731
898.913	14716
899.033	14632
899.153	14537
899.273	14469
899.393	14518
899.513	14549
899.633	14556
899.753	14473
899.873	14541
899.993	14522
900.113	14454
900.232	14613
900.352	14503
900.472	14438
900.591	14294
900.711	14355
900.83	14294
900.95	14427
901.069	14442
901.189	14313
901.308	14058
901.427	14081
901.546	14020
901.665	14027
901.784	14130
901.904	13932
902.023	13738
902.141	13712
902.26	13613
902.379	13636
902.498	13666
902.617	13521
902.735	13616
902.854	13674
902.973	13464
903.091	13339
903.21	13354
903.328	13358
903.446	13236
903.565	13133
903.683	13209
903.801	13084
903.919	13091
904.038	13133
904.156	12932
904.274	13080
904.392	13004
904.51	13023
904.627	12977
904.745	13019
904.863	13088
904.981	12802
905.098	12700
905.216	12711
905.334	12719
905.451	12772
905.569	12715
905.686	12776
905.803	12749
905.921	12475
906.038	12642
906.155	12479
906.272	12395
906.389	12330
906.506	12308
906.623	12292
906.74	12243
906.857	12182
906.974	12228
907.091	12262
907.208	12441
907.324	12281
907.441	12213
907.557	12110
907.674	12045
907.79	11965
907.907	12026
908.023	12038
908.139	12011
908.256	12030
908.372	11904
908.488	11942
908.604	11836
908.72	11767
908.836	11779
908.952	11745
909.068	11828
909.184	11931
909.3	11752
909.415	11855
909.531	11764
909.647	11558
909.762	11604
909.878	11463
909.993	11554
910.108	11543
910.224	11528
910.339	11573
910.454	11471
910.57	11311
910.685	11315
910.8	11646
910.915	11554
911.03	11448
911.145	11235
911.259	11212
911.374	11220
911.489	11216
911.604	11064
911.718	11010
911.833	11014
911.947	10908
912.062	10774
912.176	11018
912.291	11003
912.405	10831
912.519	11239
912.633	11239
912.748	11075
912.862	10995
912.976	10892
913.09	10698
913.204	10881
913.318	10942
913.431	10980
913.545	11014
913.659	11018
913.772	10927
913.886	10759
914	10714
914.113	10946
914.226	10957
914.34	10889
914.453	10660
914.566	10835
914.68	10698
914.793	10672
914.906	10569
915.019	10440
915.132	10485
915.245	10470
915.358	10538
915.47	10561
915.583	10512
915.696	10561
915.809	10660
915.921	10744
916.034	10519
916.146	10386
916.259	10459
916.371	10565
916.483	10550
916.595	10447
916.708	10508
916.82	10428
916.932	10421
917.044	10413
917.156	10455
917.268	10360
917.38	10303
917.491	10318
917.603	10295
917.715	10447
917.826	10459
917.938	10356
918.049	10223
918.161	10371
918.272	10481
918.384	10424
918.495	10371
918.606	10200
918.717	10101
918.828	10204
918.939	10303
919.05	10150
919.161	10166
919.272	10150
919.383	9983
919.494	10291
919.604	10474
919.715	10249
919.826	10185
919.936	10188
920.047	10314
920.157	10249
920.267	10421
920.378	10333
920.488	10314
920.598	10478
920.708	10485
920.818	10455
920.928	10462
921.038	10580
921.148	10542
921.258	10261
921.368	10219
921.477	10116
921.587	10048
921.697	9987
921.806	10143
921.916	10010
922.025	9762
922.134	9800
922.244	9740
922.353	9884
922.462	9747
922.571	9667
922.68	9572
922.789	9545
922.898	9439
923.007	9450
923.116	9542
923.224	9466
923.333	9504
923.442	9450
923.55	9291
923.659	9420
923.767	9458
923.876	9310
923.984	9412
924.092	9230
924.201	9287
924.309	9287
924.417	9287
924.525	9287
924.633	9340
924.741	10246
924.849	9245
924.956	9279
925.064	9097
925.172	9043
925.279	9112
925.387	9131
925.494	9097
925.602	9298
925.709	9214
925.816	9119
925.924	9180
926.031	9180
926.138	9165
926.245	9123
926.352	9112
926.459	9188
926.566	9188
926.673	9017
926.779	8975
926.886	9028
926.993	8914
927.099	8895
927.206	8826
927.312	8781
927.419	8948
927.525	8880
927.631	8990
927.737	8777
927.843	8819
927.95	8636
928.056	8731
928.162	8811
928.267	8792
928.373	9466
928.479	8872
928.585	8556
928.69	8720
928.796	8849
928.901	8693
929.007	8530
929.112	8701
929.218	8568
929.323	8594
929.428	8530
929.533	8648
929.638	8499
929.743	8590
929.848	8610
929.953	8560
930.058	8514
930.163	8385
930.267	8381
930.372	8461
930.477	8355
930.581	8579
930.685	8366
930.79	8282
930.894	8320
930.998	8286
931.103	8450
931.207	8119
931.311	8020
931.415	7883
931.519	7776
931.623	7799
