Data from test_V78500241_1578.txt Node
Date: Fri Mar 25 14:44:42 CST 2022
User: usil
Spectrometer: V785-0024
Trigger mode: 0
Integration Time (sec): 4.000000E-1
Scans to average: 1
Nonlinearity correction enabled: false
Boxcar width: 0
Storing dark spectrum: false
XAxis mode: Wavelengths
Number of Pixels in Spectrum: 1024
>>>>>Begin Spectral Data<<<<<
801.071	22341
801.214	22200
801.356	22070
801.499	21972
801.641	21701
801.783	21652
801.926	21789
802.068	21679
802.211	21576
802.353	21576
802.496	21374
802.638	21188
802.78	21085
802.923	21138
803.065	21150
803.208	21020
803.35	21108
803.492	21161
803.635	21245
803.777	21093
803.919	21199
804.061	21367
804.204	21150
804.346	21047
804.488	21089
804.63	21013
804.773	20853
804.915	21043
805.057	21184
805.199	20918
805.341	21096
805.483	21028
805.626	21157
805.768	21055
805.91	21058
806.052	20914
806.194	20906
806.336	21096
806.478	20948
806.62	20982
806.762	21077
806.904	21211
807.046	21317
807.188	21363
807.33	21245
807.472	21401
807.614	21348
807.756	21272
807.898	21260
808.04	21142
808.182	21150
808.324	21264
808.465	21272
808.607	21454
808.749	21526
808.891	21614
809.033	21625
809.174	21606
809.316	21507
809.458	21481
809.6	21332
809.741	21454
809.883	21633
810.025	21698
810.166	21618
810.308	21496
810.45	21492
810.591	21450
810.733	21435
810.875	21291
811.016	21108
811.158	21039
811.299	21279
811.441	21325
811.582	21237
811.724	21150
811.865	21142
812.007	21192
812.148	21192
812.29	21237
812.431	21260
812.573	21469
812.714	21564
812.855	21846
812.997	21739
813.138	22017
813.279	21838
813.421	21819
813.562	21656
813.703	21454
813.845	21370
813.986	21093
814.127	20925
814.268	20811
814.41	20891
814.551	20765
814.692	20727
814.833	20667
814.974	20708
815.115	20651
815.256	20587
815.397	20552
815.539	20716
815.68	20602
815.821	20400
815.962	20450
816.103	20495
816.244	20267
816.385	20191
816.526	20206
816.666	20001
816.807	19978
816.948	19940
817.089	20027
817.23	19944
817.371	19883
817.512	19826
817.653	19879
817.793	19818
817.934	19936
818.075	19902
818.216	19822
818.356	19807
818.497	19677
818.638	19525
818.778	19480
818.919	19590
819.06	19651
819.2	19727
819.341	19700
819.481	19666
819.622	19940
819.762	20012
819.903	19898
820.043	19879
820.184	19902
820.324	19791
820.465	19909
820.605	19887
820.746	19856
820.886	19723
821.026	19772
821.167	19727
821.307	19780
821.447	19833
821.588	19734
821.728	19529
821.868	19430
822.008	19213
822.149	19232
822.289	19251
822.429	19012
822.569	18935
822.709	18928
822.849	18749
822.99	18783
823.13	18650
823.27	18669
823.41	18547
823.55	18452
823.69	18688
823.83	18601
823.97	18353
824.11	18273
824.25	18232
824.389	18334
824.529	18338
824.669	18350
824.809	18361
824.949	18376
825.089	18494
825.228	18304
825.368	18114
825.508	18034
825.648	18167
825.787	18041
825.927	18152
826.067	18053
826.206	18072
826.346	18060
826.485	18190
826.625	18038
826.765	18209
826.904	18129
827.044	17843
827.183	17756
827.323	17786
827.462	17775
827.601	17695
827.741	17760
827.88	17680
828.02	17684
828.159	17748
828.298	17737
828.437	17802
828.577	17703
828.716	17889
828.855	17687
828.994	17512
829.134	17543
829.273	17581
829.412	17505
829.551	17558
829.69	17558
829.829	17524
829.968	17672
830.107	17539
830.246	17486
830.385	17459
830.524	17417
830.663	17368
830.802	17204
830.941	17235
831.08	17170
831.219	17246
831.357	17136
831.496	17360
831.635	17151
831.774	17140
831.913	17056
832.051	16850
832.19	16999
832.329	16934
832.467	16850
832.606	16763
832.744	16816
832.883	16843
833.022	16771
833.16	16866
833.299	16839
833.437	16900
833.576	16938
833.714	16889
833.852	16953
833.991	16885
834.129	16873
834.267	16923
834.406	16919
834.544	16949
834.682	16885
834.821	16771
834.959	17079
835.097	16835
835.235	16923
835.373	16733
835.511	16892
835.65	16786
835.788	16805
835.926	16668
836.064	16645
836.202	16634
836.34	16809
836.478	16828
836.615	16679
836.753	16911
836.891	16885
837.029	16744
837.167	16679
837.305	16733
837.443	16698
837.58	16664
837.718	16645
837.856	16542
837.993	16580
838.131	16550
838.269	16653
838.406	16459
838.544	16504
838.681	16344
838.819	16306
838.956	16120
839.094	16143
839.231	16219
839.369	16322
839.506	16561
839.643	16421
839.781	16207
839.918	16120
840.055	16169
840.193	16143
840.33	16200
840.467	16169
840.604	16200
840.742	16341
840.879	16021
841.016	15994
841.153	16112
841.29	16371
841.427	16219
841.564	16181
841.701	16082
841.838	16040
841.975	16086
842.112	16074
842.249	15941
842.385	15857
842.522	16074
842.659	16002
842.796	15941
842.933	15873
843.069	15827
843.206	15968
843.343	15892
843.479	15880
843.616	15949
843.752	15679
843.889	15720
844.025	15808
844.162	15755
844.298	15899
844.435	15804
844.571	15762
844.708	15819
844.844	15895
844.98	15884
845.117	15831
845.253	15762
845.389	15564
845.525	15759
845.661	15648
845.798	15663
845.934	15713
846.07	15663
846.206	15644
846.342	15789
846.478	15644
846.614	15393
846.75	15344
846.886	15249
847.022	15389
847.158	15367
847.294	15275
847.429	15378
847.565	15264
847.701	15462
847.837	15043
847.972	14979
848.108	15104
848.244	15089
848.379	14948
848.515	14849
848.65	14834
848.786	14929
848.921	14918
849.057	14941
849.192	15020
849.328	14998
849.463	14823
849.598	14804
849.734	14765
849.869	14743
850.004	14682
850.14	14689
850.275	14686
850.41	14602
850.545	14651
850.68	14689
850.815	14625
850.95	14537
851.085	14785
851.22	14750
851.355	14682
851.49	14598
851.625	14632
851.76	14545
851.895	14492
852.03	14442
852.165	14606
852.299	14598
852.434	14781
852.569	14678
852.703	14697
852.838	14750
852.973	14693
853.107	14811
853.242	14564
853.376	14511
853.511	14381
853.645	14480
853.78	14655
853.914	14499
854.048	14518
854.183	14514
854.317	14587
854.451	14678
854.585	14507
854.72	14465
854.854	14583
854.988	14374
855.122	14480
855.256	14465
855.39	14552
855.524	14629
855.658	14629
855.792	14522
855.926	14507
856.06	14541
856.194	14689
856.327	14587
856.461	14370
856.595	14362
856.729	14545
856.862	14636
856.996	14644
857.13	14526
857.263	14552
857.397	14651
857.53	14579
857.664	14556
857.797	14552
857.931	14640
858.064	14610
858.197	14682
858.331	14446
858.464	14442
858.597	14385
858.731	14454
858.864	14575
858.997	14530
859.13	14632
859.263	14568
859.396	14545
859.529	14533
859.662	14385
859.795	14465
859.928	14602
860.061	14651
860.194	14636
860.327	14533
860.46	14625
860.592	14602
860.725	14579
860.858	14587
860.99	14461
861.123	14461
861.256	14473
861.388	14522
861.521	15332
861.653	14317
861.786	14305
861.918	14305
862.05	14446
862.183	14423
862.315	14522
862.447	14499
862.58	14412
862.712	14355
862.844	14256
862.976	14450
863.108	14355
863.24	14754
863.372	14195
863.504	14313
863.636	14248
863.768	14480
863.9	14294
864.032	14195
864.164	14199
864.296	14271
864.428	14419
864.559	14374
864.691	14518
864.823	14301
864.954	14366
865.086	14328
865.217	14282
865.349	14149
865.48	14267
865.612	14286
865.743	14434
865.875	14271
866.006	14187
866.137	14278
866.269	14282
866.4	14256
866.531	14199
866.662	14267
866.793	14187
866.924	14214
867.055	14271
867.186	14240
867.317	14290
867.448	14126
867.579	14377
867.71	14229
867.841	14214
867.972	14252
868.103	14237
868.233	14271
868.364	14294
868.495	14320
868.625	14431
868.756	14545
868.886	14385
869.017	14484
869.147	14644
869.278	14598
869.408	14537
869.539	14530
869.669	14674
869.799	14636
869.929	14579
870.06	14632
870.19	14819
870.32	14804
870.45	14849
870.58	14933
870.71	14910
870.84	15036
870.97	14861
871.1	14895
871.23	15123
871.36	15028
871.489	15066
871.619	15142
871.749	15043
871.879	15150
872.008	15226
872.138	15127
872.267	15089
872.397	14967
872.526	15020
872.656	14975
872.785	14944
872.915	15157
873.044	15199
873.173	15116
873.303	15245
873.432	15199
873.561	15252
873.69	15249
873.819	15176
873.948	15291
874.077	15173
874.206	15081
874.335	15195
874.464	15317
874.593	15477
874.722	15454
874.851	15515
874.979	15576
875.108	15515
875.237	15393
875.365	15405
875.494	15435
875.623	15500
875.751	15408
875.88	15618
876.008	15545
876.136	15667
876.265	15861
876.393	16055
876.521	15892
876.65	15937
876.778	15949
876.906	15778
877.034	15751
877.162	15854
877.29	15797
877.418	15850
877.546	15899
877.674	15930
877.802	15880
877.93	15895
878.058	15819
878.185	15812
878.313	15884
878.441	15918
878.568	15728
878.696	15804
878.824	15888
878.951	15964
879.079	16112
879.206	16226
879.333	16067
879.461	15960
879.588	16044
879.715	16154
879.842	16238
879.97	16025
880.097	15766
880.224	15705
880.351	15797
880.478	15781
880.605	15682
880.732	15713
880.859	15972
880.986	15755
881.112	15751
881.239	15694
881.366	15614
881.493	15439
881.619	15420
881.746	15397
881.872	15351
881.999	15237
882.125	15332
882.252	15477
882.378	15530
882.505	15515
882.631	15355
882.757	15218
882.883	15279
883.01	15207
883.136	15127
883.262	15081
883.388	15093
883.514	15226
883.64	15313
883.766	15169
883.892	15100
884.018	15108
884.143	15169
884.269	15287
884.395	15020
884.52	14883
884.646	14971
884.772	14834
884.897	14838
885.023	14910
885.148	14967
885.274	15024
885.399	15017
885.524	14902
885.65	14876
885.775	14861
885.9	14998
886.025	14975
886.15	14944
886.275	14857
886.4	14823
886.525	14914
886.65	14838
886.775	14819
886.9	15020
887.025	15058
887.149	14933
887.274	14834
887.399	14746
887.523	14705
887.648	14697
887.773	14716
887.897	14807
888.021	14720
888.146	14674
888.27	14838
888.395	14815
888.519	14792
888.643	14746
888.767	14872
888.891	14655
889.015	14552
889.139	14648
889.263	14613
889.387	14686
889.511	14735
889.635	14663
889.759	14587
889.883	14636
890.006	14655
890.13	14796
890.254	14507
890.377	14484
890.501	14381
890.624	14343
890.748	14571
890.871	14298
890.995	14111
891.118	14248
891.241	14377
891.364	14294
891.488	14377
891.611	14313
891.734	14183
891.857	14309
891.98	14332
892.103	14351
892.226	14290
892.349	14286
892.471	14149
892.594	14237
892.717	14305
892.839	14278
892.962	14343
893.085	14377
893.207	14351
893.33	14168
893.452	14195
893.575	14259
893.697	14176
893.819	14427
893.941	14488
894.064	14431
894.186	14214
894.308	14301
894.43	14370
894.552	14522
894.674	14412
894.796	14271
894.918	14256
895.04	14347
895.161	14370
895.283	14408
895.405	14320
895.526	14358
895.648	14347
895.769	14404
895.891	14377
896.012	14469
896.134	14484
896.255	14503
896.376	14415
896.498	14366
896.619	14454
896.74	14389
896.861	14526
896.982	14758
897.103	14941
897.224	14826
897.345	14708
897.466	14625
897.587	14769
897.708	14876
897.828	14807
897.949	14651
898.07	14613
898.19	14750
898.311	14853
898.431	14731
898.552	14849
898.672	14937
898.792	14895
898.913	14887
899.033	14762
899.153	14636
899.273	14488
899.393	14617
899.513	14629
899.633	14621
899.753	14716
899.873	14689
899.993	14765
900.113	14655
900.232	14659
900.352	14674
900.472	14579
900.591	14473
900.711	14621
900.83	14454
900.95	14701
901.069	14701
901.189	14522
901.308	14282
901.427	14229
901.546	14191
901.665	14161
901.784	14233
901.904	14081
902.023	14027
902.141	13921
902.26	13765
902.379	13906
902.498	13731
902.617	13666
902.735	13788
902.854	13845
902.973	13594
903.091	13590
903.21	13457
903.328	13480
903.446	13369
903.565	13343
903.683	13335
903.801	13255
903.919	13289
904.038	13335
904.156	13156
904.274	13263
904.392	13080
904.51	13129
904.627	13076
904.745	13179
904.863	13156
904.981	12909
905.098	12757
905.216	12795
905.334	12856
905.451	12954
905.569	12783
905.686	12878
905.803	12840
905.921	12719
906.038	12730
906.155	12616
906.272	12578
906.389	12578
906.506	12422
906.623	12437
906.74	12422
906.857	12235
906.974	12369
907.091	12483
907.208	12540
907.324	12483
907.441	12384
907.557	12220
907.674	12125
907.79	12095
907.907	12136
908.023	12167
908.139	12247
908.256	12167
908.372	12129
908.488	12083
908.604	12049
908.72	11897
908.836	11950
908.952	11866
909.068	11996
909.184	12019
909.3	11923
909.415	11980
909.531	11958
909.647	11733
909.762	11710
909.878	11684
909.993	11676
910.108	11752
910.224	11668
910.339	11653
910.454	11600
910.57	11501
910.685	11547
910.8	11745
910.915	11710
911.03	11501
911.145	11383
911.259	11398
911.374	11334
911.489	11383
911.604	11216
911.718	11162
911.833	11121
911.947	11041
912.062	11003
912.176	11117
912.291	11155
912.405	11105
912.519	11376
912.633	11261
912.748	11201
912.862	11140
912.976	10980
913.09	10904
913.204	11033
913.318	10976
913.431	11086
913.545	11197
913.659	11162
913.772	11109
913.886	10972
914	10847
914.113	10927
914.226	10984
914.34	11075
914.453	10778
914.566	10957
914.68	10847
914.793	10786
914.906	10607
915.019	10664
915.132	10622
915.245	10599
915.358	10729
915.47	10656
915.583	10710
915.696	10656
915.809	10752
915.921	10809
916.034	10672
916.146	10538
916.259	10523
916.371	10714
916.483	10630
916.595	10493
916.708	10580
916.82	10516
916.932	10569
917.044	10466
917.156	10535
917.268	10459
917.38	10409
917.491	10451
917.603	10531
917.715	10558
917.826	10679
917.938	10436
918.049	10344
918.161	10436
918.272	10622
918.384	10592
918.495	10523
918.606	10329
918.717	10261
918.828	10318
918.939	10447
919.05	10265
919.161	10318
919.272	10204
919.383	10166
919.494	10363
919.604	10504
919.715	10352
919.826	10287
919.936	10303
920.047	10398
920.157	10318
920.267	10641
920.378	10352
920.488	10375
920.598	10535
920.708	10733
920.818	10508
920.928	10497
921.038	10740
921.148	10656
921.258	10417
921.368	10295
921.477	10147
921.587	10192
921.697	10078
921.806	10234
921.916	10025
922.025	9934
922.134	9876
922.244	9861
922.353	9994
922.462	9808
922.571	9736
922.68	9660
922.789	9587
922.898	9633
923.007	9584
923.116	9610
923.224	9625
923.333	9545
923.442	9549
923.55	9473
923.659	9458
923.767	9564
923.876	9458
923.984	9473
924.092	9389
924.201	9466
924.309	9439
924.417	9435
924.525	9386
924.633	9344
924.741	10344
924.849	9211
924.956	9355
925.064	9188
925.172	9161
925.279	9245
925.387	9268
925.494	9222
925.602	9416
925.709	9355
925.816	9161
925.924	9237
926.031	9317
926.138	9291
926.245	9287
926.352	9085
926.459	9302
926.566	9253
926.673	9241
926.779	9085
926.886	9112
926.993	9055
927.099	8994
927.206	8925
927.312	8872
927.419	9020
927.525	8990
927.631	8925
927.737	8925
927.843	8861
927.95	8705
928.056	8796
928.162	8857
928.267	8941
928.373	9344
928.479	8887
928.585	8659
928.69	8868
928.796	8883
928.901	8804
929.007	8610
929.112	8807
929.218	8667
929.323	8629
929.428	8655
929.533	8834
929.638	8590
929.743	8621
929.848	8651
929.953	8621
930.058	8533
930.163	8434
930.267	8522
930.372	8598
930.477	8355
930.581	8625
930.685	8492
930.79	8385
930.894	8415
930.998	8450
931.103	8492
931.207	8149
931.311	8050
931.415	8084
931.519	7879
931.623	7875
