Data from test_V78500241_1326.txt Node
Date: Fri Mar 25 14:42:56 CST 2022
User: usil
Spectrometer: V785-0024
Trigger mode: 0
Integration Time (sec): 4.000000E-1
Scans to average: 1
Nonlinearity correction enabled: false
Boxcar width: 0
Storing dark spectrum: false
XAxis mode: Wavelengths
Number of Pixels in Spectrum: 1024
>>>>>Begin Spectral Data<<<<<
801.071	22257
801.214	22230
801.356	22036
801.499	21903
801.641	21743
801.783	21778
801.926	21770
802.068	21667
802.211	21492
802.353	21583
802.496	21287
802.638	21222
802.78	21135
802.923	21169
803.065	21089
803.208	21055
803.35	21051
803.492	21161
803.635	21135
803.777	21047
803.919	21214
804.061	21431
804.204	21230
804.346	21013
804.488	20918
804.63	21055
804.773	20921
804.915	21085
805.057	21176
805.199	21017
805.341	21051
805.483	21195
805.626	21013
805.768	20982
805.91	21051
806.052	21020
806.194	21013
806.336	21032
806.478	21017
806.62	21017
806.762	21112
806.904	21237
807.046	21317
807.188	21302
807.33	21389
807.472	21488
807.614	21378
807.756	21340
807.898	21199
808.04	21119
808.182	21230
808.324	21283
808.465	21268
808.607	21462
808.749	21603
808.891	21739
809.033	21705
809.174	21675
809.316	21561
809.458	21405
809.6	21477
809.741	21477
809.883	21542
810.025	21549
810.166	21652
810.308	21568
810.45	21583
810.591	21386
810.733	21298
810.875	21230
811.016	21157
811.158	21180
811.299	21256
811.441	21386
811.582	21325
811.724	21142
811.865	21222
812.007	21207
812.148	21199
812.29	21249
812.431	21294
812.573	21435
812.714	21599
812.855	21648
812.997	21835
813.138	21819
813.279	21846
813.421	21595
813.562	21663
813.703	21443
813.845	21329
813.986	21108
814.127	20902
814.268	20823
814.41	20792
814.551	20849
814.692	20853
814.833	20697
814.974	20644
815.115	20800
815.256	20514
815.397	20587
815.539	20514
815.68	20465
815.821	20480
815.962	20545
816.103	20404
816.244	20313
816.385	20221
816.526	20199
816.666	20126
816.807	19879
816.948	19970
817.089	20020
817.23	19856
817.371	19928
817.512	19761
817.653	19803
817.793	19830
817.934	19818
818.075	19902
818.216	19868
818.356	19913
818.497	19753
818.638	19540
818.778	19594
818.919	19632
819.06	19635
819.2	19582
819.341	19677
819.481	19753
819.622	19887
819.762	20062
819.903	20012
820.043	20065
820.184	19917
820.324	19837
820.465	19807
820.605	19830
820.746	19879
820.886	19674
821.026	19689
821.167	19780
821.307	19913
821.447	19791
821.588	19635
821.728	19548
821.868	19339
822.008	19266
822.149	19278
822.289	19293
822.429	18973
822.569	18996
822.709	18924
822.849	18673
822.99	18696
823.13	18734
823.27	18730
823.41	18483
823.55	18475
823.69	18506
823.83	18589
823.97	18380
824.11	18414
824.25	18346
824.389	18395
824.529	18422
824.669	18289
824.809	18399
824.949	18422
825.089	18426
825.228	18273
825.368	18258
825.508	18114
825.648	18106
825.787	18216
825.927	18251
826.067	18110
826.206	18098
826.346	18174
826.485	18053
826.625	18209
826.765	18285
826.904	18194
827.044	17961
827.183	17931
827.323	17771
827.462	17954
827.601	17824
827.741	17832
827.88	17783
828.02	17714
828.159	17863
828.298	17882
828.437	17908
828.577	17832
828.716	17950
828.855	17756
828.994	17604
829.134	17608
829.273	17687
829.412	17421
829.551	17482
829.69	17482
829.829	17509
829.968	17611
830.107	17566
830.246	17615
830.385	17577
830.524	17501
830.663	17269
830.802	17299
830.941	17250
831.08	17124
831.219	17227
831.357	17299
831.496	17379
831.635	17193
831.774	17140
831.913	17083
832.051	17014
832.19	16999
832.329	16968
832.467	16911
832.606	16881
832.744	16805
832.883	16858
833.022	16820
833.16	16965
833.299	17014
833.437	16965
833.576	16946
833.714	16927
833.852	16949
833.991	16908
834.129	16987
834.267	16999
834.406	16946
834.544	16957
834.682	17041
834.821	16946
834.959	17151
835.097	16881
835.235	17033
835.373	16980
835.511	17124
835.65	16927
835.788	16866
835.926	16763
836.064	16588
836.202	16702
836.34	16877
836.478	16965
836.615	16759
836.753	16831
836.891	16904
837.029	16892
837.167	16774
837.305	16790
837.443	16767
837.58	16660
837.718	16820
837.856	16752
837.993	16630
838.131	16748
838.269	16645
838.406	16691
838.544	16603
838.681	16306
838.819	16360
838.956	16257
839.094	16314
839.231	16272
839.369	16436
839.506	16649
839.643	16440
839.781	16185
839.918	16207
840.055	16360
840.193	16238
840.33	16223
840.467	16261
840.604	16280
840.742	16546
840.879	16143
841.016	16120
841.153	16162
841.29	16375
841.427	16314
841.564	16337
841.701	16280
841.838	16238
841.975	16192
842.112	16162
842.249	16067
842.385	15979
842.522	16268
842.659	16082
842.796	15991
842.933	16025
843.069	15968
843.206	15956
843.343	16063
843.479	16029
843.616	16120
843.752	15819
843.889	15838
844.025	15899
844.162	15808
844.298	15869
844.435	15812
844.571	15812
844.708	15838
844.844	16029
844.98	15911
845.117	15892
845.253	15778
845.389	15698
845.525	15846
845.661	15835
845.798	15861
845.934	15975
846.07	15926
846.206	15873
846.342	15884
846.478	15751
846.614	15526
846.75	15431
846.886	15469
847.022	15542
847.158	15351
847.294	15344
847.429	15348
847.565	15401
847.701	15603
847.837	15211
847.972	15066
848.108	15241
848.244	15249
848.379	15119
848.515	14982
848.65	14979
848.786	15028
848.921	14921
849.057	15043
849.192	15081
849.328	15039
849.463	15097
849.598	14929
849.734	14910
849.869	14876
850.004	14849
850.14	14804
850.275	14845
850.41	14724
850.545	14720
850.68	14765
850.815	14823
850.95	14842
851.085	14941
851.22	14777
851.355	14792
851.49	14834
851.625	14754
851.76	14705
851.895	14667
852.03	14602
852.165	14686
852.299	14785
852.434	14876
852.569	14781
852.703	14724
852.838	14929
852.973	14785
853.107	14857
853.242	14743
853.376	14579
853.511	14579
853.645	14602
853.78	14727
853.914	14621
854.048	14511
854.183	14625
854.317	14644
854.451	14670
854.585	14549
854.72	14545
854.854	14560
854.988	14556
855.122	14450
855.256	14442
855.39	14610
855.524	14731
855.658	14640
855.792	14621
855.926	14670
856.06	14564
856.194	14693
856.327	14640
856.461	14545
856.595	14610
856.729	14629
856.862	14807
856.996	14720
857.13	14663
857.263	14750
857.397	14785
857.53	14629
857.664	14693
857.797	14674
857.931	14708
858.064	14667
858.197	14754
858.331	14640
858.464	14549
858.597	14514
858.731	14526
858.864	14701
858.997	14594
859.13	14511
859.263	14583
859.396	14636
859.529	14602
859.662	14499
859.795	14590
859.928	14720
860.061	14697
860.194	14781
860.327	14625
860.46	14613
860.592	14724
860.725	14735
860.858	14720
860.99	14640
861.123	14511
861.256	14579
861.388	14705
861.521	15310
861.653	14503
861.786	14484
861.918	14412
862.05	14552
862.183	14610
862.315	14594
862.447	14560
862.58	14549
862.712	14389
862.844	14389
862.976	14507
863.108	14499
863.24	14823
863.372	14415
863.504	14362
863.636	14381
863.768	14522
863.9	14339
864.032	14343
864.164	14370
864.296	14434
864.428	14522
864.559	14507
864.691	14495
864.823	14404
864.954	14434
865.086	14499
865.217	14355
865.349	14396
865.48	14404
865.612	14480
865.743	14526
865.875	14396
866.006	14294
866.137	14408
866.269	14404
866.4	14396
866.531	14400
866.662	14328
866.793	14351
866.924	14355
867.055	14396
867.186	14385
867.317	14336
867.448	14351
867.579	14294
867.71	14240
867.841	14286
867.972	14457
868.103	14370
868.233	14362
868.364	14454
868.495	14488
868.625	14655
868.756	14716
868.886	14606
869.017	14686
869.147	14769
869.278	14724
869.408	14682
869.539	14693
869.669	14712
869.799	14769
869.929	14811
870.06	14765
870.19	14967
870.32	14899
870.45	14998
870.58	15062
870.71	15180
870.84	15131
870.97	15085
871.1	15104
871.23	15226
871.36	15264
871.489	15135
871.619	15249
871.749	15226
871.879	15218
872.008	15367
872.138	15268
872.267	15222
872.397	15154
872.526	15173
872.656	15146
872.785	15097
872.915	15256
873.044	15340
873.173	15294
873.303	15291
873.432	15386
873.561	15363
873.69	15283
873.819	15245
873.948	15435
874.077	15233
874.206	15252
874.335	15355
874.464	15340
874.593	15682
874.722	15557
874.851	15603
874.979	15648
875.108	15637
875.237	15553
875.365	15454
875.494	15603
875.623	15629
875.751	15580
875.88	15720
876.008	15732
876.136	15857
876.265	15953
876.393	16131
876.521	16093
876.65	16112
876.778	16051
876.906	15964
877.034	15968
877.162	16036
877.29	15968
877.418	16002
877.546	16025
877.674	16040
877.802	16059
877.93	16067
878.058	15895
878.185	15968
878.313	16013
878.441	16105
878.568	15953
878.696	16025
878.824	16071
878.951	16150
879.079	16314
879.206	16363
879.333	16268
879.461	16124
879.588	16287
879.715	16295
879.842	16432
879.97	16246
880.097	15968
880.224	15953
880.351	15975
880.478	15960
880.605	15827
880.732	15926
880.859	16013
880.986	15991
881.112	15831
881.239	15831
881.366	15755
881.493	15595
881.619	15633
881.746	15648
881.872	15534
881.999	15549
882.125	15526
882.252	15618
882.378	15599
882.505	15728
882.631	15504
882.757	15367
882.883	15401
883.01	15344
883.136	15348
883.262	15211
883.388	15275
883.514	15374
883.64	15454
883.766	15329
883.892	15112
884.018	15199
884.143	15386
884.269	15561
884.395	15135
884.52	15058
884.646	15074
884.772	15009
884.897	14941
885.023	15093
885.148	15199
885.274	15237
885.399	15112
885.524	14994
885.65	15066
885.775	15085
885.9	14941
886.025	15226
886.15	15192
886.275	15024
886.4	14990
886.525	15104
886.65	14975
886.775	14982
886.9	15077
887.025	15306
887.149	15097
887.274	14876
887.399	14990
887.523	14868
887.648	14849
887.773	14773
887.897	14960
888.021	14948
888.146	14823
888.27	14975
888.395	15097
888.519	14941
888.643	14925
888.767	14982
888.891	14853
889.015	14765
889.139	14746
889.263	14701
889.387	14891
889.511	14861
889.635	14754
889.759	14819
889.883	14815
890.006	14739
890.13	14800
890.254	14659
890.377	14651
890.501	14575
890.624	14465
890.748	14556
890.871	14480
890.995	14370
891.118	14423
891.241	14488
891.364	14473
891.488	14522
891.611	14438
891.734	14507
891.857	14579
891.98	14419
892.103	14549
892.226	14511
892.349	14465
892.471	14301
892.594	14377
892.717	14343
892.839	14438
892.962	14473
893.085	14526
893.207	14374
893.33	14339
893.452	14290
893.575	14396
893.697	14404
893.819	14549
893.941	14602
894.064	14583
894.186	14317
894.308	14503
894.43	14648
894.552	14727
894.674	14556
894.796	14457
894.918	14434
895.04	14545
895.161	14518
895.283	14450
895.405	14427
895.526	14503
895.648	14488
895.769	14587
895.891	14511
896.012	14583
896.134	14571
896.255	14537
896.376	14549
896.498	14579
896.619	14651
896.74	14492
896.861	14731
896.982	14876
897.103	15085
897.224	14872
897.345	14765
897.466	14834
897.587	14864
897.708	14895
897.828	14887
897.949	14792
898.07	14788
898.19	14838
898.311	14956
898.431	14845
898.552	14937
898.672	15127
898.792	15024
898.913	14956
899.033	14883
899.153	14746
899.273	14602
899.393	14746
899.513	14705
899.633	14788
899.753	14849
899.873	14629
899.993	14857
900.113	14731
900.232	14842
900.352	14739
900.472	14682
900.591	14659
900.711	14655
900.83	14636
900.95	14811
901.069	14769
901.189	14556
901.308	14366
901.427	14252
901.546	14294
901.665	14370
901.784	14324
901.904	14183
902.023	14134
902.141	13917
902.26	13871
902.379	13898
902.498	13864
902.617	13689
902.735	13928
902.854	13833
902.973	13738
903.091	13578
903.21	13594
903.328	13544
903.446	13537
903.565	13434
903.683	13407
903.801	13358
903.919	13407
904.038	13392
904.156	13213
904.274	13331
904.392	13244
904.51	13236
904.627	13217
904.745	13301
904.863	13354
904.981	12989
905.098	12951
905.216	12951
905.334	12856
905.451	12981
905.569	12882
905.686	12943
905.803	12947
905.921	12711
906.038	12897
906.155	12776
906.272	12654
906.389	12650
906.506	12574
906.623	12509
906.74	12475
906.857	12361
906.974	12475
907.091	12517
907.208	12677
907.324	12547
907.441	12456
907.557	12308
907.674	12239
907.79	12205
907.907	12205
908.023	12292
908.139	12232
908.256	12171
908.372	12167
908.488	12083
908.604	12076
908.72	11912
908.836	11977
908.952	12068
909.068	12083
909.184	12117
909.3	12041
909.415	12038
909.531	12095
909.647	11847
909.762	11878
909.878	11714
909.993	11832
910.108	11813
910.224	11752
910.339	11790
910.454	11688
910.57	11665
910.685	11596
910.8	11920
910.915	11805
911.03	11733
911.145	11452
911.259	11486
911.374	11516
911.489	11429
911.604	11353
911.718	11258
911.833	11299
911.947	11121
912.062	11037
912.176	11185
912.291	11254
912.405	11235
912.519	11444
912.633	11421
912.748	11330
912.862	11258
912.976	11124
913.09	11022
913.204	11052
913.318	11143
913.431	11189
913.545	11212
913.659	11242
913.772	11090
913.886	10930
914	10923
914.113	11109
914.226	11124
914.34	11094
914.453	10866
914.566	10972
914.68	10957
914.793	10911
914.906	10778
915.019	10656
915.132	10656
915.245	10683
915.358	10721
915.47	10767
915.583	10752
915.696	10778
915.809	10850
915.921	10892
916.034	10694
916.146	10656
916.259	10637
916.371	10714
916.483	10725
916.595	10660
916.708	10725
916.82	10687
916.932	10653
917.044	10710
917.156	10717
917.268	10527
917.38	10615
917.491	10527
917.603	10558
917.715	10634
917.826	10588
917.938	10596
918.049	10504
918.161	10519
918.272	10656
918.384	10683
918.495	10569
918.606	10421
918.717	10413
918.828	10535
918.939	10440
919.05	10333
919.161	10428
919.272	10188
919.383	10234
919.494	10516
919.604	10607
919.715	10485
919.826	10333
919.936	10375
920.047	10447
920.157	10451
920.267	10672
920.378	10489
920.488	10512
920.598	10573
920.708	10824
920.818	10641
920.928	10596
921.038	10858
921.148	10778
921.258	10478
921.368	10481
921.477	10314
921.587	10242
921.697	10097
921.806	10352
921.916	10124
922.025	10017
922.134	10025
922.244	9846
922.353	10010
922.462	9857
922.571	9800
922.68	9667
922.789	9625
922.898	9644
923.007	9641
923.116	9762
923.224	9675
923.333	9686
923.442	9568
923.55	9515
923.659	9538
923.767	9648
923.876	9485
923.984	9610
924.092	9485
924.201	9542
924.309	9511
924.417	9545
924.525	9462
924.633	9500
924.741	10386
924.849	9298
924.956	9511
925.064	9306
925.172	9207
925.279	9344
925.387	9306
925.494	9302
925.602	9424
925.709	9382
925.816	9245
925.924	9348
926.031	9447
926.138	9378
926.245	9325
926.352	9321
926.459	9389
926.566	9447
926.673	9298
926.779	9150
926.886	9211
926.993	9009
927.099	9013
927.206	8963
927.312	9009
927.419	9039
927.525	9047
927.631	9085
927.737	8967
927.843	8963
927.95	8758
928.056	8891
928.162	8948
928.267	8994
928.373	9622
928.479	9017
928.585	8762
928.69	8872
928.796	8956
928.901	8910
929.007	8629
929.112	8804
929.218	8796
929.323	8697
929.428	8781
929.533	8804
929.638	8625
929.743	8629
929.848	8727
929.953	8758
930.058	8571
930.163	8442
930.267	8488
930.372	8674
930.477	8465
930.581	8739
930.685	8564
930.79	8465
930.894	8465
930.998	8484
931.103	8541
931.207	8206
931.311	8119
931.415	8123
931.519	7925
931.623	7959
