Data from test_V78500241_3177.txt Node
Date: Fri Mar 25 14:55:50 CST 2022
User: usil
Spectrometer: V785-0024
Trigger mode: 0
Integration Time (sec): 4.000000E-1
Scans to average: 1
Nonlinearity correction enabled: false
Boxcar width: 0
Storing dark spectrum: false
XAxis mode: Wavelengths
Number of Pixels in Spectrum: 1024
>>>>>Begin Spectral Data<<<<<
801.071	22048
801.214	21964
801.356	21816
801.499	21618
801.641	21500
801.783	21424
801.926	21458
802.068	21351
802.211	21157
802.353	21214
802.496	21074
802.638	20883
802.78	20800
802.923	20899
803.065	20682
803.208	20655
803.35	20769
803.492	20834
803.635	20864
803.777	20769
803.919	20842
804.061	21062
804.204	20823
804.346	20705
804.488	20556
804.63	20777
804.773	20651
804.915	20663
805.057	20758
805.199	20587
805.341	20857
805.483	20705
805.626	20739
805.768	20636
805.91	20602
806.052	20575
806.194	20461
806.336	20712
806.478	20571
806.62	20590
806.762	20686
806.904	20891
807.046	21039
807.188	20986
807.33	21009
807.472	20990
807.614	20929
807.756	20785
807.898	20792
808.04	20777
808.182	20743
808.324	20701
808.465	20697
808.607	20929
808.749	20982
808.891	21043
809.033	21123
809.174	21036
809.316	20960
809.458	21100
809.6	20948
809.741	21127
809.883	21005
810.025	21047
810.166	21268
810.308	21119
810.45	21096
810.591	20921
810.733	20925
810.875	20754
811.016	20697
811.158	20720
811.299	20819
811.441	20990
811.582	20994
811.724	20739
811.865	20769
812.007	20636
812.148	20716
812.29	20785
812.431	20853
812.573	21074
812.714	21180
812.855	21386
812.997	21431
813.138	21538
813.279	21393
813.421	21310
813.562	21218
813.703	21017
813.845	21017
813.986	20598
814.127	20423
814.268	20484
814.41	20355
814.551	20244
814.692	20465
814.833	20206
814.974	20370
815.115	20290
815.256	20252
815.397	20092
815.539	20153
815.68	20046
815.821	20088
815.962	20107
816.103	20058
816.244	19879
816.385	19647
816.526	19700
816.666	19689
816.807	19525
816.948	19563
817.089	19559
817.23	19510
817.371	19434
817.512	19483
817.653	19403
817.793	19297
817.934	19472
818.075	19403
818.216	19415
818.356	19335
818.497	19343
818.638	19133
818.778	19183
818.919	19057
819.06	19042
819.2	19282
819.341	19381
819.481	19392
819.622	19521
819.762	19559
819.903	19624
820.043	19460
820.184	19468
820.324	19377
820.465	19415
820.605	19441
820.746	19346
820.886	19206
821.026	19373
821.167	19381
821.307	19426
821.447	19297
821.588	19206
821.728	19171
821.868	18943
822.008	18848
822.149	18817
822.289	18783
822.429	18570
822.569	18475
822.709	18517
822.849	18277
822.99	18292
823.13	18273
823.27	18323
823.41	18117
823.55	18114
823.69	18224
823.83	18049
823.97	18019
824.11	17828
824.25	17908
824.389	17893
824.529	17893
824.669	17961
824.809	17939
824.949	17931
825.089	17961
825.228	17874
825.368	17661
825.508	17627
825.648	17813
825.787	17680
825.927	17710
826.067	17573
826.206	17634
826.346	17733
826.485	17733
826.625	17695
826.765	17771
826.904	17672
827.044	17558
827.183	17387
827.323	17421
827.462	17433
827.601	17299
827.741	17376
827.88	17356
828.02	17178
828.159	17269
828.298	17444
828.437	17376
828.577	17311
828.716	17604
828.855	17326
828.994	17159
829.134	17033
829.273	17204
829.412	17022
829.551	17056
829.69	17048
829.829	17086
829.968	17200
830.107	17147
830.246	17136
830.385	17075
830.524	17037
830.663	16927
830.802	16740
830.941	16717
831.08	16702
831.219	16774
831.357	16740
831.496	16908
831.635	16664
831.774	16588
831.913	16637
832.051	16531
832.19	16516
832.329	16599
832.467	16531
832.606	16367
832.744	16424
832.883	16462
833.022	16409
833.16	16405
833.299	16409
833.437	16459
833.576	16527
833.714	16489
833.852	16459
833.991	16424
834.129	16512
834.267	16512
834.406	16436
834.544	16470
834.682	16390
834.821	16402
834.959	16615
835.097	16504
835.235	16584
835.373	16546
835.511	16462
835.65	16382
835.788	16417
835.926	16242
836.064	16200
836.202	16249
836.34	16421
836.478	16523
836.615	16295
836.753	16310
836.891	16512
837.029	16443
837.167	16363
837.305	16276
837.443	16299
837.58	16185
837.718	16280
837.856	16314
837.993	16166
838.131	16173
838.269	16143
838.406	16154
838.544	16048
838.681	15987
838.819	15972
838.956	15873
839.094	15797
839.231	15869
839.369	15930
839.506	16131
839.643	16010
839.781	15857
839.918	15774
840.055	15743
840.193	15759
840.33	15682
840.467	15827
840.604	15854
840.742	16025
840.879	15648
841.016	15694
841.153	15736
841.29	15850
841.427	15861
841.564	15857
841.701	15797
841.838	15823
841.975	15728
842.112	15717
842.249	15572
842.385	15420
842.522	15895
842.659	15652
842.796	15629
842.933	15561
843.069	15595
843.206	15561
843.343	15690
843.479	15542
843.616	15667
843.752	15340
843.889	15378
844.025	15443
844.162	15405
844.298	15473
844.435	15424
844.571	15340
844.708	15340
844.844	15473
844.98	15500
845.117	15428
845.253	15279
845.389	15287
845.525	15241
845.661	15279
845.798	15138
845.934	15241
846.07	15093
846.206	15245
846.342	15367
846.478	15169
846.614	15108
846.75	15017
846.886	14948
847.022	15017
847.158	15005
847.294	15009
847.429	14994
847.565	14937
847.701	15081
847.837	14739
847.972	14648
848.108	14697
848.244	14739
848.379	14530
848.515	14495
848.65	14454
848.786	14541
848.921	14659
849.057	14651
849.192	14587
849.328	14549
849.463	14579
849.598	14492
849.734	14423
849.869	14427
850.004	14377
850.14	14377
850.275	14290
850.41	14214
850.545	14244
850.68	14419
850.815	14259
850.95	14290
851.085	14511
851.22	14438
851.355	14404
851.49	14161
851.625	14214
851.76	14256
851.895	14161
852.03	14229
852.165	14256
852.299	14271
852.434	14400
852.569	14278
852.703	14317
852.838	14393
852.973	14495
853.107	14442
853.242	14229
853.376	14161
853.511	14142
853.645	14145
853.78	14355
853.914	14168
854.048	14107
854.183	14111
854.317	14187
854.451	14362
854.585	14145
854.72	14164
854.854	14267
854.988	14084
855.122	14176
855.256	14001
855.39	14115
855.524	14176
855.658	14164
855.792	14073
855.926	14240
856.06	14298
856.194	14309
856.327	14142
856.461	14142
856.595	14202
856.729	14092
856.862	14271
856.996	14214
857.13	14210
857.263	14210
857.397	14237
857.53	14134
857.664	14237
857.797	14301
857.931	14339
858.064	14180
858.197	14244
858.331	14153
858.464	14103
858.597	14103
858.731	14142
858.864	14142
858.997	14202
859.13	14271
859.263	14324
859.396	14305
859.529	14119
859.662	14134
859.795	14100
859.928	14164
860.061	14309
860.194	14336
860.327	14157
860.46	14199
860.592	14343
860.725	14294
860.858	14248
860.99	14240
861.123	14180
861.256	14073
861.388	14058
861.521	14933
861.653	14046
861.786	14020
861.918	14001
862.05	14142
862.183	14115
862.315	14161
862.447	14126
862.58	14058
862.712	13947
862.844	13890
862.976	14031
863.108	14035
863.24	14339
863.372	14081
863.504	13947
863.636	13944
863.768	13856
863.9	13986
864.032	13860
864.164	13986
864.296	13970
864.428	14054
864.559	14012
864.691	13986
864.823	14008
864.954	13986
865.086	13913
865.217	13864
865.349	13845
865.48	13890
865.612	13947
865.743	14077
865.875	13913
866.006	13879
866.137	13947
866.269	13970
866.4	13890
866.531	13909
866.662	13890
866.793	13811
866.924	13883
867.055	13909
867.186	13906
867.317	13837
867.448	13845
867.579	13936
867.71	13811
867.841	13959
867.972	13989
868.103	13890
868.233	13871
868.364	13951
868.495	13959
868.625	14103
868.756	14225
868.886	14088
869.017	14073
869.147	14320
869.278	14313
869.408	14161
869.539	14237
869.669	14240
869.799	14111
869.929	14328
870.06	14355
870.19	14602
870.32	14545
870.45	14564
870.58	14636
870.71	14659
870.84	14724
870.97	14568
871.1	14549
871.23	14845
871.36	14743
871.489	14594
871.619	14758
871.749	14701
871.879	14796
872.008	14975
872.138	14796
872.267	14743
872.397	14659
872.526	14632
872.656	14583
872.785	14651
872.915	14819
873.044	14883
873.173	14823
873.303	14845
873.432	14876
873.561	14944
873.69	14819
873.819	14868
873.948	14914
874.077	14880
874.206	14899
874.335	14868
874.464	14952
874.593	15116
874.722	15058
874.851	15184
874.979	15173
875.108	15195
875.237	15005
875.365	14982
875.494	15081
875.623	15184
875.751	15241
875.88	15264
876.008	15340
876.136	15439
876.265	15424
876.393	15728
876.521	15679
876.65	15759
876.778	15534
876.906	15576
877.034	15519
877.162	15587
877.29	15595
877.418	15496
877.546	15591
877.674	15599
877.802	15633
877.93	15538
878.058	15530
878.185	15447
878.313	15538
878.441	15515
878.568	15382
878.696	15564
878.824	15595
878.951	15648
879.079	15709
879.206	15876
879.333	15713
879.461	15736
879.588	15595
879.715	15686
879.842	15831
879.97	15724
880.097	15504
880.224	15500
880.351	15443
880.478	15447
880.605	15450
880.732	15462
880.859	15652
880.986	15477
881.112	15424
881.239	15313
881.366	15184
881.493	15165
881.619	15089
881.746	15135
881.872	15146
881.999	15020
882.125	15039
882.252	15051
882.378	15138
882.505	15237
882.631	15024
882.757	14906
882.883	14998
883.01	14975
883.136	14830
883.262	14735
883.388	14773
883.514	14891
883.64	14944
883.766	14849
883.892	14693
884.018	14697
884.143	14819
884.269	14902
884.395	14678
884.52	14621
884.646	14651
884.772	14499
884.897	14507
885.023	14560
885.148	14606
885.274	14682
885.399	14644
885.524	14617
885.65	14587
885.775	14613
885.9	14503
886.025	14731
886.15	14575
886.275	14518
886.4	14507
886.525	14514
886.65	14583
886.775	14556
886.9	14727
887.025	14887
887.149	14594
887.274	14419
887.399	14393
887.523	14355
887.648	14351
887.773	14366
887.897	14648
888.021	14541
888.146	14355
888.27	14518
888.395	14533
888.519	14541
888.643	14530
888.767	14518
888.891	14465
889.015	14324
889.139	14385
889.263	14210
889.387	14362
889.511	14511
889.635	14476
889.759	14332
889.883	14172
890.006	14309
890.13	14484
890.254	14317
890.377	14237
890.501	14130
890.624	14062
890.748	14145
890.871	14062
890.995	13879
891.118	13818
891.241	13989
891.364	14035
891.488	14103
891.611	14008
891.734	14012
891.857	14065
891.98	13944
892.103	14119
892.226	14073
892.349	13974
892.471	13879
892.594	14050
892.717	14103
892.839	13978
892.962	13989
893.085	14039
893.207	14024
893.33	13932
893.452	13909
893.575	14054
893.697	13978
893.819	14123
893.941	14191
894.064	14153
894.186	13898
894.308	13955
894.43	14161
894.552	14176
894.674	14229
894.796	13967
894.918	14005
895.04	14024
895.161	14202
895.283	14073
895.405	14031
895.526	13997
895.648	14218
895.769	14195
895.891	14221
896.012	14214
896.134	14142
896.255	14145
896.376	14050
896.498	14073
896.619	14206
896.74	14180
896.861	14214
896.982	14492
897.103	14636
897.224	14530
897.345	14419
897.466	14374
897.587	14419
897.708	14579
897.828	14438
897.949	14393
898.07	14290
898.19	14442
898.311	14499
898.431	14457
898.552	14610
898.672	14617
898.792	14606
898.913	14522
899.033	14415
899.153	14377
899.273	14271
899.393	14400
899.513	14442
899.633	14400
899.753	14488
899.873	14278
899.993	14495
900.113	14358
900.232	14419
900.352	14294
900.472	14183
900.591	14332
900.711	14282
900.83	14183
900.95	14442
901.069	14324
901.189	14123
901.308	13932
901.427	13883
901.546	13963
901.665	13989
901.784	13845
901.904	13875
902.023	13723
902.141	13540
902.26	13510
902.379	13556
902.498	13460
902.617	13422
902.735	13487
902.854	13495
902.973	13502
903.091	13247
903.21	13225
903.328	13282
903.446	13141
903.565	13133
903.683	13164
903.801	13065
903.919	13012
904.038	13008
904.156	12905
904.274	13012
904.392	12875
904.51	12810
904.627	12958
904.745	12894
904.863	12989
904.981	12665
905.098	12627
905.216	12578
905.334	12635
905.451	12593
905.569	12574
905.686	12608
905.803	12528
905.921	12467
906.038	12551
906.155	12365
906.272	12258
906.389	12277
906.506	12186
906.623	12216
906.74	12159
906.857	12091
906.974	12091
907.091	12232
907.208	12384
907.324	12277
907.441	12083
907.557	11897
907.674	11927
907.79	11946
907.907	11878
908.023	11904
908.139	11916
908.256	11851
908.372	11836
908.488	11813
908.604	11646
908.72	11665
908.836	11649
908.952	11707
909.068	11680
909.184	11821
909.3	11661
909.415	11771
909.531	11539
909.647	11478
909.762	11486
909.878	11368
909.993	11501
910.108	11383
910.224	11444
910.339	11402
910.454	11330
910.57	11273
910.685	11288
910.8	11543
910.915	11410
911.03	11311
911.145	11166
911.259	11117
911.374	11212
911.489	10957
911.604	11025
911.718	10923
911.833	10900
911.947	10828
912.062	10721
912.176	10900
912.291	10858
912.405	10900
912.519	11121
912.633	11132
912.748	10942
912.862	10938
912.976	10736
913.09	10641
913.204	10774
913.318	10835
913.431	10824
913.545	10957
913.659	10904
913.772	10774
913.886	10691
914	10607
914.113	10752
914.226	10752
914.34	10717
914.453	10622
914.566	10721
914.68	10702
914.793	10660
914.906	10489
915.019	10382
915.132	10379
915.245	10447
915.358	10405
915.47	10493
915.583	10478
915.696	10459
915.809	10569
915.921	10584
916.034	10333
916.146	10398
916.259	10382
916.371	10485
916.483	10516
916.595	10314
916.708	10322
916.82	10329
916.932	10344
917.044	10405
917.156	10329
917.268	10238
917.38	10287
917.491	10246
917.603	10246
917.715	10428
917.826	10447
917.938	10287
918.049	10253
918.161	10318
918.272	10432
918.384	10447
918.495	10314
918.606	10268
918.717	10105
918.828	10150
918.939	10169
919.05	10051
919.161	10162
919.272	9991
919.383	10090
919.494	10223
919.604	10356
919.715	10227
919.826	10116
919.936	10120
920.047	10295
920.157	10185
920.267	10424
920.378	10215
920.488	10154
920.598	10363
920.708	10538
920.818	10405
920.928	10398
921.038	10577
921.148	10485
921.258	10219
921.368	10261
921.477	10082
921.587	10063
921.697	9876
921.806	10029
921.916	9983
922.025	9785
922.134	9819
922.244	9682
922.353	9762
922.462	9644
922.571	9599
922.68	9500
922.789	9389
922.898	9504
923.007	9370
923.116	9504
923.224	9443
923.333	9408
923.442	9412
923.55	9363
923.659	9310
923.767	9370
923.876	9310
923.984	9408
924.092	9222
924.201	9332
924.309	9332
924.417	9268
924.525	9283
924.633	9275
924.741	10158
924.849	9085
924.956	9313
925.064	9070
925.172	9024
925.279	9077
925.387	9199
925.494	9142
925.602	9157
925.709	9222
925.816	9070
925.924	9066
926.031	9195
926.138	9123
926.245	9157
926.352	9047
926.459	9188
926.566	9119
926.673	9013
926.779	8998
926.886	8948
926.993	8883
927.099	8815
927.206	8746
927.312	8758
927.419	8921
927.525	8880
927.631	8842
927.737	8712
927.843	8663
927.95	8606
928.056	8708
928.162	8788
928.267	8849
928.373	9325
928.479	8819
928.585	8610
928.69	8724
928.796	8815
928.901	8621
929.007	8511
929.112	8693
929.218	8659
929.323	8594
929.428	8552
929.533	8674
929.638	8423
929.743	8522
929.848	8545
929.953	8522
930.058	8385
930.163	8279
930.267	8347
930.372	8423
930.477	8271
930.581	8480
930.685	8412
930.79	8210
930.894	8256
930.998	8267
931.103	8366
931.207	8069
931.311	7955
931.415	7940
931.519	7757
931.623	7776
