Data from test_V78500241_392.txt Node
Date: Fri Mar 25 14:36:27 CST 2022
User: usil
Spectrometer: V785-0024
Trigger mode: 0
Integration Time (sec): 4.000000E-1
Scans to average: 1
Nonlinearity correction enabled: false
Boxcar width: 0
Storing dark spectrum: false
XAxis mode: Wavelengths
Number of Pixels in Spectrum: 1024
>>>>>Begin Spectral Data<<<<<
801.071	26750
801.214	26640
801.356	26461
801.499	26301
801.641	26153
801.783	26008
801.926	26020
802.068	26119
802.211	25928
802.353	26043
802.496	25921
802.638	25738
802.78	25635
802.923	25750
803.065	25567
803.208	25613
803.35	25696
803.492	25788
803.635	25731
803.777	25658
803.919	25750
804.061	25963
804.204	25753
804.346	25605
804.488	25620
804.63	25624
804.773	25601
804.915	25723
805.057	25727
805.199	25628
805.341	25578
805.483	25723
805.626	25658
805.768	25639
805.91	25635
806.052	25609
806.194	25594
806.336	25822
806.478	25658
806.62	25666
806.762	25814
806.904	25989
807.046	26172
807.188	26024
807.33	26043
807.472	26054
807.614	25909
807.756	25959
807.898	25864
808.04	25845
808.182	25776
808.324	25746
808.465	25784
808.607	26088
808.749	26073
808.891	26248
809.033	26465
809.174	26309
809.316	26210
809.458	26206
809.6	26202
809.741	26259
809.883	26210
810.025	26415
810.166	26396
810.308	26351
810.45	26313
810.591	26278
810.733	26096
810.875	26088
811.016	26016
811.158	25841
811.299	26103
811.441	26157
811.582	25966
811.724	26031
811.865	26161
812.007	26103
812.148	25993
812.29	26168
812.431	26126
812.573	26275
812.714	26320
812.855	26434
812.997	26720
813.138	26644
813.279	26522
813.421	26564
813.562	26362
813.703	26339
813.845	26290
813.986	25868
814.127	25833
814.268	25544
814.41	25567
814.551	25578
814.692	25670
814.833	25453
814.974	25586
815.115	25430
815.256	25335
815.397	25384
815.539	25487
815.68	25365
815.821	25320
815.962	25392
816.103	25392
816.244	25190
816.385	24939
816.526	25118
816.666	24810
816.807	24623
816.948	24665
817.089	24935
817.23	24692
817.371	24700
817.512	24749
817.653	24639
817.793	24658
817.934	24692
818.075	24738
818.216	24604
818.356	24673
818.497	24559
818.638	24380
818.778	24384
818.919	24399
819.06	24452
819.2	24498
819.341	24635
819.481	24650
819.622	24623
819.762	24928
819.903	24741
820.043	24821
820.184	24677
820.324	24806
820.465	24772
820.605	24738
820.746	24650
820.886	24544
821.026	24703
821.167	24528
821.307	24627
821.447	24593
821.588	24521
821.728	24483
821.868	24224
822.008	24038
822.149	23992
822.289	23946
822.429	23714
822.569	23824
822.709	23729
822.849	23570
822.99	23524
823.13	23421
823.27	23421
823.41	23292
823.55	23265
823.69	23353
823.83	23246
823.97	23174
824.11	23151
824.25	23029
824.389	23056
824.529	23140
824.669	23079
824.809	23147
824.949	23151
825.089	23124
825.228	23117
825.368	22820
825.508	22858
825.648	22889
825.787	22953
825.927	22828
826.067	22915
826.206	22801
826.346	22911
826.485	22919
826.625	22839
826.765	22911
826.904	22778
827.044	22546
827.183	22500
827.323	22527
827.462	22584
827.601	22512
827.741	22531
827.88	22649
828.02	22432
828.159	22367
828.298	22546
828.437	22519
828.577	22409
828.716	22569
828.855	22352
828.994	22299
829.134	22215
829.273	22166
829.412	22192
829.551	22200
829.69	22196
829.829	22162
829.968	22284
830.107	22352
830.246	22246
830.385	22200
830.524	22082
830.663	22048
830.802	21835
830.941	21720
831.08	21762
831.219	21827
831.357	21869
831.496	22017
831.635	21705
831.774	21648
831.913	21587
832.051	21549
832.19	21458
832.329	21656
832.467	21641
832.606	21325
832.744	21321
832.883	21374
833.022	21363
833.16	21386
833.299	21412
833.437	21382
833.576	21431
833.714	21359
833.852	21466
833.991	21572
834.129	21542
834.267	21576
834.406	21439
834.544	21488
834.682	21344
834.821	21298
834.959	21648
835.097	21344
835.235	21435
835.373	21397
835.511	21424
835.65	21317
835.788	21306
835.926	21116
836.064	21165
836.202	21176
836.34	21291
836.478	21378
836.615	21237
836.753	21313
836.891	21275
837.029	21260
837.167	21199
837.305	21192
837.443	21146
837.58	21081
837.718	21195
837.856	21032
837.993	21051
838.131	21123
838.269	21051
838.406	21074
838.544	21001
838.681	20819
838.819	20727
838.956	20632
839.094	20655
839.231	20609
839.369	20743
839.506	20910
839.643	20887
839.781	20648
839.918	20549
840.055	20495
840.193	20488
840.33	20511
840.467	20556
840.604	20446
840.742	20762
840.879	20259
841.016	20454
841.153	20484
841.29	20617
841.427	20511
841.564	20423
841.701	20484
841.838	20404
841.975	20389
842.112	20324
842.249	20237
842.385	20301
842.522	20469
842.659	20259
842.796	20161
842.933	20115
843.069	20183
843.206	20183
843.343	20256
843.479	20187
843.616	20210
843.752	20001
843.889	20069
844.025	20088
844.162	19932
844.298	20115
844.435	19951
844.571	19932
844.708	19993
844.844	20176
844.98	20138
845.117	20115
845.253	19936
845.389	19776
845.525	19887
845.661	19837
845.798	19803
845.934	19856
846.07	19856
846.206	19753
846.342	19928
846.478	19746
846.614	19609
846.75	19476
846.886	19464
847.022	19457
847.158	19537
847.294	19487
847.429	19457
847.565	19350
847.701	19578
847.837	19206
847.972	19164
848.108	19247
848.244	19179
848.379	19012
848.515	19000
848.65	18981
848.786	18814
848.921	19023
849.057	19034
849.192	19084
849.328	19088
849.463	19069
849.598	19072
849.734	18905
849.869	18894
850.004	18833
850.14	18749
850.275	18738
850.41	18681
850.545	18741
850.68	18817
850.815	18802
850.95	18715
851.085	18924
851.22	18787
851.355	18833
851.49	18692
851.625	18616
851.76	18661
851.895	18555
852.03	18525
852.165	18700
852.299	18821
852.434	18844
852.569	18764
852.703	18654
852.838	18875
852.973	18890
853.107	18795
853.242	18700
853.376	18677
853.511	18429
853.645	18494
853.78	18738
853.914	18536
854.048	18513
854.183	18540
854.317	18654
854.451	18753
854.585	18597
854.72	18521
854.854	18620
854.988	18513
855.122	18627
855.256	18315
855.39	18612
855.524	18616
855.658	18715
855.792	18612
855.926	18722
856.06	18597
856.194	18608
856.327	18654
856.461	18502
856.595	18464
856.729	18483
856.862	18734
856.996	18521
857.13	18707
857.263	18772
857.397	18764
857.53	18414
857.664	18677
857.797	18642
857.931	18741
858.064	18627
858.197	18741
858.331	18479
858.464	18601
858.597	18452
858.731	18498
858.864	18441
858.997	18513
859.13	18475
859.263	18620
859.396	18547
859.529	18536
859.662	18441
859.795	18521
859.928	18467
860.061	18661
860.194	18646
860.327	18528
860.46	18467
860.592	18700
860.725	18646
860.858	18608
860.99	18460
861.123	18365
861.256	18357
861.388	18566
861.521	19137
861.653	18372
861.786	18292
861.918	18410
862.05	18407
862.183	18525
862.315	18566
862.447	18559
862.58	18479
862.712	18300
862.844	18262
862.976	18323
863.108	18323
863.24	18570
863.372	18277
863.504	18323
863.636	18258
863.768	18342
863.9	18273
864.032	18148
864.164	18186
864.296	18270
864.428	18315
864.559	18361
864.691	18285
864.823	18262
864.954	18235
865.086	18300
865.217	18213
865.349	18076
865.48	18174
865.612	18254
865.743	18273
865.875	18091
866.006	18133
866.137	18174
866.269	18098
866.4	18148
866.531	18209
866.662	18091
866.793	18041
866.924	18117
867.055	18209
867.186	18015
867.317	18117
867.448	18083
867.579	18079
867.71	18015
867.841	17973
867.972	18133
868.103	18144
868.233	18148
868.364	18098
868.495	18285
868.625	18232
868.756	18441
868.886	18216
869.017	18308
869.147	18467
869.278	18388
869.408	18429
869.539	18334
869.669	18350
869.799	18369
869.929	18384
870.06	18391
870.19	18566
870.32	18642
870.45	18589
870.58	18703
870.71	18783
870.84	18791
870.97	18745
871.1	18620
871.23	18916
871.36	19027
871.489	18856
871.619	18916
871.749	18859
871.879	18863
872.008	19065
872.138	18958
872.267	19008
872.397	18852
872.526	18768
872.656	18825
872.785	18768
872.915	18935
873.044	18954
873.173	18939
873.303	18947
873.432	19107
873.561	19038
873.69	19008
873.819	18947
873.948	19099
874.077	18932
874.206	18928
874.335	18996
874.464	19034
874.593	19206
874.722	19133
874.851	19221
874.979	19202
875.108	19289
875.237	19236
875.365	19069
875.494	19209
875.623	19270
875.751	19221
875.88	19285
876.008	19369
876.136	19483
876.265	19620
876.393	19719
876.521	19647
876.65	19731
876.778	19620
876.906	19620
877.034	19529
877.162	19662
877.29	19544
877.418	19727
877.546	19537
877.674	19616
877.802	19651
877.93	19613
878.058	19567
878.185	19438
878.313	19597
878.441	19540
878.568	19369
878.696	19590
878.824	19700
878.951	19624
879.079	19776
879.206	19955
879.333	19871
879.461	19685
879.588	19677
879.715	19822
879.842	19879
879.97	19826
880.097	19449
880.224	19438
880.351	19362
880.478	19411
880.605	19472
880.732	19499
880.859	19784
880.986	19468
881.112	19525
881.239	19377
881.366	19266
881.493	19217
881.619	18951
881.746	19046
881.872	19065
881.999	19107
882.125	19065
882.252	19171
882.378	19099
882.505	19209
882.631	19076
882.757	18916
882.883	18970
883.01	18905
883.136	18859
883.262	18700
883.388	18654
883.514	18840
883.64	18928
883.766	18867
883.892	18623
884.018	18661
884.143	18681
884.269	18966
884.395	18707
884.52	18490
884.646	18494
884.772	18441
884.897	18388
885.023	18582
885.148	18566
885.274	18715
885.399	18635
885.524	18483
885.65	18483
885.775	18506
885.9	18559
886.025	18631
886.15	18559
886.275	18395
886.4	18365
886.525	18388
886.65	18464
886.775	18365
886.9	18658
887.025	18734
887.149	18483
887.274	18388
887.399	18304
887.523	18197
887.648	18361
887.773	18209
887.897	18304
888.021	18277
888.146	18342
888.27	18426
888.395	18388
888.519	18338
888.643	18251
888.767	18247
888.891	18030
889.015	18136
889.139	18133
889.263	18152
889.387	18197
889.511	18262
889.635	18148
889.759	18068
889.883	18041
890.006	18167
890.13	18163
890.254	17946
890.377	17965
890.501	17885
890.624	17821
890.748	17931
890.871	17726
890.995	17668
891.118	17707
891.241	17722
891.364	17703
891.488	17885
891.611	17638
891.734	17703
891.857	17710
891.98	17672
892.103	17821
892.226	17687
892.349	17661
892.471	17471
892.594	17592
892.717	17646
892.839	17562
892.962	17745
893.085	17726
893.207	17630
893.33	17585
893.452	17566
893.575	17745
893.697	17581
893.819	17828
893.941	17874
894.064	17764
894.186	17623
894.308	17680
894.43	17695
894.552	17843
894.674	17790
894.796	17509
894.918	17703
895.04	17615
895.161	17748
895.283	17707
895.405	17592
895.526	17630
895.648	17661
895.769	17699
895.891	17745
896.012	17786
896.134	17802
896.255	17718
896.376	17665
896.498	17707
896.619	17760
896.74	17798
896.861	17722
896.982	18007
897.103	18224
897.224	18087
897.345	18064
897.466	17908
897.587	17923
897.708	18053
897.828	18045
897.949	17942
898.07	17813
898.19	17893
898.311	17954
898.431	17870
898.552	17954
898.672	18026
898.792	17908
898.913	18019
899.033	17859
899.153	17745
899.273	17646
899.393	17741
899.513	17764
899.633	17722
899.753	17707
899.873	17687
899.993	17821
900.113	17703
900.232	17745
900.352	17619
900.472	17577
900.591	17505
900.711	17581
900.83	17490
900.95	17676
901.069	17649
901.189	17512
901.308	17318
901.427	17227
901.546	17204
901.665	17189
901.784	17242
901.904	17067
902.023	17064
902.141	16828
902.26	16771
902.379	16706
902.498	16656
902.617	16710
902.735	16687
902.854	16626
902.973	16637
903.091	16466
903.21	16424
903.328	16432
903.446	16242
903.565	16169
903.683	16249
903.801	16188
903.919	16242
904.038	16082
904.156	16006
904.274	16029
904.392	15991
904.51	16013
904.627	15975
904.745	16139
904.863	16051
904.981	15835
905.098	15717
905.216	15641
905.334	15667
905.451	15637
905.569	15606
905.686	15709
905.803	15614
905.921	15462
906.038	15584
906.155	15393
906.272	15386
906.389	15298
906.506	15226
906.623	15157
906.74	15283
906.857	15077
906.974	15173
907.091	15382
907.208	15298
907.324	15161
907.441	15116
907.557	14929
907.674	14868
907.79	14849
907.907	14765
908.023	14906
908.139	14880
908.256	14819
908.372	14815
908.488	14754
908.604	14640
908.72	14648
908.836	14602
908.952	14670
909.068	14629
909.184	14667
909.3	14610
909.415	14606
909.531	14575
909.647	14419
909.762	14286
909.878	14267
909.993	14332
910.108	14358
910.224	14305
910.339	14408
910.454	14199
910.57	14134
910.685	14142
910.8	14431
910.915	14370
911.03	14149
911.145	14024
911.259	13982
911.374	13921
911.489	13879
911.604	13856
911.718	13685
911.833	13738
911.947	13670
912.062	13514
912.176	13750
912.291	13788
912.405	13727
912.519	13913
912.633	13909
912.748	13677
912.862	13685
912.976	13483
913.09	13392
913.204	13422
913.318	13582
913.431	13708
913.545	13639
913.659	13666
913.772	13506
913.886	13407
914	13381
914.113	13563
914.226	13544
914.34	13392
914.453	13297
914.566	13460
914.68	13297
914.793	13228
914.906	13095
915.019	13023
915.132	12924
915.245	13023
915.358	13042
915.47	13069
915.583	13065
915.696	13133
915.809	13129
915.921	13175
916.034	13015
916.146	12920
916.259	12924
916.371	13004
916.483	13027
916.595	12833
916.708	12913
916.82	12905
916.932	12886
917.044	12840
917.156	12806
917.268	12783
917.38	12791
917.491	12722
917.603	12878
917.715	12856
917.826	12795
917.938	12745
918.049	12616
918.161	12730
918.272	12825
918.384	12890
918.495	12776
918.606	12696
918.717	12483
918.828	12692
918.939	12696
919.05	12525
919.161	12563
919.272	12410
919.383	12464
919.494	12593
919.604	12703
919.715	12589
919.826	12483
919.936	12616
920.047	12593
920.157	12551
920.267	12779
920.378	12555
920.488	12547
920.598	12715
920.708	12890
920.818	12620
920.928	12688
921.038	12882
921.148	12760
921.258	12513
921.368	12429
921.477	12388
921.587	12308
921.697	12285
921.806	12285
921.916	12186
922.025	12098
922.134	12034
922.244	11950
922.353	12034
922.462	11988
922.571	11828
922.68	11752
922.789	11634
922.898	11630
923.007	11684
923.116	11748
923.224	11684
923.333	11577
923.442	11528
923.55	11478
923.659	11589
923.767	11543
923.876	11490
923.984	11558
924.092	11372
924.201	11509
924.309	11463
924.417	11493
924.525	11341
924.633	11406
924.741	12315
924.849	11178
924.956	11402
925.064	11220
925.172	11166
925.279	11212
925.387	11227
925.494	11265
925.602	11383
925.709	11318
925.816	11155
925.924	11136
926.031	11223
926.138	11140
926.245	11208
926.352	11151
926.459	11250
926.566	11280
926.673	11201
926.779	10984
926.886	10991
926.993	10881
927.099	10869
927.206	10767
927.312	10797
927.419	10858
927.525	10839
927.631	10824
927.737	10748
927.843	10668
927.95	10683
928.056	10645
928.162	10721
928.267	10748
928.373	11410
928.479	10790
928.585	10542
928.69	10645
928.796	10675
928.901	10554
929.007	10459
929.112	10630
929.218	10546
929.323	10462
929.428	10428
929.533	10538
929.638	10363
929.743	10436
929.848	10451
929.953	10333
930.058	10265
930.163	10124
930.267	10200
930.372	10363
930.477	10128
930.581	10432
930.685	10177
930.79	10013
930.894	10105
930.998	10006
931.103	10139
931.207	9827
931.311	9698
931.415	9701
931.519	9564
931.623	9458
