Data from test_V78500241_3652.txt Node
Date: Fri Mar 25 14:59:08 CST 2022
User: usil
Spectrometer: V785-0024
Trigger mode: 0
Integration Time (sec): 4.000000E-1
Scans to average: 1
Nonlinearity correction enabled: false
Boxcar width: 0
Storing dark spectrum: false
XAxis mode: Wavelengths
Number of Pixels in Spectrum: 1024
>>>>>Begin Spectral Data<<<<<
801.071	21979
801.214	21922
801.356	21595
801.499	21397
801.641	21363
801.783	21340
801.926	21325
802.068	21245
802.211	21310
802.353	21203
802.496	20895
802.638	20792
802.78	20720
802.923	20625
803.065	20568
803.208	20644
803.35	20651
803.492	20769
803.635	20815
803.777	20533
803.919	20689
804.061	21081
804.204	20667
804.346	20632
804.488	20533
804.63	20720
804.773	20526
804.915	20609
805.057	20530
805.199	20438
805.341	20625
805.483	20560
805.626	20659
805.768	20492
805.91	20655
806.052	20476
806.194	20313
806.336	20655
806.478	20431
806.62	20575
806.762	20693
806.904	20632
807.046	20933
807.188	20880
807.33	20842
807.472	20975
807.614	20785
807.756	20697
807.898	20674
808.04	20571
808.182	20541
808.324	20682
808.465	20739
808.607	20769
808.749	20868
808.891	20937
809.033	21066
809.174	20998
809.316	20895
809.458	20906
809.6	20883
809.741	20910
809.883	20982
810.025	20868
810.166	21020
810.308	21043
810.45	20811
810.591	20918
810.733	20758
810.875	20708
811.016	20625
811.158	20575
811.299	20686
811.441	20792
811.582	20731
811.724	20788
811.865	20530
812.007	20552
812.148	20663
812.29	20503
812.431	20724
812.573	20971
812.714	21055
812.855	21146
812.997	21332
813.138	21313
813.279	21245
813.421	21123
813.562	20994
813.703	20914
813.845	20750
813.986	20495
814.127	20358
814.268	20248
814.41	20248
814.551	20195
814.692	20229
814.833	20077
814.974	20221
815.115	20176
815.256	20168
815.397	20012
815.539	20157
815.68	19932
815.821	19875
815.962	19940
816.103	19906
816.244	19803
816.385	19662
816.526	19677
816.666	19483
816.807	19407
816.948	19499
817.089	19388
817.23	19419
817.371	19331
817.512	19426
817.653	19289
817.793	19331
817.934	19365
818.075	19297
818.216	19293
818.356	19285
818.497	19293
818.638	19069
818.778	19031
818.919	18985
819.06	19069
819.2	19095
819.341	19282
819.481	19247
819.622	19407
819.762	19472
819.903	19457
820.043	19396
820.184	19247
820.324	19304
820.465	19301
820.605	19278
820.746	19217
820.886	19232
821.026	19190
821.167	19202
821.307	19358
821.447	19126
821.588	19053
821.728	19034
821.868	18913
822.008	18791
822.149	18688
822.289	18707
822.429	18456
822.569	18361
822.709	18391
822.849	18346
822.99	18167
823.13	18277
823.27	18110
823.41	18079
823.55	17954
823.69	18049
823.83	17969
823.97	17969
824.11	17885
824.25	17802
824.389	17813
824.529	17863
824.669	17729
824.809	17889
824.949	17912
825.089	17889
825.228	17756
825.368	17600
825.508	17532
825.648	17585
825.787	17726
825.927	17600
826.067	17486
826.206	17467
826.346	17551
826.485	17684
826.625	17581
826.765	17710
826.904	17600
827.044	17452
827.183	17265
827.323	17204
827.462	17246
827.601	17288
827.741	17246
827.88	17273
828.02	17223
828.159	17356
828.298	17254
828.437	17349
828.577	17239
828.716	17471
828.855	17288
828.994	17041
829.134	17064
829.273	16961
829.412	17018
829.551	16900
829.69	16934
829.829	17083
829.968	17003
830.107	17064
830.246	17006
830.385	16938
830.524	16953
830.663	16854
830.802	16755
830.941	16668
831.08	16626
831.219	16656
831.357	16736
831.496	16919
831.635	16683
831.774	16516
831.913	16546
832.051	16409
832.19	16402
832.329	16478
832.467	16371
832.606	16318
832.744	16284
832.883	16348
833.022	16196
833.16	16341
833.299	16303
833.437	16352
833.576	16508
833.714	16341
833.852	16432
833.991	16493
834.129	16554
834.267	16440
834.406	16360
834.544	16451
834.682	16466
834.821	16405
834.959	16569
835.097	16409
835.235	16558
835.373	16421
835.511	16379
835.65	16375
835.788	16284
835.926	16253
836.064	16124
836.202	16173
836.34	16348
836.478	16424
836.615	16451
836.753	16337
836.891	16390
837.029	16257
837.167	16291
837.305	16280
837.443	16173
837.58	16204
837.718	16204
837.856	16223
837.993	16059
838.131	16181
838.269	16158
838.406	16051
838.544	16032
838.681	15831
838.819	15953
838.956	15755
839.094	15713
839.231	15759
839.369	15880
839.506	16063
839.643	16013
839.781	15720
839.918	15663
840.055	15709
840.193	15633
840.33	15633
840.467	15766
840.604	15774
840.742	16051
840.879	15610
841.016	15595
841.153	15644
841.29	15808
841.427	15736
841.564	15705
841.701	15797
841.838	15724
841.975	15705
842.112	15698
842.249	15507
842.385	15549
842.522	15701
842.659	15584
842.796	15500
842.933	15473
843.069	15504
843.206	15458
843.343	15622
843.479	15625
843.616	15599
843.752	15313
843.889	15195
844.025	15386
844.162	15298
844.298	15302
844.435	15386
844.571	15321
844.708	15370
844.844	15526
844.98	15496
845.117	15439
845.253	15283
845.389	15233
845.525	15306
845.661	15211
845.798	15028
845.934	15154
846.07	15009
846.206	15161
846.342	15180
846.478	15024
846.614	14971
846.75	14830
846.886	14785
847.022	14956
847.158	14944
847.294	14830
847.429	14849
847.565	14876
847.701	15089
847.837	14583
847.972	14659
848.108	14807
848.244	14720
848.379	14518
848.515	14408
848.65	14518
848.786	14492
848.921	14514
849.057	14473
849.192	14541
849.328	14412
849.463	14568
849.598	14461
849.734	14454
849.869	14366
850.004	14317
850.14	14237
850.275	14309
850.41	14187
850.545	14039
850.68	14237
850.815	14218
850.95	14176
851.085	14400
851.22	14393
851.355	14324
851.49	14221
851.625	14206
851.76	14214
851.895	14088
852.03	14081
852.165	14298
852.299	14252
852.434	14374
852.569	14328
852.703	14282
852.838	14328
852.973	14457
853.107	14396
853.242	14172
853.376	14115
853.511	14035
853.645	14077
853.78	14282
853.914	14096
854.048	14077
854.183	14058
854.317	14221
854.451	14275
854.585	14050
854.72	14065
854.854	14248
854.988	14111
855.122	14050
855.256	13967
855.39	14043
855.524	14275
855.658	14149
855.792	14153
855.926	14183
856.06	14244
856.194	14199
856.327	14111
856.461	13997
856.595	13925
856.729	14073
856.862	14199
856.996	14206
857.13	14218
857.263	14206
857.397	14206
857.53	14168
857.664	14180
857.797	14237
857.931	14244
858.064	14119
858.197	14267
858.331	14164
858.464	14046
858.597	14020
858.731	14123
858.864	14073
858.997	14084
859.13	14202
859.263	14138
859.396	14183
859.529	14092
859.662	14092
859.795	14077
859.928	14111
860.061	14301
860.194	14389
860.327	14145
860.46	14153
860.592	14248
860.725	14195
860.858	14324
860.99	14100
861.123	14035
861.256	14043
861.388	14153
861.521	14720
861.653	14035
861.786	13913
861.918	14008
862.05	14096
862.183	14123
862.315	14024
862.447	14164
862.58	14050
862.712	13917
862.844	13932
862.976	13947
863.108	13883
863.24	14210
863.372	13799
863.504	13795
863.636	13875
863.768	14005
863.9	14024
864.032	13871
864.164	13852
864.296	13967
864.428	13978
864.559	14046
864.691	14058
864.823	13967
864.954	13917
865.086	13841
865.217	13860
865.349	13868
865.48	13864
865.612	13921
865.743	13997
865.875	13887
866.006	13890
866.137	13871
866.269	13883
866.4	13776
866.531	13826
866.662	13757
866.793	13917
866.924	13913
867.055	13879
867.186	13986
867.317	13902
867.448	13723
867.579	13875
867.71	13784
867.841	13830
867.972	13894
868.103	13860
868.233	13925
868.364	13944
868.495	14012
868.625	14134
868.756	14267
868.886	14069
869.017	14172
869.147	14187
869.278	14271
869.408	14111
869.539	14103
869.669	14183
869.799	14115
869.929	14259
870.06	14377
870.19	14408
870.32	14366
870.45	14495
870.58	14484
870.71	14613
870.84	14587
870.97	14503
871.1	14571
871.23	14727
871.36	14743
871.489	14629
871.619	14743
871.749	14743
871.879	14765
872.008	14914
872.138	14712
872.267	14708
872.397	14610
872.526	14495
872.656	14537
872.785	14587
872.915	14769
873.044	14853
873.173	14769
873.303	14845
873.432	14902
873.561	14815
873.69	14785
873.819	14720
873.948	14845
874.077	14773
874.206	14785
874.335	14830
874.464	14857
874.593	15001
874.722	15005
874.851	15199
874.979	15119
875.108	15097
875.237	15020
875.365	14998
875.494	15077
875.623	15230
875.751	15039
875.88	15123
876.008	15161
876.136	15287
876.265	15542
876.393	15629
876.521	15587
876.65	15534
876.778	15584
876.906	15595
877.034	15439
877.162	15523
877.29	15473
877.418	15500
877.546	15477
877.674	15572
877.802	15401
877.93	15530
878.058	15458
878.185	15424
878.313	15408
878.441	15523
878.568	15260
878.696	15458
878.824	15580
878.951	15606
879.079	15679
879.206	15762
879.333	15717
879.461	15564
879.588	15553
879.715	15736
879.842	15759
879.97	15511
880.097	15359
880.224	15287
880.351	15374
880.478	15397
880.605	15302
880.732	15420
880.859	15614
880.986	15428
881.112	15389
881.239	15294
881.366	15112
881.493	15085
881.619	15013
881.746	14941
881.872	15058
881.999	15108
882.125	14921
882.252	15062
882.378	15127
882.505	15138
882.631	14986
882.757	14899
882.883	14891
883.01	14838
883.136	14743
883.262	14826
883.388	14674
883.514	14819
883.64	14857
883.766	14697
883.892	14674
884.018	14621
884.143	14765
884.269	14941
884.395	14598
884.52	14560
884.646	14621
884.772	14511
884.897	14526
885.023	14598
885.148	14701
885.274	14640
885.399	14731
885.524	14705
885.65	14651
885.775	14602
885.9	14693
886.025	14705
886.15	14625
886.275	14499
886.4	14552
886.525	14587
886.65	14495
886.775	14507
886.9	14750
887.025	14796
887.149	14541
887.274	14412
887.399	14259
887.523	14336
887.648	14389
887.773	14313
887.897	14503
888.021	14389
888.146	14275
888.27	14476
888.395	14514
888.519	14454
888.643	14454
888.767	14370
888.891	14259
889.015	14229
889.139	14298
889.263	14134
889.387	14320
889.511	14393
889.635	14393
889.759	14278
889.883	14214
890.006	14320
890.13	14313
890.254	14107
890.377	14244
890.501	13997
890.624	14005
890.748	14183
890.871	13959
890.995	13955
891.118	13868
891.241	13982
891.364	13871
891.488	14008
891.611	13974
891.734	13986
891.857	14012
891.98	14016
892.103	14065
892.226	14024
892.349	13906
892.471	13772
892.594	13921
892.717	13936
892.839	13894
892.962	13909
893.085	13989
893.207	13940
893.33	13852
893.452	13830
893.575	14046
893.697	13940
893.819	14142
893.941	14142
894.064	14069
894.186	13898
894.308	13909
894.43	14138
894.552	14240
894.674	14119
894.796	13951
894.918	14016
895.04	13967
895.161	14092
895.283	14096
895.405	14073
895.526	14111
895.648	14153
895.769	14103
895.891	14187
896.012	14157
896.134	14126
896.255	14134
896.376	14123
896.498	14043
896.619	14119
896.74	14100
896.861	14195
896.982	14469
897.103	14507
897.224	14469
897.345	14431
897.466	14317
897.587	14366
897.708	14514
897.828	14469
897.949	14442
898.07	14263
898.19	14343
898.311	14511
898.431	14385
898.552	14446
898.672	14621
898.792	14533
898.913	14583
899.033	14389
899.153	14404
899.273	14278
899.393	14252
899.513	14275
899.633	14336
899.753	14336
899.873	14275
899.993	14396
900.113	14267
900.232	14476
900.352	14317
900.472	14317
900.591	14237
900.711	14157
900.83	14123
900.95	14362
901.069	14290
901.189	14180
901.308	13913
901.427	13814
901.546	13917
901.665	13864
901.784	13879
901.904	13734
902.023	13742
902.141	13601
902.26	13392
902.379	13571
902.498	13483
902.617	13449
902.735	13483
902.854	13453
902.973	13403
903.091	13175
903.21	13099
903.328	13137
903.446	13091
903.565	13031
903.683	13046
903.801	12943
903.919	12939
904.038	12989
904.156	12806
904.274	12894
904.392	12817
904.51	12905
904.627	12814
904.745	12833
904.863	12875
904.981	12566
905.098	12479
905.216	12513
905.334	12547
905.451	12532
905.569	12441
905.686	12597
905.803	12578
905.921	12407
906.038	12467
906.155	12357
906.272	12277
906.389	12289
906.506	12117
906.623	12163
906.74	12175
906.857	11980
906.974	12049
907.091	12091
907.208	12247
907.324	12209
907.441	12121
907.557	11942
907.674	11916
907.79	11794
907.907	11824
908.023	11946
908.139	11942
908.256	11889
908.372	11805
908.488	11653
908.604	11623
908.72	11539
908.836	11718
908.952	11589
909.068	11634
909.184	11798
909.3	11562
909.415	11604
909.531	11573
909.647	11395
909.762	11341
909.878	11398
909.993	11417
910.108	11452
910.224	11387
910.339	11376
910.454	11379
910.57	11235
910.685	11212
910.8	11440
910.915	11406
911.03	11288
911.145	11113
911.259	11045
911.374	11090
911.489	11071
911.604	11003
911.718	10862
911.833	10816
911.947	10816
912.062	10702
912.176	10782
912.291	10873
912.405	10858
912.519	11060
912.633	11117
912.748	10938
912.862	10961
912.976	10744
913.09	10630
913.204	10706
913.318	10717
913.431	10828
913.545	10873
913.659	10824
913.772	10767
913.886	10649
914	10618
914.113	10698
914.226	10809
914.34	10672
914.453	10569
914.566	10710
914.68	10637
914.793	10588
914.906	10447
915.019	10379
915.132	10295
915.245	10325
915.358	10360
915.47	10379
915.583	10424
915.696	10409
915.809	10459
915.921	10603
916.034	10318
916.146	10352
916.259	10280
916.371	10375
916.483	10485
916.595	10405
916.708	10287
916.82	10394
916.932	10284
917.044	10242
917.156	10284
917.268	10207
917.38	10166
917.491	10166
917.603	10276
917.715	10276
917.826	10344
917.938	10211
918.049	10025
918.161	10207
918.272	10337
918.384	10379
918.495	10333
918.606	10086
918.717	10063
918.828	10120
918.939	10044
919.05	9987
919.161	10101
919.272	9888
919.383	9960
919.494	10139
919.604	10276
919.715	10166
919.826	10090
919.936	10074
920.047	10143
920.157	10109
920.267	10265
920.378	10143
920.488	10090
920.598	10265
920.708	10504
920.818	10257
920.928	10238
921.038	10523
921.148	10504
921.258	10120
921.368	10006
921.477	9934
921.587	9945
921.697	9823
921.806	9991
921.916	9884
922.025	9789
922.134	9778
922.244	9610
922.353	9732
922.462	9561
922.571	9519
922.68	9374
922.789	9355
922.898	9370
923.007	9348
923.116	9397
923.224	9370
923.333	9363
923.442	9348
923.55	9237
923.659	9253
923.767	9329
923.876	9272
923.984	9264
924.092	9207
924.201	9226
924.309	9321
924.417	9211
924.525	9184
924.633	9169
924.741	10025
924.849	8933
924.956	9146
925.064	9104
925.172	8864
925.279	9013
925.387	8994
925.494	9005
925.602	9093
925.709	9116
925.816	9013
925.924	8994
926.031	9093
926.138	9070
926.245	9150
926.352	8967
926.459	9081
926.566	9131
926.673	8967
926.779	8872
926.886	8857
926.993	8788
927.099	8868
927.206	8610
927.312	8701
927.419	8746
927.525	8766
927.631	8838
927.737	8674
927.843	8632
927.95	8507
928.056	8636
928.162	8640
928.267	8678
928.373	9165
928.479	8739
928.585	8507
928.69	8610
928.796	8625
928.901	8575
929.007	8450
929.112	8533
929.218	8583
929.323	8469
929.428	8389
929.533	8613
929.638	8404
929.743	8454
929.848	8526
929.953	8408
930.058	8358
930.163	8187
930.267	8237
930.372	8317
930.477	8206
930.581	8476
930.685	8275
930.79	8134
930.894	8145
930.998	8157
931.103	8240
931.207	8008
931.311	7906
931.415	7860
931.519	7655
931.623	7670
