Data from test_V78500241_1415.txt Node
Date: Fri Mar 25 14:43:34 CST 2022
User: usil
Spectrometer: V785-0024
Trigger mode: 0
Integration Time (sec): 4.000000E-1
Scans to average: 1
Nonlinearity correction enabled: false
Boxcar width: 0
Storing dark spectrum: false
XAxis mode: Wavelengths
Number of Pixels in Spectrum: 1024
>>>>>Begin Spectral Data<<<<<
801.071	22462
801.214	22436
801.356	22048
801.499	22002
801.641	21789
801.783	21838
801.926	21930
802.068	21701
802.211	21606
802.353	21564
802.496	21306
802.638	21363
802.78	21336
802.923	21150
803.065	21100
803.208	21184
803.35	21058
803.492	21207
803.635	21336
803.777	21051
803.919	21161
804.061	21405
804.204	21157
804.346	20990
804.488	21077
804.63	21070
804.773	21043
804.915	21055
805.057	21096
805.199	21051
805.341	21226
805.483	21272
805.626	21195
805.768	21028
805.91	21005
806.052	21055
806.194	21039
806.336	21142
806.478	21077
806.62	21017
806.762	21214
806.904	21256
807.046	21587
807.188	21530
807.33	21458
807.472	21462
807.614	21237
807.756	21363
807.898	21386
808.04	21226
808.182	21325
808.324	21135
808.465	21370
808.607	21618
808.749	21690
808.891	21781
809.033	21835
809.174	21709
809.316	21770
809.458	21656
809.6	21572
809.741	21618
809.883	21648
810.025	21648
810.166	21705
810.308	21686
810.45	21656
810.591	21439
810.733	21424
810.875	21340
811.016	21241
811.158	21165
811.299	21374
811.441	21363
811.582	21321
811.724	21294
811.865	21230
812.007	21264
812.148	21298
812.29	21294
812.431	21359
812.573	21709
812.714	21545
812.855	21762
812.997	21842
813.138	21964
813.279	21686
813.421	21717
813.562	21599
813.703	21481
813.845	21458
813.986	21150
814.127	20986
814.268	20960
814.41	20872
814.551	20758
814.692	20910
814.833	20861
814.974	20727
815.115	20746
815.256	20530
815.397	20697
815.539	20697
815.68	20568
815.821	20488
815.962	20644
816.103	20484
816.244	20275
816.385	20218
816.526	20199
816.666	20073
816.807	19887
816.948	20035
817.089	20058
817.23	19989
817.371	19963
817.512	19970
817.653	19868
817.793	19936
817.934	20008
818.075	20039
818.216	19890
818.356	19856
818.497	19696
818.638	19635
818.778	19719
818.919	19628
819.06	19780
819.2	19742
819.341	19696
819.481	19704
819.622	19940
819.762	20183
819.903	19932
820.043	20058
820.184	19921
820.324	19932
820.465	20024
820.605	19940
820.746	19860
820.886	19784
821.026	19807
821.167	19879
821.307	19913
821.447	19837
821.588	19685
821.728	19635
821.868	19373
822.008	19316
822.149	19324
822.289	19240
822.429	19110
822.569	18996
822.709	19012
822.849	18886
822.99	18852
823.13	18719
823.27	18726
823.41	18658
823.55	18597
823.69	18692
823.83	18722
823.97	18578
824.11	18327
824.25	18334
824.389	18441
824.529	18448
824.669	18448
824.809	18407
824.949	18536
825.089	18433
825.228	18357
825.368	18239
825.508	18121
825.648	18171
825.787	18194
825.927	18296
826.067	18098
826.206	18136
826.346	18258
826.485	18155
826.625	18182
826.765	18251
826.904	18197
827.044	17927
827.183	17931
827.323	17752
827.462	17882
827.601	17783
827.741	17859
827.88	18011
828.02	17771
828.159	17790
828.298	17863
828.437	17859
828.577	17821
828.716	17927
828.855	17840
828.994	17619
829.134	17585
829.273	17623
829.412	17532
829.551	17592
829.69	17596
829.829	17619
829.968	17813
830.107	17665
830.246	17649
830.385	17577
830.524	17471
830.663	17459
830.802	17372
830.941	17159
831.08	17299
831.219	17372
831.357	17296
831.496	17467
831.635	17223
831.774	17014
831.913	17113
832.051	17056
832.19	17014
832.329	17094
832.467	16881
832.606	16854
832.744	16866
832.883	16911
833.022	16919
833.16	16908
833.299	17090
833.437	16953
833.576	16938
833.714	16987
833.852	16987
833.991	17041
834.129	17079
834.267	16987
834.406	16957
834.544	17010
834.682	16942
834.821	16984
834.959	17212
835.097	17018
835.235	17079
835.373	17083
835.511	17006
835.65	16892
835.788	16835
835.926	16790
836.064	16649
836.202	16698
836.34	16968
836.478	17018
836.615	16812
836.753	16911
836.891	17041
837.029	16908
837.167	16790
837.305	16759
837.443	16767
837.58	16702
837.718	16736
837.856	16694
837.993	16588
838.131	16767
838.269	16694
838.406	16706
838.544	16535
838.681	16424
838.819	16371
838.956	16272
839.094	16325
839.231	16287
839.369	16455
839.506	16626
839.643	16443
839.781	16116
839.918	16143
840.055	16325
840.193	16200
840.33	16207
840.467	16207
840.604	16318
840.742	16451
840.879	16192
841.016	16211
841.153	16200
841.29	16405
841.427	16314
841.564	16322
841.701	16215
841.838	16249
841.975	16200
842.112	16158
842.249	16071
842.385	16025
842.522	16234
842.659	16032
842.796	16040
842.933	16055
843.069	16105
843.206	15937
843.343	16162
843.479	16059
843.616	16006
843.752	15850
843.889	15888
844.025	16063
844.162	15838
844.298	15854
844.435	15804
844.571	15759
844.708	15869
844.844	16017
844.98	15975
845.117	15998
845.253	15785
845.389	15842
845.525	15861
845.661	15873
845.798	15819
845.934	15949
846.07	15926
846.206	15937
846.342	16109
846.478	15812
846.614	15614
846.75	15374
846.886	15336
847.022	15549
847.158	15439
847.294	15401
847.429	15526
847.565	15348
847.701	15500
847.837	15108
847.972	15233
848.108	15184
848.244	15192
848.379	15055
848.515	15081
848.65	14944
848.786	15077
848.921	15085
849.057	15157
849.192	15108
849.328	15032
849.463	15024
849.598	14887
849.734	14979
849.869	14823
850.004	14838
850.14	14925
850.275	14739
850.41	14716
850.545	14815
850.68	14765
850.815	14899
850.95	14731
851.085	14872
851.22	14883
851.355	14758
851.49	14807
851.625	14796
851.76	14781
851.895	14693
852.03	14712
852.165	14693
852.299	14906
852.434	14826
852.569	14845
852.703	14887
852.838	14826
852.973	14921
853.107	14895
853.242	14746
853.376	14674
853.511	14606
853.645	14655
853.78	14815
853.914	14701
854.048	14583
854.183	14651
854.317	14632
854.451	14823
854.585	14754
854.72	14640
854.854	14701
854.988	14632
855.122	14617
855.256	14503
855.39	14670
855.524	14651
855.658	14636
855.792	14678
855.926	14712
856.06	14686
856.194	14788
856.327	14621
856.461	14590
856.595	14590
856.729	14640
856.862	14815
856.996	14636
857.13	14845
857.263	14765
857.397	14853
857.53	14697
857.664	14724
857.797	14731
857.931	14754
858.064	14621
858.197	14777
858.331	14617
858.464	14663
858.597	14659
858.731	14648
858.864	14651
858.997	14568
859.13	14735
859.263	14727
859.396	14712
859.529	14560
859.662	14617
859.795	14621
859.928	14648
860.061	14712
860.194	14815
860.327	14674
860.46	14712
860.592	14785
860.725	14750
860.858	14788
860.99	14682
861.123	14552
861.256	14541
861.388	14743
861.521	15447
861.653	14648
861.786	14438
861.918	14454
862.05	14537
862.183	14571
862.315	14659
862.447	14705
862.58	14636
862.712	14400
862.844	14362
862.976	14465
863.108	14530
863.24	14921
863.372	14347
863.504	14476
863.636	14423
863.768	14332
863.9	14427
864.032	14347
864.164	14434
864.296	14503
864.428	14564
864.559	14469
864.691	14533
864.823	14480
864.954	14442
865.086	14347
865.217	14533
865.349	14320
865.48	14465
865.612	14518
865.743	14613
865.875	14339
866.006	14404
866.137	14347
866.269	14332
866.4	14336
866.531	14362
866.662	14328
866.793	14408
866.924	14366
867.055	14400
867.186	14362
867.317	14358
867.448	14347
867.579	14320
867.71	14381
867.841	14259
867.972	14328
868.103	14248
868.233	14377
868.364	14389
868.495	14514
868.625	14556
868.756	14804
868.886	14579
869.017	14598
869.147	14720
869.278	14792
869.408	14648
869.539	14640
869.669	14655
869.799	14708
869.929	14857
870.06	14746
870.19	14941
870.32	14883
870.45	15074
870.58	15089
870.71	15138
870.84	15184
870.97	15062
871.1	15024
871.23	15233
871.36	15188
871.489	15112
871.619	15203
871.749	15154
871.879	15268
872.008	15302
872.138	15272
872.267	15199
872.397	15127
872.526	15131
872.656	15161
872.785	14994
872.915	15176
873.044	15325
873.173	15359
873.303	15359
873.432	15317
873.561	15412
873.69	15355
873.819	15298
873.948	15325
874.077	15329
874.206	15336
874.335	15374
874.464	15538
874.593	15599
874.722	15492
874.851	15580
874.979	15584
875.108	15599
875.237	15542
875.365	15519
875.494	15580
875.623	15622
875.751	15549
875.88	15629
876.008	15781
876.136	15857
876.265	16090
876.393	16223
876.521	16169
876.65	16109
876.778	15968
876.906	15972
877.034	16006
877.162	16032
877.29	15949
877.418	15983
877.546	16044
877.674	16093
877.802	16071
877.93	15975
878.058	15968
878.185	15778
878.313	15926
878.441	16044
878.568	15876
878.696	15964
878.824	16101
878.951	16071
879.079	16325
879.206	16474
879.333	16344
879.461	16131
879.588	16390
879.715	16333
879.842	16459
879.97	16181
880.097	15945
880.224	15899
880.351	15953
880.478	15884
880.605	15884
880.732	15972
880.859	16143
880.986	15850
881.112	16013
881.239	15732
881.366	15739
881.493	15595
881.619	15629
881.746	15496
881.872	15534
881.999	15549
882.125	15500
882.252	15568
882.378	15553
882.505	15663
882.631	15488
882.757	15351
882.883	15412
883.01	15424
883.136	15332
883.262	15298
883.388	15169
883.514	15275
883.64	15359
883.766	15294
883.892	15138
884.018	15298
884.143	15397
884.269	15473
884.395	15169
884.52	15020
884.646	15066
884.772	14994
884.897	14990
885.023	14998
885.148	15241
885.274	15150
885.399	15298
885.524	15074
885.65	15081
885.775	14971
885.9	15024
886.025	15180
886.15	15135
886.275	15146
886.4	14921
886.525	14952
886.65	14994
886.775	14941
886.9	15131
887.025	15252
887.149	15074
887.274	14948
887.399	14895
887.523	14746
887.648	14887
887.773	14727
887.897	15013
888.021	14990
888.146	14883
888.27	15001
888.395	15017
888.519	14918
888.643	14975
888.767	14906
888.891	14804
889.015	14785
889.139	14762
889.263	14781
889.387	14861
889.511	14906
889.635	14788
889.759	14792
889.883	14762
890.006	14708
890.13	14838
890.254	14598
890.377	14708
890.501	14438
890.624	14480
890.748	14632
890.871	14488
890.995	14454
891.118	14339
891.241	14431
891.364	14370
891.488	14533
891.611	14495
891.734	14469
891.857	14507
891.98	14526
892.103	14579
892.226	14431
892.349	14442
892.471	14328
892.594	14431
892.717	14469
892.839	14366
892.962	14511
893.085	14583
893.207	14389
893.33	14290
893.452	14385
893.575	14438
893.697	14419
893.819	14518
893.941	14583
894.064	14541
894.186	14347
894.308	14301
894.43	14503
894.552	14575
894.674	14579
894.796	14389
894.918	14473
895.04	14400
895.161	14625
895.283	14556
895.405	14385
895.526	14537
895.648	14404
895.769	14659
895.891	14579
896.012	14594
896.134	14564
896.255	14514
896.376	14522
896.498	14564
896.619	14648
896.74	14640
896.861	14590
896.982	15024
897.103	15032
897.224	14906
897.345	14823
897.466	14746
897.587	14800
897.708	14899
897.828	14891
897.949	14861
898.07	14689
898.19	14815
898.311	14880
898.431	14849
898.552	14868
898.672	14956
898.792	15066
898.913	14918
899.033	14826
899.153	14769
899.273	14697
899.393	14788
899.513	14853
899.633	14708
899.753	14724
899.873	14743
899.993	14849
900.113	14743
900.232	14800
900.352	14765
900.472	14667
900.591	14587
900.711	14602
900.83	14560
900.95	14636
901.069	14708
901.189	14610
901.308	14377
901.427	14339
901.546	14259
901.665	14332
901.784	14377
901.904	14218
902.023	14214
902.141	13974
902.26	13906
902.379	13917
902.498	13814
902.617	13868
902.735	13906
902.854	13871
902.973	13715
903.091	13609
903.21	13632
903.328	13575
903.446	13506
903.565	13468
903.683	13411
903.801	13362
903.919	13453
904.038	13365
904.156	13198
904.274	13175
904.392	13202
904.51	13225
904.627	13232
904.745	13164
904.863	13217
904.981	13088
905.098	12932
905.216	12993
905.334	12882
905.451	12947
905.569	12928
905.686	13061
905.803	12920
905.921	12757
906.038	12878
906.155	12768
906.272	12658
906.389	12669
906.506	12532
906.623	12532
906.74	12551
906.857	12357
906.974	12479
907.091	12574
907.208	12544
907.324	12551
907.441	12399
907.557	12224
907.674	12270
907.79	12163
907.907	12277
908.023	12296
908.139	12304
908.256	12163
908.372	12175
908.488	12106
908.604	12019
908.72	12015
908.836	12034
908.952	11999
909.068	12034
909.184	12163
909.3	12003
909.415	12057
909.531	12026
909.647	11813
909.762	11859
909.878	11714
909.993	11794
910.108	11790
910.224	11718
910.339	11764
910.454	11608
910.57	11611
910.685	11493
910.8	11870
910.915	11729
911.03	11623
911.145	11497
911.259	11436
911.374	11482
911.489	11406
911.604	11307
911.718	11216
911.833	11242
911.947	11124
912.062	11033
912.176	11201
912.291	11280
912.405	11258
912.519	11440
912.633	11448
912.748	11242
912.862	11288
912.976	11079
913.09	11006
913.204	11067
913.318	11178
913.431	11147
913.545	11212
913.659	11227
913.772	11098
913.886	10949
914	10885
914.113	11060
914.226	11181
914.34	11075
914.453	10919
914.566	11117
914.68	10908
914.793	10961
914.906	10740
915.019	10736
915.132	10668
915.245	10668
915.358	10729
915.47	10748
915.583	10752
915.696	10786
915.809	10843
915.921	10896
916.034	10759
916.146	10717
916.259	10603
916.371	10736
916.483	10694
916.595	10615
916.708	10687
916.82	10618
916.932	10675
917.044	10615
917.156	10573
917.268	10466
917.38	10584
917.491	10478
917.603	10573
917.715	10622
917.826	10615
917.938	10504
918.049	10379
918.161	10554
918.272	10607
918.384	10672
918.495	10584
918.606	10424
918.717	10310
918.828	10440
918.939	10451
919.05	10329
919.161	10402
919.272	10246
919.383	10280
919.494	10447
919.604	10584
919.715	10424
919.826	10367
919.936	10455
920.047	10481
920.157	10432
920.267	10607
920.378	10390
920.488	10413
920.598	10649
920.708	10782
920.818	10603
920.928	10611
921.038	10824
921.148	10790
921.258	10489
921.368	10386
921.477	10234
921.587	10257
921.697	10249
921.806	10375
921.916	10143
922.025	10051
922.134	9956
922.244	9918
922.353	10010
922.462	9751
922.571	9827
922.68	9591
922.789	9736
922.898	9648
923.007	9599
923.116	9705
923.224	9740
923.333	9633
923.442	9538
923.55	9496
923.659	9515
923.767	9629
923.876	9538
923.984	9610
924.092	9500
924.201	9500
924.309	9507
924.417	9542
924.525	9389
924.633	9542
924.741	10382
924.849	9230
924.956	9435
925.064	9340
925.172	9249
925.279	9302
925.387	9348
925.494	9279
925.602	9450
925.709	9412
925.816	9253
925.924	9317
926.031	9378
926.138	9294
926.245	9435
926.352	9211
926.459	9340
926.566	9469
926.673	9272
926.779	9199
926.886	9161
926.993	8990
927.099	9047
927.206	8956
927.312	8948
927.419	9074
927.525	8998
927.631	9070
927.737	8921
927.843	8929
927.95	8762
928.056	8902
928.162	8929
928.267	8963
928.373	9595
928.479	8982
928.585	8781
928.69	8838
928.796	8944
928.901	8811
929.007	8678
929.112	8857
929.218	8815
929.323	8777
929.428	8708
929.533	8895
929.638	8667
929.743	8758
929.848	8731
929.953	8727
930.058	8678
930.163	8522
930.267	8457
930.372	8632
930.477	8450
930.581	8731
930.685	8564
930.79	8419
930.894	8484
930.998	8473
931.103	8594
931.207	8187
931.311	8123
931.415	8039
931.519	7898
931.623	7909
