Data from test_V78500241_3589.txt Node
Date: Fri Mar 25 14:58:42 CST 2022
User: usil
Spectrometer: V785-0024
Trigger mode: 0
Integration Time (sec): 4.000000E-1
Scans to average: 1
Nonlinearity correction enabled: false
Boxcar width: 0
Storing dark spectrum: false
XAxis mode: Wavelengths
Number of Pixels in Spectrum: 1024
>>>>>Begin Spectral Data<<<<<
801.071	21979
801.214	21747
801.356	21610
801.499	21477
801.641	21370
801.783	21207
801.926	21313
802.068	21237
802.211	21150
802.353	21058
802.496	20960
802.638	20750
802.78	20785
802.923	20659
803.065	20648
803.208	20590
803.35	20617
803.492	20701
803.635	20811
803.777	20552
803.919	20667
804.061	20929
804.204	20640
804.346	20583
804.488	20412
804.63	20533
804.773	20366
804.915	20484
805.057	20613
805.199	20343
805.341	20621
805.483	20708
805.626	20560
805.768	20423
805.91	20659
806.052	20473
806.194	20499
806.336	20629
806.478	20480
806.62	20522
806.762	20552
806.904	20556
807.046	20845
807.188	20769
807.33	20777
807.472	20743
807.614	20659
807.756	20686
807.898	20587
808.04	20514
808.182	20552
808.324	20651
808.465	20609
808.607	20804
808.749	20838
808.891	20994
809.033	21058
809.174	21001
809.316	20712
809.458	20834
809.6	20811
809.741	20743
809.883	20925
810.025	21062
810.166	21036
810.308	21020
810.45	20929
810.591	20861
810.733	20678
810.875	20663
811.016	20541
811.158	20552
811.299	20689
811.441	20655
811.582	20712
811.724	20571
811.865	20579
812.007	20575
812.148	20670
812.29	20693
812.431	20807
812.573	21096
812.714	21013
812.855	21173
812.997	21211
813.138	21344
813.279	21230
813.421	21058
813.562	21047
813.703	20887
813.845	20773
813.986	20473
814.127	20271
814.268	20298
814.41	20233
814.551	20149
814.692	20282
814.833	20065
814.974	20111
815.115	20138
815.256	20065
815.397	20073
815.539	20039
815.68	19837
815.821	19791
815.962	19860
816.103	19879
816.244	19719
816.385	19643
816.526	19620
816.666	19476
816.807	19354
816.948	19460
817.089	19407
817.23	19343
817.371	19263
817.512	19278
817.653	19266
817.793	19228
817.934	19266
818.075	19190
818.216	19324
818.356	19156
818.497	19103
818.638	18973
818.778	18920
818.919	18943
819.06	18977
819.2	19080
819.341	19164
819.481	19202
819.622	19339
819.762	19502
819.903	19373
820.043	19213
820.184	19259
820.324	19270
820.465	19270
820.605	19312
820.746	19240
820.886	19164
821.026	19331
821.167	19206
821.307	19289
821.447	19324
821.588	19107
821.728	19019
821.868	18913
822.008	18654
822.149	18650
822.289	18639
822.429	18380
822.569	18315
822.709	18365
822.849	18155
822.99	18258
823.13	18171
823.27	18072
823.41	17988
823.55	17798
823.69	17939
823.83	18049
823.97	17885
824.11	17771
824.25	17748
824.389	17783
824.529	17901
824.669	17741
824.809	17817
824.949	17821
825.089	17786
825.228	17737
825.368	17493
825.508	17623
825.648	17596
825.787	17570
825.927	17467
826.067	17471
826.206	17532
826.346	17486
826.485	17592
826.625	17642
826.765	17687
826.904	17551
827.044	17242
827.183	17265
827.323	17151
827.462	17345
827.601	17353
827.741	17231
827.88	17216
828.02	17117
828.159	17254
828.298	17174
828.437	17288
828.577	17121
828.716	17406
828.855	17216
828.994	17014
829.134	16991
829.273	17056
829.412	16968
829.551	16949
829.69	16946
829.829	16927
829.968	17060
830.107	17056
830.246	17037
830.385	16968
830.524	16889
830.663	16892
830.802	16790
830.941	16618
831.08	16592
831.219	16565
831.357	16683
831.496	16744
831.635	16512
831.774	16554
831.913	16436
832.051	16341
832.19	16394
832.329	16386
832.467	16375
832.606	16272
832.744	16188
832.883	16181
833.022	16211
833.16	16352
833.299	16318
833.437	16265
833.576	16333
833.714	16367
833.852	16405
833.991	16287
834.129	16523
834.267	16485
834.406	16333
834.544	16451
834.682	16295
834.821	16405
834.959	16459
835.097	16276
835.235	16390
835.373	16398
835.511	16428
835.65	16276
835.788	16234
835.926	16215
836.064	16074
836.202	16150
836.34	16268
836.478	16337
836.615	16249
836.753	16356
836.891	16341
837.029	16287
837.167	16272
837.305	16086
837.443	16382
837.58	16086
837.718	16211
837.856	16211
837.993	16154
838.131	16128
838.269	16181
838.406	16253
838.544	16124
838.681	15861
838.819	15808
838.956	15736
839.094	15785
839.231	15842
839.369	15823
839.506	16059
839.643	15926
839.781	15732
839.918	15679
840.055	15701
840.193	15625
840.33	15770
840.467	15679
840.604	15705
840.742	15953
840.879	15690
841.016	15549
841.153	15610
841.29	15759
841.427	15747
841.564	15701
841.701	15751
841.838	15648
841.975	15667
842.112	15667
842.249	15492
842.385	15526
842.522	15717
842.659	15515
842.796	15526
842.933	15504
843.069	15416
843.206	15424
843.343	15549
843.479	15576
843.616	15488
843.752	15313
843.889	15302
844.025	15412
844.162	15291
844.298	15344
844.435	15256
844.571	15176
844.708	15355
844.844	15428
844.98	15473
845.117	15329
845.253	15283
845.389	15192
845.525	15233
845.661	15161
845.798	14982
845.934	15081
846.07	15074
846.206	15161
846.342	15173
846.478	15138
846.614	14872
846.75	14853
846.886	14796
847.022	14861
847.158	14868
847.294	14956
847.429	14891
847.565	14815
847.701	15131
847.837	14625
847.972	14655
848.108	14701
848.244	14564
848.379	14488
848.515	14465
848.65	14537
848.786	14457
848.921	14507
849.057	14621
849.192	14587
849.328	14454
849.463	14419
849.598	14400
849.734	14381
849.869	14294
850.004	14305
850.14	14320
850.275	14240
850.41	14126
850.545	14218
850.68	14233
850.815	14309
850.95	14210
851.085	14347
851.22	14389
851.355	14221
851.49	14176
851.625	14103
851.76	14126
851.895	14115
852.03	14195
852.165	14282
852.299	14187
852.434	14305
852.569	14214
852.703	14206
852.838	14320
852.973	14412
853.107	14267
853.242	14240
853.376	14119
853.511	13959
853.645	13955
853.78	14240
853.914	14058
854.048	14020
854.183	14073
854.317	14069
854.451	14195
854.585	14073
854.72	14016
854.854	14153
854.988	14016
855.122	14107
855.256	13989
855.39	14062
855.524	14195
855.658	14100
855.792	14202
855.926	14161
856.06	14244
856.194	14153
856.327	14092
856.461	14065
856.595	13993
856.729	14073
856.862	14199
856.996	14214
857.13	14164
857.263	14202
857.397	14214
857.53	14046
857.664	14081
857.797	14142
857.931	14210
858.064	14107
858.197	14294
858.331	14119
858.464	14077
858.597	14031
858.731	14077
858.864	14073
858.997	14107
859.13	14103
859.263	14172
859.396	14183
859.529	13986
859.662	14130
859.795	14050
859.928	14103
860.061	14161
860.194	14305
860.327	14153
860.46	14142
860.592	14225
860.725	14225
860.858	14145
860.99	14187
861.123	14088
861.256	13993
861.388	14149
861.521	14861
861.653	13986
861.786	13982
861.918	13902
862.05	14069
862.183	14046
862.315	14130
862.447	14161
862.58	14005
862.712	13868
862.844	13925
862.976	13890
863.108	13993
863.24	14271
863.372	13887
863.504	13906
863.636	13841
863.768	13875
863.9	13871
864.032	13772
864.164	13826
864.296	13890
864.428	13986
864.559	13974
864.691	14008
864.823	13978
864.954	13951
865.086	13879
865.217	13875
865.349	13932
865.48	13826
865.612	13883
865.743	14065
865.875	13936
866.006	13879
866.137	13811
866.269	13780
866.4	13887
866.531	13822
866.662	13795
866.793	13841
866.924	13734
867.055	13849
867.186	13963
867.317	13852
867.448	13765
867.579	13890
867.71	13822
867.841	13719
867.972	13887
868.103	13791
868.233	13841
868.364	13902
868.495	13902
868.625	14031
868.756	14142
868.886	14012
869.017	14001
869.147	14263
869.278	14248
869.408	14043
869.539	14077
869.669	14267
869.799	14115
869.929	14214
870.06	14107
870.19	14518
870.32	14537
870.45	14389
870.58	14530
870.71	14613
870.84	14670
870.97	14549
871.1	14579
871.23	14773
871.36	14735
871.489	14640
871.619	14674
871.749	14716
871.879	14765
872.008	14857
872.138	14777
872.267	14682
872.397	14587
872.526	14530
872.656	14632
872.785	14629
872.915	14667
873.044	14868
873.173	14769
873.303	14781
873.432	14750
873.561	14826
873.69	14819
873.819	14712
873.948	14785
874.077	14826
874.206	14735
874.335	14788
874.464	14861
874.593	15100
874.722	15043
874.851	15195
874.979	15097
875.108	15062
875.237	15058
875.365	14990
875.494	15070
875.623	15100
875.751	14975
875.88	15093
876.008	15260
876.136	15408
876.265	15428
876.393	15591
876.521	15526
876.65	15625
876.778	15488
876.906	15466
877.034	15511
877.162	15545
877.29	15420
877.418	15443
877.546	15538
877.674	15523
877.802	15473
877.93	15485
878.058	15370
878.185	15435
878.313	15610
878.441	15450
878.568	15382
878.696	15435
878.824	15504
878.951	15584
879.079	15644
879.206	15785
879.333	15633
879.461	15466
879.588	15580
879.715	15671
879.842	15762
879.97	15477
880.097	15386
880.224	15241
880.351	15329
880.478	15397
880.605	15367
880.732	15370
880.859	15595
880.986	15374
881.112	15412
881.239	15275
881.366	15298
881.493	15089
881.619	14929
881.746	14948
881.872	15039
881.999	14944
882.125	14925
882.252	15001
882.378	15150
882.505	15203
882.631	14910
882.757	14880
882.883	14899
883.01	14788
883.136	14727
883.262	14724
883.388	14716
883.514	14796
883.64	14994
883.766	14853
883.892	14686
884.018	14613
884.143	14872
884.269	14929
884.395	14571
884.52	14617
884.646	14526
884.772	14442
884.897	14404
885.023	14495
885.148	14697
885.274	14655
885.399	14670
885.524	14590
885.65	14503
885.775	14560
885.9	14499
886.025	14777
886.15	14575
886.275	14541
886.4	14476
886.525	14541
886.65	14370
886.775	14381
886.9	14621
887.025	14727
887.149	14575
887.274	14374
887.399	14370
887.523	14347
887.648	14347
887.773	14278
887.897	14514
888.021	14442
888.146	14351
888.27	14518
888.395	14488
888.519	14404
888.643	14480
888.767	14537
888.891	14328
889.015	14256
889.139	14240
889.263	14221
889.387	14271
889.511	14419
889.635	14415
889.759	14244
889.883	14153
890.006	14313
890.13	14423
890.254	14126
890.377	14195
890.501	14069
890.624	13997
890.748	14161
890.871	14035
890.995	13928
891.118	13852
891.241	13928
891.364	14050
891.488	14100
891.611	13902
891.734	14027
891.857	14035
891.98	13879
892.103	14035
892.226	13925
892.349	13944
892.471	13769
892.594	14005
892.717	14016
892.839	13875
892.962	13936
893.085	14016
893.207	13986
893.33	13837
893.452	13944
893.575	14088
893.697	13947
893.819	14176
893.941	14157
894.064	14157
894.186	13917
894.308	13932
894.43	14031
894.552	14210
894.674	14016
894.796	13898
894.918	13944
895.04	13963
895.161	13997
895.283	14096
895.405	13963
895.526	14016
895.648	13974
895.769	14077
895.891	14077
896.012	14153
896.134	14134
896.255	14096
896.376	13959
896.498	14142
896.619	14115
896.74	14111
896.861	14278
896.982	14370
897.103	14686
897.224	14438
897.345	14393
897.466	14248
897.587	14404
897.708	14465
897.828	14366
897.949	14362
898.07	14336
898.19	14381
898.311	14537
898.431	14400
898.552	14450
898.672	14575
898.792	14610
898.913	14530
899.033	14438
899.153	14294
899.273	14233
899.393	14362
899.513	14351
899.633	14381
899.753	14400
899.873	14313
899.993	14412
900.113	14320
900.232	14343
900.352	14305
900.472	14278
900.591	14123
900.711	14286
900.83	14126
900.95	14275
901.069	14252
901.189	14195
901.308	13947
901.427	13849
901.546	13917
901.665	13902
901.784	13959
901.904	13772
902.023	13655
902.141	13548
902.26	13487
902.379	13525
902.498	13449
902.617	13464
902.735	13491
902.854	13529
902.973	13400
903.091	13202
903.21	13179
903.328	13194
903.446	13099
903.565	13107
903.683	13084
903.801	12932
903.919	13004
904.038	12943
904.156	12856
904.274	12916
904.392	12806
904.51	12779
904.627	12810
904.745	12878
904.863	12909
904.981	12654
905.098	12650
905.216	12631
905.334	12536
905.451	12650
905.569	12627
905.686	12525
905.803	12544
905.921	12327
906.038	12547
906.155	12334
906.272	12262
906.389	12376
906.506	12136
906.623	12220
906.74	12171
906.857	11996
906.974	12007
907.091	12258
907.208	12296
907.324	12178
907.441	12114
907.557	11908
907.674	11843
907.79	11882
907.907	11882
908.023	11920
908.139	11920
908.256	11756
908.372	11904
908.488	11798
908.604	11737
908.72	11653
908.836	11661
908.952	11646
909.068	11699
909.184	11790
909.3	11642
909.415	11779
909.531	11699
909.647	11490
909.762	11433
909.878	11410
909.993	11509
910.108	11379
910.224	11368
910.339	11398
910.454	11360
910.57	11307
910.685	11181
910.8	11528
910.915	11478
911.03	11368
911.145	11212
911.259	11132
911.374	11132
911.489	11018
911.604	11037
911.718	10854
911.833	10927
911.947	10835
912.062	10714
912.176	10854
912.291	10805
912.405	10866
912.519	11086
912.633	11094
912.748	11025
912.862	10972
912.976	10793
913.09	10653
913.204	10660
913.318	10809
913.431	10862
913.545	10820
913.659	10858
913.772	10763
913.886	10702
914	10679
914.113	10809
914.226	10816
914.34	10801
914.453	10607
914.566	10755
914.68	10630
914.793	10660
914.906	10428
915.019	10386
915.132	10322
915.245	10329
915.358	10421
915.47	10447
915.583	10382
915.696	10485
915.809	10516
915.921	10584
916.034	10405
916.146	10382
916.259	10352
916.371	10390
916.483	10470
916.595	10322
916.708	10314
916.82	10367
916.932	10276
917.044	10322
917.156	10409
917.268	10211
917.38	10276
917.491	10177
917.603	10280
917.715	10306
917.826	10344
917.938	10246
918.049	10158
918.161	10169
918.272	10322
918.384	10413
918.495	10249
918.606	10109
918.717	10128
918.828	10147
918.939	10116
919.05	10029
919.161	10150
919.272	9953
919.383	10017
919.494	10196
919.604	10443
919.715	10097
919.826	10048
919.936	10086
920.047	10169
920.157	10150
920.267	10386
920.378	10227
920.488	10143
920.598	10348
920.708	10462
920.818	10356
920.928	10284
921.038	10527
921.148	10481
921.258	10230
921.368	10185
921.477	10010
921.587	9987
921.697	9895
921.806	9994
921.916	9922
922.025	9789
922.134	9759
922.244	9652
922.353	9694
922.462	9584
922.571	9549
922.68	9370
922.789	9340
922.898	9428
923.007	9313
923.116	9412
923.224	9317
923.333	9408
923.442	9279
923.55	9298
923.659	9313
923.767	9378
923.876	9264
923.984	9351
924.092	9260
924.201	9253
924.309	9264
924.417	9283
924.525	9253
924.633	9218
924.741	9956
924.849	9001
924.956	9203
925.064	9066
925.172	9013
925.279	9028
925.387	9119
925.494	9039
925.602	9161
925.709	9097
925.816	8960
925.924	9123
926.031	9089
926.138	9058
926.245	9097
926.352	8994
926.459	9146
926.566	9142
926.673	9009
926.779	8925
926.886	8990
926.993	8754
927.099	8838
927.206	8727
927.312	8762
927.419	8800
927.525	8720
927.631	8880
927.737	8708
927.843	8655
927.95	8545
928.056	8651
928.162	8712
928.267	8716
928.373	9264
928.479	8804
928.585	8522
928.69	8708
928.796	8686
928.901	8560
929.007	8415
929.112	8621
929.218	8533
929.323	8507
929.428	8484
929.533	8552
929.638	8454
929.743	8484
929.848	8602
929.953	8492
930.058	8317
930.163	8195
930.267	8309
930.372	8396
930.477	8256
930.581	8530
930.685	8377
930.79	8187
930.894	8202
930.998	8111
931.103	8336
931.207	7940
931.311	7978
931.415	7902
931.519	7681
931.623	7712
