Data from test_V78500241_2028.txt Node
Date: Fri Mar 25 14:47:50 CST 2022
User: usil
Spectrometer: V785-0024
Trigger mode: 0
Integration Time (sec): 4.000000E-1
Scans to average: 1
Nonlinearity correction enabled: false
Boxcar width: 0
Storing dark spectrum: false
XAxis mode: Wavelengths
Number of Pixels in Spectrum: 1024
>>>>>Begin Spectral Data<<<<<
801.071	22230
801.214	21876
801.356	21720
801.499	21629
801.641	21549
801.783	21462
801.926	21485
802.068	21492
802.211	21275
802.353	21363
802.496	21093
802.638	21096
802.78	20979
802.923	20788
803.065	20823
803.208	20887
803.35	20781
803.492	20842
803.635	20937
803.777	20765
803.919	20925
804.061	21096
804.204	20819
804.346	20804
804.488	20708
804.63	20724
804.773	20606
804.915	20720
805.057	20804
805.199	20739
805.341	20842
805.483	20842
805.626	20830
805.768	20743
805.91	20716
806.052	20777
806.194	20659
806.336	20933
806.478	20845
806.62	20777
806.762	20826
806.904	20960
807.046	21241
807.188	21100
807.33	21077
807.472	21024
807.614	20880
807.756	20918
807.898	20811
808.04	20883
808.182	20735
808.324	20724
808.465	20807
808.607	20914
808.749	21062
808.891	21203
809.033	21203
809.174	21184
809.316	21096
809.458	21074
809.6	20960
809.741	21173
809.883	21173
810.025	21340
810.166	21150
810.308	21211
810.45	21093
810.591	21108
810.733	20963
810.875	20876
811.016	20754
811.158	20731
811.299	20906
811.441	20982
811.582	20982
811.724	20845
811.865	20899
812.007	20838
812.148	20804
812.29	20902
812.431	21024
812.573	21211
812.714	21116
812.855	21389
812.997	21466
813.138	21523
813.279	21530
813.421	21469
813.562	21317
813.703	21176
813.845	20921
813.986	20701
814.127	20632
814.268	20533
814.41	20393
814.551	20404
814.692	20423
814.833	20366
814.974	20320
815.115	20507
815.256	20298
815.397	20244
815.539	20320
815.68	20111
815.821	20073
815.962	20138
816.103	20069
816.244	20005
816.385	19906
816.526	19807
816.666	19731
816.807	19559
816.948	19674
817.089	19788
817.23	19548
817.371	19609
817.512	19552
817.653	19613
817.793	19594
817.934	19476
818.075	19525
818.216	19613
818.356	19533
818.497	19453
818.638	19225
818.778	19278
818.919	19175
819.06	19206
819.2	19247
819.341	19381
819.481	19480
819.622	19529
819.762	19776
819.903	19658
820.043	19525
820.184	19495
820.324	19487
820.465	19609
820.605	19594
820.746	19491
820.886	19358
821.026	19594
821.167	19563
821.307	19514
821.447	19495
821.588	19297
821.728	19183
821.868	19057
822.008	18905
822.149	19004
822.289	18996
822.429	18616
822.569	18620
822.709	18604
822.849	18448
822.99	18623
823.13	18353
823.27	18296
823.41	18224
823.55	18262
823.69	18270
823.83	18296
823.97	18186
824.11	17939
824.25	17977
824.389	17973
824.529	18041
824.669	17980
824.809	18174
824.949	18136
825.089	18049
825.228	18076
825.368	17783
825.508	17824
825.648	17794
825.787	17939
825.927	17931
826.067	17756
826.206	17726
826.346	17741
826.485	17756
826.625	17729
826.765	17851
826.904	17859
827.044	17512
827.183	17467
827.323	17452
827.462	17589
827.601	17520
827.741	17573
827.88	17406
828.02	17391
828.159	17455
828.298	17474
828.437	17589
828.577	17414
828.716	17661
828.855	17360
828.994	17277
829.134	17242
829.273	17227
829.412	17151
829.551	17193
829.69	17231
829.829	17318
829.968	17372
830.107	17307
830.246	17284
830.385	17277
830.524	17140
830.663	17071
830.802	16946
830.941	16858
831.08	16885
831.219	16991
831.357	16843
831.496	17109
831.635	16991
831.774	16771
831.913	16771
832.051	16702
832.19	16656
832.329	16615
832.467	16664
832.606	16432
832.744	16497
832.883	16599
833.022	16516
833.16	16580
833.299	16561
833.437	16607
833.576	16592
833.714	16683
833.852	16618
833.991	16634
834.129	16748
834.267	16725
834.406	16569
834.544	16611
834.682	16592
834.821	16622
834.959	16793
835.097	16565
835.235	16733
835.373	16710
835.511	16596
835.65	16603
835.788	16565
835.926	16424
836.064	16379
836.202	16379
836.34	16596
836.478	16538
836.615	16436
836.753	16512
836.891	16679
837.029	16561
837.167	16489
837.305	16493
837.443	16310
837.58	16352
837.718	16455
837.856	16360
837.993	16352
838.131	16382
838.269	16379
838.406	16318
838.544	16322
838.681	16090
838.819	16086
838.956	16051
839.094	15899
839.231	15979
839.369	16181
839.506	16310
839.643	16090
839.781	16036
839.918	15983
840.055	15979
840.193	16006
840.33	15880
840.467	15941
840.604	15983
840.742	16150
840.879	15915
841.016	15774
841.153	15797
841.29	16093
841.427	16021
841.564	15907
841.701	15915
841.838	15926
841.975	15911
842.112	15934
842.249	15835
842.385	15770
842.522	15903
842.659	15831
842.796	15599
842.933	15770
843.069	15667
843.206	15724
843.343	15770
843.479	15713
843.616	15663
843.752	15488
843.889	15485
844.025	15751
844.162	15462
844.298	15564
844.435	15656
844.571	15492
844.708	15519
844.844	15774
844.98	15663
845.117	15694
845.253	15530
845.389	15313
845.525	15416
845.661	15374
845.798	15382
845.934	15294
846.07	15336
846.206	15317
846.342	15466
846.478	15256
846.614	15104
846.75	15009
846.886	15123
847.022	15237
847.158	15013
847.294	15085
847.429	15173
847.565	15020
847.701	15256
847.837	14883
847.972	14769
848.108	14952
848.244	14895
848.379	14826
848.515	14621
848.65	14571
848.786	14655
848.921	14739
849.057	14746
849.192	14754
849.328	14735
849.463	14705
849.598	14663
849.734	14678
849.869	14602
850.004	14541
850.14	14492
850.275	14446
850.41	14278
850.545	14347
850.68	14457
850.815	14446
850.95	14298
851.085	14571
851.22	14556
851.355	14396
851.49	14404
851.625	14434
851.76	14438
851.895	14419
852.03	14381
852.165	14461
852.299	14434
852.434	14503
852.569	14495
852.703	14374
852.838	14568
852.973	14583
853.107	14651
853.242	14434
853.376	14408
853.511	14183
853.645	14282
853.78	14499
853.914	14248
854.048	14275
854.183	14286
854.317	14267
854.451	14457
854.585	14362
854.72	14259
854.854	14317
854.988	14313
855.122	14248
855.256	14081
855.39	14290
855.524	14389
855.658	14514
855.792	14278
855.926	14377
856.06	14358
856.194	14423
856.327	14358
856.461	14149
856.595	14282
856.729	14377
856.862	14362
856.996	14339
857.13	14381
857.263	14438
857.397	14389
857.53	14366
857.664	14404
857.797	14408
857.931	14343
858.064	14389
858.197	14374
858.331	14393
858.464	14214
858.597	14233
858.731	14206
858.864	14278
858.997	14267
859.13	14324
859.263	14267
859.396	14423
859.529	14309
859.662	14294
859.795	14206
859.928	14301
860.061	14457
860.194	14571
860.327	14370
860.46	14313
860.592	14374
860.725	14400
860.858	14537
860.99	14320
861.123	14294
861.256	14286
861.388	14339
861.521	14986
861.653	14240
861.786	14138
861.918	14210
862.05	14259
862.183	14191
862.315	14355
862.447	14298
862.58	14374
862.712	14123
862.844	14081
862.976	14161
863.108	14229
863.24	14434
863.372	14058
863.504	14183
863.636	14077
863.768	14100
863.9	14145
864.032	14012
864.164	14142
864.296	14142
864.428	14225
864.559	14103
864.691	14115
864.823	14161
864.954	14149
865.086	14107
865.217	14012
865.349	14012
865.48	14050
865.612	14149
865.743	14237
865.875	14149
866.006	14081
866.137	14119
866.269	14065
866.4	14096
866.531	14016
866.662	13978
866.793	14069
866.924	14027
867.055	14115
867.186	14062
867.317	14005
867.448	14054
867.579	14164
867.71	13993
867.841	13928
867.972	14107
868.103	14084
868.233	14069
868.364	14058
868.495	14187
868.625	14355
868.756	14374
868.886	14298
869.017	14320
869.147	14351
869.278	14457
869.408	14362
869.539	14271
869.669	14336
869.799	14454
869.929	14461
870.06	14431
870.19	14708
870.32	14724
870.45	14670
870.58	14746
870.71	14849
870.84	14777
870.97	14758
871.1	14632
871.23	14956
871.36	14872
871.489	14933
871.619	14880
871.749	14925
871.879	14864
872.008	14948
872.138	14986
872.267	14990
872.397	14754
872.526	14731
872.656	14720
872.785	14765
872.915	14986
873.044	15013
873.173	14986
873.303	15036
873.432	14986
873.561	15074
873.69	14899
873.819	14982
873.948	15123
874.077	15043
874.206	14956
874.335	14921
874.464	15085
874.593	15260
874.722	15283
874.851	15351
874.979	15275
875.108	15275
875.237	15272
875.365	15203
875.494	15329
875.623	15435
875.751	15401
875.88	15294
876.008	15500
876.136	15542
876.265	15751
876.393	15819
876.521	15652
876.65	15842
876.778	15808
876.906	15724
877.034	15717
877.162	15762
877.29	15717
877.418	15701
877.546	15785
877.674	15705
877.802	15808
877.93	15793
878.058	15614
878.185	15587
878.313	15618
878.441	15770
878.568	15591
878.696	15656
878.824	15800
878.951	15717
879.079	15968
879.206	15960
879.333	15850
879.461	15857
879.588	15770
879.715	15941
879.842	15949
879.97	15717
880.097	15515
880.224	15580
880.351	15576
880.478	15580
880.605	15439
880.732	15530
880.859	15709
880.986	15587
881.112	15549
881.239	15408
881.366	15306
881.493	15310
881.619	15100
881.746	15351
881.872	15176
881.999	15108
882.125	15123
882.252	15298
882.378	15317
882.505	15443
882.631	15154
882.757	15093
882.883	15116
883.01	15104
883.136	14967
883.262	14876
883.388	14842
883.514	15017
883.64	15074
883.766	15066
883.892	14937
884.018	14815
884.143	14998
884.269	15108
884.395	14731
884.52	14731
884.646	14701
884.772	14693
884.897	14583
885.023	14864
885.148	14807
885.274	14883
885.399	14845
885.524	14788
885.65	14708
885.775	14781
885.9	14712
886.025	14823
886.15	14701
886.275	14781
886.4	14674
886.525	14762
886.65	14701
886.775	14750
886.9	14842
887.025	14986
887.149	14773
887.274	14598
887.399	14469
887.523	14541
887.648	14454
887.773	14533
887.897	14686
888.021	14575
888.146	14602
888.27	14701
888.395	14678
888.519	14651
888.643	14655
888.767	14701
888.891	14488
889.015	14476
889.139	14476
889.263	14400
889.387	14473
889.511	14613
889.635	14579
889.759	14393
889.883	14317
890.006	14476
890.13	14511
890.254	14393
890.377	14343
890.501	14271
890.624	14145
890.748	14282
890.871	14115
890.995	14035
891.118	14062
891.241	14126
891.364	14183
891.488	14244
891.611	14088
891.734	14119
891.857	14252
891.98	14134
892.103	14153
892.226	14218
892.349	14046
892.471	13997
892.594	14031
892.717	14271
892.839	14103
892.962	14191
893.085	14183
893.207	14164
893.33	14027
893.452	14001
893.575	14107
893.697	14142
893.819	14305
893.941	14317
894.064	14233
894.186	14138
894.308	14073
894.43	14206
894.552	14324
894.674	14233
894.796	14088
894.918	14149
895.04	14126
895.161	14256
895.283	14229
895.405	14069
895.526	14275
895.648	14256
895.769	14278
895.891	14309
896.012	14339
896.134	14324
896.255	14347
896.376	14278
896.498	14240
896.619	14271
896.74	14355
896.861	14351
896.982	14632
897.103	14792
897.224	14514
897.345	14594
897.466	14488
897.587	14598
897.708	14632
897.828	14625
897.949	14476
898.07	14336
898.19	14571
898.311	14663
898.431	14674
898.552	14697
898.672	14762
898.792	14762
898.913	14686
899.033	14617
899.153	14427
899.273	14400
899.393	14457
899.513	14537
899.633	14473
899.753	14533
899.873	14499
899.993	14571
900.113	14446
900.232	14575
900.352	14396
900.472	14400
900.591	14271
900.711	14400
900.83	14286
900.95	14377
901.069	14556
901.189	14298
901.308	14107
901.427	14005
901.546	13997
901.665	14081
901.784	14107
901.904	13940
902.023	13776
902.141	13655
902.26	13632
902.379	13655
902.498	13605
902.617	13620
902.735	13643
902.854	13670
902.973	13548
903.091	13346
903.21	13327
903.328	13377
903.446	13194
903.565	13194
903.683	13160
903.801	13057
903.919	13152
904.038	13114
904.156	13042
904.274	13038
904.392	13031
904.51	12993
904.627	13000
904.745	13034
904.863	13137
904.981	12802
905.098	12597
905.216	12795
905.334	12662
905.451	12715
905.569	12722
905.686	12696
905.803	12654
905.921	12513
906.038	12601
906.155	12498
906.272	12357
906.389	12410
906.506	12372
906.623	12353
906.74	12216
906.857	12197
906.974	12129
907.091	12365
907.208	12384
907.324	12327
907.441	12144
907.557	12049
907.674	12011
907.79	11954
907.907	11961
908.023	12060
908.139	12083
908.256	11992
908.372	11855
908.488	11897
908.604	11836
908.72	11756
908.836	11828
908.952	11741
909.068	11760
909.184	11859
909.3	11809
909.415	11843
909.531	11802
909.647	11684
909.762	11581
909.878	11543
909.993	11505
910.108	11509
910.224	11543
910.339	11509
910.454	11444
910.57	11459
910.685	11341
910.8	11592
910.915	11581
911.03	11486
911.145	11280
911.259	11181
911.374	11288
911.489	11231
911.604	11067
911.718	11086
911.833	11006
911.947	10896
912.062	10831
912.176	11033
912.291	11056
912.405	10961
912.519	11159
912.633	11216
912.748	11090
912.862	10984
912.976	10866
913.09	10752
913.204	10771
913.318	10908
913.431	11022
913.545	10976
913.659	10984
913.772	10892
913.886	10774
914	10694
914.113	10885
914.226	10900
914.34	10854
914.453	10714
914.566	10908
914.68	10717
914.793	10634
914.906	10637
915.019	10504
915.132	10462
915.245	10493
915.358	10474
915.47	10508
915.583	10535
915.696	10649
915.809	10603
915.921	10649
916.034	10512
916.146	10493
916.259	10459
916.371	10573
916.483	10599
916.595	10485
916.708	10455
916.82	10413
916.932	10443
917.044	10462
917.156	10382
917.268	10310
917.38	10272
917.491	10356
917.603	10398
917.715	10497
917.826	10466
917.938	10360
918.049	10253
918.161	10394
918.272	10519
918.384	10428
918.495	10352
918.606	10299
918.717	10154
918.828	10200
918.939	10265
919.05	10181
919.161	10211
919.272	9991
919.383	10124
919.494	10306
919.604	10478
919.715	10200
919.826	10173
919.936	10150
920.047	10287
920.157	10211
920.267	10470
920.378	10318
920.488	10196
920.598	10447
920.708	10569
920.818	10497
920.928	10390
921.038	10599
921.148	10577
921.258	10333
921.368	10158
921.477	10093
921.587	10074
921.697	10051
921.806	10116
921.916	10002
922.025	9804
922.134	9751
922.244	9740
922.353	9846
922.462	9656
922.571	9667
922.68	9504
922.789	9431
922.898	9549
923.007	9428
923.116	9523
923.224	9549
923.333	9523
923.442	9378
923.55	9332
923.659	9454
923.767	9496
923.876	9344
923.984	9332
924.092	9359
924.201	9408
924.309	9355
924.417	9386
924.525	9260
924.633	9348
924.741	10177
924.849	9169
924.956	9260
925.064	9089
925.172	9089
925.279	9074
925.387	9104
925.494	9195
925.602	9348
925.709	9214
925.816	9097
925.924	9142
926.031	9226
926.138	9203
926.245	9169
926.352	9097
926.459	9184
926.566	9154
926.673	9127
926.779	9039
926.886	9013
926.993	8864
927.099	8902
927.206	8845
927.312	8819
927.419	8925
927.525	8914
927.631	8887
927.737	8727
927.843	8746
927.95	8674
928.056	8663
928.162	8823
928.267	8811
928.373	9466
928.479	8891
928.585	8568
928.69	8720
928.796	8785
928.901	8655
929.007	8587
929.112	8564
929.218	8663
929.323	8575
929.428	8579
929.533	8735
929.638	8488
929.743	8587
929.848	8533
929.953	8575
930.058	8412
930.163	8355
930.267	8298
930.372	8412
930.477	8423
930.581	8552
930.685	8396
930.79	8320
930.894	8328
930.998	8279
931.103	8389
931.207	8096
931.311	7982
931.415	7944
931.519	7750
931.623	7849
