Data from test_V78500241_1474.txt Node
Date: Fri Mar 25 14:43:58 CST 2022
User: usil
Spectrometer: V785-0024
Trigger mode: 0
Integration Time (sec): 4.000000E-1
Scans to average: 1
Nonlinearity correction enabled: false
Boxcar width: 0
Storing dark spectrum: false
XAxis mode: Wavelengths
Number of Pixels in Spectrum: 1024
>>>>>Begin Spectral Data<<<<<
801.071	22417
801.214	22272
801.356	22021
801.499	21964
801.641	21876
801.783	21720
801.926	21698
802.068	21781
802.211	21671
802.353	21644
802.496	21412
802.638	21279
802.78	21203
802.923	21272
803.065	21055
803.208	21047
803.35	21009
803.492	21154
803.635	21264
803.777	21241
803.919	21169
804.061	21408
804.204	21218
804.346	21154
804.488	21089
804.63	21013
804.773	20929
804.915	21058
805.057	21055
805.199	21173
805.341	21070
805.483	21245
805.626	21112
805.768	20986
805.91	20963
806.052	21047
806.194	20899
806.336	21116
806.478	20994
806.62	20967
806.762	21100
806.904	21233
807.046	21401
807.188	21393
807.33	21450
807.472	21412
807.614	21306
807.756	21355
807.898	21176
808.04	21142
808.182	21226
808.324	21272
808.465	21401
808.607	21561
808.749	21656
808.891	21656
809.033	21869
809.174	21770
809.316	21622
809.458	21648
809.6	21557
809.741	21606
809.883	21656
810.025	21838
810.166	21614
810.308	21694
810.45	21622
810.591	21405
810.733	21450
810.875	21355
811.016	21150
811.158	21176
811.299	21401
811.441	21355
811.582	21492
811.724	21283
811.865	21142
812.007	21264
812.148	21256
812.29	21264
812.431	21511
812.573	21496
812.714	21709
812.855	21736
812.997	21846
813.138	21850
813.279	21835
813.421	21800
813.562	21618
813.703	21507
813.845	21439
813.986	21070
814.127	20902
814.268	20823
814.41	20872
814.551	20697
814.692	20880
814.833	20765
814.974	20773
815.115	20613
815.256	20598
815.397	20663
815.539	20590
815.68	20568
815.821	20454
815.962	20545
816.103	20476
816.244	20469
816.385	20145
816.526	20339
816.666	20202
816.807	19887
816.948	20039
817.089	20039
817.23	19974
817.371	19917
817.512	19913
817.653	19868
817.793	19898
817.934	19906
818.075	20001
818.216	19898
818.356	19712
818.497	19814
818.638	19635
818.778	19544
818.919	19582
819.06	19689
819.2	19685
819.341	19746
819.481	19780
819.622	19921
819.762	20191
819.903	20005
820.043	19921
820.184	19852
820.324	19875
820.465	19963
820.605	19963
820.746	19803
820.886	19742
821.026	19814
821.167	19879
821.307	19860
821.447	19826
821.588	19761
821.728	19506
821.868	19388
822.008	19346
822.149	19324
822.289	19373
822.429	19000
822.569	19072
822.709	19023
822.849	18817
822.99	18707
823.13	18776
823.27	18821
823.41	18684
823.55	18570
823.69	18642
823.83	18585
823.97	18589
824.11	18403
824.25	18338
824.389	18342
824.529	18334
824.669	18342
824.809	18391
824.949	18494
825.089	18422
825.228	18460
825.368	18254
825.508	18300
825.648	18148
825.787	18155
825.927	18270
826.067	18148
826.206	18133
826.346	18167
826.485	18129
826.625	18129
826.765	18270
826.904	18174
827.044	17840
827.183	17855
827.323	17786
827.462	17847
827.601	17843
827.741	17882
827.88	17840
828.02	17855
828.159	17836
828.298	17726
828.437	17855
828.577	17726
828.716	17977
828.855	17863
828.994	17600
829.134	17551
829.273	17634
829.412	17436
829.551	17532
829.69	17600
829.829	17649
829.968	17661
830.107	17642
830.246	17638
830.385	17505
830.524	17429
830.663	17334
830.802	17315
830.941	17159
831.08	17083
831.219	17353
831.357	17277
831.496	17417
831.635	17132
831.774	17086
831.913	17079
832.051	17014
832.19	16995
832.329	16987
832.467	17018
832.606	16839
832.744	16850
832.883	16889
833.022	16858
833.16	16809
833.299	16885
833.437	16946
833.576	16946
833.714	16957
833.852	16953
833.991	16965
834.129	17010
834.267	17025
834.406	16972
834.544	17045
834.682	17025
834.821	16930
834.959	17162
835.097	16881
835.235	17025
835.373	16995
835.511	17003
835.65	16843
835.788	16896
835.926	16759
836.064	16683
836.202	16672
836.34	16904
836.478	16908
836.615	16850
836.753	16831
836.891	16892
837.029	16911
837.167	16710
837.305	16698
837.443	16694
837.58	16744
837.718	16809
837.856	16710
837.993	16626
838.131	16615
838.269	16603
838.406	16637
838.544	16611
838.681	16424
838.819	16386
838.956	16265
839.094	16211
839.231	16287
839.369	16360
839.506	16599
839.643	16462
839.781	16272
839.918	16128
840.055	16253
840.193	16143
840.33	16158
840.467	16226
840.604	16303
840.742	16569
840.879	16215
841.016	16173
841.153	16067
841.29	16299
841.427	16299
841.564	16272
841.701	16234
841.838	16204
841.975	16071
842.112	16204
842.249	16029
842.385	15934
842.522	16230
842.659	16059
842.796	15960
842.933	16002
843.069	15949
843.206	15911
843.343	16109
843.479	16025
843.616	16112
843.752	15838
843.889	15789
844.025	16082
844.162	15751
844.298	15968
844.435	15739
844.571	15663
844.708	15816
844.844	15960
844.98	15979
845.117	15941
845.253	15766
845.389	15675
845.525	15846
845.661	15823
845.798	15781
845.934	15945
846.07	15819
846.206	15907
846.342	15941
846.478	15793
846.614	15477
846.75	15374
846.886	15287
847.022	15424
847.158	15370
847.294	15397
847.429	15416
847.565	15332
847.701	15523
847.837	15097
847.972	15028
848.108	15218
848.244	15100
848.379	15085
848.515	14990
848.65	14933
848.786	14990
848.921	14979
849.057	15104
849.192	15074
849.328	14952
849.463	14929
849.598	14864
849.734	14960
849.869	14792
850.004	14804
850.14	14762
850.275	14712
850.41	14598
850.545	14629
850.68	14689
850.815	14701
850.95	14739
851.085	14963
851.22	14796
851.355	14716
851.49	14655
851.625	14743
851.76	14708
851.895	14625
852.03	14621
852.165	14701
852.299	14693
852.434	14807
852.569	14834
852.703	14670
852.838	14857
852.973	14876
853.107	14853
853.242	14693
853.376	14545
853.511	14374
853.645	14670
853.78	14674
853.914	14629
854.048	14564
854.183	14617
854.317	14556
854.451	14819
854.585	14621
854.72	14533
854.854	14693
854.988	14480
855.122	14514
855.256	14419
855.39	14583
855.524	14621
855.658	14663
855.792	14488
855.926	14587
856.06	14613
856.194	14735
856.327	14705
856.461	14579
856.595	14552
856.729	14533
856.862	14705
856.996	14556
857.13	14636
857.263	14716
857.397	14701
857.53	14571
857.664	14727
857.797	14708
857.931	14739
858.064	14632
858.197	14769
858.331	14594
858.464	14522
858.597	14522
858.731	14587
858.864	14594
858.997	14514
859.13	14617
859.263	14632
859.396	14705
859.529	14587
859.662	14511
859.795	14625
859.928	14587
860.061	14720
860.194	14819
860.327	14583
860.46	14640
860.592	14712
860.725	14743
860.858	14705
860.99	14552
861.123	14465
861.256	14438
861.388	14625
861.521	15287
861.653	14503
861.786	14377
861.918	14484
862.05	14503
862.183	14454
862.315	14537
862.447	14663
862.58	14606
862.712	14355
862.844	14263
862.976	14408
863.108	14434
863.24	14853
863.372	14240
863.504	14385
863.636	14347
863.768	14503
863.9	14324
864.032	14233
864.164	14275
864.296	14427
864.428	14434
864.559	14473
864.691	14503
864.823	14396
864.954	14408
865.086	14320
865.217	14374
865.349	14313
865.48	14343
865.612	14385
865.743	14537
865.875	14309
866.006	14309
866.137	14374
866.269	14377
866.4	14313
866.531	14324
866.662	14278
866.793	14328
866.924	14301
867.055	14389
867.186	14290
867.317	14351
867.448	14347
867.579	14328
867.71	14320
867.841	14233
867.972	14355
868.103	14374
868.233	14366
868.364	14461
868.495	14396
868.625	14556
868.756	14602
868.886	14480
869.017	14469
869.147	14724
869.278	14674
869.408	14575
869.539	14655
869.669	14655
869.799	14560
869.929	14708
870.06	14746
870.19	14853
870.32	14864
870.45	14960
870.58	15074
870.71	15138
870.84	15123
870.97	14948
871.1	15013
871.23	15070
871.36	15081
871.489	15089
871.619	15070
871.749	15211
871.879	15214
872.008	15310
872.138	15218
872.267	15184
872.397	15138
872.526	15001
872.656	14971
872.785	14971
872.915	15241
873.044	15233
873.173	15245
873.303	15275
873.432	15302
873.561	15393
873.69	15211
873.819	15226
873.948	15313
874.077	15252
874.206	15218
874.335	15283
874.464	15408
874.593	15481
874.722	15469
874.851	15648
874.979	15599
875.108	15595
875.237	15534
875.365	15420
875.494	15564
875.623	15637
875.751	15473
875.88	15606
876.008	15705
876.136	15838
876.265	15918
876.393	16082
876.521	16093
876.65	15987
876.778	15953
876.906	15937
877.034	15937
877.162	15926
877.29	15873
877.418	16025
877.546	16013
877.674	16036
877.802	15979
877.93	16029
878.058	15800
878.185	15907
878.313	15857
878.441	15983
878.568	15861
878.696	15895
878.824	15964
878.951	16078
879.079	16230
879.206	16322
879.333	16185
879.461	16143
879.588	16086
879.715	16310
879.842	16303
879.97	16067
880.097	15949
880.224	15880
880.351	15854
880.478	15907
880.605	15762
880.732	15736
880.859	16101
880.986	15899
881.112	15838
881.239	15751
881.366	15584
881.493	15526
881.619	15458
881.746	15443
881.872	15481
881.999	15511
882.125	15367
882.252	15473
882.378	15568
882.505	15595
882.631	15405
882.757	15165
882.883	15287
883.01	15306
883.136	15268
883.262	15195
883.388	15138
883.514	15325
883.64	15355
883.766	15260
883.892	15176
884.018	15192
884.143	15344
884.269	15336
884.395	15112
884.52	14994
884.646	15047
884.772	15051
884.897	14899
885.023	14998
885.148	15077
885.274	15081
885.399	15169
885.524	15024
885.65	15009
885.775	15028
885.9	15009
886.025	15036
886.15	15074
886.275	14891
886.4	14967
886.525	14929
886.65	14937
886.775	15001
886.9	15108
887.025	15123
887.149	15020
887.274	14807
887.399	14750
887.523	14754
887.648	14674
887.773	14781
887.897	14967
888.021	14849
888.146	14762
888.27	14861
888.395	14887
888.519	14883
888.643	14902
888.767	14986
888.891	14648
889.015	14651
889.139	14663
889.263	14800
889.387	14758
889.511	14823
889.635	14781
889.759	14571
889.883	14720
890.006	14617
890.13	14853
890.254	14651
890.377	14522
890.501	14419
890.624	14473
890.748	14541
890.871	14507
890.995	14298
891.118	14187
891.241	14347
891.364	14336
891.488	14552
891.611	14385
891.734	14351
891.857	14381
891.98	14434
892.103	14499
892.226	14370
892.349	14362
892.471	14199
892.594	14389
892.717	14427
892.839	14336
892.962	14328
893.085	14427
893.207	14256
893.33	14183
893.452	14282
893.575	14450
893.697	14404
893.819	14473
893.941	14549
894.064	14560
894.186	14225
894.308	14252
894.43	14408
894.552	14556
894.674	14473
894.796	14385
894.918	14336
895.04	14476
895.161	14404
895.283	14446
895.405	14351
895.526	14396
895.648	14389
895.769	14503
895.891	14480
896.012	14530
896.134	14606
896.255	14522
896.376	14438
896.498	14583
896.619	14518
896.74	14484
896.861	14590
896.982	14891
897.103	15039
897.224	14815
897.345	14724
897.466	14754
897.587	14807
897.708	14948
897.828	14815
897.949	14804
898.07	14735
898.19	14659
898.311	14834
898.431	14883
898.552	14758
898.672	14899
898.792	14910
898.913	14849
899.033	14758
899.153	14765
899.273	14587
899.393	14674
899.513	14800
899.633	14693
899.753	14716
899.873	14739
899.993	14758
900.113	14708
900.232	14804
900.352	14651
900.472	14606
900.591	14568
900.711	14651
900.83	14526
900.95	14621
901.069	14739
901.189	14514
901.308	14328
901.427	14202
901.546	14294
901.665	14298
901.784	14210
901.904	14142
902.023	14183
902.141	13822
902.26	13852
902.379	13860
902.498	13841
902.617	13803
902.735	13852
902.854	13807
902.973	13761
903.091	13552
903.21	13476
903.328	13609
903.446	13445
903.565	13350
903.683	13396
903.801	13263
903.919	13483
904.038	13331
904.156	13228
904.274	13255
904.392	13213
904.51	13137
904.627	13126
904.745	13175
904.863	13217
904.981	12928
905.098	12852
905.216	12920
905.334	12840
905.451	12928
905.569	12837
905.686	12859
905.803	12856
905.921	12734
906.038	12817
906.155	12715
906.272	12623
906.389	12601
906.506	12540
906.623	12479
906.74	12418
906.857	12327
906.974	12426
907.091	12452
907.208	12684
907.324	12525
907.441	12327
907.557	12258
907.674	12182
907.79	12098
907.907	12159
908.023	12270
908.139	12300
908.256	12220
908.372	12140
908.488	12087
908.604	12064
908.72	11893
908.836	11999
908.952	11920
909.068	11969
909.184	12148
909.3	11988
909.415	12003
909.531	11851
909.647	11726
909.762	11745
909.878	11710
909.993	11756
910.108	11752
910.224	11547
910.339	11707
910.454	11653
910.57	11600
910.685	11558
910.8	11836
910.915	11695
911.03	11566
911.145	11398
911.259	11535
911.374	11429
911.489	11280
911.604	11330
911.718	11246
911.833	11178
911.947	11056
912.062	11083
912.176	11155
912.291	11250
912.405	11124
912.519	11341
912.633	11433
912.748	11288
912.862	11242
912.976	11037
913.09	10889
913.204	11014
913.318	11128
913.431	11128
913.545	11124
913.659	11151
913.772	11140
913.886	10968
914	10877
914.113	11052
914.226	11037
914.34	11083
914.453	10843
914.566	10987
914.68	10881
914.793	10904
914.906	10630
915.019	10656
915.132	10641
915.245	10668
915.358	10740
915.47	10736
915.583	10782
915.696	10691
915.809	10881
915.921	10801
916.034	10603
916.146	10615
916.259	10599
916.371	10668
916.483	10615
916.595	10588
916.708	10611
916.82	10675
916.932	10588
917.044	10615
917.156	10497
917.268	10459
917.38	10405
917.491	10462
917.603	10516
917.715	10615
917.826	10588
917.938	10481
918.049	10375
918.161	10519
918.272	10653
918.384	10565
918.495	10550
918.606	10382
918.717	10341
918.828	10409
918.939	10333
919.05	10325
919.161	10348
919.272	10246
919.383	10234
919.494	10447
919.604	10656
919.715	10504
919.826	10211
919.936	10356
920.047	10394
920.157	10478
920.267	10542
920.378	10398
920.488	10329
920.598	10611
920.708	10706
920.818	10596
920.928	10546
921.038	10782
921.148	10668
921.258	10436
921.368	10363
921.477	10257
921.587	10223
921.697	10162
921.806	10280
921.916	10196
922.025	10040
922.134	9949
922.244	9861
922.353	9975
922.462	9785
922.571	9755
922.68	9671
922.789	9568
922.898	9656
923.007	9572
923.116	9698
923.224	9618
923.333	9572
923.442	9515
923.55	9450
923.659	9564
923.767	9538
923.876	9454
923.984	9610
924.092	9458
924.201	9519
924.309	9447
924.417	9416
924.525	9412
924.633	9386
924.741	10356
924.849	9279
924.956	9321
925.064	9291
925.172	9195
925.279	9226
925.387	9317
925.494	9275
925.602	9397
925.709	9348
925.816	9138
925.924	9378
926.031	9382
926.138	9321
926.245	9321
926.352	9245
926.459	9317
926.566	9382
926.673	9260
926.779	9074
926.886	9070
926.993	9039
927.099	8918
927.206	8906
927.312	8944
927.419	9017
927.525	8975
927.631	9036
927.737	8929
927.843	8895
927.95	8731
928.056	8887
928.162	8876
928.267	8979
928.373	9576
928.479	8994
928.585	8739
928.69	8842
928.796	8998
928.901	8826
929.007	8800
929.112	8746
929.218	8800
929.323	8716
929.428	8670
929.533	8842
929.638	8701
929.743	8727
929.848	8746
929.953	8746
930.058	8648
930.163	8530
930.267	8522
930.372	8579
930.477	8469
930.581	8708
930.685	8629
930.79	8465
930.894	8488
930.998	8446
931.103	8568
931.207	8298
931.311	8168
931.415	8138
931.519	7951
931.623	8008
