Data from test_V78500241_2554.txt Node
Date: Fri Mar 25 14:51:29 CST 2022
User: usil
Spectrometer: V785-0024
Trigger mode: 0
Integration Time (sec): 4.000000E-1
Scans to average: 1
Nonlinearity correction enabled: false
Boxcar width: 0
Storing dark spectrum: false
XAxis mode: Wavelengths
Number of Pixels in Spectrum: 1024
>>>>>Begin Spectral Data<<<<<
801.071	22086
801.214	21934
801.356	21743
801.499	21622
801.641	21538
801.783	21408
801.926	21443
802.068	21306
802.211	21245
802.353	21264
802.496	20925
802.638	20994
802.78	20845
802.923	20819
803.065	20678
803.208	20678
803.35	20864
803.492	20857
803.635	20948
803.777	20762
803.919	20876
804.061	21020
804.204	20849
804.346	20629
804.488	20697
804.63	20716
804.773	20579
804.915	20701
805.057	20670
805.199	20602
805.341	20613
805.483	20868
805.626	20670
805.768	20594
805.91	20659
806.052	20678
806.194	20598
806.336	20823
806.478	20629
806.62	20556
806.762	20720
806.904	20849
807.046	21089
807.188	20979
807.33	20982
807.472	21013
807.614	20937
807.756	20918
807.898	20887
808.04	20602
808.182	20712
808.324	20705
808.465	20804
808.607	21017
808.749	21077
808.891	21039
809.033	21195
809.174	21081
809.316	21085
809.458	21024
809.6	21020
809.741	21051
809.883	21112
810.025	21077
810.166	21169
810.308	21119
810.45	20960
810.591	21112
810.733	20952
810.875	20800
811.016	20826
811.158	20758
811.299	20819
811.441	20918
811.582	20914
811.724	20739
811.865	20781
812.007	20811
812.148	20785
812.29	20834
812.431	20960
812.573	21119
812.714	21252
812.855	21245
812.997	21428
813.138	21450
813.279	21294
813.421	21283
813.562	21260
813.703	21032
813.845	21020
813.986	20651
814.127	20587
814.268	20389
814.41	20381
814.551	20244
814.692	20332
814.833	20298
814.974	20233
815.115	20309
815.256	20229
815.397	20176
815.539	20210
815.68	20134
815.821	19997
815.962	20077
816.103	20035
816.244	19860
816.385	19769
816.526	19750
816.666	19582
816.807	19468
816.948	19544
817.089	19552
817.23	19559
817.371	19346
817.512	19575
817.653	19445
817.793	19365
817.934	19472
818.075	19480
818.216	19419
818.356	19388
818.497	19285
818.638	19114
818.778	19175
818.919	19095
819.06	19133
819.2	19263
819.341	19244
819.481	19396
819.622	19529
819.762	19639
819.903	19624
820.043	19590
820.184	19480
820.324	19438
820.465	19624
820.605	19476
820.746	19460
820.886	19369
821.026	19449
821.167	19407
821.307	19540
821.447	19255
821.588	19415
821.728	19156
821.868	19019
822.008	18863
822.149	18829
822.289	18810
822.429	18642
822.569	18551
822.709	18559
822.849	18296
822.99	18281
823.13	18327
823.27	18304
823.41	18178
823.55	18015
823.69	18239
823.83	18213
823.97	17920
824.11	18011
824.25	17885
824.389	18041
824.529	18087
824.669	17946
824.809	17992
824.949	17874
825.089	18038
825.228	17942
825.368	17687
825.508	17680
825.648	17802
825.787	17722
825.927	17783
826.067	17665
826.206	17691
826.346	17748
826.485	17752
826.625	17748
826.765	17764
826.904	17752
827.044	17379
827.183	17421
827.323	17421
827.462	17463
827.601	17402
827.741	17444
827.88	17376
828.02	17212
828.159	17429
828.298	17387
828.437	17497
828.577	17334
828.716	17611
828.855	17337
828.994	17212
829.134	17132
829.273	17250
829.412	17117
829.551	17121
829.69	17162
829.829	17132
829.968	17178
830.107	17261
830.246	17128
830.385	17128
830.524	16991
830.663	16995
830.802	16904
830.941	16755
831.08	16771
831.219	16885
831.357	16873
831.496	17025
831.635	16733
831.774	16672
831.913	16630
832.051	16497
832.19	16558
832.329	16451
832.467	16455
832.606	16485
832.744	16413
832.883	16409
833.022	16462
833.16	16455
833.299	16596
833.437	16516
833.576	16447
833.714	16523
833.852	16618
833.991	16561
834.129	16523
834.267	16683
834.406	16569
834.544	16523
834.682	16542
834.821	16459
834.959	16683
835.097	16584
835.235	16645
835.373	16481
835.511	16565
835.65	16455
835.788	16462
835.926	16318
836.064	16287
836.202	16253
836.34	16455
836.478	16466
836.615	16379
836.753	16398
836.891	16531
837.029	16337
837.167	16386
837.305	16356
837.443	16303
837.58	16284
837.718	16333
837.856	16417
837.993	16291
838.131	16363
838.269	16253
838.406	16280
838.544	16109
838.681	15979
838.819	16051
838.956	15888
839.094	15876
839.231	15926
839.369	15972
839.506	16246
839.643	16101
839.781	15892
839.918	15808
840.055	15861
840.193	15907
840.33	15827
840.467	15895
840.604	15915
840.742	16177
840.879	15720
841.016	15713
841.153	15720
841.29	15937
841.427	15846
841.564	15850
841.701	15876
841.838	15724
841.975	15720
842.112	15774
842.249	15603
842.385	15530
842.522	15686
842.659	15701
842.796	15534
842.933	15633
843.069	15511
843.206	15625
843.343	15667
843.479	15641
843.616	15717
843.752	15473
843.889	15378
844.025	15526
844.162	15389
844.298	15584
844.435	15412
844.571	15275
844.708	15545
844.844	15549
844.98	15519
845.117	15538
845.253	15382
845.389	15264
845.525	15348
845.661	15382
845.798	15252
845.934	15272
846.07	15245
846.206	15279
846.342	15344
846.478	15268
846.614	15127
846.75	14902
846.886	15074
847.022	15074
847.158	15055
847.294	15001
847.429	14994
847.565	15036
847.701	15256
847.837	14727
847.972	14754
848.108	14811
848.244	14842
848.379	14579
848.515	14663
848.65	14674
848.786	14651
848.921	14629
849.057	14716
849.192	14750
849.328	14625
849.463	14648
849.598	14537
849.734	14499
849.869	14320
850.004	14355
850.14	14480
850.275	14324
850.41	14328
850.545	14347
850.68	14320
850.815	14355
850.95	14351
851.085	14537
851.22	14396
851.355	14427
851.49	14248
851.625	14317
851.76	14412
851.895	14252
852.03	14214
852.165	14237
852.299	14347
852.434	14400
852.569	14423
852.703	14400
852.838	14469
852.973	14499
853.107	14492
853.242	14309
853.376	14282
853.511	14225
853.645	14153
853.78	14381
853.914	14210
854.048	14259
854.183	14214
854.317	14218
854.451	14400
854.585	14195
854.72	14206
854.854	14336
854.988	14103
855.122	14202
855.256	14012
855.39	14244
855.524	14286
855.658	14244
855.792	14259
855.926	14317
856.06	14221
856.194	14347
856.327	14161
856.461	14107
856.595	14164
856.729	14233
856.862	14351
856.996	14244
857.13	14252
857.263	14339
857.397	14282
857.53	14256
857.664	14278
857.797	14309
857.931	14324
858.064	14328
858.197	14389
858.331	14278
858.464	14157
858.597	14107
858.731	14199
858.864	14130
858.997	14157
859.13	14305
859.263	14225
859.396	14263
859.529	14183
859.662	14267
859.795	14119
859.928	14256
860.061	14408
860.194	14431
860.327	14237
860.46	14336
860.592	14313
860.725	14438
860.858	14450
860.99	14225
861.123	14138
861.256	14145
861.388	14240
861.521	14853
861.653	14161
861.786	14138
861.918	14134
862.05	14218
862.183	14218
862.315	14199
862.447	14317
862.58	14145
862.712	13917
862.844	14050
862.976	14096
863.108	14058
863.24	14488
863.372	13883
863.504	14043
863.636	13982
863.768	14035
863.9	14008
864.032	13917
864.164	13959
864.296	14008
864.428	14115
864.559	14084
864.691	14172
864.823	14119
864.954	13963
865.086	14081
865.217	14024
865.349	13947
865.48	14043
865.612	14039
865.743	14168
865.875	14016
866.006	13906
866.137	13967
866.269	14008
866.4	13993
866.531	13989
866.662	13982
866.793	14031
866.924	13982
867.055	14005
867.186	13909
867.317	13978
867.448	13921
867.579	13940
867.71	13902
867.841	13974
867.972	13970
868.103	13997
868.233	13997
868.364	13928
868.495	14088
868.625	14244
868.756	14263
868.886	14214
869.017	14233
869.147	14298
869.278	14377
869.408	14259
869.539	14256
869.669	14438
869.799	14332
869.929	14309
870.06	14332
870.19	14590
870.32	14526
870.45	14518
870.58	14590
870.71	14743
870.84	14842
870.97	14674
871.1	14663
871.23	14830
871.36	14902
871.489	14754
871.619	14823
871.749	14792
871.879	14842
872.008	14986
872.138	14777
872.267	14788
872.397	14678
872.526	14640
872.656	14613
872.785	14853
872.915	14864
873.044	14948
873.173	14902
873.303	14952
873.432	15039
873.561	15009
873.69	14826
873.819	14910
873.948	14948
874.077	14902
874.206	14880
874.335	14914
874.464	15154
874.593	15218
874.722	15108
874.851	15367
874.979	15230
875.108	15298
875.237	15123
875.365	15077
875.494	15214
875.623	15291
875.751	15188
875.88	15325
876.008	15397
876.136	15458
876.265	15663
876.393	15709
876.521	15770
876.65	15724
876.778	15591
876.906	15576
877.034	15515
877.162	15580
877.29	15557
877.418	15622
877.546	15637
877.674	15618
877.802	15747
877.93	15591
878.058	15519
878.185	15576
878.313	15523
878.441	15660
878.568	15538
878.696	15606
878.824	15603
878.951	15751
879.079	15800
879.206	15884
879.333	15766
879.461	15713
879.588	15682
879.715	15732
879.842	15953
879.97	15709
880.097	15462
880.224	15428
880.351	15420
880.478	15587
880.605	15374
880.732	15412
880.859	15728
880.986	15473
881.112	15606
881.239	15363
881.366	15256
881.493	15203
881.619	15138
881.746	15036
881.872	15176
881.999	15116
882.125	15112
882.252	15218
882.378	15146
882.505	15230
882.631	15066
882.757	15039
882.883	14956
883.01	14941
883.136	14895
883.262	14864
883.388	14686
883.514	15028
883.64	15028
883.766	14914
883.892	14693
884.018	14800
884.143	14918
884.269	14990
884.395	14796
884.52	14613
884.646	14686
884.772	14640
884.897	14549
885.023	14705
885.148	14792
885.274	14788
885.399	14708
885.524	14720
885.65	14621
885.775	14632
885.9	14568
886.025	14819
886.15	14739
886.275	14670
886.4	14545
886.525	14602
886.65	14598
886.775	14556
886.9	14743
887.025	14899
887.149	14564
887.274	14488
887.399	14442
887.523	14480
887.648	14355
887.773	14465
887.897	14480
888.021	14621
888.146	14454
888.27	14575
888.395	14655
888.519	14549
888.643	14545
888.767	14492
888.891	14454
889.015	14324
889.139	14275
889.263	14381
889.387	14457
889.511	14568
889.635	14480
889.759	14351
889.883	14278
890.006	14339
890.13	14480
890.254	14191
890.377	14317
890.501	14126
890.624	14142
890.748	14210
890.871	14161
890.995	14016
891.118	14043
891.241	14043
891.364	14138
891.488	14206
891.611	14039
891.734	14035
891.857	14142
891.98	14092
892.103	14130
892.226	14145
892.349	14039
892.471	13917
892.594	13902
892.717	14050
892.839	14039
892.962	14058
893.085	13986
893.207	14058
893.33	14058
893.452	13993
893.575	14096
893.697	14046
893.819	14191
893.941	14237
894.064	14195
894.186	14058
894.308	13986
894.43	14134
894.552	14168
894.674	14191
894.796	13989
894.918	14130
895.04	14126
895.161	14202
895.283	14199
895.405	14050
895.526	14210
895.648	14157
895.769	14229
895.891	14237
896.012	14267
896.134	14301
896.255	14218
896.376	14176
896.498	14210
896.619	14278
896.74	14183
896.861	14271
896.982	14636
897.103	14727
897.224	14537
897.345	14560
897.466	14484
897.587	14507
897.708	14590
897.828	14568
897.949	14594
898.07	14313
898.19	14476
898.311	14678
898.431	14537
898.552	14598
898.672	14625
898.792	14689
898.913	14564
899.033	14590
899.153	14438
899.273	14385
899.393	14362
899.513	14473
899.633	14415
899.753	14526
899.873	14377
899.993	14507
900.113	14461
900.232	14389
900.352	14400
900.472	14408
900.591	14355
900.711	14199
900.83	14199
900.95	14423
901.069	14438
901.189	14248
901.308	14039
901.427	13788
901.546	14020
901.665	14077
901.784	14027
901.904	13822
902.023	13776
902.141	13552
902.26	13537
902.379	13624
902.498	13552
902.617	13476
902.735	13609
902.854	13506
902.973	13525
903.091	13343
903.21	13289
903.328	13316
903.446	13190
903.565	13171
903.683	13198
903.801	13038
903.919	13099
904.038	13080
904.156	12951
904.274	13004
904.392	12920
904.51	12920
904.627	12935
904.745	12996
904.863	12878
904.981	12738
905.098	12623
905.216	12604
905.334	12646
905.451	12650
905.569	12593
905.686	12669
905.803	12616
905.921	12464
906.038	12532
906.155	12448
906.272	12289
906.389	12353
906.506	12190
906.623	12254
906.74	12213
906.857	12087
906.974	12136
907.091	12220
907.208	12292
907.324	12281
907.441	12163
907.557	12041
907.674	12041
907.79	11897
907.907	11999
908.023	11969
908.139	11904
908.256	11931
908.372	11851
908.488	11874
908.604	11809
908.72	11630
908.836	11733
908.952	11726
909.068	11676
909.184	11870
909.3	11729
909.415	11745
909.531	11889
909.647	11551
909.762	11471
909.878	11425
909.993	11543
910.108	11429
910.224	11463
910.339	11532
910.454	11334
910.57	11379
910.685	11216
910.8	11516
910.915	11444
911.03	11299
911.145	11098
911.259	11250
911.374	11174
911.489	11067
911.604	11025
911.718	10995
911.833	10919
911.947	10847
912.062	10786
912.176	11006
912.291	11018
912.405	10942
912.519	11064
912.633	11071
912.748	11071
912.862	10968
912.976	10778
913.09	10778
913.204	10767
913.318	10839
913.431	10900
913.545	10896
913.659	10934
913.772	10835
913.886	10736
914	10790
914.113	10748
914.226	10862
914.34	10873
914.453	10580
914.566	10778
914.68	10649
914.793	10622
914.906	10485
915.019	10432
915.132	10360
915.245	10493
915.358	10470
915.47	10462
915.583	10447
915.696	10577
915.809	10565
915.921	10573
916.034	10459
916.146	10386
916.259	10367
916.371	10497
916.483	10447
916.595	10367
916.708	10398
916.82	10371
916.932	10352
917.044	10360
917.156	10295
917.268	10299
917.38	10348
917.491	10341
917.603	10341
917.715	10394
917.826	10394
917.938	10276
918.049	10173
918.161	10348
918.272	10478
918.384	10455
918.495	10356
918.606	10188
918.717	10124
918.828	10207
918.939	10166
919.05	10059
919.161	10154
919.272	10082
919.383	10124
919.494	10287
919.604	10398
919.715	10284
919.826	10071
919.936	10223
920.047	10318
920.157	10322
920.267	10466
920.378	10272
920.488	10204
920.598	10455
920.708	10577
920.818	10443
920.928	10398
921.038	10580
921.148	10481
921.258	10257
921.368	10166
921.477	10097
921.587	10010
921.697	9915
921.806	10124
921.916	9968
922.025	9861
922.134	9751
922.244	9709
922.353	9819
922.462	9667
922.571	9625
922.68	9545
922.789	9401
922.898	9511
923.007	9424
923.116	9553
923.224	9485
923.333	9420
923.442	9412
923.55	9397
923.659	9450
923.767	9424
923.876	9264
923.984	9439
924.092	9317
924.201	9348
924.309	9294
924.417	9275
924.525	9268
924.633	9260
924.741	10055
924.849	9100
924.956	9233
925.064	9108
925.172	9020
925.279	9157
925.387	9138
925.494	9119
925.602	9222
925.709	9218
925.816	9135
925.924	9104
926.031	9165
926.138	9112
926.245	9249
926.352	8979
926.459	9157
926.566	9131
926.673	9131
926.779	8971
926.886	9024
926.993	8929
927.099	8853
927.206	8823
927.312	8766
927.419	8925
927.525	8895
927.631	8902
927.737	8739
927.843	8811
927.95	8640
928.056	8762
928.162	8766
928.267	8746
928.373	9374
928.479	8796
928.585	8644
928.69	8720
928.796	8720
928.901	8648
929.007	8598
929.112	8701
929.218	8701
929.323	8606
929.428	8549
929.533	8712
929.638	8484
929.743	8530
929.848	8568
929.953	8526
930.058	8423
930.163	8275
930.267	8286
930.372	8530
930.477	8298
930.581	8499
930.685	8404
930.79	8305
930.894	8358
930.998	8279
931.103	8400
931.207	8092
931.311	8043
931.415	7959
931.519	7719
931.623	7765
