Data from test_V78500241_3027.txt Node
Date: Fri Mar 25 14:54:47 CST 2022
User: usil
Spectrometer: V785-0024
Trigger mode: 0
Integration Time (sec): 4.000000E-1
Scans to average: 1
Nonlinearity correction enabled: false
Boxcar width: 0
Storing dark spectrum: false
XAxis mode: Wavelengths
Number of Pixels in Spectrum: 1024
>>>>>Begin Spectral Data<<<<<
801.071	22109
801.214	21911
801.356	21663
801.499	21755
801.641	21431
801.783	21519
801.926	21553
802.068	21272
802.211	21374
802.353	21306
802.496	20899
802.638	20872
802.78	20960
802.923	20887
803.065	20708
803.208	20773
803.35	20811
803.492	20998
803.635	21001
803.777	20804
803.919	20792
804.061	21203
804.204	20872
804.346	20777
804.488	20598
804.63	20762
804.773	20617
804.915	20762
805.057	20792
805.199	20670
805.341	20758
805.483	20880
805.626	20727
805.768	20777
805.91	20743
806.052	20686
806.194	20606
806.336	20906
806.478	20632
806.62	20587
806.762	20743
806.904	20891
807.046	21165
807.188	20971
807.33	21058
807.472	21154
807.614	20944
807.756	21047
807.898	20883
808.04	20765
808.182	20815
808.324	20743
808.465	20849
808.607	20967
808.749	21108
808.891	21203
809.033	21344
809.174	21218
809.316	21108
809.458	21119
809.6	20994
809.741	21066
809.883	21127
810.025	21332
810.166	21268
810.308	21283
810.45	21176
810.591	21233
810.733	20956
810.875	20918
811.016	20861
811.158	20807
811.299	20960
811.441	20967
811.582	20929
811.724	20777
811.865	20693
812.007	20754
812.148	20845
812.29	20891
812.431	20979
812.573	21138
812.714	21344
812.855	21275
812.997	21458
813.138	21568
813.279	21401
813.421	21428
813.562	21298
813.703	21188
813.845	20952
813.986	20670
814.127	20602
814.268	20442
814.41	20488
814.551	20358
814.692	20495
814.833	20282
814.974	20351
815.115	20431
815.256	20358
815.397	20278
815.539	20172
815.68	20107
815.821	20008
815.962	20138
816.103	20058
816.244	20012
816.385	19807
816.526	19875
816.666	19639
816.807	19571
816.948	19575
817.089	19613
817.23	19719
817.371	19605
817.512	19480
817.653	19540
817.793	19548
817.934	19468
818.075	19582
818.216	19518
818.356	19453
818.497	19285
818.638	19217
818.778	19156
818.919	19206
819.06	19255
819.2	19392
819.341	19384
819.481	19354
819.622	19525
819.762	19757
819.903	19651
820.043	19647
820.184	19506
820.324	19491
820.465	19559
820.605	19655
820.746	19403
820.886	19270
821.026	19468
821.167	19434
821.307	19468
821.447	19392
821.588	19255
821.728	19259
821.868	19019
822.008	18958
822.149	18791
822.289	18958
822.429	18578
822.569	18563
822.709	18486
822.849	18429
822.99	18350
823.13	18418
823.27	18353
823.41	18178
823.55	18194
823.69	18121
823.83	18254
823.97	18064
824.11	17977
824.25	17965
824.389	17999
824.529	18068
824.669	17878
824.809	18064
824.949	18053
825.089	18030
825.228	17954
825.368	17672
825.508	17760
825.648	17726
825.787	17783
825.927	17809
826.067	17649
826.206	17756
826.346	17756
826.485	17752
826.625	17870
826.765	17790
826.904	17737
827.044	17459
827.183	17551
827.323	17398
827.462	17490
827.601	17372
827.741	17311
827.88	17532
828.02	17421
828.159	17402
828.298	17551
828.437	17573
828.577	17353
828.716	17577
828.855	17349
828.994	17273
829.134	17132
829.273	17174
829.412	17159
829.551	17113
829.69	17246
829.829	17315
829.968	17288
830.107	17322
830.246	17086
830.385	17105
830.524	17166
830.663	17052
830.802	16968
830.941	16706
831.08	16812
831.219	16892
831.357	16892
831.496	16995
831.635	16923
831.774	16691
831.913	16580
832.051	16580
832.19	16462
832.329	16660
832.467	16390
832.606	16440
832.744	16497
832.883	16481
833.022	16504
833.16	16523
833.299	16603
833.437	16462
833.576	16519
833.714	16424
833.852	16466
833.991	16607
834.129	16512
834.267	16531
834.406	16500
834.544	16428
834.682	16592
834.821	16527
834.959	16668
835.097	16508
835.235	16588
835.373	16375
835.511	16481
835.65	16371
835.788	16417
835.926	16211
836.064	16154
836.202	16276
836.34	16375
836.478	16500
836.615	16413
836.753	16440
836.891	16459
837.029	16485
837.167	16280
837.305	16443
837.443	16291
837.58	16181
837.718	16322
837.856	16322
837.993	16177
838.131	16310
838.269	16272
838.406	16177
838.544	16097
838.681	16040
838.819	15975
838.956	15785
839.094	15762
839.231	15911
839.369	15941
839.506	16154
839.643	15994
839.781	15816
839.918	15739
840.055	15854
840.193	15861
840.33	15774
840.467	15876
840.604	15785
840.742	16032
840.879	15732
841.016	15671
841.153	15728
841.29	15888
841.427	15797
841.564	15922
841.701	15770
841.838	15766
841.975	15827
842.112	15743
842.249	15701
842.385	15504
842.522	15713
842.659	15564
842.796	15584
842.933	15492
843.069	15603
843.206	15492
843.343	15633
843.479	15557
843.616	15671
843.752	15340
843.889	15435
844.025	15545
844.162	15466
844.298	15420
844.435	15302
844.571	15405
844.708	15401
844.844	15504
844.98	15469
845.117	15431
845.253	15291
845.389	15233
845.525	15397
845.661	15351
845.798	15169
845.934	15241
846.07	15131
846.206	15199
846.342	15336
846.478	15146
846.614	15043
846.75	14918
846.886	14971
847.022	15036
847.158	15013
847.294	14933
847.429	15024
847.565	14933
847.701	15131
847.837	14705
847.972	14651
848.108	14781
848.244	14804
848.379	14594
848.515	14564
848.65	14514
848.786	14503
848.921	14541
849.057	14594
849.192	14670
849.328	14598
849.463	14598
849.598	14568
849.734	14598
849.869	14396
850.004	14419
850.14	14362
850.275	14256
850.41	14271
850.545	14298
850.68	14320
850.815	14298
850.95	14347
851.085	14537
851.22	14514
851.355	14427
851.49	14263
851.625	14301
851.76	14339
851.895	14244
852.03	14218
852.165	14256
852.299	14332
852.434	14412
852.569	14351
852.703	14317
852.838	14343
852.973	14518
853.107	14457
853.242	14278
853.376	14180
853.511	14157
853.645	14157
853.78	14339
853.914	14244
854.048	14195
854.183	14199
854.317	14278
854.451	14305
854.585	14134
854.72	14077
854.854	14275
854.988	14027
855.122	14206
855.256	14107
855.39	14161
855.524	14218
855.658	14332
855.792	14176
855.926	14290
856.06	14145
856.194	14237
856.327	14206
856.461	14305
856.595	14103
856.729	14153
856.862	14358
856.996	14278
857.13	14252
857.263	14244
857.397	14434
857.53	14237
857.664	14225
857.797	14225
857.931	14328
858.064	14176
858.197	14294
858.331	14126
858.464	14145
858.597	14130
858.731	14161
858.864	14123
858.997	14225
859.13	14214
859.263	14218
859.396	14320
859.529	14183
859.662	14252
859.795	14100
859.928	14301
860.061	14343
860.194	14282
860.327	14183
860.46	14107
860.592	14370
860.725	14358
860.858	14195
860.99	14225
861.123	14084
861.256	14168
861.388	14183
861.521	14857
861.653	14062
861.786	14043
861.918	14050
862.05	14103
862.183	14149
862.315	14103
862.447	14176
862.58	14157
862.712	13879
862.844	13875
862.976	14008
863.108	13989
863.24	14423
863.372	13791
863.504	13852
863.636	14001
863.768	14012
863.9	13921
864.032	13917
864.164	13856
864.296	14020
864.428	14100
864.559	14092
864.691	14088
864.823	14096
864.954	14073
865.086	14008
865.217	13936
865.349	13830
865.48	13944
865.612	13917
865.743	14073
865.875	13993
866.006	14016
866.137	13978
866.269	13944
866.4	13803
866.531	13898
866.662	13837
866.793	13913
866.924	13982
867.055	13997
867.186	13989
867.317	13890
867.448	13841
867.579	13890
867.71	13852
867.841	13906
867.972	13784
868.103	13898
868.233	14073
868.364	14020
868.495	14005
868.625	14237
868.756	14248
868.886	14142
869.017	14100
869.147	14271
869.278	14324
869.408	14263
869.539	14100
869.669	14244
869.799	14271
869.929	14305
870.06	14301
870.19	14446
870.32	14492
870.45	14579
870.58	14659
870.71	14712
870.84	14655
870.97	14682
871.1	14594
871.23	14781
871.36	14800
871.489	14670
871.619	14815
871.749	14811
871.879	14864
872.008	14861
872.138	14834
872.267	14727
872.397	14621
872.526	14598
872.656	14621
872.785	14587
872.915	14918
873.044	14910
873.173	14830
873.303	14819
873.432	14880
873.561	14929
873.69	14902
873.819	14735
873.948	14948
874.077	14804
874.206	14853
874.335	14872
874.464	15028
874.593	15195
874.722	15024
874.851	15207
874.979	15157
875.108	15283
875.237	15169
875.365	15142
875.494	15135
875.623	15268
875.751	15222
875.88	15268
876.008	15294
876.136	15485
876.265	15549
876.393	15720
876.521	15595
876.65	15743
876.778	15694
876.906	15538
877.034	15526
877.162	15603
877.29	15534
877.418	15526
877.546	15561
877.674	15641
877.802	15561
877.93	15572
878.058	15515
878.185	15473
878.313	15545
878.441	15595
878.568	15405
878.696	15553
878.824	15564
878.951	15599
879.079	15793
879.206	15873
879.333	15774
879.461	15629
879.588	15618
879.715	15705
879.842	15956
879.97	15686
880.097	15420
880.224	15450
880.351	15492
880.478	15374
880.605	15428
880.732	15420
880.859	15663
880.986	15447
881.112	15443
881.239	15348
881.366	15207
881.493	15036
881.619	15081
881.746	15039
881.872	15085
881.999	15009
882.125	14963
882.252	15169
882.378	15135
882.505	15268
882.631	14933
882.757	14819
882.883	15036
883.01	14880
883.136	14800
883.262	14727
883.388	14788
883.514	14929
883.64	14872
883.766	14826
883.892	14743
884.018	14765
884.143	14906
884.269	14941
884.395	14693
884.52	14674
884.646	14636
884.772	14533
884.897	14583
885.023	14625
885.148	14731
885.274	14876
885.399	14693
885.524	14476
885.65	14651
885.775	14590
885.9	14583
886.025	14712
886.15	14674
886.275	14621
886.4	14446
886.525	14541
886.65	14552
886.775	14621
886.9	14724
887.025	14883
887.149	14674
887.274	14492
887.399	14366
887.523	14343
887.648	14370
887.773	14423
887.897	14469
888.021	14465
888.146	14343
888.27	14552
888.395	14549
888.519	14442
888.643	14438
888.767	14488
888.891	14476
889.015	14282
889.139	14358
889.263	14298
889.387	14473
889.511	14476
889.635	14377
889.759	14336
889.883	14336
890.006	14336
890.13	14465
890.254	14225
890.377	14237
890.501	14161
890.624	14096
890.748	14225
890.871	14012
890.995	13890
891.118	13860
891.241	14039
891.364	14046
891.488	14210
891.611	13947
891.734	13974
891.857	14035
891.98	14050
892.103	14237
892.226	14016
892.349	14100
892.471	13837
892.594	13947
892.717	14020
892.839	13997
892.962	14065
893.085	14012
893.207	13970
893.33	13822
893.452	13902
893.575	14046
893.697	14012
893.819	14240
893.941	14290
894.064	14126
894.186	14008
894.308	13967
894.43	14134
894.552	14191
894.674	14130
894.796	13993
894.918	14096
895.04	13982
895.161	14115
895.283	14092
895.405	14077
895.526	14016
895.648	14157
895.769	14115
895.891	14229
896.012	14237
896.134	14218
896.255	14145
896.376	14123
896.498	14153
896.619	14301
896.74	14225
896.861	14244
896.982	14564
897.103	14678
897.224	14552
897.345	14358
897.466	14465
897.587	14511
897.708	14583
897.828	14564
897.949	14518
898.07	14263
898.19	14362
898.311	14583
898.431	14514
898.552	14560
898.672	14594
898.792	14613
898.913	14602
899.033	14473
899.153	14347
899.273	14248
899.393	14381
899.513	14404
899.633	14370
899.753	14503
899.873	14358
899.993	14499
900.113	14381
900.232	14438
900.352	14370
900.472	14263
900.591	14233
900.711	14214
900.83	14221
900.95	14461
901.069	14347
901.189	14183
901.308	14062
901.427	13906
901.546	14031
901.665	13982
901.784	13963
901.904	13833
902.023	13757
902.141	13590
902.26	13457
902.379	13510
902.498	13491
902.617	13529
902.735	13533
902.854	13521
902.973	13457
903.091	13221
903.21	13164
903.328	13251
903.446	13149
903.565	13149
903.683	13156
903.801	12981
903.919	13046
904.038	13091
904.156	12935
904.274	13004
904.392	12928
904.51	12802
904.627	12859
904.745	13023
904.863	12985
904.981	12677
905.098	12658
905.216	12566
905.334	12574
905.451	12517
905.569	12627
905.686	12616
905.803	12544
905.921	12418
906.038	12528
906.155	12456
906.272	12289
906.389	12380
906.506	12155
906.623	12235
906.74	12186
906.857	12110
906.974	12045
907.091	12247
907.208	12281
907.324	12213
907.441	12144
907.557	11939
907.674	11965
907.79	11828
907.907	11874
908.023	11965
908.139	11908
908.256	11912
908.372	11897
908.488	11809
908.604	11684
908.72	11710
908.836	11676
908.952	11684
909.068	11672
909.184	11847
909.3	11710
909.415	11676
909.531	11684
909.647	11474
909.762	11478
909.878	11421
909.993	11490
910.108	11444
910.224	11387
910.339	11402
910.454	11360
910.57	11292
910.685	11258
910.8	11459
910.915	11512
911.03	11322
911.145	11166
911.259	11136
911.374	11124
911.489	11086
911.604	11094
911.718	10965
911.833	10896
911.947	10782
912.062	10736
912.176	10942
912.291	10965
912.405	10889
912.519	11166
912.633	11105
912.748	11060
912.862	10995
912.976	10869
913.09	10630
913.204	10714
913.318	10786
913.431	10820
913.545	10850
913.659	10927
913.772	10774
913.886	10679
914	10668
914.113	10755
914.226	10797
914.34	10698
914.453	10558
914.566	10748
914.68	10577
914.793	10573
914.906	10417
915.019	10417
915.132	10386
915.245	10356
915.358	10417
915.47	10344
915.583	10432
915.696	10428
915.809	10447
915.921	10592
916.034	10382
916.146	10295
916.259	10295
916.371	10474
916.483	10474
916.595	10318
916.708	10386
916.82	10352
916.932	10379
917.044	10257
917.156	10348
917.268	10223
917.38	10382
917.491	10166
917.603	10261
917.715	10310
917.826	10447
917.938	10150
918.049	10101
918.161	10200
918.272	10405
918.384	10344
918.495	10344
918.606	10150
918.717	10124
918.828	10200
918.939	10150
919.05	9987
919.161	10021
919.272	9949
919.383	10063
919.494	10200
919.604	10360
919.715	10166
919.826	10078
919.936	10143
920.047	10249
920.157	10173
920.267	10409
920.378	10185
920.488	10200
920.598	10367
920.708	10402
920.818	10348
920.928	10329
921.038	10519
921.148	10363
921.258	10257
921.368	10139
921.477	9975
921.587	10010
921.697	9918
921.806	10040
921.916	9930
922.025	9713
922.134	9663
922.244	9698
922.353	9686
922.462	9705
922.571	9526
922.68	9386
922.789	9351
922.898	9355
923.007	9382
923.116	9405
923.224	9408
923.333	9466
923.442	9291
923.55	9306
923.659	9321
923.767	9416
923.876	9355
923.984	9336
924.092	9268
924.201	9249
924.309	9348
924.417	9321
924.525	9245
924.633	9233
924.741	10185
924.849	8994
924.956	9214
925.064	8998
925.172	9013
925.279	9058
925.387	9085
925.494	9097
925.602	9161
925.709	9138
925.816	9055
925.924	9081
926.031	9176
926.138	9089
926.245	9146
926.352	9028
926.459	9123
926.566	9154
926.673	9013
926.779	8857
926.886	8899
926.993	8777
927.099	8743
927.206	8758
927.312	8693
927.419	8845
927.525	8872
927.631	8845
927.737	8667
927.843	8705
927.95	8552
928.056	8708
928.162	8678
928.267	8731
928.373	9253
928.479	8773
928.585	8518
928.69	8720
928.796	8701
928.901	8571
929.007	8431
929.112	8617
929.218	8583
929.323	8480
929.428	8514
929.533	8560
929.638	8454
929.743	8484
929.848	8549
929.953	8514
930.058	8454
930.163	8252
930.267	8351
930.372	8396
930.477	8237
930.581	8484
930.685	8362
930.79	8221
930.894	8286
930.998	8206
931.103	8385
931.207	8005
931.311	7959
931.415	7887
931.519	7704
931.623	7731
