Data from test_V78500241_880.txt Node
Date: Fri Mar 25 14:39:50 CST 2022
User: usil
Spectrometer: V785-0024
Trigger mode: 0
Integration Time (sec): 4.000000E-1
Scans to average: 1
Nonlinearity correction enabled: false
Boxcar width: 0
Storing dark spectrum: false
XAxis mode: Wavelengths
Number of Pixels in Spectrum: 1024
>>>>>Begin Spectral Data<<<<<
801.071	25540
801.214	25377
801.356	25072
801.499	24924
801.641	24875
801.783	24844
801.926	24734
802.068	24859
802.211	24540
802.353	24547
802.496	24342
802.638	24350
802.78	24292
802.923	24266
803.065	24224
803.208	24133
803.35	24110
803.492	24357
803.635	24479
803.777	24117
803.919	24304
804.061	24555
804.204	24346
804.346	24197
804.488	24053
804.63	24197
804.773	24041
804.915	24235
805.057	24403
805.199	24266
805.341	24365
805.483	24517
805.626	24426
805.768	24224
805.91	24334
806.052	24528
806.194	24441
806.336	24681
806.478	24585
806.62	24760
806.762	24768
806.904	25110
807.046	25339
807.188	25537
807.33	25552
807.472	25837
807.614	25917
807.756	26267
807.898	26431
808.04	27013
808.182	27530
808.324	28440
808.465	29627
808.607	30688
808.749	31510
808.891	32153
809.033	32366
809.174	31582
809.316	30441
809.458	29539
809.6	28405
809.741	27542
809.883	26975
810.025	26609
810.166	26317
810.308	25936
810.45	25833
810.591	25632
810.733	25327
810.875	25133
811.016	24916
811.158	24837
811.299	25004
811.441	24981
811.582	24875
811.724	24741
811.865	24677
812.007	24703
812.148	24547
812.29	24715
812.431	24817
812.573	24958
812.714	24935
812.855	25103
812.997	25099
813.138	25103
813.279	25209
813.421	25050
813.562	24814
813.703	24738
813.845	24741
813.986	24327
814.127	24129
814.268	24121
814.41	24144
814.551	23855
814.692	24049
814.833	24045
814.974	23980
815.115	23939
815.256	23786
815.397	23745
815.539	23775
815.68	23649
815.821	23547
815.962	23718
816.103	23562
816.244	23417
816.385	23345
816.526	23284
816.666	23246
816.807	23166
816.948	23124
817.089	23212
817.23	23109
817.371	22961
817.512	23025
817.653	23025
817.793	23022
817.934	23018
818.075	22934
818.216	22961
818.356	22904
818.497	22812
818.638	22611
818.778	22656
818.919	22656
819.06	22733
819.2	22767
819.341	22797
819.481	22847
819.622	23128
819.762	23079
819.903	23079
820.043	22991
820.184	22938
820.324	22961
820.465	22980
820.605	22889
820.746	22908
820.886	22793
821.026	22850
821.167	22812
821.307	22755
821.447	22847
821.588	22698
821.728	22554
821.868	22443
822.008	22223
822.149	22135
822.289	22272
822.429	22070
822.569	21892
822.709	21774
822.849	21743
822.99	21709
823.13	21641
823.27	21679
823.41	21526
823.55	21424
823.69	21523
823.83	21435
823.97	21348
824.11	21268
824.25	21302
824.389	21116
824.529	21370
824.669	21256
824.809	21310
824.949	21268
825.089	21287
825.228	21382
825.368	21142
825.508	21123
825.648	20948
825.787	20986
825.927	21199
826.067	20929
826.206	21070
826.346	21020
826.485	21036
826.625	21001
826.765	21051
826.904	20914
827.044	20670
827.183	20830
827.323	20686
827.462	20731
827.601	20705
827.741	20712
827.88	20716
828.02	20667
828.159	20602
828.298	20621
828.437	20602
828.577	20701
828.716	20663
828.855	20648
828.994	20332
829.134	20256
829.273	20320
829.412	20396
829.551	20320
829.69	20309
829.829	20381
829.968	20537
830.107	20579
830.246	20404
830.385	20336
830.524	20294
830.663	20073
830.802	20187
830.941	19970
831.08	19978
831.219	19997
831.357	20062
831.496	20149
831.635	19841
831.774	19917
831.913	19826
832.051	19803
832.19	19712
832.329	19750
832.467	19597
832.606	19700
832.744	19689
832.883	19761
833.022	19658
833.16	19898
833.299	19841
833.437	19837
833.576	19989
833.714	19993
833.852	20016
833.991	20024
834.129	20084
834.267	20024
834.406	20100
834.544	19947
834.682	20016
834.821	19936
834.959	20031
835.097	19784
835.235	19959
835.373	19776
835.511	19799
835.65	19483
835.788	19525
835.926	19468
836.064	19441
836.202	19377
836.34	19582
836.478	19651
836.615	19533
836.753	19575
836.891	19582
837.029	19521
837.167	19499
837.305	19369
837.443	19327
837.58	19278
837.718	19384
837.856	19354
837.993	19255
838.131	19327
838.269	19209
838.406	19384
838.544	19069
838.681	19110
838.819	19099
838.956	18833
839.094	18859
839.231	18844
839.369	19027
839.506	19122
839.643	19061
839.781	18814
839.918	18639
840.055	18848
840.193	18821
840.33	18726
840.467	18738
840.604	18715
840.742	18981
840.879	18547
841.016	18620
841.153	18741
841.29	18875
841.427	18604
841.564	18802
841.701	18703
841.838	18776
841.975	18559
842.112	18585
842.249	18623
842.385	18479
842.522	18757
842.659	18623
842.796	18540
842.933	18464
843.069	18471
843.206	18426
843.343	18532
843.479	18517
843.616	18597
843.752	18338
843.889	18350
844.025	18525
844.162	18494
844.298	18506
844.435	18384
844.571	18437
844.708	18604
844.844	18928
844.98	18909
845.117	19171
845.253	19480
845.389	19712
845.525	20838
845.661	22451
845.798	24566
845.934	26465
846.07	27100
846.206	27036
846.342	25658
846.478	23482
846.614	21325
846.75	20058
846.886	19304
847.022	18852
847.158	18471
847.294	18270
847.429	18114
847.565	18049
847.701	18273
847.837	17771
847.972	17638
848.108	17726
848.244	17653
848.379	17455
848.515	17543
848.65	17379
848.786	17448
848.921	17463
849.057	17554
849.192	17516
849.328	17391
849.463	17326
849.598	17372
849.734	17368
849.869	17261
850.004	17140
850.14	17239
850.275	17170
850.41	16949
850.545	17147
850.68	17128
850.815	17185
850.95	16968
851.085	17147
851.22	17265
851.355	17048
851.49	17113
851.625	17090
851.76	17003
851.895	16957
852.03	16999
852.165	17162
852.299	17117
852.434	17231
852.569	17227
852.703	17147
852.838	17117
852.973	17250
853.107	17242
853.242	17140
853.376	17045
853.511	16889
853.645	17003
853.78	17178
853.914	17025
854.048	17056
854.183	17064
854.317	17006
854.451	17140
854.585	17197
854.72	17033
854.854	17124
854.988	16923
855.122	17014
855.256	16957
855.39	17037
855.524	17128
855.658	17060
855.792	17033
855.926	17025
856.06	17052
856.194	17128
856.327	17056
856.461	16923
856.595	16896
856.729	16976
856.862	17090
856.996	16927
857.13	17105
857.263	16892
857.397	17041
857.53	16934
857.664	16999
857.797	17124
857.931	17010
858.064	16877
858.197	17056
858.331	16949
858.464	16839
858.597	16881
858.731	17006
858.864	16778
858.997	16862
859.13	16911
859.263	16953
859.396	16911
859.529	16866
859.662	16767
859.795	16797
859.928	16946
860.061	17003
860.194	17128
860.327	16919
860.46	16858
860.592	17022
860.725	16984
860.858	17006
860.99	16824
861.123	16752
861.256	16858
861.388	16828
861.521	17642
861.653	16778
861.786	16767
861.918	16717
862.05	16778
862.183	16805
862.315	16923
862.447	16805
862.58	16797
862.712	16611
862.844	16474
862.976	16763
863.108	16687
863.24	16968
863.372	16466
863.504	16607
863.636	16611
863.768	16618
863.9	16569
864.032	16508
864.164	16500
864.296	16596
864.428	16698
864.559	16679
864.691	16611
864.823	16641
864.954	16584
865.086	16622
865.217	16546
865.349	16531
865.48	16485
865.612	16596
865.743	16637
865.875	16550
866.006	16417
866.137	16592
866.269	16542
866.4	16573
866.531	16569
866.662	16417
866.793	16424
866.924	16421
867.055	16512
867.186	16577
867.317	16538
867.448	16386
867.579	16462
867.71	16470
867.841	16424
867.972	16558
868.103	16478
868.233	16592
868.364	16474
868.495	16645
868.625	16683
868.756	16915
868.886	16668
869.017	16698
869.147	16911
869.278	16828
869.408	16793
869.539	16759
869.669	16801
869.799	16774
869.929	16995
870.06	16942
870.19	17079
870.32	17041
870.45	17094
870.58	17204
870.71	17277
870.84	17277
870.97	17155
871.1	17170
871.23	17250
871.36	17455
871.489	17318
871.619	17353
871.749	17337
871.879	17360
872.008	17448
872.138	17280
872.267	17341
872.397	17242
872.526	17242
872.656	17265
872.785	17311
872.915	17455
873.044	17608
873.173	17474
873.303	17497
873.432	17429
873.561	17509
873.69	17532
873.819	17497
873.948	17554
874.077	17535
874.206	17558
874.335	17524
874.464	17585
874.593	17851
874.722	17767
874.851	17950
874.979	17942
875.108	17946
875.237	17832
875.365	17771
875.494	17950
875.623	18022
875.751	17912
875.88	17908
876.008	18072
876.136	18095
876.265	18353
876.393	18513
876.521	18399
876.65	18422
876.778	18486
876.906	18433
877.034	18429
877.162	18563
877.29	18361
877.418	18517
877.546	18654
877.674	18506
877.802	18608
877.93	18696
878.058	18730
878.185	18684
878.313	18973
878.441	18985
878.568	19076
878.696	19221
878.824	19533
878.951	19974
879.079	20484
879.206	21283
879.333	21857
879.461	22325
879.588	22736
879.715	22873
879.842	22637
879.97	21751
880.097	20868
880.224	20396
880.351	20084
880.478	19769
880.605	19502
880.732	19377
880.859	19518
880.986	19240
881.112	19228
881.239	19198
881.366	18878
881.493	18909
881.619	19023
881.746	19042
881.872	18875
881.999	18932
882.125	18958
882.252	18981
882.378	19015
882.505	19088
882.631	18962
882.757	18840
882.883	18871
883.01	18837
883.136	18639
883.262	18681
883.388	18741
883.514	18738
883.64	18772
883.766	18631
883.892	18448
884.018	18551
884.143	18760
884.269	18798
884.395	18582
884.52	18410
884.646	18384
884.772	18502
884.897	18357
885.023	18490
885.148	18399
885.274	18589
885.399	18509
885.524	18407
885.65	18346
885.775	18357
885.9	18209
886.025	18437
886.15	18144
886.275	18068
886.4	18022
886.525	17984
886.65	17950
886.775	17908
886.9	18049
887.025	18076
887.149	17824
887.274	17699
887.399	17627
887.523	17668
887.648	17528
887.773	17444
887.897	17630
888.021	17562
888.146	17402
888.27	17535
888.395	17611
888.519	17608
888.643	17467
888.767	17505
888.891	17326
889.015	17132
889.139	17239
889.263	17083
889.387	17197
889.511	17452
889.635	17254
889.759	17170
889.883	17128
890.006	17105
890.13	17094
890.254	17155
890.377	17018
890.501	16835
890.624	16736
890.748	16999
890.871	16824
890.995	16694
891.118	16740
891.241	16729
891.364	16755
891.488	16809
891.611	16683
891.734	16675
891.857	16790
891.98	16698
892.103	16645
892.226	16702
892.349	16561
892.471	16558
892.594	16577
892.717	16622
892.839	16622
892.962	16607
893.085	16504
893.207	16538
893.33	16424
893.452	16379
893.575	16504
893.697	16527
893.819	16637
893.941	16721
894.064	16596
894.186	16405
894.308	16409
894.43	16546
894.552	16630
894.674	16538
894.796	16356
894.918	16596
895.04	16394
895.161	16558
895.283	16523
895.405	16474
895.526	16455
895.648	16607
895.769	16474
895.891	16615
896.012	16516
896.134	16592
896.255	16508
896.376	16500
896.498	16607
896.619	16577
896.74	16542
896.861	16535
896.982	16835
897.103	16908
897.224	16763
897.345	16759
897.466	16664
897.587	16702
897.708	16767
897.828	16831
897.949	16790
898.07	16603
898.19	16710
898.311	16923
898.431	16664
898.552	16809
898.672	16984
898.792	16797
898.913	16938
899.033	16683
899.153	16668
899.273	16607
899.393	16637
899.513	16660
899.633	16542
899.753	16774
899.873	16672
899.993	16653
900.113	16679
900.232	16653
900.352	16573
900.472	16470
900.591	16523
900.711	16519
900.83	16379
900.95	16592
901.069	16630
901.189	16455
901.308	16276
901.427	16147
901.546	16101
901.665	16166
901.784	16150
901.904	16105
902.023	15937
902.141	15705
902.26	15553
902.379	15656
902.498	15675
902.617	15564
902.735	15606
902.854	15701
902.973	15496
903.091	15363
903.21	15226
903.328	15317
903.446	15222
903.565	15165
903.683	14998
903.801	15047
903.919	15131
904.038	15028
904.156	14876
904.274	15074
904.392	14918
904.51	14845
904.627	14868
904.745	15024
904.863	14876
904.981	14594
905.098	14533
905.216	14507
905.334	14476
905.451	14575
905.569	14598
905.686	14495
905.803	14560
905.921	14351
906.038	14522
906.155	14305
906.272	14157
906.389	14145
906.506	14145
906.623	14126
906.74	14081
906.857	13947
906.974	13967
907.091	14005
907.208	14176
907.324	14062
907.441	13970
907.557	13807
907.674	13677
907.79	13639
907.907	13731
908.023	13799
908.139	13696
908.256	13723
908.372	13689
908.488	13620
908.604	13563
908.72	13514
908.836	13449
908.952	13518
909.068	13487
909.184	13643
909.3	13499
909.415	13537
909.531	13571
909.647	13308
909.762	13266
909.878	13236
909.993	13149
910.108	13202
910.224	13187
910.339	13183
910.454	13171
910.57	12973
910.685	12977
910.8	13293
910.915	13118
911.03	13065
911.145	12856
911.259	12928
911.374	12875
911.489	12939
911.604	12650
911.718	12684
911.833	12631
911.947	12525
912.062	12391
912.176	12635
912.291	12608
912.405	12604
912.519	12844
912.633	12806
912.748	12722
912.862	12555
912.976	12467
913.09	12357
913.204	12403
913.318	12437
913.431	12521
913.545	12540
913.659	12620
913.772	12418
913.886	12403
914	12323
914.113	12372
914.226	12433
914.34	12460
914.453	12334
914.566	12414
914.68	12171
914.793	12319
914.906	12072
915.019	11958
915.132	11958
915.245	12155
915.358	12057
915.47	12026
915.583	12114
915.696	12095
915.809	12148
915.921	12190
916.034	12034
916.146	12026
916.259	11912
916.371	12072
916.483	12155
916.595	11946
916.708	11950
916.82	11973
916.932	11931
917.044	11878
917.156	11961
917.268	11813
917.38	11817
917.491	11851
917.603	11817
917.715	11908
917.826	11904
917.938	11805
918.049	11703
918.161	11802
918.272	11920
918.384	11912
918.495	11836
918.606	11665
918.717	11581
918.828	11691
918.939	11707
919.05	11501
919.161	11592
919.272	11471
919.383	11512
919.494	11634
919.604	11885
919.715	11710
919.826	11680
919.936	11589
920.047	11680
920.157	11672
920.267	11859
920.378	11657
920.488	11600
920.598	11855
920.708	11973
920.818	11775
920.928	11783
921.038	11984
921.148	11984
921.258	11722
921.368	11535
921.477	11425
921.587	11417
921.697	11410
921.806	11387
921.916	11356
922.025	11155
922.134	11098
922.244	11079
922.353	11113
922.462	10995
922.571	10869
922.68	10782
922.789	10786
922.898	10812
923.007	10706
923.116	10843
923.224	10801
923.333	10733
923.442	10645
923.55	10607
923.659	10649
923.767	10683
923.876	10675
923.984	10660
924.092	10542
924.201	10558
924.309	10584
924.417	10675
924.525	10550
924.633	10615
924.741	11303
924.849	10382
924.956	10573
925.064	10398
925.172	10257
925.279	10360
925.387	10402
925.494	10402
925.602	10516
925.709	10466
925.816	10265
925.924	10417
926.031	10379
926.138	10371
926.245	10398
926.352	10238
926.459	10489
926.566	10478
926.673	10306
926.779	10249
926.886	10101
926.993	9998
927.099	10013
927.206	9949
927.312	9945
927.419	10025
927.525	9960
927.631	10101
927.737	9926
927.843	9903
927.95	9842
928.056	9949
928.162	9922
928.267	9892
928.373	10588
928.479	9991
928.585	9766
928.69	9880
928.796	9918
928.901	9766
929.007	9675
929.112	9766
929.218	9781
929.323	9781
929.428	9671
929.533	9781
929.638	9648
929.743	9709
929.848	9770
929.953	9728
930.058	9564
930.163	9435
930.267	9504
930.372	9553
930.477	9355
930.581	9644
930.685	9542
930.79	9363
930.894	9511
930.998	9348
931.103	9458
931.207	9150
931.311	9024
931.415	9009
931.519	8815
931.623	8876
