Data from test_V78500241_2628.txt Node
Date: Fri Mar 25 14:52:00 CST 2022
User: usil
Spectrometer: V785-0024
Trigger mode: 0
Integration Time (sec): 4.000000E-1
Scans to average: 1
Nonlinearity correction enabled: false
Boxcar width: 0
Storing dark spectrum: false
XAxis mode: Wavelengths
Number of Pixels in Spectrum: 1024
>>>>>Begin Spectral Data<<<<<
801.071	22002
801.214	21911
801.356	21633
801.499	21507
801.641	21340
801.783	21287
801.926	21462
802.068	21302
802.211	21291
802.353	21176
802.496	20963
802.638	20982
802.78	20925
802.923	20750
803.065	20655
803.208	20830
803.35	20769
803.492	20785
803.635	20785
803.777	20613
803.919	20883
804.061	21070
804.204	20754
804.346	20648
804.488	20640
804.63	20644
804.773	20678
804.915	20530
805.057	20682
805.199	20579
805.341	20629
805.483	20674
805.626	20663
805.768	20499
805.91	20621
806.052	20667
806.194	20552
806.336	20667
806.478	20689
806.62	20488
806.762	20644
806.904	20792
807.046	21047
807.188	20941
807.33	20975
807.472	20956
807.614	20804
807.756	20914
807.898	20823
808.04	20777
808.182	20743
808.324	20727
808.465	20659
808.607	20941
808.749	20880
808.891	21058
809.033	21135
809.174	21108
809.316	20872
809.458	21058
809.6	20971
809.741	20963
809.883	20982
810.025	21176
810.166	21058
810.308	21176
810.45	21047
810.591	21009
810.733	20807
810.875	20743
811.016	20621
811.158	20621
811.299	20845
811.441	20895
811.582	20864
811.724	20788
811.865	20750
812.007	20815
812.148	20636
812.29	20880
812.431	20864
812.573	21180
812.714	21112
812.855	21211
812.997	21329
813.138	21469
813.279	21336
813.421	21241
813.562	21169
813.703	20986
813.845	20849
813.986	20556
814.127	20393
814.268	20271
814.41	20434
814.551	20313
814.692	20351
814.833	20119
814.974	20259
815.115	20271
815.256	20153
815.397	20092
815.539	20103
815.68	20024
815.821	19967
815.962	19906
816.103	19955
816.244	19826
816.385	19852
816.526	19746
816.666	19643
816.807	19464
816.948	19487
817.089	19628
817.23	19529
817.371	19411
817.512	19487
817.653	19362
817.793	19510
817.934	19453
818.075	19411
818.216	19430
818.356	19396
818.497	19247
818.638	19103
818.778	19080
818.919	18996
819.06	19129
819.2	19168
819.341	19354
819.481	19301
819.622	19407
819.762	19609
819.903	19468
820.043	19487
820.184	19464
820.324	19411
820.465	19430
820.605	19468
820.746	19362
820.886	19297
821.026	19377
821.167	19259
821.307	19362
821.447	19419
821.588	19259
821.728	19141
821.868	19065
822.008	18905
822.149	18840
822.289	18764
822.429	18502
822.569	18460
822.709	18612
822.849	18323
822.99	18330
823.13	18365
823.27	18296
823.41	18148
823.55	18125
823.69	18102
823.83	18209
823.97	18106
824.11	17870
824.25	17817
824.389	17771
824.529	18034
824.669	17878
824.809	17980
824.949	17908
825.089	17939
825.228	17946
825.368	17691
825.508	17710
825.648	17733
825.787	17794
825.927	17680
826.067	17676
826.206	17608
826.346	17676
826.485	17653
826.625	17623
826.765	17729
826.904	17646
827.044	17417
827.183	17421
827.323	17398
827.462	17387
827.601	17398
827.741	17349
827.88	17448
828.02	17235
828.159	17220
828.298	17341
828.437	17391
828.577	17356
828.716	17436
828.855	17261
828.994	17147
829.134	17117
829.273	17189
829.412	17041
829.551	17029
829.69	17113
829.829	17109
829.968	17204
830.107	17200
830.246	17174
830.385	17098
830.524	17045
830.663	16980
830.802	16771
830.941	16733
831.08	16733
831.219	16854
831.357	16835
831.496	16946
831.635	16717
831.774	16573
831.913	16664
832.051	16554
832.19	16569
832.329	16546
832.467	16432
832.606	16436
832.744	16394
832.883	16386
833.022	16390
833.16	16451
833.299	16424
833.437	16470
833.576	16500
833.714	16459
833.852	16516
833.991	16523
834.129	16634
834.267	16489
834.406	16497
834.544	16497
834.682	16447
834.821	16386
834.959	16660
835.097	16554
835.235	16603
835.373	16584
835.511	16580
835.65	16421
835.788	16462
835.926	16166
836.064	16124
836.202	16169
836.34	16405
836.478	16500
836.615	16413
836.753	16390
836.891	16538
837.029	16447
837.167	16314
837.305	16310
837.443	16230
837.58	16246
837.718	16306
837.856	16238
837.993	16280
838.131	16344
838.269	16246
838.406	16265
838.544	16150
838.681	16010
838.819	15911
838.956	15759
839.094	15770
839.231	15873
839.369	16040
839.506	16173
839.643	16051
839.781	15842
839.918	15736
840.055	15880
840.193	15873
840.33	15797
840.467	15709
840.604	15941
840.742	15964
840.879	15739
841.016	15759
841.153	15713
841.29	15945
841.427	15804
841.564	15926
841.701	15778
841.838	15816
841.975	15785
842.112	15812
842.249	15682
842.385	15488
842.522	15827
842.659	15648
842.796	15587
842.933	15633
843.069	15587
843.206	15595
843.343	15705
843.479	15625
843.616	15667
843.752	15477
843.889	15416
844.025	15633
844.162	15378
844.298	15614
844.435	15473
844.571	15367
844.708	15496
844.844	15580
844.98	15576
845.117	15618
845.253	15450
845.389	15348
845.525	15397
845.661	15386
845.798	15214
845.934	15233
846.07	15169
846.206	15264
846.342	15321
846.478	15272
846.614	14971
846.75	14891
846.886	15024
847.022	15150
847.158	15070
847.294	14960
847.429	15005
847.565	14948
847.701	15203
847.837	14788
847.972	14674
848.108	14826
848.244	14842
848.379	14701
848.515	14541
848.65	14575
848.786	14590
848.921	14579
849.057	14697
849.192	14663
849.328	14659
849.463	14541
849.598	14606
849.734	14461
849.869	14427
850.004	14389
850.14	14339
850.275	14313
850.41	14252
850.545	14332
850.68	14252
850.815	14317
850.95	14286
851.085	14564
851.22	14404
851.355	14336
851.49	14324
851.625	14317
851.76	14275
851.895	14149
852.03	14252
852.165	14355
852.299	14275
852.434	14473
852.569	14408
852.703	14343
852.838	14446
852.973	14545
853.107	14465
853.242	14267
853.376	14263
853.511	14115
853.645	14062
853.78	14305
853.914	14176
854.048	14187
854.183	14195
854.317	14229
854.451	14465
854.585	14180
854.72	14180
854.854	14256
854.988	14237
855.122	14218
855.256	14103
855.39	14221
855.524	14355
855.658	14290
855.792	14324
855.926	14282
856.06	14320
856.194	14278
856.327	14161
856.461	14111
856.595	14100
856.729	14172
856.862	14381
856.996	14301
857.13	14328
857.263	14370
857.397	14248
857.53	14275
857.664	14324
857.797	14263
857.931	14355
858.064	14400
858.197	14259
858.331	14202
858.464	14240
858.597	14138
858.731	14240
858.864	14195
858.997	14149
859.13	14252
859.263	14195
859.396	14339
859.529	14149
859.662	14218
859.795	14161
859.928	14199
860.061	14294
860.194	14366
860.327	14229
860.46	14172
860.592	14347
860.725	14454
860.858	14389
860.99	14229
861.123	14199
861.256	14225
861.388	14233
861.521	14861
861.653	14119
861.786	14088
861.918	14031
862.05	14259
862.183	14199
862.315	14202
862.447	14233
862.58	14142
862.712	13959
862.844	13944
862.976	14043
863.108	14065
863.24	14431
863.372	14024
863.504	13951
863.636	13963
863.768	14001
863.9	14039
864.032	13917
864.164	13940
864.296	14081
864.428	14138
864.559	14100
864.691	14111
864.823	14008
864.954	14024
865.086	14088
865.217	13974
865.349	13936
865.48	14039
865.612	14005
865.743	14176
865.875	14062
866.006	13989
866.137	14046
866.269	13974
866.4	14107
866.531	13986
866.662	14020
866.793	13955
866.924	14001
867.055	13986
867.186	13993
867.317	13868
867.448	13875
867.579	13913
867.71	13814
867.841	13986
867.972	14039
868.103	14001
868.233	13989
868.364	14001
868.495	14073
868.625	14214
868.756	14256
868.886	14240
869.017	14240
869.147	14328
869.278	14385
869.408	14339
869.539	14298
869.669	14328
869.799	14218
869.929	14377
870.06	14393
870.19	14545
870.32	14465
870.45	14587
870.58	14659
870.71	14716
870.84	14777
870.97	14640
871.1	14648
871.23	14785
871.36	14826
871.489	14735
871.619	14861
871.749	14838
871.879	14845
872.008	14982
872.138	14819
872.267	14819
872.397	14750
872.526	14670
872.656	14640
872.785	14712
872.915	14868
873.044	15055
873.173	14891
873.303	14952
873.432	14937
873.561	14914
873.69	14891
873.819	14906
873.948	14967
874.077	15013
874.206	14876
874.335	14876
874.464	14986
874.593	15249
874.722	15100
874.851	15226
874.979	15260
875.108	15325
875.237	15165
875.365	15116
875.494	15207
875.623	15249
875.751	15188
875.88	15211
876.008	15264
876.136	15389
876.265	15606
876.393	15778
876.521	15682
876.65	15663
876.778	15667
876.906	15584
877.034	15431
877.162	15629
877.29	15641
877.418	15618
877.546	15587
877.674	15545
877.802	15755
877.93	15637
878.058	15545
878.185	15542
878.313	15576
878.441	15652
878.568	15435
878.696	15739
878.824	15686
878.951	15671
879.079	15705
879.206	15865
879.333	15819
879.461	15663
879.588	15728
879.715	15842
879.842	15937
879.97	15781
880.097	15500
880.224	15462
880.351	15443
880.478	15492
880.605	15428
880.732	15534
880.859	15705
880.986	15587
881.112	15584
881.239	15382
881.366	15279
881.493	15230
881.619	15211
881.746	15241
881.872	15203
881.999	15085
882.125	15062
882.252	15222
882.378	15154
882.505	15275
882.631	15074
882.757	14952
882.883	15066
883.01	14899
883.136	14899
883.262	14823
883.388	14834
883.514	14986
883.64	14960
883.766	14864
883.892	14762
884.018	14811
884.143	14918
884.269	15093
884.395	14712
884.52	14613
884.646	14735
884.772	14613
884.897	14549
885.023	14655
885.148	14769
885.274	14754
885.399	14629
885.524	14632
885.65	14739
885.775	14686
885.9	14670
886.025	14758
886.15	14697
886.275	14686
886.4	14602
886.525	14625
886.65	14610
886.775	14617
886.9	14765
887.025	14891
887.149	14636
887.274	14495
887.399	14465
887.523	14415
887.648	14355
887.773	14415
887.897	14549
888.021	14533
888.146	14438
888.27	14526
888.395	14610
888.519	14507
888.643	14541
888.767	14533
888.891	14495
889.015	14336
889.139	14419
889.263	14256
889.387	14374
889.511	14511
889.635	14400
889.759	14320
889.883	14389
890.006	14419
890.13	14507
890.254	14252
890.377	14286
890.501	14221
890.624	14054
890.748	14263
890.871	14134
890.995	13963
891.118	14027
891.241	14020
891.364	13947
891.488	14164
891.611	14001
891.734	14119
891.857	14084
891.98	14088
892.103	14138
892.226	14043
892.349	14062
892.471	13978
892.594	14050
892.717	14130
892.839	14107
892.962	13997
893.085	14062
893.207	14031
893.33	13890
893.452	13963
893.575	14248
893.697	13997
893.819	14130
893.941	14259
894.064	14130
894.186	14024
894.308	14035
894.43	14183
894.552	14244
894.674	14153
894.796	14077
894.918	14062
895.04	14020
895.161	14199
895.283	14206
895.405	14130
895.526	14153
895.648	14142
895.769	14134
895.891	14271
896.012	14263
896.134	14202
896.255	14187
896.376	14237
896.498	14244
896.619	14278
896.74	14233
896.861	14221
896.982	14526
897.103	14724
897.224	14575
897.345	14446
897.466	14473
897.587	14461
897.708	14610
897.828	14625
897.949	14446
898.07	14328
898.19	14484
898.311	14606
898.431	14465
898.552	14560
898.672	14712
898.792	14811
898.913	14549
899.033	14533
899.153	14454
899.273	14385
899.393	14431
899.513	14457
899.633	14385
899.753	14495
899.873	14442
899.993	14476
900.113	14396
900.232	14412
900.352	14309
900.472	14229
900.591	14199
900.711	14275
900.83	14202
900.95	14362
901.069	14294
901.189	14218
901.308	14050
901.427	13963
901.546	13944
901.665	14008
901.784	14027
901.904	13932
902.023	13742
902.141	13567
902.26	13514
902.379	13597
902.498	13556
902.617	13464
902.735	13556
902.854	13514
902.973	13483
903.091	13251
903.21	13308
903.328	13324
903.446	13228
903.565	13110
903.683	13126
903.801	12977
903.919	13076
904.038	13046
904.156	12867
904.274	13015
904.392	12886
904.51	12890
904.627	12901
904.745	12970
904.863	12989
904.981	12688
905.098	12601
905.216	12673
905.334	12601
905.451	12616
905.569	12616
905.686	12696
905.803	12650
905.921	12395
906.038	12521
906.155	12407
906.272	12388
906.389	12361
906.506	12258
906.623	12239
906.74	12247
906.857	12019
906.974	12194
907.091	12201
907.208	12346
907.324	12243
907.441	12068
907.557	11996
907.674	11912
907.79	11954
907.907	11977
908.023	11984
908.139	11977
908.256	11889
908.372	11908
908.488	11859
908.604	11802
908.72	11676
908.836	11710
908.952	11684
909.068	11688
909.184	11726
909.3	11691
909.415	11813
909.531	11691
909.647	11512
909.762	11573
909.878	11520
909.993	11554
910.108	11512
910.224	11444
910.339	11406
910.454	11398
910.57	11353
910.685	11364
910.8	11585
910.915	11570
911.03	11402
911.145	11231
911.259	11208
911.374	11277
911.489	11136
911.604	11079
911.718	10942
911.833	10866
911.947	10877
912.062	10710
912.176	10976
912.291	11033
912.405	10927
912.519	11113
912.633	11166
912.748	11132
912.862	10965
912.976	10919
913.09	10649
913.204	10752
913.318	10759
913.431	10923
913.545	10976
913.659	10934
913.772	10858
913.886	10691
914	10714
914.113	10812
914.226	10900
914.34	10774
914.453	10641
914.566	10771
914.68	10679
914.793	10656
914.906	10413
915.019	10447
915.132	10390
915.245	10417
915.358	10447
915.47	10478
915.583	10478
915.696	10508
915.809	10565
915.921	10618
916.034	10417
916.146	10402
916.259	10337
916.371	10485
916.483	10413
916.595	10413
916.708	10382
916.82	10398
916.932	10363
917.044	10337
917.156	10310
917.268	10211
917.38	10276
917.491	10280
917.603	10291
917.715	10470
917.826	10363
917.938	10268
918.049	10154
918.161	10325
918.272	10436
918.384	10409
918.495	10299
918.606	10223
918.717	10036
918.828	10055
918.939	10223
919.05	10067
919.161	10173
919.272	9918
919.383	9991
919.494	10188
919.604	10375
919.715	10219
919.826	10139
919.936	10173
920.047	10276
920.157	10154
920.267	10337
920.378	10196
920.488	10143
920.598	10280
920.708	10626
920.818	10337
920.928	10367
921.038	10508
921.148	10485
921.258	10261
921.368	10097
921.477	10044
921.587	10086
921.697	9991
921.806	10067
921.916	9998
922.025	9808
922.134	9713
922.244	9778
922.353	9797
922.462	9538
922.571	9534
922.68	9454
922.789	9386
922.898	9507
923.007	9405
923.116	9557
923.224	9386
923.333	9348
923.442	9351
923.55	9332
923.659	9332
923.767	9332
923.876	9256
923.984	9389
924.092	9214
924.201	9260
924.309	9298
924.417	9256
924.525	9264
924.633	9275
924.741	10002
924.849	9104
924.956	9226
925.064	9108
925.172	9028
925.279	9093
925.387	9161
925.494	9066
925.602	9222
925.709	9157
925.816	9039
925.924	9127
926.031	9188
926.138	9093
926.245	9131
926.352	9024
926.459	9161
926.566	9176
926.673	9032
926.779	9005
926.886	8925
926.993	8815
927.099	8705
927.206	8754
927.312	8746
927.419	8891
927.525	8899
927.631	8830
927.737	8705
927.843	8640
927.95	8613
928.056	8697
928.162	8689
928.267	8746
928.373	9340
928.479	8746
928.585	8530
928.69	8648
928.796	8762
928.901	8571
929.007	8514
929.112	8632
929.218	8617
929.323	8545
929.428	8587
929.533	8708
929.638	8488
929.743	8480
929.848	8564
929.953	8492
930.058	8408
930.163	8237
930.267	8328
930.372	8412
930.477	8324
930.581	8484
930.685	8404
930.79	8195
930.894	8294
930.998	8256
931.103	8385
931.207	8027
931.311	7944
931.415	7967
931.519	7639
931.623	7693
