Data from test_V78500241_3442.txt Node
Date: Fri Mar 25 14:57:40 CST 2022
User: usil
Spectrometer: V785-0024
Trigger mode: 0
Integration Time (sec): 4.000000E-1
Scans to average: 1
Nonlinearity correction enabled: false
Boxcar width: 0
Storing dark spectrum: false
XAxis mode: Wavelengths
Number of Pixels in Spectrum: 1024
>>>>>Begin Spectral Data<<<<<
801.071	21991
801.214	21846
801.356	21606
801.499	21534
801.641	21401
801.783	21382
801.926	21291
802.068	21195
802.211	21127
802.353	21165
802.496	20872
802.638	20845
802.78	20830
802.923	20686
803.065	20549
803.208	20442
803.35	20727
803.492	20750
803.635	20804
803.777	20644
803.919	20758
804.061	20979
804.204	20583
804.346	20522
804.488	20450
804.63	20530
804.773	20415
804.915	20488
805.057	20769
805.199	20446
805.341	20552
805.483	20651
805.626	20609
805.768	20450
805.91	20514
806.052	20389
806.194	20434
806.336	20693
806.478	20514
806.62	20385
806.762	20533
806.904	20640
807.046	20830
807.188	20929
807.33	20849
807.472	20921
807.614	20739
807.756	20746
807.898	20682
808.04	20480
808.182	20476
808.324	20674
808.465	20579
808.607	20819
808.749	20914
808.891	20971
809.033	21100
809.174	20975
809.316	20868
809.458	20914
809.6	20724
809.741	20914
809.883	21058
810.025	21081
810.166	20952
810.308	20921
810.45	20982
810.591	20857
810.733	20693
810.875	20777
811.016	20541
811.158	20427
811.299	20716
811.441	20830
811.582	20640
811.724	20667
811.865	20545
812.007	20526
812.148	20507
812.29	20746
812.431	20777
812.573	20826
812.714	21028
812.855	21123
812.997	21218
813.138	21287
813.279	21203
813.421	21150
813.562	20982
813.703	20967
813.845	20746
813.986	20423
814.127	20267
814.268	20187
814.41	20183
814.551	20161
814.692	20347
814.833	20130
814.974	19997
815.115	20164
815.256	20100
815.397	19955
815.539	19982
815.68	20012
815.821	19871
815.962	19909
816.103	19799
816.244	19734
816.385	19480
816.526	19559
816.666	19426
816.807	19278
816.948	19335
817.089	19392
817.23	19369
817.371	19274
817.512	19217
817.653	19285
817.793	19209
817.934	19263
818.075	19289
818.216	19244
818.356	19221
818.497	19217
818.638	18890
818.778	18970
818.919	18973
819.06	19038
819.2	19076
819.341	19164
819.481	19198
819.622	19339
819.762	19472
819.903	19327
820.043	19293
820.184	19259
820.324	19282
820.465	19320
820.605	19213
820.746	19232
820.886	19114
821.026	19141
821.167	19156
821.307	19373
821.447	19137
821.588	19050
821.728	18951
821.868	18829
822.008	18635
822.149	18654
822.289	18574
822.429	18475
822.569	18369
822.709	18281
822.849	18117
822.99	18209
823.13	18201
823.27	18083
823.41	18076
823.55	17946
823.69	17969
823.83	17996
823.97	17946
824.11	17874
824.25	17798
824.389	17817
824.529	17859
824.669	17722
824.809	17783
824.949	17931
825.089	17832
825.228	17764
825.368	17573
825.508	17638
825.648	17691
825.787	17604
825.927	17467
826.067	17554
826.206	17429
826.346	17505
826.485	17543
826.625	17661
826.765	17592
826.904	17589
827.044	17376
827.183	17372
827.323	17159
827.462	17239
827.601	17231
827.741	17200
827.88	17197
828.02	17006
828.159	17269
828.298	17269
828.437	17265
828.577	17254
828.716	17330
828.855	17189
828.994	16968
829.134	16961
829.273	16999
829.412	16942
829.551	16980
829.69	16984
829.829	16999
829.968	17208
830.107	17098
830.246	17060
830.385	16987
830.524	16968
830.663	16949
830.802	16744
830.941	16736
831.08	16615
831.219	16656
831.357	16653
831.496	16858
831.635	16668
831.774	16615
831.913	16523
832.051	16455
832.19	16459
832.329	16470
832.467	16405
832.606	16272
832.744	16341
832.883	16287
833.022	16295
833.16	16382
833.299	16329
833.437	16337
833.576	16246
833.714	16375
833.852	16310
833.991	16333
834.129	16436
834.267	16417
834.406	16356
834.544	16424
834.682	16428
834.821	16291
834.959	16504
835.097	16382
835.235	16462
835.373	16512
835.511	16485
835.65	16314
835.788	16268
835.926	16101
836.064	16082
836.202	16154
836.34	16379
836.478	16413
836.615	16325
836.753	16356
836.891	16428
837.029	16394
837.167	16303
837.305	16272
837.443	16230
837.58	16169
837.718	16192
837.856	16162
837.993	16044
838.131	16147
838.269	16109
838.406	16120
838.544	16097
838.681	15873
838.819	15918
838.956	15720
839.094	15671
839.231	15812
839.369	15876
839.506	16063
839.643	15964
839.781	15774
839.918	15762
840.055	15732
840.193	15641
840.33	15679
840.467	15869
840.604	15808
840.742	15949
840.879	15648
841.016	15679
841.153	15709
841.29	15797
841.427	15705
841.564	15686
841.701	15751
841.838	15629
841.975	15720
842.112	15720
842.249	15454
842.385	15439
842.522	15652
842.659	15530
842.796	15488
842.933	15515
843.069	15420
843.206	15485
843.343	15603
843.479	15336
843.616	15580
843.752	15393
843.889	15287
844.025	15348
844.162	15313
844.298	15393
844.435	15256
844.571	15241
844.708	15348
844.844	15447
844.98	15500
845.117	15393
845.253	15233
845.389	15180
845.525	15298
845.661	15112
845.798	15138
845.934	15127
846.07	14994
846.206	15089
846.342	15256
846.478	15051
846.614	14872
846.75	14815
846.886	14845
847.022	15028
847.158	14933
847.294	14830
847.429	14963
847.565	14864
847.701	15119
847.837	14689
847.972	14651
848.108	14663
848.244	14632
848.379	14374
848.515	14454
848.65	14454
848.786	14465
848.921	14495
849.057	14575
849.192	14530
849.328	14427
849.463	14419
849.598	14438
849.734	14385
849.869	14389
850.004	14347
850.14	14225
850.275	14282
850.41	14142
850.545	14134
850.68	14176
850.815	14210
850.95	14218
851.085	14457
851.22	14385
851.355	14317
851.49	14195
851.625	14164
851.76	14271
851.895	14130
852.03	14058
852.165	14294
852.299	14248
852.434	14221
852.569	14202
852.703	14187
852.838	14309
852.973	14336
853.107	14358
853.242	14168
853.376	14096
853.511	13940
853.645	14012
853.78	14244
853.914	14145
854.048	14069
854.183	14062
854.317	14081
854.451	14271
854.585	14081
854.72	14012
854.854	14252
854.988	14100
855.122	14035
855.256	14062
855.39	14111
855.524	14164
855.658	14271
855.792	14172
855.926	14157
856.06	14176
856.194	14202
856.327	14096
856.461	13993
856.595	14050
856.729	14145
856.862	14157
856.996	14157
857.13	14259
857.263	14248
857.397	14233
857.53	14058
857.664	14195
857.797	14180
857.931	14195
858.064	14164
858.197	14252
858.331	14145
858.464	14119
858.597	13936
858.731	14058
858.864	14088
858.997	14073
859.13	14172
859.263	14180
859.396	14199
859.529	14031
859.662	14107
859.795	14016
859.928	14046
860.061	14256
860.194	14305
860.327	14142
860.46	14240
860.592	14180
860.725	14275
860.858	14187
860.99	14107
861.123	14054
861.256	14096
861.388	14138
861.521	14823
861.653	14012
861.786	13951
861.918	13928
862.05	14065
862.183	14088
862.315	14073
862.447	14126
862.58	14107
862.712	13864
862.844	13837
862.976	14027
863.108	14031
863.24	14233
863.372	13856
863.504	13849
863.636	13921
863.768	13967
863.9	13951
864.032	13772
864.164	13826
864.296	13963
864.428	14069
864.559	13875
864.691	14065
864.823	13963
864.954	13909
865.086	13909
865.217	13875
865.349	13841
865.48	13925
865.612	13852
865.743	13986
865.875	13906
866.006	13894
866.137	13822
866.269	13940
866.4	13864
866.531	13845
866.662	13818
866.793	13784
866.924	13814
867.055	13807
867.186	13879
867.317	13860
867.448	13769
867.579	13841
867.71	13803
867.841	13833
867.972	13826
868.103	13868
868.233	13932
868.364	13864
868.495	13978
868.625	14031
868.756	14187
868.886	14012
869.017	14054
869.147	14328
869.278	14259
869.408	14107
869.539	14123
869.669	14176
869.799	14164
869.929	14206
870.06	14244
870.19	14488
870.32	14537
870.45	14446
870.58	14507
870.71	14629
870.84	14640
870.97	14488
871.1	14560
871.23	14743
871.36	14727
871.489	14560
871.619	14670
871.749	14796
871.879	14754
872.008	14880
872.138	14853
872.267	14819
872.397	14678
872.526	14541
872.656	14549
872.785	14552
872.915	14708
873.044	14819
873.173	14724
873.303	14826
873.432	14830
873.561	14899
873.69	14804
873.819	14853
873.948	14872
874.077	14777
874.206	14724
874.335	14823
874.464	14998
874.593	15135
874.722	15089
874.851	15058
874.979	15161
875.108	15135
875.237	15028
875.365	14971
875.494	14963
875.623	15066
875.751	15089
875.88	15097
876.008	15264
876.136	15401
876.265	15496
876.393	15682
876.521	15553
876.65	15595
876.778	15587
876.906	15492
877.034	15401
877.162	15466
877.29	15477
877.418	15530
877.546	15534
877.674	15496
877.802	15507
877.93	15545
878.058	15504
878.185	15431
878.313	15485
878.441	15488
878.568	15408
878.696	15462
878.824	15488
878.951	15481
879.079	15720
879.206	15918
879.333	15713
879.461	15523
879.588	15561
879.715	15717
879.842	15808
879.97	15591
880.097	15424
880.224	15363
880.351	15351
880.478	15351
880.605	15298
880.732	15435
880.859	15538
880.986	15397
881.112	15382
881.239	15207
881.366	15127
881.493	15135
881.619	15028
881.746	15058
881.872	14990
881.999	14998
882.125	14986
882.252	15043
882.378	14948
882.505	15154
882.631	14952
882.757	14758
882.883	14857
883.01	14933
883.136	14731
883.262	14785
883.388	14720
883.514	14815
883.64	14895
883.766	14777
883.892	14678
884.018	14735
884.143	14788
884.269	14967
884.395	14697
884.52	14507
884.646	14568
884.772	14541
884.897	14495
885.023	14537
885.148	14670
885.274	14602
885.399	14716
885.524	14606
885.65	14560
885.775	14610
885.9	14450
886.025	14678
886.15	14667
886.275	14533
886.4	14476
886.525	14514
886.65	14492
886.775	14415
886.9	14659
887.025	14743
887.149	14511
887.274	14465
887.399	14412
887.523	14294
887.648	14317
887.773	14374
887.897	14415
888.021	14461
888.146	14309
888.27	14419
888.395	14537
888.519	14499
888.643	14503
888.767	14396
888.891	14305
889.015	14191
889.139	14381
889.263	14301
889.387	14358
889.511	14461
889.635	14381
889.759	14229
889.883	14259
890.006	14259
890.13	14355
890.254	14229
890.377	14210
890.501	14119
890.624	14050
890.748	14168
890.871	13989
890.995	13883
891.118	13849
891.241	14027
891.364	13978
891.488	14088
891.611	13860
891.734	13902
891.857	13963
891.98	13967
892.103	14096
892.226	14039
892.349	13982
892.471	13947
892.594	13936
892.717	13986
892.839	13879
892.962	13989
893.085	14027
893.207	14027
893.33	13864
893.452	13902
893.575	14008
893.697	13986
893.819	14214
893.941	14164
894.064	14168
894.186	13978
894.308	13883
894.43	14043
894.552	14202
894.674	14138
894.796	13967
894.918	14027
895.04	14001
895.161	14176
895.283	14100
895.405	14020
895.526	14054
895.648	14103
895.769	14153
895.891	14145
896.012	14199
896.134	14202
896.255	14115
896.376	14073
896.498	14164
896.619	14153
896.74	14088
896.861	14240
896.982	14473
897.103	14625
897.224	14484
897.345	14446
897.466	14301
897.587	14514
897.708	14632
897.828	14427
897.949	14355
898.07	14214
898.19	14457
898.311	14507
898.431	14362
898.552	14533
898.672	14473
898.792	14526
898.913	14522
899.033	14370
899.153	14358
899.273	14282
899.393	14396
899.513	14313
899.633	14339
899.753	14355
899.873	14320
899.993	14301
900.113	14309
900.232	14343
900.352	14282
900.472	14252
900.591	14123
900.711	14298
900.83	14172
900.95	14328
901.069	14366
901.189	14138
901.308	14005
901.427	13727
901.546	13890
901.665	14005
901.784	13868
901.904	13772
902.023	13620
902.141	13597
902.26	13381
902.379	13480
902.498	13445
902.617	13403
902.735	13430
902.854	13384
902.973	13346
903.091	13099
903.21	13187
903.328	13107
903.446	13053
903.565	13012
903.683	13004
903.801	12909
903.919	13065
904.038	13031
904.156	12833
904.274	12966
904.392	12844
904.51	12741
904.627	12821
904.745	12821
904.863	12882
904.981	12726
905.098	12532
905.216	12559
905.334	12566
905.451	12559
905.569	12532
905.686	12513
905.803	12574
905.921	12308
906.038	12483
906.155	12388
906.272	12334
906.389	12243
906.506	12053
906.623	12152
906.74	12171
906.857	12026
906.974	11992
907.091	12155
907.208	12228
907.324	12167
907.441	12053
907.557	11920
907.674	11946
907.79	11828
907.907	11836
908.023	11882
908.139	11935
908.256	11767
908.372	11821
908.488	11798
908.604	11733
908.72	11684
908.836	11665
908.952	11596
909.068	11668
909.184	11775
909.3	11710
909.415	11634
909.531	11680
909.647	11387
909.762	11410
909.878	11455
909.993	11406
910.108	11398
910.224	11341
910.339	11353
910.454	11387
910.57	11303
910.685	11140
910.8	11455
910.915	11429
911.03	11326
911.145	11170
911.259	11197
911.374	11136
911.489	11025
911.604	10968
911.718	10850
911.833	10900
911.947	10797
912.062	10733
912.176	10892
912.291	10896
912.405	10877
912.519	10946
912.633	11143
912.748	10881
912.862	10873
912.976	10790
913.09	10717
913.204	10736
913.318	10782
913.431	10824
913.545	10828
913.659	10843
913.772	10721
913.886	10565
914	10641
914.113	10767
914.226	10736
914.34	10771
914.453	10565
914.566	10790
914.68	10531
914.793	10554
914.906	10390
915.019	10352
915.132	10352
915.245	10371
915.358	10371
915.47	10409
915.583	10386
915.696	10459
915.809	10550
915.921	10531
916.034	10440
916.146	10356
916.259	10287
916.371	10432
916.483	10344
916.595	10325
916.708	10382
916.82	10348
916.932	10352
917.044	10284
917.156	10276
917.268	10238
917.38	10196
917.491	10204
917.603	10158
917.715	10344
917.826	10337
917.938	10158
918.049	10097
918.161	10234
918.272	10405
918.384	10325
918.495	10253
918.606	10188
918.717	10105
918.828	10185
918.939	10192
919.05	10071
919.161	10090
919.272	9838
919.383	10002
919.494	10101
919.604	10333
919.715	10112
919.826	9998
919.936	10131
920.047	10185
920.157	10109
920.267	10356
920.378	10207
920.488	10124
920.598	10306
920.708	10508
920.818	10314
920.928	10318
921.038	10538
921.148	10386
921.258	10124
921.368	10025
921.477	10010
921.587	9934
921.697	9876
921.806	9968
921.916	9869
922.025	9717
922.134	9701
922.244	9644
922.353	9743
922.462	9557
922.571	9462
922.68	9382
922.789	9424
922.898	9435
923.007	9359
923.116	9428
923.224	9416
923.333	9317
923.442	9336
923.55	9237
923.659	9359
923.767	9260
923.876	9264
923.984	9298
924.092	9245
924.201	9237
924.309	9218
924.417	9203
924.525	9207
924.633	9199
924.741	10124
924.849	9077
924.956	9157
925.064	9032
925.172	8925
925.279	8960
925.387	9051
925.494	9028
925.602	9192
925.709	9051
925.816	8971
925.924	9005
926.031	9093
926.138	9055
926.245	9058
926.352	8967
926.459	9077
926.566	9173
926.673	8990
926.779	8933
926.886	8887
926.993	8800
927.099	8811
927.206	8651
927.312	8716
927.419	8777
927.525	8781
927.631	8750
927.737	8686
927.843	8636
927.95	8568
928.056	8610
928.162	8663
928.267	8705
928.373	9287
928.479	8712
928.585	8568
928.69	8667
928.796	8746
928.901	8549
929.007	8404
929.112	8564
929.218	8514
929.323	8465
929.428	8473
929.533	8560
929.638	8412
929.743	8419
929.848	8480
929.953	8514
930.058	8366
930.163	8237
930.267	8305
930.372	8377
930.477	8214
930.581	8442
930.685	8290
930.79	8168
930.894	8153
930.998	8111
931.103	8358
931.207	7997
931.311	7982
931.415	7868
931.519	7700
931.623	7700
