Data from test_V78500241_3648.txt Node
Date: Fri Mar 25 14:59:07 CST 2022
User: usil
Spectrometer: V785-0024
Trigger mode: 0
Integration Time (sec): 4.000000E-1
Scans to average: 1
Nonlinearity correction enabled: false
Boxcar width: 0
Storing dark spectrum: false
XAxis mode: Wavelengths
Number of Pixels in Spectrum: 1024
>>>>>Begin Spectral Data<<<<<
801.071	21907
801.214	21728
801.356	21507
801.499	21435
801.641	21351
801.783	21412
801.926	21424
802.068	21310
802.211	21142
802.353	21135
802.496	20963
802.638	20735
802.78	20667
802.923	20648
803.065	20602
803.208	20708
803.35	20606
803.492	20807
803.635	20705
803.777	20609
803.919	20682
804.061	21055
804.204	20724
804.346	20598
804.488	20648
804.63	20674
804.773	20507
804.915	20537
805.057	20522
805.199	20499
805.341	20629
805.483	20682
805.626	20594
805.768	20400
805.91	20556
806.052	20503
806.194	20404
806.336	20693
806.478	20465
806.62	20503
806.762	20499
806.904	20598
807.046	20979
807.188	20830
807.33	20823
807.472	20929
807.614	20845
807.756	20811
807.898	20609
808.04	20556
808.182	20678
808.324	20549
808.465	20579
808.607	20826
808.749	20960
808.891	21005
809.033	21024
809.174	20956
809.316	20758
809.458	20834
809.6	20807
809.741	20883
809.883	20998
810.025	20861
810.166	21036
810.308	20990
810.45	20853
810.591	20986
810.733	20743
810.875	20682
811.016	20507
811.158	20587
811.299	20682
811.441	20674
811.582	20800
811.724	20590
811.865	20689
812.007	20590
812.148	20526
812.29	20556
812.431	20788
812.573	20826
812.714	20971
812.855	21104
812.997	21268
813.138	21485
813.279	21207
813.421	21154
813.562	21093
813.703	20845
813.845	20708
813.986	20518
814.127	20404
814.268	20301
814.41	20199
814.551	20199
814.692	20157
814.833	20172
814.974	20084
815.115	20214
815.256	20069
815.397	20062
815.539	20069
815.68	20062
815.821	19860
815.962	19940
816.103	19849
816.244	19704
816.385	19712
816.526	19624
816.666	19445
816.807	19251
816.948	19430
817.089	19460
817.23	19335
817.371	19320
817.512	19244
817.653	19403
817.793	19278
817.934	19274
818.075	19365
818.216	19270
818.356	19190
818.497	19065
818.638	19012
818.778	18928
818.919	18970
819.06	19008
819.2	19236
819.341	19259
819.481	19042
819.622	19308
819.762	19476
819.903	19362
820.043	19373
820.184	19278
820.324	19327
820.465	19327
820.605	19221
820.746	19297
820.886	19042
821.026	19076
821.167	19190
821.307	19362
821.447	19194
821.588	19057
821.728	19019
821.868	18894
822.008	18779
822.149	18707
822.289	18597
822.429	18642
822.569	18285
822.709	18448
822.849	18190
822.99	18209
823.13	18262
823.27	18129
823.41	17980
823.55	17984
823.69	18022
823.83	17935
823.97	17882
824.11	17809
824.25	17828
824.389	17748
824.529	17878
824.669	17687
824.809	17908
824.949	17855
825.089	17874
825.228	17741
825.368	17532
825.508	17558
825.648	17474
825.787	17554
825.927	17737
826.067	17630
826.206	17490
826.346	17524
826.485	17630
826.625	17543
826.765	17676
826.904	17554
827.044	17395
827.183	17307
827.323	17231
827.462	17299
827.601	17235
827.741	17242
827.88	17220
828.02	17083
828.159	17170
828.298	17250
828.437	17296
828.577	17193
828.716	17239
828.855	17124
828.994	17029
829.134	17045
829.273	17037
829.412	16957
829.551	16915
829.69	16995
829.829	17067
829.968	17109
830.107	17143
830.246	17003
830.385	17010
830.524	17022
830.663	16850
830.802	16740
830.941	16672
831.08	16580
831.219	16729
831.357	16710
831.496	16965
831.635	16641
831.774	16504
831.913	16497
832.051	16493
832.19	16337
832.329	16512
832.467	16310
832.606	16272
832.744	16363
832.883	16333
833.022	16226
833.16	16306
833.299	16516
833.437	16344
833.576	16417
833.714	16318
833.852	16432
833.991	16352
834.129	16478
834.267	16478
834.406	16306
834.544	16363
834.682	16405
834.821	16382
834.959	16565
835.097	16303
835.235	16504
835.373	16443
835.511	16417
835.65	16246
835.788	16268
835.926	16223
836.064	16200
836.202	16158
836.34	16287
836.478	16394
836.615	16405
836.753	16329
836.891	16508
837.029	16322
837.167	16284
837.305	16200
837.443	16139
837.58	16158
837.718	16325
837.856	16131
837.993	16086
838.131	16109
838.269	16185
838.406	16093
838.544	16040
838.681	15888
838.819	15884
838.956	15671
839.094	15774
839.231	15778
839.369	15850
839.506	16158
839.643	16032
839.781	15720
839.918	15694
840.055	15770
840.193	15663
840.33	15690
840.467	15759
840.604	15747
840.742	16067
840.879	15553
841.016	15663
841.153	15641
841.29	15823
841.427	15755
841.564	15865
841.701	15766
841.838	15736
841.975	15736
842.112	15679
842.249	15549
842.385	15485
842.522	15644
842.659	15557
842.796	15481
842.933	15656
843.069	15454
843.206	15485
843.343	15603
843.479	15629
843.616	15610
843.752	15363
843.889	15313
844.025	15367
844.162	15252
844.298	15325
844.435	15272
844.571	15249
844.708	15348
844.844	15386
844.98	15405
845.117	15435
845.253	15188
845.389	15226
845.525	15226
845.661	15184
845.798	15097
845.934	15142
846.07	15017
846.206	15100
846.342	15214
846.478	15180
846.614	14902
846.75	14800
846.886	14899
847.022	14960
847.158	14967
847.294	14815
847.429	14963
847.565	14834
847.701	15058
847.837	14655
847.972	14507
848.108	14663
848.244	14693
848.379	14362
848.515	14545
848.65	14530
848.786	14495
848.921	14526
849.057	14541
849.192	14537
849.328	14492
849.463	14495
849.598	14450
849.734	14457
849.869	14320
850.004	14343
850.14	14237
850.275	14320
850.41	14199
850.545	14168
850.68	14252
850.815	14328
850.95	14256
851.085	14423
851.22	14351
851.355	14267
851.49	14218
851.625	14233
851.76	14237
851.895	14123
852.03	14164
852.165	14313
852.299	14248
852.434	14298
852.569	14240
852.703	14336
852.838	14336
852.973	14412
853.107	14374
853.242	14172
853.376	14027
853.511	14081
853.645	14069
853.78	14180
853.914	14046
854.048	14126
854.183	14130
854.317	14126
854.451	14393
854.585	14073
854.72	14130
854.854	14229
854.988	14054
855.122	14134
855.256	14077
855.39	14096
855.524	14168
855.658	14119
855.792	14153
855.926	14237
856.06	14199
856.194	14233
856.327	14123
856.461	14134
856.595	14111
856.729	14145
856.862	14145
856.996	14126
857.13	14225
857.263	14172
857.397	14221
857.53	14031
857.664	14191
857.797	14320
857.931	14317
858.064	14183
858.197	14161
858.331	14096
858.464	14096
858.597	14016
858.731	14100
858.864	14149
858.997	14020
859.13	14145
859.263	14149
859.396	14210
859.529	14218
859.662	14130
859.795	14145
859.928	14111
860.061	14358
860.194	14294
860.327	14191
860.46	14039
860.592	14275
860.725	14286
860.858	14218
860.99	14096
861.123	14126
861.256	14046
861.388	14130
861.521	14887
861.653	14031
861.786	13947
861.918	13932
862.05	14024
862.183	13989
862.315	14145
862.447	14195
862.58	14016
862.712	13902
862.844	13852
862.976	13875
863.108	13997
863.24	14233
863.372	13868
863.504	13925
863.636	13921
863.768	14035
863.9	13902
864.032	13811
864.164	13852
864.296	13883
864.428	14084
864.559	13989
864.691	13978
864.823	13890
864.954	13860
865.086	14001
865.217	13906
865.349	13757
865.48	13940
865.612	13894
865.743	14024
865.875	13906
866.006	13913
866.137	13921
866.269	13868
866.4	13944
866.531	13837
866.662	13841
866.793	13883
866.924	13818
867.055	13856
867.186	13875
867.317	13799
867.448	13791
867.579	13841
867.71	13826
867.841	13719
867.972	13906
868.103	13841
868.233	13913
868.364	13856
868.495	13951
868.625	14126
868.756	14237
868.886	14043
869.017	14153
869.147	14172
869.278	14225
869.408	14256
869.539	14138
869.669	14252
869.799	14187
869.929	14282
870.06	14290
870.19	14499
870.32	14385
870.45	14469
870.58	14636
870.71	14636
870.84	14636
870.97	14556
871.1	14575
871.23	14640
871.36	14674
871.489	14678
871.619	14792
871.749	14777
871.879	14819
872.008	14864
872.138	14705
872.267	14697
872.397	14598
872.526	14575
872.656	14613
872.785	14575
872.915	14678
873.044	14819
873.173	14701
873.303	14914
873.432	14819
873.561	14880
873.69	14773
873.819	14788
873.948	14872
874.077	14750
874.206	14845
874.335	14807
874.464	14952
874.593	15123
874.722	14937
874.851	15074
874.979	15138
875.108	15275
875.237	15055
875.365	15047
875.494	15085
875.623	15252
875.751	15112
875.88	15233
876.008	15173
876.136	15237
876.265	15507
876.393	15781
876.521	15572
876.65	15523
876.778	15545
876.906	15515
877.034	15416
877.162	15435
877.29	15488
877.418	15389
877.546	15492
877.674	15462
877.802	15511
877.93	15564
878.058	15420
878.185	15416
878.313	15526
878.441	15530
878.568	15424
878.696	15462
878.824	15534
878.951	15694
879.079	15709
879.206	15812
879.333	15682
879.461	15572
879.588	15523
879.715	15774
879.842	15736
879.97	15637
880.097	15469
880.224	15351
880.351	15359
880.478	15397
880.605	15393
880.732	15367
880.859	15561
880.986	15382
881.112	15401
881.239	15344
881.366	15123
881.493	15077
881.619	14990
881.746	15116
881.872	14921
881.999	15005
882.125	15051
882.252	15020
882.378	14986
882.505	15157
882.631	14982
882.757	14811
882.883	14910
883.01	14872
883.136	14891
883.262	14678
883.388	14750
883.514	14735
883.64	14811
883.766	14796
883.892	14590
884.018	14708
884.143	14819
884.269	14971
884.395	14670
884.52	14594
884.646	14560
884.772	14533
884.897	14431
885.023	14568
885.148	14629
885.274	14720
885.399	14716
885.524	14640
885.65	14571
885.775	14610
885.9	14476
886.025	14632
886.15	14655
886.275	14583
886.4	14476
886.525	14522
886.65	14549
886.775	14518
886.9	14617
887.025	14754
887.149	14514
887.274	14385
887.399	14313
887.523	14434
887.648	14355
887.773	14256
887.897	14415
888.021	14522
888.146	14298
888.27	14484
888.395	14514
888.519	14457
888.643	14408
888.767	14480
888.891	14328
889.015	14172
889.139	14298
889.263	14172
889.387	14313
889.511	14415
889.635	14358
889.759	14263
889.883	14263
890.006	14263
890.13	14313
890.254	14149
890.377	14172
890.501	14084
890.624	14065
890.748	14180
890.871	14027
890.995	13936
891.118	13898
891.241	13951
891.364	13944
891.488	13974
891.611	13921
891.734	14008
891.857	14035
891.98	14001
892.103	14031
892.226	14031
892.349	13852
892.471	13860
892.594	13833
892.717	13986
892.839	13936
892.962	13986
893.085	13963
893.207	13887
893.33	13852
893.452	13967
893.575	13917
893.697	13917
893.819	14069
893.941	14153
894.064	14115
894.186	13883
894.308	13925
894.43	14107
894.552	14145
894.674	14084
894.796	13906
894.918	13989
895.04	13970
895.161	14168
895.283	14058
895.405	14031
895.526	14145
895.648	14073
895.769	14096
895.891	14107
896.012	14180
896.134	14187
896.255	14107
896.376	14153
896.498	14050
896.619	14130
896.74	14161
896.861	14240
896.982	14442
897.103	14667
897.224	14415
897.345	14434
897.466	14298
897.587	14362
897.708	14533
897.828	14427
897.949	14347
898.07	14233
898.19	14332
898.311	14530
898.431	14396
898.552	14511
898.672	14488
898.792	14590
898.913	14446
899.033	14324
899.153	14362
899.273	14286
899.393	14336
899.513	14431
899.633	14320
899.753	14358
899.873	14244
899.993	14434
900.113	14336
900.232	14415
900.352	14221
900.472	14206
900.591	14218
900.711	14256
900.83	14107
900.95	14374
901.069	14282
901.189	14145
901.308	13936
901.427	13875
901.546	13887
901.665	13944
901.784	13814
901.904	13708
902.023	13613
902.141	13514
902.26	13460
902.379	13472
902.498	13403
902.617	13434
902.735	13369
902.854	13460
902.973	13301
903.091	13156
903.21	13110
903.328	13099
903.446	13095
903.565	13023
903.683	13023
903.801	12901
903.919	13084
904.038	13050
904.156	12840
904.274	12951
904.392	12817
904.51	12856
904.627	12772
904.745	12848
904.863	12878
904.981	12681
905.098	12445
905.216	12532
905.334	12566
905.451	12452
905.569	12536
905.686	12547
905.803	12563
905.921	12281
906.038	12528
906.155	12342
906.272	12247
906.389	12266
906.506	12064
906.623	12159
906.74	12186
906.857	11988
906.974	12087
907.091	12102
907.208	12251
907.324	12186
907.441	11996
907.557	11870
907.674	11885
907.79	11882
907.907	11904
908.023	11935
908.139	11870
908.256	11794
908.372	11878
908.488	11775
908.604	11630
908.72	11707
908.836	11684
908.952	11562
909.068	11657
909.184	11714
909.3	11638
909.415	11741
909.531	11649
909.647	11474
909.762	11414
909.878	11398
909.993	11448
910.108	11383
910.224	11334
910.339	11436
910.454	11303
910.57	11288
910.685	11181
910.8	11467
910.915	11349
911.03	11235
911.145	11086
911.259	11083
911.374	11121
911.489	11060
911.604	11014
911.718	10866
911.833	10873
911.947	10854
912.062	10725
912.176	10889
912.291	10809
912.405	10797
912.519	11025
912.633	11121
912.748	10869
912.862	10828
912.976	10782
913.09	10637
913.204	10714
913.318	10740
913.431	10923
913.545	10767
913.659	10816
913.772	10809
913.886	10592
914	10603
914.113	10786
914.226	10805
914.34	10664
914.453	10542
914.566	10809
914.68	10622
914.793	10550
914.906	10398
915.019	10314
915.132	10356
915.245	10375
915.358	10363
915.47	10386
915.583	10394
915.696	10394
915.809	10508
915.921	10523
916.034	10459
916.146	10310
916.259	10337
916.371	10398
916.483	10341
916.595	10352
916.708	10299
916.82	10272
916.932	10257
917.044	10230
917.156	10310
917.268	10109
917.38	10257
917.491	10185
917.603	10291
917.715	10333
917.826	10303
917.938	10135
918.049	10147
918.161	10303
918.272	10390
918.384	10337
918.495	10238
918.606	10093
918.717	10097
918.828	10063
918.939	10093
919.05	10048
919.161	10097
919.272	9873
919.383	9934
919.494	10128
919.604	10284
919.715	10029
919.826	10044
919.936	10029
920.047	10173
920.157	10177
920.267	10341
920.378	10139
920.488	10093
920.598	10352
920.708	10485
920.818	10261
920.928	10314
921.038	10459
921.148	10481
921.258	10120
921.368	10055
921.477	9918
921.587	9926
921.697	9838
921.806	9953
921.916	9804
922.025	9774
922.134	9713
922.244	9606
922.353	9747
922.462	9561
922.571	9443
922.68	9329
922.789	9397
922.898	9401
923.007	9317
923.116	9389
923.224	9401
923.333	9302
923.442	9283
923.55	9222
923.659	9287
923.767	9294
923.876	9161
923.984	9272
924.092	9188
924.201	9253
924.309	9222
924.417	9253
924.525	9207
924.633	9173
924.741	9926
924.849	9028
924.956	9180
925.064	8918
925.172	8834
925.279	8979
925.387	9077
925.494	8994
925.602	9146
925.709	9081
925.816	8937
925.924	9062
926.031	9135
926.138	9097
926.245	9116
926.352	8975
926.459	9097
926.566	9127
926.673	8979
926.779	8941
926.886	8899
926.993	8762
927.099	8716
927.206	8693
927.312	8617
927.419	8754
927.525	8785
927.631	8766
927.737	8678
927.843	8689
927.95	8522
928.056	8579
928.162	8621
928.267	8659
928.373	9268
928.479	8773
928.585	8549
928.69	8651
928.796	8678
928.901	8564
929.007	8480
929.112	8530
929.218	8587
929.323	8495
929.428	8522
929.533	8545
929.638	8366
929.743	8503
929.848	8484
929.953	8476
930.058	8370
930.163	8195
930.267	8206
930.372	8362
930.477	8237
930.581	8454
930.685	8324
930.79	8153
930.894	8248
930.998	8168
931.103	8339
931.207	8012
931.311	7879
931.415	7887
931.519	7681
931.623	7723
