Data from test_V78500241_2969.txt Node
Date: Fri Mar 25 14:54:23 CST 2022
User: usil
Spectrometer: V785-0024
Trigger mode: 0
Integration Time (sec): 4.000000E-1
Scans to average: 1
Nonlinearity correction enabled: false
Boxcar width: 0
Storing dark spectrum: false
XAxis mode: Wavelengths
Number of Pixels in Spectrum: 1024
>>>>>Begin Spectral Data<<<<<
801.071	22101
801.214	21994
801.356	21644
801.499	21618
801.641	21538
801.783	21283
801.926	21450
802.068	21355
802.211	21336
802.353	21241
802.496	20971
802.638	20872
802.78	20902
802.923	20842
803.065	20705
803.208	20701
803.35	20815
803.492	20914
803.635	20941
803.777	20682
803.919	20796
804.061	21062
804.204	20800
804.346	20754
804.488	20568
804.63	20746
804.773	20655
804.915	20762
805.057	20674
805.199	20606
805.341	20788
805.483	20807
805.626	20697
805.768	20594
805.91	20781
806.052	20743
806.194	20598
806.336	20910
806.478	20655
806.62	20507
806.762	20727
806.904	20864
807.046	21081
807.188	21028
807.33	20990
807.472	21051
807.614	20929
807.756	20910
807.898	20834
808.04	20773
808.182	20735
808.324	20769
808.465	20807
808.607	20925
808.749	21017
808.891	21241
809.033	21161
809.174	21195
809.316	20971
809.458	20998
809.6	21074
809.741	21051
809.883	21001
810.025	21207
810.166	21294
810.308	21355
810.45	21214
810.591	21062
810.733	20876
810.875	20773
811.016	20743
811.158	20682
811.299	20857
811.441	20979
811.582	20895
811.724	20777
811.865	20861
812.007	20872
812.148	20773
812.29	20868
812.431	21104
812.573	21127
812.714	21180
812.855	21245
812.997	21397
813.138	21534
813.279	21507
813.421	21431
813.562	21226
813.703	21089
813.845	21020
813.986	20708
814.127	20488
814.268	20351
814.41	20396
814.551	20461
814.692	20393
814.833	20263
814.974	20347
815.115	20415
815.256	20328
815.397	20176
815.539	20278
815.68	20153
815.821	20115
815.962	20107
816.103	20138
816.244	19917
816.385	19871
816.526	19826
816.666	19674
816.807	19483
816.948	19639
817.089	19700
817.23	19556
817.371	19453
817.512	19426
817.653	19544
817.793	19453
817.934	19468
818.075	19510
818.216	19381
818.356	19457
818.497	19411
818.638	19183
818.778	19209
818.919	19206
819.06	19088
819.2	19331
819.341	19331
819.481	19308
819.622	19464
819.762	19658
819.903	19582
820.043	19487
820.184	19491
820.324	19468
820.465	19445
820.605	19350
820.746	19506
820.886	19289
821.026	19381
821.167	19346
821.307	19388
821.447	19278
821.588	19228
821.728	19031
821.868	18943
822.008	18890
822.149	18916
822.289	18787
822.429	18616
822.569	18559
822.709	18517
822.849	18388
822.99	18464
823.13	18323
823.27	18254
823.41	18155
823.55	18155
823.69	18247
823.83	18205
823.97	18117
824.11	18015
824.25	17954
824.389	17988
824.529	18045
824.669	17965
824.809	17969
824.949	18068
825.089	17885
825.228	17954
825.368	17767
825.508	17760
825.648	17695
825.787	17764
825.927	17771
826.067	17653
826.206	17604
826.346	17756
826.485	17691
826.625	17672
826.765	17798
826.904	17737
827.044	17570
827.183	17471
827.323	17490
827.462	17501
827.601	17433
827.741	17364
827.88	17414
828.02	17284
828.159	17284
828.298	17425
828.437	17497
828.577	17322
828.716	17417
828.855	17311
828.994	17269
829.134	17162
829.273	17216
829.412	17132
829.551	17117
829.69	17109
829.829	17090
829.968	17299
830.107	17159
830.246	17136
830.385	17048
830.524	16942
830.663	16949
830.802	16774
830.941	16637
831.08	16790
831.219	16839
831.357	16873
831.496	16991
831.635	16626
831.774	16725
831.913	16611
832.051	16493
832.19	16489
832.329	16523
832.467	16447
832.606	16428
832.744	16421
832.883	16424
833.022	16440
833.16	16348
833.299	16466
833.437	16386
833.576	16504
833.714	16443
833.852	16519
833.991	16542
834.129	16592
834.267	16493
834.406	16531
834.544	16485
834.682	16519
834.821	16493
834.959	16824
835.097	16459
835.235	16569
835.373	16569
835.511	16622
835.65	16352
835.788	16428
835.926	16211
836.064	16158
836.202	16325
836.34	16398
836.478	16424
836.615	16306
836.753	16421
836.891	16390
837.029	16466
837.167	16337
837.305	16325
837.443	16303
837.58	16265
837.718	16325
837.856	16291
837.993	16291
838.131	16196
838.269	16249
838.406	16242
838.544	16166
838.681	15937
838.819	15869
838.956	15808
839.094	15762
839.231	15804
839.369	16006
839.506	16192
839.643	16162
839.781	15800
839.918	15842
840.055	15759
840.193	15808
840.33	15698
840.467	15778
840.604	15812
840.742	16116
840.879	15724
841.016	15595
841.153	15648
841.29	15888
841.427	15861
841.564	15903
841.701	15831
841.838	15770
841.975	15732
842.112	15755
842.249	15580
842.385	15591
842.522	15759
842.659	15690
842.796	15511
842.933	15545
843.069	15618
843.206	15488
843.343	15614
843.479	15644
843.616	15709
843.752	15450
843.889	15351
844.025	15507
844.162	15294
844.298	15439
844.435	15401
844.571	15332
844.708	15389
844.844	15485
844.98	15488
845.117	15439
845.253	15310
845.389	15317
845.525	15195
845.661	15294
845.798	15085
845.934	15218
846.07	15108
846.206	15195
846.342	15370
846.478	15097
846.614	15017
846.75	14971
846.886	14906
847.022	15020
847.158	14982
847.294	14956
847.429	14982
847.565	14914
847.701	15146
847.837	14777
847.972	14636
848.108	14750
848.244	14720
848.379	14613
848.515	14507
848.65	14560
848.786	14541
848.921	14579
849.057	14689
849.192	14594
849.328	14590
849.463	14598
849.598	14503
849.734	14423
849.869	14370
850.004	14290
850.14	14427
850.275	14290
850.41	14172
850.545	14263
850.68	14305
850.815	14301
850.95	14419
851.085	14393
851.22	14336
851.355	14495
851.49	14233
851.625	14252
851.76	14256
851.895	14183
852.03	14210
852.165	14282
852.299	14278
852.434	14355
852.569	14248
852.703	14408
852.838	14301
852.973	14457
853.107	14480
853.242	14294
853.376	14164
853.511	14126
853.645	14221
853.78	14271
853.914	14210
854.048	14107
854.183	14134
854.317	14168
854.451	14366
854.585	14153
854.72	14081
854.854	14278
854.988	14077
855.122	14088
855.256	14092
855.39	14119
855.524	14263
855.658	14237
855.792	14214
855.926	14183
856.06	14282
856.194	14256
856.327	14153
856.461	14077
856.595	14123
856.729	14119
856.862	14301
856.996	14221
857.13	14324
857.263	14298
857.397	14275
857.53	14221
857.664	14126
857.797	14229
857.931	14305
858.064	14142
858.197	14164
858.331	14153
858.464	14199
858.597	14130
858.731	14180
858.864	14233
858.997	14119
859.13	14191
859.263	14240
859.396	14271
859.529	14153
859.662	14134
859.795	14058
859.928	14142
860.061	14313
860.194	14362
860.327	14248
860.46	14218
860.592	14320
860.725	14305
860.858	14351
860.99	14180
861.123	14065
861.256	14107
861.388	14149
861.521	14887
861.653	14134
861.786	14058
861.918	14046
862.05	14065
862.183	14126
862.315	14157
862.447	14259
862.58	14096
862.712	13974
862.844	13898
862.976	14012
863.108	13868
863.24	14214
863.372	13879
863.504	13936
863.636	13951
863.768	14005
863.9	13944
864.032	13902
864.164	13913
864.296	14043
864.428	14100
864.559	13982
864.691	14058
864.823	13947
864.954	13974
865.086	13997
865.217	13917
865.349	13871
865.48	13970
865.612	13925
865.743	14062
865.875	13951
866.006	13871
866.137	13974
866.269	13928
866.4	13959
866.531	13928
866.662	13849
866.793	13890
866.924	13871
867.055	13951
867.186	13936
867.317	13917
867.448	13856
867.579	13841
867.71	13856
867.841	13830
867.972	13906
868.103	13936
868.233	13940
868.364	13879
868.495	14084
868.625	14119
868.756	14180
868.886	14145
869.017	14218
869.147	14343
869.278	14225
869.408	14195
869.539	14229
869.669	14298
869.799	14278
869.929	14328
870.06	14248
870.19	14522
870.32	14488
870.45	14556
870.58	14575
870.71	14739
870.84	14708
870.97	14545
871.1	14556
871.23	14750
871.36	14701
871.489	14716
871.619	14868
871.749	14720
871.879	14891
872.008	14864
872.138	14788
872.267	14762
872.397	14701
872.526	14636
872.656	14545
872.785	14606
872.915	14796
873.044	14864
873.173	14815
873.303	14834
873.432	14788
873.561	14815
873.69	14891
873.819	14811
873.948	14887
874.077	14868
874.206	14754
874.335	14804
874.464	14982
874.593	15127
874.722	15131
874.851	15188
874.979	15218
875.108	15173
875.237	15146
875.365	15070
875.494	15150
875.623	15241
875.751	15180
875.88	15203
876.008	15207
876.136	15370
876.265	15576
876.393	15709
876.521	15667
876.65	15618
876.778	15526
876.906	15606
877.034	15511
877.162	15477
877.29	15549
877.418	15622
877.546	15720
877.674	15606
877.802	15504
877.93	15507
878.058	15469
878.185	15477
878.313	15526
878.441	15485
878.568	15374
878.696	15439
878.824	15530
878.951	15671
879.079	15698
879.206	15983
879.333	15698
879.461	15580
879.588	15637
879.715	15751
879.842	15774
879.97	15641
880.097	15359
880.224	15397
880.351	15454
880.478	15515
880.605	15466
880.732	15317
880.859	15808
880.986	15412
881.112	15382
881.239	15329
881.366	15192
881.493	15112
881.619	15081
881.746	15104
881.872	15028
881.999	15138
882.125	15036
882.252	15066
882.378	15093
882.505	15154
882.631	14933
882.757	14906
882.883	14845
883.01	14800
883.136	14891
883.262	14788
883.388	14663
883.514	14967
883.64	14880
883.766	14842
883.892	14743
884.018	14655
884.143	14895
884.269	14925
884.395	14663
884.52	14629
884.646	14610
884.772	14511
884.897	14454
885.023	14670
885.148	14705
885.274	14689
885.399	14819
885.524	14613
885.65	14621
885.775	14617
885.9	14606
886.025	14697
886.15	14617
886.275	14636
886.4	14476
886.525	14621
886.65	14541
886.775	14537
886.9	14716
887.025	14765
887.149	14594
887.274	14438
887.399	14393
887.523	14381
887.648	14324
887.773	14362
887.897	14454
888.021	14473
888.146	14343
888.27	14438
888.395	14583
888.519	14476
888.643	14560
888.767	14556
888.891	14336
889.015	14298
889.139	14324
889.263	14183
889.387	14374
889.511	14530
889.635	14412
889.759	14263
889.883	14210
890.006	14419
890.13	14434
890.254	14320
890.377	14233
890.501	14157
890.624	14069
890.748	14244
890.871	13856
890.995	13951
891.118	13936
891.241	14039
891.364	14024
891.488	14065
891.611	13993
891.734	14062
891.857	14050
891.98	14035
892.103	14103
892.226	13940
892.349	14024
892.471	13879
892.594	13925
892.717	14001
892.839	14012
892.962	14027
893.085	14092
893.207	14012
893.33	13795
893.452	13928
893.575	14027
893.697	13890
893.819	14202
893.941	14225
894.064	14187
894.186	13947
894.308	13944
894.43	14225
894.552	14187
894.674	14149
894.796	13963
894.918	14024
895.04	13997
895.161	14161
895.283	14130
895.405	14073
895.526	14134
895.648	14100
895.769	14016
895.891	14202
896.012	14252
896.134	14229
896.255	14191
896.376	14191
896.498	14244
896.619	14324
896.74	14206
896.861	14278
896.982	14514
897.103	14758
897.224	14419
897.345	14465
897.466	14446
897.587	14625
897.708	14590
897.828	14545
897.949	14358
898.07	14389
898.19	14434
898.311	14648
898.431	14438
898.552	14575
898.672	14533
898.792	14594
898.913	14575
899.033	14495
899.153	14488
899.273	14347
899.393	14427
899.513	14450
899.633	14404
899.753	14423
899.873	14355
899.993	14461
900.113	14442
900.232	14438
900.352	14495
900.472	14389
900.591	14347
900.711	14225
900.83	14259
900.95	14317
901.069	14415
901.189	14225
901.308	13986
901.427	13955
901.546	14039
901.665	13978
901.784	14039
901.904	13849
902.023	13799
902.141	13586
902.26	13571
902.379	13689
902.498	13521
902.617	13525
902.735	13544
902.854	13594
902.973	13400
903.091	13350
903.21	13225
903.328	13312
903.446	13301
903.565	13103
903.683	13091
903.801	13099
903.919	13126
904.038	13053
904.156	12928
904.274	12966
904.392	12882
904.51	12897
904.627	12886
904.745	12977
904.863	12989
904.981	12703
905.098	12616
905.216	12764
905.334	12696
905.451	12646
905.569	12570
905.686	12654
905.803	12703
905.921	12513
906.038	12578
906.155	12471
906.272	12395
906.389	12296
906.506	12155
906.623	12228
906.74	12254
906.857	12003
906.974	12083
907.091	12251
907.208	12334
907.324	12266
907.441	12186
907.557	12060
907.674	11950
907.79	11870
907.907	11798
908.023	11999
908.139	11931
908.256	11855
908.372	11954
908.488	11798
908.604	11771
908.72	11665
908.836	11684
908.952	11623
909.068	11805
909.184	11817
909.3	11707
909.415	11859
909.531	11775
909.647	11509
909.762	11463
909.878	11387
909.993	11486
910.108	11414
910.224	11444
910.339	11486
910.454	11326
910.57	11387
910.685	11246
910.8	11547
910.915	11406
911.03	11337
911.145	11204
911.259	11174
911.374	11143
911.489	11151
911.604	11086
911.718	11006
911.833	10930
911.947	10778
912.062	10744
912.176	10889
912.291	10946
912.405	10927
912.519	11197
912.633	11197
912.748	11064
912.862	10873
912.976	10850
913.09	10733
913.204	10782
913.318	10850
913.431	10938
913.545	10896
913.659	10923
913.772	10915
913.886	10714
914	10714
914.113	10824
914.226	10786
914.34	10801
914.453	10653
914.566	10778
914.68	10592
914.793	10668
914.906	10440
915.019	10413
915.132	10402
915.245	10405
915.358	10508
915.47	10375
915.583	10371
915.696	10447
915.809	10630
915.921	10577
916.034	10474
916.146	10398
916.259	10363
916.371	10504
916.483	10455
916.595	10344
916.708	10417
916.82	10470
916.932	10409
917.044	10325
917.156	10299
917.268	10295
917.38	10322
917.491	10219
917.603	10341
917.715	10371
917.826	10447
917.938	10211
918.049	10196
918.161	10356
918.272	10409
918.384	10474
918.495	10352
918.606	10204
918.717	10090
918.828	10253
918.939	10177
919.05	10093
919.161	10181
919.272	9956
919.383	9987
919.494	10207
919.604	10398
919.715	10242
919.826	10116
919.936	10139
920.047	10223
920.157	10211
920.267	10390
920.378	10192
920.488	10265
920.598	10409
920.708	10535
920.818	10424
920.928	10344
921.038	10531
921.148	10493
921.258	10147
921.368	10162
921.477	10032
921.587	10090
921.697	9873
921.806	10101
921.916	9934
922.025	9831
922.134	9755
922.244	9622
922.353	9827
922.462	9679
922.571	9595
922.68	9447
922.789	9424
922.898	9450
923.007	9416
923.116	9485
923.224	9386
923.333	9454
923.442	9294
923.55	9287
923.659	9370
923.767	9408
923.876	9359
923.984	9397
924.092	9176
924.201	9268
924.309	9374
924.417	9382
924.525	9218
924.633	9260
924.741	10196
924.849	9047
924.956	9230
925.064	9104
925.172	9020
925.279	9066
925.387	9131
925.494	9112
925.602	9203
925.709	9131
925.816	9077
925.924	9112
926.031	9150
926.138	9047
926.245	9207
926.352	9066
926.459	9146
926.566	9199
926.673	9047
926.779	8986
926.886	8956
926.993	8792
927.099	8815
927.206	8804
927.312	8735
927.419	8887
927.525	8819
927.631	8933
927.737	8697
927.843	8781
927.95	8606
928.056	8686
928.162	8701
928.267	8735
928.373	9405
928.479	8766
928.585	8522
928.69	8754
928.796	8777
928.901	8674
929.007	8434
929.112	8606
929.218	8568
929.323	8545
929.428	8461
929.533	8659
929.638	8503
929.743	8537
929.848	8514
929.953	8476
930.058	8461
930.163	8305
930.267	8301
930.372	8408
930.477	8320
930.581	8545
930.685	8412
930.79	8214
930.894	8282
930.998	8214
931.103	8374
931.207	8012
931.311	7978
931.415	7928
931.519	7750
931.623	7662
