Data from test_V78500241_1544.txt Node
Date: Fri Mar 25 14:44:28 CST 2022
User: usil
Spectrometer: V785-0024
Trigger mode: 0
Integration Time (sec): 4.000000E-1
Scans to average: 1
Nonlinearity correction enabled: false
Boxcar width: 0
Storing dark spectrum: false
XAxis mode: Wavelengths
Number of Pixels in Spectrum: 1024
>>>>>Begin Spectral Data<<<<<
801.071	22474
801.214	22337
801.356	22021
801.499	21915
801.641	21926
801.783	21728
801.926	21880
802.068	21701
802.211	21625
802.353	21523
802.496	21389
802.638	21211
802.78	21306
802.923	21146
803.065	21066
803.208	21020
803.35	21039
803.492	21283
803.635	21252
803.777	21161
803.919	21195
804.061	21477
804.204	21135
804.346	21089
804.488	21032
804.63	21135
804.773	20941
804.915	21070
805.057	21028
805.199	20971
805.341	21207
805.483	21173
805.626	21093
805.768	21062
805.91	21058
806.052	21074
806.194	21013
806.336	21214
806.478	20990
806.62	20994
806.762	21104
806.904	21272
807.046	21519
807.188	21469
807.33	21420
807.472	21389
807.614	21359
807.756	21344
807.898	21298
808.04	21157
808.182	21211
808.324	21298
808.465	21454
808.607	21496
808.749	21641
808.891	21690
809.033	21732
809.174	21641
809.316	21519
809.458	21473
809.6	21447
809.741	21545
809.883	21530
810.025	21743
810.166	21557
810.308	21542
810.45	21652
810.591	21454
810.733	21321
810.875	21211
811.016	21154
811.158	21207
811.299	21241
811.441	21450
811.582	21310
811.724	21317
811.865	21203
812.007	21195
812.148	21272
812.29	21401
812.431	21401
812.573	21511
812.714	21633
812.855	21686
812.997	21781
813.138	21930
813.279	21850
813.421	21770
813.562	21694
813.703	21412
813.845	21466
813.986	21131
814.127	20971
814.268	20883
814.41	20811
814.551	20785
814.692	20800
814.833	20792
814.974	20590
815.115	20758
815.256	20674
815.397	20693
815.539	20587
815.68	20579
815.821	20499
815.962	20522
816.103	20419
816.244	20339
816.385	20256
816.526	20248
816.666	20039
816.807	20012
816.948	20008
817.089	20039
817.23	19963
817.371	19982
817.512	19833
817.653	19936
817.793	19909
817.934	19936
818.075	20020
818.216	19856
818.356	19860
818.497	19772
818.638	19624
818.778	19563
818.919	19571
819.06	19666
819.2	19757
819.341	19746
819.481	19734
819.622	19944
819.762	20168
819.903	20069
820.043	20058
820.184	19898
820.324	19879
820.465	19993
820.605	19974
820.746	19909
820.886	19807
821.026	19936
821.167	19860
821.307	19993
821.447	19909
821.588	19658
821.728	19635
821.868	19430
822.008	19316
822.149	19293
822.289	19339
822.429	19080
822.569	18996
822.709	19103
822.849	18829
822.99	18875
823.13	18665
823.27	18738
823.41	18757
823.55	18555
823.69	18612
823.83	18479
823.97	18555
824.11	18350
824.25	18513
824.389	18311
824.529	18429
824.669	18350
824.809	18532
824.949	18547
825.089	18433
825.228	18399
825.368	18102
825.508	18133
825.648	18220
825.787	18155
825.927	18300
826.067	18197
826.206	18174
826.346	18095
826.485	18194
826.625	18136
826.765	18273
826.904	18121
827.044	17980
827.183	17847
827.323	17707
827.462	17866
827.601	17752
827.741	17718
827.88	17920
828.02	17764
828.159	17756
828.298	17855
828.437	17851
828.577	17710
828.716	17916
828.855	17737
828.994	17532
829.134	17691
829.273	17619
829.412	17516
829.551	17528
829.69	17501
829.829	17668
829.968	17638
830.107	17630
830.246	17581
830.385	17524
830.524	17547
830.663	17391
830.802	17288
830.941	17246
831.08	17216
831.219	17269
831.357	17197
831.496	17414
831.635	17246
831.774	17105
831.913	17003
832.051	16946
832.19	16896
832.329	17014
832.467	16885
832.606	16923
832.744	16869
832.883	16889
833.022	16850
833.16	16965
833.299	16854
833.437	16919
833.576	16824
833.714	16896
833.852	16934
833.991	17029
834.129	17064
834.267	17006
834.406	16972
834.544	16976
834.682	16904
834.821	16911
834.959	17048
835.097	16911
835.235	17018
835.373	16949
835.511	16885
835.65	16831
835.788	16850
835.926	16584
836.064	16573
836.202	16683
836.34	16911
836.478	16805
836.615	16668
836.753	16774
836.891	16839
837.029	16786
837.167	16717
837.305	16752
837.443	16615
837.58	16649
837.718	16713
837.856	16656
837.993	16702
838.131	16698
838.269	16527
838.406	16569
838.544	16565
838.681	16402
838.819	16428
838.956	16169
839.094	16177
839.231	16181
839.369	16295
839.506	16645
839.643	16535
839.781	16314
839.918	16135
840.055	16280
840.193	16188
840.33	16185
840.467	16181
840.604	16185
840.742	16538
840.879	16048
841.016	16112
841.153	16131
841.29	16337
841.427	16196
841.564	16105
841.701	16291
841.838	16200
841.975	16128
842.112	16040
842.249	15949
842.385	15941
842.522	16120
842.659	16059
842.796	15968
842.933	15968
843.069	15945
843.206	16067
843.343	16002
843.479	16017
843.616	16067
843.752	15743
843.889	15781
844.025	15842
844.162	15743
844.298	15785
844.435	15850
844.571	15759
844.708	15831
844.844	15968
844.98	15888
845.117	15869
845.253	15713
845.389	15682
845.525	15819
845.661	15762
845.798	15648
845.934	15819
846.07	15766
846.206	15770
846.342	15907
846.478	15648
846.614	15580
846.75	15374
846.886	15233
847.022	15542
847.158	15386
847.294	15348
847.429	15469
847.565	15374
847.701	15606
847.837	15154
847.972	15085
848.108	15184
848.244	15116
848.379	15032
848.515	14979
848.65	15005
848.786	14979
848.921	14986
849.057	15043
849.192	15020
849.328	14963
849.463	14895
849.598	14967
849.734	14849
849.869	14762
850.004	14689
850.14	14743
850.275	14773
850.41	14655
850.545	14602
850.68	14674
850.815	14693
850.95	14735
851.085	14921
851.22	14967
851.355	14705
851.49	14708
851.625	14720
851.76	14792
851.895	14621
852.03	14587
852.165	14571
852.299	14701
852.434	14796
852.569	14735
852.703	14693
852.838	14762
852.973	14861
853.107	14811
853.242	14625
853.376	14602
853.511	14511
853.645	14492
853.78	14640
853.914	14579
854.048	14568
854.183	14514
854.317	14617
854.451	14720
854.585	14625
854.72	14598
854.854	14663
854.988	14499
855.122	14667
855.256	14495
855.39	14530
855.524	14640
855.658	14629
855.792	14663
855.926	14537
856.06	14632
856.194	14720
856.327	14465
856.461	14461
856.595	14537
856.729	14423
856.862	14746
856.996	14556
857.13	14670
857.263	14712
857.397	14701
857.53	14552
857.664	14667
857.797	14765
857.931	14781
858.064	14720
858.197	14739
858.331	14663
858.464	14564
858.597	14476
858.731	14564
858.864	14594
858.997	14568
859.13	14594
859.263	14579
859.396	14579
859.529	14545
859.662	14590
859.795	14522
859.928	14575
860.061	14796
860.194	14811
860.327	14621
860.46	14533
860.592	14697
860.725	14655
860.858	14689
860.99	14655
861.123	14476
861.256	14499
861.388	14613
861.521	15161
861.653	14511
861.786	14446
861.918	14450
862.05	14461
862.183	14575
862.315	14545
862.447	14648
862.58	14537
862.712	14290
862.844	14324
862.976	14480
863.108	14431
863.24	14849
863.372	14313
863.504	14366
863.636	14347
863.768	14442
863.9	14419
864.032	14313
864.164	14358
864.296	14358
864.428	14545
864.559	14484
864.691	14473
864.823	14404
864.954	14385
865.086	14275
865.217	14313
865.349	14271
865.48	14339
865.612	14366
865.743	14473
865.875	14415
866.006	14290
866.137	14385
866.269	14336
866.4	14248
866.531	14199
866.662	14309
866.793	14324
866.924	14252
867.055	14294
867.186	14347
867.317	14309
867.448	14111
867.579	14328
867.71	14157
867.841	14248
867.972	14256
868.103	14309
868.233	14366
868.364	14317
868.495	14503
868.625	14556
868.756	14765
868.886	14362
869.017	14659
869.147	14621
869.278	14674
869.408	14674
869.539	14583
869.669	14651
869.799	14492
869.929	14686
870.06	14659
870.19	14921
870.32	14845
870.45	14883
870.58	15020
870.71	15032
870.84	15116
870.97	14937
871.1	14960
871.23	15150
871.36	15211
871.489	15131
871.619	15119
871.749	15199
871.879	15241
872.008	15317
872.138	15180
872.267	15150
872.397	15066
872.526	14998
872.656	14944
872.785	15055
872.915	15237
873.044	15233
873.173	15161
873.303	15298
873.432	15241
873.561	15306
873.69	15256
873.819	15211
873.948	15291
874.077	15203
874.206	15176
874.335	15268
874.464	15351
874.593	15424
874.722	15481
874.851	15545
874.979	15610
875.108	15561
875.237	15431
875.365	15469
875.494	15454
875.623	15618
875.751	15496
875.88	15568
876.008	15667
876.136	15759
876.265	16010
876.393	16086
876.521	16029
876.65	16021
876.778	15857
876.906	15926
877.034	15899
877.162	15899
877.29	15838
877.418	15949
877.546	15994
877.674	15846
877.802	16044
877.93	16002
878.058	15907
878.185	15880
878.313	15876
878.441	16021
878.568	15785
878.696	15964
878.824	15956
878.951	16082
879.079	16116
879.206	16352
879.333	16226
879.461	16086
879.588	16074
879.715	16211
879.842	16246
879.97	16112
880.097	15827
880.224	15823
880.351	15804
880.478	15816
880.605	15705
880.732	15895
880.859	16067
880.986	15747
881.112	15819
881.239	15690
881.366	15599
881.493	15458
881.619	15534
881.746	15496
881.872	15488
881.999	15386
882.125	15477
882.252	15511
882.378	15431
882.505	15595
882.631	15488
882.757	15279
882.883	15321
883.01	15386
883.136	15249
883.262	15093
883.388	15123
883.514	15310
883.64	15340
883.766	15260
883.892	15104
884.018	15085
884.143	15237
884.269	15412
884.395	15036
884.52	14960
884.646	15017
884.772	14929
884.897	14944
885.023	15051
885.148	15112
885.274	15081
885.399	15062
885.524	15058
885.65	14998
885.775	15005
885.9	15017
886.025	15077
886.15	14960
886.275	14880
886.4	14883
886.525	14887
886.65	14910
886.775	14895
886.9	15123
887.025	15112
887.149	14887
887.274	14800
887.399	14754
887.523	14720
887.648	14701
887.773	14731
887.897	14853
888.021	14910
888.146	14765
888.27	14861
888.395	14952
888.519	14887
888.643	14864
888.767	14872
888.891	14762
889.015	14697
889.139	14640
889.263	14621
889.387	14781
889.511	14834
889.635	14739
889.759	14629
889.883	14667
890.006	14648
890.13	14792
890.254	14533
890.377	14545
890.501	14419
890.624	14374
890.748	14511
890.871	14389
890.995	14301
891.118	14358
891.241	14328
891.364	14313
891.488	14469
891.611	14324
891.734	14313
891.857	14503
891.98	14404
892.103	14393
892.226	14324
892.349	14332
892.471	14221
892.594	14248
892.717	14377
892.839	14328
892.962	14385
893.085	14393
893.207	14233
893.33	14256
893.452	14210
893.575	14381
893.697	14309
893.819	14530
893.941	14423
894.064	14457
894.186	14339
894.308	14343
894.43	14438
894.552	14564
894.674	14465
894.796	14298
894.918	14393
895.04	14374
895.161	14492
895.283	14465
895.405	14419
895.526	14332
895.648	14408
895.769	14526
895.891	14526
896.012	14594
896.134	14541
896.255	14507
896.376	14400
896.498	14552
896.619	14556
896.74	14610
896.861	14530
896.982	14823
897.103	14937
897.224	14880
897.345	14826
897.466	14765
897.587	14701
897.708	14941
897.828	14720
897.949	14800
898.07	14670
898.19	14754
898.311	15024
898.431	14842
898.552	14895
898.672	15024
898.792	14834
898.913	14952
899.033	14849
899.153	14773
899.273	14602
899.393	14663
899.513	14712
899.633	14689
899.753	14727
899.873	14701
899.993	14807
900.113	14625
900.232	14743
900.352	14640
900.472	14693
900.591	14556
900.711	14613
900.83	14469
900.95	14686
901.069	14659
901.189	14450
901.308	14263
901.427	14233
901.546	14324
901.665	14313
901.784	14298
901.904	14172
902.023	14050
902.141	13807
902.26	13849
902.379	13906
902.498	13807
902.617	13818
902.735	13849
902.854	13845
902.973	13750
903.091	13537
903.21	13559
903.328	13521
903.446	13415
903.565	13293
903.683	13373
903.801	13270
903.919	13346
904.038	13373
904.156	13225
904.274	13331
904.392	13152
904.51	13141
904.627	13171
904.745	13183
904.863	13221
904.981	12973
905.098	12920
905.216	12848
905.334	12886
905.451	12848
905.569	12833
905.686	12894
905.803	12878
905.921	12719
906.038	12753
906.155	12696
906.272	12582
906.389	12574
906.506	12441
906.623	12448
906.74	12418
906.857	12308
906.974	12350
907.091	12578
907.208	12525
907.324	12521
907.441	12422
907.557	12232
907.674	12182
907.79	12163
907.907	12216
908.023	12266
908.139	12270
908.256	12140
908.372	12163
908.488	12076
908.604	12015
908.72	11897
908.836	11889
908.952	11950
909.068	11999
909.184	12087
909.3	11958
909.415	11969
909.531	12015
909.647	11745
909.762	11589
909.878	11684
909.993	11802
910.108	11726
910.224	11699
910.339	11714
910.454	11642
910.57	11505
910.685	11444
910.8	11817
910.915	11733
911.03	11623
911.145	11391
911.259	11455
911.374	11440
911.489	11330
911.604	11402
911.718	11155
911.833	11242
911.947	11102
912.062	10942
912.176	11181
912.291	11227
912.405	11128
912.519	11372
912.633	11368
912.748	11242
912.862	11181
912.976	11064
913.09	10919
913.204	11010
913.318	11098
913.431	11132
913.545	11117
913.659	11147
913.772	11010
913.886	10999
914	10965
914.113	11006
914.226	11052
914.34	10995
914.453	10828
914.566	11003
914.68	10850
914.793	10869
914.906	10622
915.019	10611
915.132	10592
915.245	10717
915.358	10717
915.47	10691
915.583	10630
915.696	10774
915.809	10706
915.921	10847
916.034	10721
916.146	10653
916.259	10656
916.371	10771
916.483	10550
916.595	10569
916.708	10565
916.82	10569
916.932	10554
917.044	10592
917.156	10546
917.268	10481
917.38	10443
917.491	10512
917.603	10577
917.715	10599
917.826	10599
917.938	10352
918.049	10455
918.161	10500
918.272	10527
918.384	10573
918.495	10573
918.606	10348
918.717	10303
918.828	10386
918.939	10382
919.05	10234
919.161	10284
919.272	10135
919.383	10246
919.494	10462
919.604	10637
919.715	10303
919.826	10253
919.936	10310
920.047	10474
920.157	10375
920.267	10554
920.378	10413
920.488	10348
920.598	10554
920.708	10691
920.818	10535
920.928	10577
921.038	10755
921.148	10740
921.258	10413
921.368	10295
921.477	10242
921.587	10249
921.697	10166
921.806	10287
921.916	10105
922.025	10002
922.134	9892
922.244	9846
922.353	9972
922.462	9800
922.571	9812
922.68	9656
922.789	9610
922.898	9637
923.007	9603
923.116	9553
923.224	9545
923.333	9591
923.442	9507
923.55	9507
923.659	9511
923.767	9572
923.876	9405
923.984	9500
924.092	9458
924.201	9496
924.309	9534
924.417	9549
924.525	9374
924.633	9549
924.741	10367
924.849	9325
924.956	9420
925.064	9279
925.172	9233
925.279	9211
925.387	9306
925.494	9272
925.602	9447
925.709	9340
925.816	9230
925.924	9279
926.031	9298
926.138	9279
926.245	9313
926.352	9272
926.459	9340
926.566	9359
926.673	9199
926.779	9081
926.886	9199
926.993	9066
927.099	8990
927.206	8941
927.312	8948
927.419	9055
927.525	8971
927.631	9005
927.737	8918
927.843	8849
927.95	8826
928.056	8849
928.162	8921
928.267	8925
928.373	9393
928.479	8956
928.585	8716
928.69	8864
928.796	8811
928.901	8781
929.007	8651
929.112	8746
929.218	8754
929.323	8754
929.428	8686
929.533	8796
929.638	8651
929.743	8617
929.848	8811
929.953	8617
930.058	8549
930.163	8434
930.267	8488
930.372	8610
930.477	8450
930.581	8693
930.685	8568
930.79	8419
930.894	8381
930.998	8389
931.103	8454
931.207	8218
931.311	8134
931.415	8115
931.519	7875
931.623	7947
