Data from test_V78500241_2636.txt Node
Date: Fri Mar 25 14:52:04 CST 2022
User: usil
Spectrometer: V785-0024
Trigger mode: 0
Integration Time (sec): 4.000000E-1
Scans to average: 1
Nonlinearity correction enabled: false
Boxcar width: 0
Storing dark spectrum: false
XAxis mode: Wavelengths
Number of Pixels in Spectrum: 1024
>>>>>Begin Spectral Data<<<<<
801.071	22078
801.214	21975
801.356	21682
801.499	21568
801.641	21317
801.783	21245
801.926	21416
802.068	21226
802.211	21268
802.353	21093
802.496	20933
802.638	20769
802.78	20674
802.923	20731
803.065	20636
803.208	20598
803.35	20644
803.492	20746
803.635	20682
803.777	20697
803.919	20800
804.061	21001
804.204	20735
804.346	20590
804.488	20648
804.63	20731
804.773	20396
804.915	20583
805.057	20663
805.199	20495
805.341	20625
805.483	20693
805.626	20648
805.768	20583
805.91	20598
806.052	20575
806.194	20499
806.336	20640
806.478	20689
806.62	20404
806.762	20617
806.904	20838
807.046	20967
807.188	20906
807.33	20941
807.472	21001
807.614	20819
807.756	20823
807.898	20629
808.04	20613
808.182	20583
808.324	20686
808.465	20659
808.607	20826
808.749	20971
808.891	21001
809.033	20971
809.174	20952
809.316	20918
809.458	20937
809.6	20918
809.741	20845
809.883	21047
810.025	21249
810.166	21108
810.308	21127
810.45	21009
810.591	20956
810.733	20815
810.875	20686
811.016	20587
811.158	20594
811.299	20716
811.441	20815
811.582	20804
811.724	20819
811.865	20716
812.007	20720
812.148	20777
812.29	20781
812.431	20830
812.573	21108
812.714	21055
812.855	21325
812.997	21279
813.138	21287
813.279	21291
813.421	21176
813.562	21116
813.703	20918
813.845	20807
813.986	20549
814.127	20408
814.268	20313
814.41	20282
814.551	20309
814.692	20320
814.833	20221
814.974	20244
815.115	20183
815.256	20058
815.397	20084
815.539	20168
815.68	20016
815.821	19955
815.962	19978
816.103	20035
816.244	19830
816.385	19769
816.526	19719
816.666	19635
816.807	19282
816.948	19434
817.089	19529
817.23	19426
817.371	19449
817.512	19468
817.653	19392
817.793	19247
817.934	19358
818.075	19354
818.216	19335
818.356	19236
818.497	19251
818.638	19164
818.778	19034
818.919	19168
819.06	19175
819.2	19088
819.341	19240
819.481	19282
819.622	19430
819.762	19556
819.903	19468
820.043	19506
820.184	19407
820.324	19297
820.465	19324
820.605	19373
820.746	19365
820.886	19320
821.026	19263
821.167	19388
821.307	19346
821.447	19358
821.588	19103
821.728	19042
821.868	19012
822.008	18852
822.149	18787
822.289	18821
822.429	18528
822.569	18464
822.709	18353
822.849	18323
822.99	18273
823.13	18323
823.27	18171
823.41	18209
823.55	17977
823.69	18171
823.83	18117
823.97	18117
824.11	17779
824.25	17843
824.389	17889
824.529	17973
824.669	17805
824.809	17992
824.949	17836
825.089	17927
825.228	17954
825.368	17794
825.508	17646
825.648	17680
825.787	17729
825.927	17695
826.067	17524
826.206	17554
826.346	17634
826.485	17512
826.625	17528
826.765	17741
826.904	17657
827.044	17501
827.183	17478
827.323	17341
827.462	17330
827.601	17311
827.741	17326
827.88	17364
828.02	17265
828.159	17292
828.298	17337
828.437	17379
828.577	17391
828.716	17452
828.855	17273
828.994	17174
829.134	17128
829.273	17151
829.412	17086
829.551	17037
829.69	17010
829.829	17079
829.968	17216
830.107	17231
830.246	17140
830.385	17029
830.524	17098
830.663	16896
830.802	16847
830.941	16687
831.08	16702
831.219	16858
831.357	16786
831.496	16892
831.635	16641
831.774	16603
831.913	16656
832.051	16497
832.19	16489
832.329	16504
832.467	16451
832.606	16253
832.744	16386
832.883	16413
833.022	16390
833.16	16333
833.299	16386
833.437	16462
833.576	16402
833.714	16462
833.852	16577
833.991	16478
834.129	16508
834.267	16462
834.406	16436
834.544	16455
834.682	16478
834.821	16447
834.959	16694
835.097	16443
835.235	16637
835.373	16558
835.511	16390
835.65	16246
835.788	16470
835.926	16284
836.064	16185
836.202	16207
836.34	16363
836.478	16447
836.615	16306
836.753	16436
836.891	16542
837.029	16402
837.167	16318
837.305	16230
837.443	16287
837.58	16207
837.718	16287
837.856	16272
837.993	16204
838.131	16200
838.269	16082
838.406	16280
838.544	16063
838.681	15979
838.819	15934
838.956	15770
839.094	15804
839.231	15880
839.369	15956
839.506	16200
839.643	16082
839.781	15865
839.918	15800
840.055	15880
840.193	15835
840.33	15720
840.467	15797
840.604	15785
840.742	16082
840.879	15682
841.016	15831
841.153	15793
841.29	15842
841.427	15808
841.564	15762
841.701	15800
841.838	15766
841.975	15793
842.112	15728
842.249	15717
842.385	15637
842.522	15793
842.659	15690
842.796	15549
842.933	15644
843.069	15507
843.206	15637
843.343	15694
843.479	15549
843.616	15606
843.752	15348
843.889	15370
844.025	15477
844.162	15454
844.298	15473
844.435	15329
844.571	15393
844.708	15435
844.844	15606
844.98	15545
845.117	15488
845.253	15321
845.389	15275
845.525	15332
845.661	15199
845.798	15237
845.934	15214
846.07	15142
846.206	15302
846.342	15348
846.478	15169
846.614	14986
846.75	14929
846.886	14979
847.022	15051
847.158	14975
847.294	14960
847.429	14975
847.565	14979
847.701	15218
847.837	14758
847.972	14613
848.108	14785
848.244	14716
848.379	14651
848.515	14552
848.65	14507
848.786	14568
848.921	14632
849.057	14594
849.192	14746
849.328	14560
849.463	14625
849.598	14427
849.734	14579
849.869	14476
850.004	14366
850.14	14507
850.275	14396
850.41	14347
850.545	14271
850.68	14328
850.815	14396
850.95	14138
851.085	14564
851.22	14446
851.355	14317
851.49	14263
851.625	14328
851.76	14324
851.895	14187
852.03	14301
852.165	14366
852.299	14320
852.434	14446
852.569	14370
852.703	14393
852.838	14396
852.973	14541
853.107	14438
853.242	14286
853.376	14202
853.511	14050
853.645	14126
853.78	14294
853.914	14180
854.048	14145
854.183	14172
854.317	14233
854.451	14419
854.585	14199
854.72	14210
854.854	14309
854.988	14077
855.122	14157
855.256	14153
855.39	14145
855.524	14206
855.658	14298
855.792	14244
855.926	14317
856.06	14336
856.194	14305
856.327	14233
856.461	14138
856.595	14206
856.729	14073
856.862	14191
856.996	14313
857.13	14320
857.263	14377
857.397	14317
857.53	14168
857.664	14309
857.797	14237
857.931	14267
858.064	14328
858.197	14298
858.331	14210
858.464	14161
858.597	14020
858.731	14180
858.864	14195
858.997	14176
859.13	14259
859.263	14221
859.396	14233
859.529	14191
859.662	14259
859.795	14164
859.928	14164
860.061	14393
860.194	14317
860.327	14355
860.46	14145
860.592	14278
860.725	14309
860.858	14381
860.99	14225
861.123	14088
861.256	14187
861.388	14168
861.521	14762
861.653	14092
861.786	14050
861.918	13997
862.05	14119
862.183	14187
862.315	14172
862.447	14240
862.58	14191
862.712	13978
862.844	13856
862.976	14126
863.108	14043
863.24	14503
863.372	13913
863.504	14092
863.636	13986
863.768	14001
863.9	14084
864.032	13868
864.164	13993
864.296	14031
864.428	14092
864.559	14054
864.691	13989
864.823	14054
864.954	14016
865.086	14027
865.217	14043
865.349	13978
865.48	13940
865.612	13970
865.743	14153
865.875	13963
866.006	14016
866.137	13909
866.269	13970
866.4	13925
866.531	13913
866.662	13909
866.793	13944
866.924	13936
867.055	14065
867.186	13955
867.317	13879
867.448	13833
867.579	13947
867.71	13849
867.841	13974
867.972	14039
868.103	13951
868.233	13879
868.364	13974
868.495	14065
868.625	14214
868.756	14286
868.886	14012
869.017	14259
869.147	14252
869.278	14370
869.408	14180
869.539	14240
869.669	14317
869.799	14317
869.929	14385
870.06	14355
870.19	14571
870.32	14579
870.45	14499
870.58	14602
870.71	14804
870.84	14663
870.97	14682
871.1	14651
871.23	14842
871.36	14769
871.489	14663
871.619	14720
871.749	14804
871.879	14876
872.008	14815
872.138	14849
872.267	14762
872.397	14667
872.526	14712
872.656	14613
872.785	14659
872.915	14819
873.044	14982
873.173	14906
873.303	14868
873.432	14857
873.561	14910
873.69	14948
873.819	14910
873.948	14929
874.077	14872
874.206	14982
874.335	14838
874.464	15066
874.593	15146
874.722	15058
874.851	15222
874.979	15237
875.108	15237
875.237	15161
875.365	15062
875.494	15226
875.623	15241
875.751	15256
875.88	15173
876.008	15325
876.136	15401
876.265	15557
876.393	15709
876.521	15679
876.65	15622
876.778	15622
876.906	15557
877.034	15492
877.162	15629
877.29	15519
877.418	15660
877.546	15644
877.674	15633
877.802	15622
877.93	15511
878.058	15644
878.185	15507
878.313	15572
878.441	15641
878.568	15568
878.696	15515
878.824	15587
878.951	15713
879.079	15808
879.206	15960
879.333	15759
879.461	15690
879.588	15739
879.715	15861
879.842	15816
879.97	15633
880.097	15469
880.224	15557
880.351	15500
880.478	15481
880.605	15435
880.732	15454
880.859	15671
880.986	15561
881.112	15572
881.239	15488
881.366	15298
881.493	15188
881.619	15184
881.746	15176
881.872	15138
881.999	15135
882.125	15207
882.252	15222
882.378	15195
882.505	15332
882.631	15116
882.757	14998
882.883	15039
883.01	14975
883.136	14941
883.262	14834
883.388	14880
883.514	15051
883.64	14982
883.766	14990
883.892	14788
884.018	14830
884.143	14948
884.269	15043
884.395	14765
884.52	14712
884.646	14670
884.772	14583
884.897	14640
885.023	14708
885.148	14819
885.274	14811
885.399	14807
885.524	14613
885.65	14663
885.775	14781
885.9	14613
886.025	14746
886.15	14724
886.275	14678
886.4	14568
886.525	14708
886.65	14568
886.775	14629
886.9	14754
887.025	14914
887.149	14769
887.274	14610
887.399	14549
887.523	14450
887.648	14492
887.773	14431
887.897	14590
888.021	14564
888.146	14526
888.27	14575
888.395	14674
888.519	14610
888.643	14499
888.767	14469
888.891	14469
889.015	14336
889.139	14461
889.263	14294
889.387	14492
889.511	14636
889.635	14537
889.759	14278
889.883	14336
890.006	14457
890.13	14412
890.254	14233
890.377	14294
890.501	14244
890.624	14062
890.748	14214
890.871	14107
890.995	14073
891.118	14043
891.241	14157
891.364	14046
891.488	14180
891.611	14145
891.734	14138
891.857	14088
891.98	14134
892.103	14153
892.226	14081
892.349	14001
892.471	13989
892.594	14016
892.717	14123
892.839	14050
892.962	14062
893.085	14119
893.207	14088
893.33	13940
893.452	13909
893.575	14149
893.697	14012
893.819	14290
893.941	14313
894.064	14328
894.186	14005
894.308	14054
894.43	14248
894.552	14263
894.674	14301
894.796	14062
894.918	14016
895.04	14187
895.161	14176
895.283	14107
895.405	14103
895.526	14153
895.648	14145
895.769	14206
895.891	14275
896.012	14252
896.134	14259
896.255	14180
896.376	14229
896.498	14271
896.619	14290
896.74	14267
896.861	14358
896.982	14568
897.103	14826
897.224	14518
897.345	14465
897.466	14457
897.587	14526
897.708	14674
897.828	14503
897.949	14423
898.07	14324
898.19	14434
898.311	14606
898.431	14571
898.552	14579
898.672	14659
898.792	14655
898.913	14552
899.033	14552
899.153	14381
899.273	14294
899.393	14522
899.513	14476
899.633	14488
899.753	14465
899.873	14434
899.993	14442
900.113	14412
900.232	14495
900.352	14393
900.472	14347
900.591	14374
900.711	14415
900.83	14244
900.95	14412
901.069	14400
901.189	14161
901.308	14103
901.427	14001
901.546	13906
901.665	13974
901.784	13947
901.904	13822
902.023	13757
902.141	13563
902.26	13571
902.379	13582
902.498	13510
902.617	13449
902.735	13624
902.854	13559
902.973	13537
903.091	13301
903.21	13335
903.328	13259
903.446	13179
903.565	13145
903.683	13152
903.801	13023
903.919	13122
904.038	13084
904.156	12856
904.274	13038
904.392	12954
904.51	12909
904.627	12966
904.745	13019
904.863	13004
904.981	12726
905.098	12620
905.216	12601
905.334	12684
905.451	12635
905.569	12589
905.686	12681
905.803	12681
905.921	12494
906.038	12578
906.155	12528
906.272	12296
906.389	12380
906.506	12209
906.623	12155
906.74	12201
906.857	12140
906.974	12076
907.091	12243
907.208	12338
907.324	12228
907.441	12171
907.557	11946
907.674	11980
907.79	11813
907.907	11874
908.023	11916
908.139	12045
908.256	11889
908.372	11920
908.488	11935
908.604	11790
908.72	11684
908.836	11745
908.952	11729
909.068	11790
909.184	11874
909.3	11756
909.415	11748
909.531	11752
909.647	11585
909.762	11512
909.878	11501
909.993	11554
910.108	11509
910.224	11376
910.339	11490
910.454	11360
910.57	11334
910.685	11356
910.8	11604
910.915	11505
911.03	11372
911.145	11284
911.259	11201
911.374	11155
911.489	11143
911.604	11124
911.718	10972
911.833	11006
911.947	10812
912.062	10801
912.176	10923
912.291	10957
912.405	10904
912.519	11140
912.633	11136
912.748	11010
912.862	11003
912.976	10854
913.09	10759
913.204	10820
913.318	10793
913.431	10965
913.545	10919
913.659	11003
913.772	10820
913.886	10618
914	10668
914.113	10710
914.226	10805
914.34	10839
914.453	10683
914.566	10786
914.68	10691
914.793	10687
914.906	10478
915.019	10417
915.132	10424
915.245	10428
915.358	10478
915.47	10424
915.583	10466
915.696	10554
915.809	10615
915.921	10672
916.034	10485
916.146	10436
916.259	10459
916.371	10451
916.483	10478
916.595	10451
916.708	10390
916.82	10428
916.932	10386
917.044	10421
917.156	10379
917.268	10306
917.38	10348
917.491	10234
917.603	10367
917.715	10413
917.826	10443
917.938	10299
918.049	10158
918.161	10230
918.272	10535
918.384	10459
918.495	10306
918.606	10227
918.717	10090
918.828	10154
918.939	10204
919.05	10074
919.161	10158
919.272	9979
919.383	10105
919.494	10200
919.604	10462
919.715	10215
919.826	10192
919.936	10105
920.047	10268
920.157	10238
920.267	10375
920.378	10253
920.488	10200
920.598	10394
920.708	10569
920.818	10405
920.928	10478
921.038	10569
921.148	10523
921.258	10230
921.368	10166
921.477	10063
921.587	10013
921.697	9941
921.806	10090
921.916	9998
922.025	9808
922.134	9778
922.244	9759
922.353	9736
922.462	9682
922.571	9610
922.68	9469
922.789	9370
922.898	9416
923.007	9344
923.116	9473
923.224	9496
923.333	9481
923.442	9397
923.55	9268
923.659	9401
923.767	9431
923.876	9275
923.984	9367
924.092	9279
924.201	9302
924.309	9268
924.417	9272
924.525	9306
924.633	9340
924.741	10124
924.849	9176
924.956	9283
925.064	9127
925.172	9020
925.279	9043
925.387	9157
925.494	9119
925.602	9237
925.709	9207
925.816	9089
925.924	9127
926.031	9192
926.138	9100
926.245	9161
926.352	9024
926.459	9218
926.566	9275
926.673	9165
926.779	8994
926.886	8895
926.993	8853
927.099	8796
927.206	8735
927.312	8754
927.419	8891
927.525	8811
927.631	8975
927.737	8735
927.843	8762
927.95	8602
928.056	8727
928.162	8773
928.267	8811
928.373	9393
928.479	8830
928.585	8571
928.69	8712
928.796	8785
928.901	8590
929.007	8480
929.112	8636
929.218	8632
929.323	8598
929.428	8518
929.533	8621
929.638	8442
929.743	8518
929.848	8571
929.953	8541
930.058	8438
930.163	8358
930.267	8275
930.372	8499
930.477	8358
930.581	8484
930.685	8389
930.79	8301
930.894	8218
930.998	8214
931.103	8438
931.207	7997
931.311	7978
931.415	7856
931.519	7776
931.623	7826
