Data from test_V78500241_2516.txt Node
Date: Fri Mar 25 14:51:14 CST 2022
User: usil
Spectrometer: V785-0024
Trigger mode: 0
Integration Time (sec): 4.000000E-1
Scans to average: 1
Nonlinearity correction enabled: false
Boxcar width: 0
Storing dark spectrum: false
XAxis mode: Wavelengths
Number of Pixels in Spectrum: 1024
>>>>>Begin Spectral Data<<<<<
801.071	22055
801.214	21846
801.356	21682
801.499	21652
801.641	21477
801.783	21294
801.926	21416
802.068	21310
802.211	21374
802.353	21279
802.496	20990
802.638	20925
802.78	20845
802.923	20910
803.065	20781
803.208	20705
803.35	20667
803.492	20735
803.635	20910
803.777	20750
803.919	20838
804.061	21085
804.204	20765
804.346	20686
804.488	20613
804.63	20777
804.773	20613
804.915	20705
805.057	20823
805.199	20617
805.341	20655
805.483	20682
805.626	20853
805.768	20594
805.91	20720
806.052	20663
806.194	20575
806.336	20716
806.478	20632
806.62	20537
806.762	20773
806.904	20921
807.046	20982
807.188	20944
807.33	20952
807.472	21081
807.614	21005
807.756	20921
807.898	20830
808.04	20697
808.182	20746
808.324	20750
808.465	20800
808.607	20941
808.749	21077
808.891	21199
809.033	21199
809.174	21131
809.316	21036
809.458	21157
809.6	20937
809.741	21184
809.883	21070
810.025	21154
810.166	21192
810.308	21138
810.45	21001
810.591	21100
810.733	20963
810.875	20735
811.016	20880
811.158	20731
811.299	20845
811.441	20975
811.582	20842
811.724	20823
811.865	20868
812.007	20743
812.148	20826
812.29	20804
812.431	20921
812.573	21127
812.714	21241
812.855	21199
812.997	21325
813.138	21534
813.279	21424
813.421	21348
813.562	21325
813.703	21154
813.845	20963
813.986	20590
814.127	20484
814.268	20339
814.41	20503
814.551	20358
814.692	20480
814.833	20298
814.974	20225
815.115	20355
815.256	20218
815.397	20294
815.539	20126
815.68	20088
815.821	20050
815.962	20164
816.103	20043
816.244	19856
816.385	19887
816.526	19818
816.666	19719
816.807	19483
816.948	19518
817.089	19594
817.23	19609
817.371	19514
817.512	19403
817.653	19529
817.793	19491
817.934	19521
818.075	19480
818.216	19514
818.356	19487
818.497	19282
818.638	19278
818.778	19244
818.919	19240
819.06	19133
819.2	19335
819.341	19251
819.481	19377
819.622	19438
819.762	19788
819.903	19620
820.043	19563
820.184	19556
820.324	19495
820.465	19540
820.605	19506
820.746	19487
820.886	19304
821.026	19381
821.167	19350
821.307	19548
821.447	19400
821.588	19179
821.728	19198
821.868	19084
822.008	18863
822.149	18951
822.289	18894
822.429	18715
822.569	18578
822.709	18620
822.849	18372
822.99	18277
823.13	18323
823.27	18289
823.41	18194
823.55	18102
823.69	18232
823.83	18121
823.97	18133
824.11	17874
824.25	17942
824.389	17954
824.529	17973
824.669	17870
824.809	17999
824.949	18038
825.089	17912
825.228	17950
825.368	17783
825.508	17790
825.648	17684
825.787	17638
825.927	17752
826.067	17680
826.206	17646
826.346	17646
826.485	17794
826.625	17779
826.765	17775
826.904	17611
827.044	17452
827.183	17516
827.323	17360
827.462	17539
827.601	17379
827.741	17383
827.88	17406
828.02	17296
828.159	17459
828.298	17406
828.437	17497
828.577	17349
828.716	17528
828.855	17395
828.994	17254
829.134	17212
829.273	17143
829.412	17178
829.551	17071
829.69	17147
829.829	17254
829.968	17132
830.107	17311
830.246	17235
830.385	17121
830.524	17052
830.663	16984
830.802	16968
830.941	16828
831.08	16733
831.219	16843
831.357	16820
831.496	17029
831.635	16934
831.774	16717
831.913	16729
832.051	16573
832.19	16512
832.329	16615
832.467	16508
832.606	16436
832.744	16455
832.883	16565
833.022	16402
833.16	16409
833.299	16546
833.437	16554
833.576	16497
833.714	16542
833.852	16561
833.991	16550
834.129	16588
834.267	16649
834.406	16558
834.544	16599
834.682	16596
834.821	16421
834.959	16797
835.097	16584
835.235	16649
835.373	16569
835.511	16615
835.65	16386
835.788	16413
835.926	16200
836.064	16200
836.202	16303
836.34	16466
836.478	16580
836.615	16546
836.753	16489
836.891	16508
837.029	16459
837.167	16424
837.305	16459
837.443	16291
837.58	16265
837.718	16398
837.856	16367
837.993	16272
838.131	16382
838.269	16249
838.406	16325
838.544	16196
838.681	16055
838.819	15998
838.956	15873
839.094	15854
839.231	15911
839.369	15994
839.506	16219
839.643	16055
839.781	15918
839.918	15827
840.055	15774
840.193	15884
840.33	15781
840.467	15865
840.604	15808
840.742	16120
840.879	15698
841.016	15831
841.153	15861
841.29	15987
841.427	15838
841.564	15926
841.701	15846
841.838	15759
841.975	15850
842.112	15789
842.249	15622
842.385	15599
842.522	15819
842.659	15667
842.796	15610
842.933	15660
843.069	15755
843.206	15595
843.343	15728
843.479	15660
843.616	15671
843.752	15523
843.889	15397
844.025	15553
844.162	15435
844.298	15545
844.435	15526
844.571	15374
844.708	15496
844.844	15690
844.98	15538
845.117	15515
845.253	15431
845.389	15306
845.525	15416
845.661	15351
845.798	15207
845.934	15252
846.07	15180
846.206	15401
846.342	15287
846.478	15138
846.614	15043
846.75	14979
846.886	15020
847.022	15127
847.158	15066
847.294	15089
847.429	14979
847.565	14891
847.701	15218
847.837	14743
847.972	14735
848.108	14811
848.244	14781
848.379	14632
848.515	14560
848.65	14499
848.786	14579
848.921	14689
849.057	14804
849.192	14686
849.328	14651
849.463	14678
849.598	14545
849.734	14545
849.869	14549
850.004	14412
850.14	14328
850.275	14427
850.41	14400
850.545	14282
850.68	14385
850.815	14415
850.95	14381
851.085	14503
851.22	14419
851.355	14389
851.49	14336
851.625	14252
851.76	14252
851.895	14259
852.03	14221
852.165	14351
852.299	14362
852.434	14412
852.569	14343
852.703	14434
852.838	14393
852.973	14533
853.107	14560
853.242	14351
853.376	14206
853.511	14199
853.645	14164
853.78	14450
853.914	14301
854.048	14240
854.183	14202
854.317	14275
854.451	14385
854.585	14183
854.72	14202
854.854	14320
854.988	14134
855.122	14138
855.256	14119
855.39	14142
855.524	14290
855.658	14317
855.792	14199
855.926	14286
856.06	14248
856.194	14320
856.327	14202
856.461	14206
856.595	14103
856.729	14263
856.862	14339
856.996	14320
857.13	14313
857.263	14404
857.397	14317
857.53	14271
857.664	14336
857.797	14366
857.931	14400
858.064	14275
858.197	14278
858.331	14229
858.464	14161
858.597	14142
858.731	14199
858.864	14134
858.997	14123
859.13	14153
859.263	14317
859.396	14377
859.529	14286
859.662	14221
859.795	14126
859.928	14237
860.061	14419
860.194	14431
860.327	14278
860.46	14244
860.592	14339
860.725	14415
860.858	14381
860.99	14256
861.123	14115
861.256	14142
861.388	14210
861.521	14857
861.653	14168
861.786	14069
861.918	14161
862.05	14138
862.183	14126
862.315	14161
862.447	14320
862.58	14142
862.712	14092
862.844	13982
862.976	14115
863.108	14016
863.24	14355
863.372	14016
863.504	14123
863.636	14054
863.768	14054
863.9	14027
864.032	13894
864.164	14020
864.296	14039
864.428	14278
864.559	14073
864.691	14214
864.823	14123
864.954	14039
865.086	14096
865.217	13967
865.349	13955
865.48	14008
865.612	14088
865.743	14172
865.875	13974
866.006	13989
866.137	14054
866.269	14012
866.4	14058
866.531	13883
866.662	13947
866.793	13986
866.924	13868
867.055	13982
867.186	13890
867.317	13967
867.448	13982
867.579	14005
867.71	13909
867.841	13883
867.972	14039
868.103	13967
868.233	13932
868.364	13940
868.495	14062
868.625	14225
868.756	14400
868.886	14191
869.017	14263
869.147	14336
869.278	14336
869.408	14282
869.539	14267
869.669	14282
869.799	14275
869.929	14419
870.06	14351
870.19	14545
870.32	14465
870.45	14686
870.58	14629
870.71	14724
870.84	14689
870.97	14598
871.1	14629
871.23	14834
871.36	14864
871.489	14781
871.619	14811
871.749	14845
871.879	14921
872.008	14891
872.138	14883
872.267	14842
872.397	14674
872.526	14727
872.656	14693
872.785	14754
872.915	14887
873.044	14933
873.173	14838
873.303	14994
873.432	14853
873.561	14998
873.69	14895
873.819	14921
873.948	14998
874.077	14902
874.206	14864
874.335	14883
874.464	14990
874.593	15180
874.722	15176
874.851	15211
874.979	15233
875.108	15256
875.237	15275
875.365	15180
875.494	15279
875.623	15355
875.751	15283
875.88	15195
876.008	15260
876.136	15492
876.265	15682
876.393	15766
876.521	15751
876.65	15785
876.778	15713
876.906	15618
877.034	15656
877.162	15564
877.29	15507
877.418	15667
877.546	15584
877.674	15568
877.802	15698
877.93	15675
878.058	15606
878.185	15458
878.313	15637
878.441	15587
878.568	15538
878.696	15504
878.824	15629
878.951	15675
879.079	15743
879.206	15911
879.333	15774
879.461	15797
879.588	15701
879.715	15884
879.842	15899
879.97	15679
880.097	15481
880.224	15416
880.351	15561
880.478	15561
880.605	15488
880.732	15447
880.859	15679
880.986	15519
881.112	15488
881.239	15450
881.366	15211
881.493	15230
881.619	15138
881.746	15192
881.872	15055
881.999	15116
882.125	15123
882.252	15264
882.378	15176
882.505	15203
882.631	15123
882.757	14971
882.883	15036
883.01	15039
883.136	14921
883.262	14842
883.388	14746
883.514	14986
883.64	15093
883.766	14944
883.892	14777
884.018	14773
884.143	14883
884.269	15028
884.395	14655
884.52	14484
884.646	14659
884.772	14640
884.897	14651
885.023	14636
885.148	14788
885.274	14796
885.399	14663
885.524	14613
885.65	14708
885.775	14632
885.9	14758
886.025	14853
886.15	14800
886.275	14678
886.4	14537
886.525	14606
886.65	14663
886.775	14594
886.9	14807
887.025	14876
887.149	14705
887.274	14507
887.399	14438
887.523	14514
887.648	14442
887.773	14374
887.897	14476
888.021	14583
888.146	14442
888.27	14640
888.395	14556
888.519	14461
888.643	14655
888.767	14526
888.891	14507
889.015	14339
889.139	14366
889.263	14286
889.387	14499
889.511	14590
889.635	14427
889.759	14389
889.883	14362
890.006	14377
890.13	14552
890.254	14381
890.377	14294
890.501	14210
890.624	14199
890.748	14320
890.871	14145
890.995	14138
891.118	14012
891.241	14046
891.364	14039
891.488	14134
891.611	14024
891.734	14039
891.857	14187
891.98	14065
892.103	14088
892.226	14123
892.349	13963
892.471	13864
892.594	14035
892.717	14084
892.839	14069
892.962	14035
893.085	14069
893.207	14035
893.33	13951
893.452	13986
893.575	14187
893.697	14130
893.819	14263
893.941	14301
894.064	14309
894.186	14062
894.308	14130
894.43	14145
894.552	14218
894.674	14172
894.796	13986
894.918	14153
895.04	14008
895.161	14229
895.283	14233
895.405	14088
895.526	14157
895.648	14126
895.769	14210
895.891	14191
896.012	14278
896.134	14320
896.255	14218
896.376	14183
896.498	14206
896.619	14214
896.74	14339
896.861	14271
896.982	14469
897.103	14674
897.224	14522
897.345	14442
897.466	14427
897.587	14488
897.708	14568
897.828	14526
897.949	14473
898.07	14450
898.19	14495
898.311	14731
898.431	14507
898.552	14518
898.672	14670
898.792	14712
898.913	14640
899.033	14640
899.153	14446
899.273	14317
899.393	14366
899.513	14374
899.633	14465
899.753	14423
899.873	14434
899.993	14511
900.113	14446
900.232	14530
900.352	14465
900.472	14358
900.591	14256
900.711	14381
900.83	14324
900.95	14294
901.069	14427
901.189	14248
901.308	13978
901.427	13974
901.546	13955
901.665	13917
901.784	13917
901.904	13875
902.023	13761
902.141	13628
902.26	13632
902.379	13605
902.498	13510
902.617	13487
902.735	13586
902.854	13518
902.973	13468
903.091	13225
903.21	13266
903.328	13232
903.446	13206
903.565	13095
903.683	13099
903.801	13031
903.919	13122
904.038	13076
904.156	12939
904.274	13008
904.392	12935
904.51	12970
904.627	12852
904.745	12951
904.863	12977
904.981	12749
905.098	12639
905.216	12608
905.334	12776
905.451	12654
905.569	12639
905.686	12631
905.803	12627
905.921	12448
906.038	12536
906.155	12486
906.272	12281
906.389	12315
906.506	12224
906.623	12296
906.74	12175
906.857	12125
906.974	12026
907.091	12350
907.208	12319
907.324	12190
907.441	12117
907.557	12057
907.674	11958
907.79	11840
907.907	11874
908.023	12007
908.139	11996
908.256	11912
908.372	11863
908.488	11832
908.604	11832
908.72	11661
908.836	11733
908.952	11684
909.068	11714
909.184	11904
909.3	11783
909.415	11805
909.531	11821
909.647	11532
909.762	11467
909.878	11482
909.993	11467
910.108	11410
910.224	11497
910.339	11509
910.454	11448
910.57	11345
910.685	11311
910.8	11653
910.915	11547
911.03	11368
911.145	11246
911.259	11258
911.374	11181
911.489	11079
911.604	11105
911.718	10980
911.833	10995
911.947	10744
912.062	10793
912.176	10965
912.291	10987
912.405	10972
912.519	11128
912.633	11189
912.748	10927
912.862	10976
912.976	10786
913.09	10660
913.204	10778
913.318	10869
913.431	10938
913.545	10847
913.659	10942
913.772	10858
913.886	10721
914	10675
914.113	10793
914.226	10839
914.34	10771
914.453	10603
914.566	10816
914.68	10752
914.793	10694
914.906	10500
915.019	10493
915.132	10303
915.245	10443
915.358	10481
915.47	10428
915.583	10440
915.696	10519
915.809	10603
915.921	10641
916.034	10417
916.146	10462
916.259	10478
916.371	10497
916.483	10459
916.595	10375
916.708	10440
916.82	10398
916.932	10398
917.044	10341
917.156	10394
917.268	10310
917.38	10261
917.491	10230
917.603	10291
917.715	10371
917.826	10394
917.938	10261
918.049	10257
918.161	10360
918.272	10371
918.384	10478
918.495	10379
918.606	10162
918.717	10101
918.828	10177
918.939	10169
919.05	10109
919.161	10192
919.272	9892
919.383	10036
919.494	10181
919.604	10398
919.715	10268
919.826	10150
919.936	10185
920.047	10207
920.157	10139
920.267	10276
920.378	10185
920.488	10207
920.598	10382
920.708	10588
920.818	10394
920.928	10436
921.038	10493
921.148	10481
921.258	10261
921.368	10185
921.477	9987
921.587	10124
921.697	9975
921.806	10116
921.916	10036
922.025	9743
922.134	9781
922.244	9660
922.353	9842
922.462	9694
922.571	9587
922.68	9439
922.789	9389
922.898	9485
923.007	9416
923.116	9439
923.224	9435
923.333	9408
923.442	9264
923.55	9291
923.659	9283
923.767	9477
923.876	9283
923.984	9336
924.092	9272
924.201	9348
924.309	9256
924.417	9294
924.525	9329
924.633	9325
924.741	10242
924.849	9036
924.956	9253
925.064	9127
925.172	9009
925.279	9032
925.387	9051
925.494	9047
925.602	9161
925.709	9138
925.816	9036
925.924	9169
926.031	9169
926.138	9081
926.245	9173
926.352	9047
926.459	9176
926.566	9245
926.673	9070
926.779	8948
926.886	8929
926.993	8838
927.099	8899
927.206	8796
927.312	8777
927.419	8891
927.525	8819
927.631	8921
927.737	8762
927.843	8739
927.95	8659
928.056	8682
928.162	8705
928.267	8724
928.373	9386
928.479	8853
928.585	8575
928.69	8686
928.796	8769
928.901	8568
929.007	8446
929.112	8632
929.218	8587
929.323	8537
929.428	8552
929.533	8629
929.638	8438
929.743	8461
929.848	8590
929.953	8503
930.058	8457
930.163	8271
930.267	8309
930.372	8461
930.477	8320
930.581	8469
930.685	8336
930.79	8244
930.894	8301
930.998	8237
931.103	8381
931.207	8027
931.311	7986
931.415	7913
931.519	7792
931.623	7677
