Data from test_V78500241_1641.txt Node
Date: Fri Mar 25 14:45:08 CST 2022
User: usil
Spectrometer: V785-0024
Trigger mode: 0
Integration Time (sec): 4.000000E-1
Scans to average: 1
Nonlinearity correction enabled: false
Boxcar width: 0
Storing dark spectrum: false
XAxis mode: Wavelengths
Number of Pixels in Spectrum: 1024
>>>>>Begin Spectral Data<<<<<
801.071	22322
801.214	22226
801.356	21972
801.499	21876
801.641	21812
801.783	21610
801.926	21625
802.068	21747
802.211	21462
802.353	21447
802.496	21195
802.638	21157
802.78	21192
802.923	21138
803.065	21058
803.208	20994
803.35	20941
803.492	21081
803.635	21264
803.777	21013
803.919	21222
804.061	21382
804.204	21116
804.346	20948
804.488	20906
804.63	21028
804.773	21005
804.915	20990
805.057	21104
805.199	21036
805.341	20944
805.483	21138
805.626	21001
805.768	20868
805.91	20910
806.052	20960
806.194	20918
806.336	21123
806.478	20887
806.62	20853
806.762	21039
806.904	21070
807.046	21389
807.188	21298
807.33	21340
807.472	21393
807.614	21154
807.756	21195
807.898	21199
808.04	20975
808.182	21001
808.324	21112
808.465	21188
808.607	21264
808.749	21439
808.891	21355
809.033	21538
809.174	21450
809.316	21408
809.458	21397
809.6	21279
809.741	21431
809.883	21469
810.025	21504
810.166	21511
810.308	21553
810.45	21545
810.591	21302
810.733	21325
810.875	21123
811.016	21017
811.158	21013
811.299	21180
811.441	21317
811.582	21222
811.724	21077
811.865	21051
812.007	21127
812.148	21051
812.29	21169
812.431	21211
812.573	21393
812.714	21583
812.855	21622
812.997	21728
813.138	21827
813.279	21736
813.421	21660
813.562	21663
813.703	21412
813.845	21169
813.986	21039
814.127	20800
814.268	20777
814.41	20739
814.551	20648
814.692	20804
814.833	20625
814.974	20602
815.115	20636
815.256	20488
815.397	20522
815.539	20503
815.68	20495
815.821	20275
815.962	20419
816.103	20256
816.244	20214
816.385	20130
816.526	20126
816.666	20096
816.807	19772
816.948	20012
817.089	20024
817.23	19852
817.371	19826
817.512	19830
817.653	19704
817.793	19685
817.934	19959
818.075	19875
818.216	19845
818.356	19772
818.497	19586
818.638	19449
818.778	19559
818.919	19476
819.06	19506
819.2	19563
819.341	19693
819.481	19651
819.622	19818
819.762	19967
819.903	19875
820.043	19791
820.184	19833
820.324	19662
820.465	19883
820.605	19868
820.746	19788
820.886	19632
821.026	19750
821.167	19738
821.307	19830
821.447	19632
821.588	19628
821.728	19476
821.868	19346
822.008	19285
822.149	19107
822.289	19187
822.429	18848
822.569	18798
822.709	18840
822.849	18654
822.99	18582
823.13	18570
823.27	18703
823.41	18536
823.55	18483
823.69	18369
823.83	18422
823.97	18327
824.11	18220
824.25	18197
824.389	18235
824.529	18296
824.669	18273
824.809	18315
824.949	18254
825.089	18270
825.228	18239
825.368	18091
825.508	18076
825.648	17980
825.787	17980
825.927	18163
826.067	17950
826.206	17931
826.346	18022
826.485	17946
826.625	17984
826.765	18110
826.904	18041
827.044	17691
827.183	17821
827.323	17680
827.462	17733
827.601	17752
827.741	17726
827.88	17691
828.02	17573
828.159	17779
828.298	17661
828.437	17710
828.577	17661
828.716	17824
828.855	17653
828.994	17459
829.134	17436
829.273	17474
829.412	17490
829.551	17376
829.69	17474
829.829	17512
829.968	17490
830.107	17619
830.246	17482
830.385	17360
830.524	17273
830.663	17296
830.802	17151
830.941	17113
831.08	17151
831.219	17159
831.357	17102
831.496	17200
831.635	17102
831.774	17041
831.913	16809
832.051	16748
832.19	16873
832.329	16915
832.467	16721
832.606	16702
832.744	16790
832.883	16828
833.022	16721
833.16	16778
833.299	16828
833.437	16752
833.576	16866
833.714	16835
833.852	16885
833.991	16752
834.129	16911
834.267	16820
834.406	16748
834.544	16866
834.682	16828
834.821	16809
834.959	17037
835.097	16729
835.235	16797
835.373	16820
835.511	16763
835.65	16668
835.788	16702
835.926	16611
836.064	16474
836.202	16481
836.34	16683
836.478	16759
836.615	16790
836.753	16611
836.891	16790
837.029	16691
837.167	16645
837.305	16573
837.443	16512
837.58	16622
837.718	16744
837.856	16618
837.993	16470
838.131	16569
838.269	16478
838.406	16523
838.544	16424
838.681	16329
838.819	16204
838.956	16109
839.094	16055
839.231	16150
839.369	16280
839.506	16523
839.643	16318
839.781	16093
839.918	16063
840.055	16059
840.193	16124
840.33	16105
840.467	16139
840.604	16192
840.742	16489
840.879	16150
841.016	16029
841.153	15941
841.29	16112
841.427	16128
841.564	16116
841.701	16109
841.838	16078
841.975	15983
842.112	15964
842.249	15911
842.385	15842
842.522	16029
842.659	15819
842.796	15930
842.933	15842
843.069	15850
843.206	15861
843.343	15903
843.479	15907
843.616	15895
843.752	15656
843.889	15652
844.025	15743
844.162	15614
844.298	15819
844.435	15671
844.571	15660
844.708	15686
844.844	15781
844.98	15838
845.117	15751
845.253	15610
845.389	15538
845.525	15576
845.661	15641
845.798	15496
845.934	15481
846.07	15606
846.206	15641
846.342	15660
846.478	15549
846.614	15252
846.75	15207
846.886	15184
847.022	15408
847.158	15252
847.294	15256
847.429	15252
847.565	15233
847.701	15454
847.837	15074
847.972	15009
848.108	15005
848.244	15051
848.379	14891
848.515	14746
848.65	14876
848.786	14921
848.921	14785
849.057	14990
849.192	14910
849.328	14800
849.463	14769
849.598	14743
849.734	14826
849.869	14689
850.004	14686
850.14	14689
850.275	14629
850.41	14511
850.545	14431
850.68	14560
850.815	14583
850.95	14610
851.085	14788
851.22	14735
851.355	14564
851.49	14564
851.625	14518
851.76	14587
851.895	14560
852.03	14537
852.165	14533
852.299	14636
852.434	14716
852.569	14518
852.703	14568
852.838	14670
852.973	14853
853.107	14758
853.242	14492
853.376	14393
853.511	14396
853.645	14503
853.78	14571
853.914	14442
854.048	14419
854.183	14492
854.317	14549
854.451	14545
854.585	14473
854.72	14431
854.854	14503
854.988	14396
855.122	14377
855.256	14336
855.39	14511
855.524	14629
855.658	14480
855.792	14465
855.926	14469
856.06	14526
856.194	14526
856.327	14450
856.461	14374
856.595	14389
856.729	14427
856.862	14587
856.996	14503
857.13	14602
857.263	14579
857.397	14499
857.53	14393
857.664	14621
857.797	14522
857.931	14602
858.064	14492
858.197	14606
858.331	14473
858.464	14423
858.597	14377
858.731	14415
858.864	14476
858.997	14362
859.13	14488
859.263	14469
859.396	14442
859.529	14579
859.662	14415
859.795	14503
859.928	14476
860.061	14606
860.194	14579
860.327	14560
860.46	14389
860.592	14590
860.725	14530
860.858	14632
860.99	14545
861.123	14404
861.256	14301
861.388	14507
861.521	15192
861.653	14389
861.786	14301
861.918	14454
862.05	14355
862.183	14408
862.315	14461
862.447	14457
862.58	14423
862.712	14187
862.844	14202
862.976	14305
863.108	14271
863.24	14823
863.372	14187
863.504	14309
863.636	14282
863.768	14294
863.9	14161
864.032	14199
864.164	14244
864.296	14256
864.428	14347
864.559	14259
864.691	14320
864.823	14252
864.954	14309
865.086	14248
865.217	14256
865.349	14202
865.48	14244
865.612	14221
865.743	14351
865.875	14267
866.006	14187
866.137	14172
866.269	14229
866.4	14240
866.531	14187
866.662	14153
866.793	14199
866.924	14214
867.055	14225
867.186	14149
867.317	14164
867.448	14126
867.579	14180
867.71	14134
867.841	14195
867.972	14218
868.103	14187
868.233	14168
868.364	14157
868.495	14381
868.625	14461
868.756	14492
868.886	14465
869.017	14442
869.147	14644
869.278	14598
869.408	14560
869.539	14415
869.669	14575
869.799	14568
869.929	14610
870.06	14598
870.19	14807
870.32	14746
870.45	14781
870.58	14872
870.71	15028
870.84	15043
870.97	14868
871.1	14872
871.23	15062
871.36	15074
871.489	14998
871.619	14948
871.749	15066
871.879	15108
872.008	15165
872.138	15028
872.267	15089
872.397	14906
872.526	14868
872.656	14849
872.785	14895
872.915	15142
873.044	15097
873.173	15184
873.303	15165
873.432	15119
873.561	15241
873.69	15138
873.819	15218
873.948	15138
874.077	15100
874.206	15013
874.335	15119
874.464	15245
874.593	15367
874.722	15378
874.851	15511
874.979	15488
875.108	15367
875.237	15454
875.365	15351
875.494	15443
875.623	15458
875.751	15428
875.88	15435
876.008	15618
876.136	15660
876.265	15797
876.393	15918
876.521	15926
876.65	15884
876.778	15869
876.906	15724
877.034	15698
877.162	15819
877.29	15835
877.418	15781
877.546	15895
877.674	15842
877.802	15823
877.93	15793
878.058	15873
878.185	15637
878.313	15816
878.441	15842
878.568	15698
878.696	15797
878.824	15861
878.951	15808
879.079	16055
879.206	16147
879.333	15937
879.461	15876
879.588	15922
879.715	16082
879.842	16226
879.97	15838
880.097	15770
880.224	15698
880.351	15747
880.478	15671
880.605	15739
880.732	15751
880.859	15785
880.986	15770
881.112	15652
881.239	15591
881.366	15485
881.493	15367
881.619	15260
881.746	15348
881.872	15412
881.999	15310
882.125	15359
882.252	15496
882.378	15382
882.505	15526
882.631	15279
882.757	15138
882.883	15199
883.01	15173
883.136	15058
883.262	15024
883.388	14933
883.514	15161
883.64	15165
883.766	15173
883.892	14971
884.018	15009
884.143	15146
884.269	15294
884.395	14914
884.52	14819
884.646	14861
884.772	14861
884.897	14819
885.023	14891
885.148	14979
885.274	14994
885.399	14986
885.524	14914
885.65	14895
885.775	14838
885.9	14834
886.025	14960
886.15	14967
886.275	14769
886.4	14739
886.525	14823
886.65	14758
886.775	14823
886.9	14982
887.025	15104
887.149	14842
887.274	14769
887.399	14629
887.523	14674
887.648	14598
887.773	14636
887.897	14712
888.021	14830
888.146	14598
888.27	14849
888.395	14781
888.519	14697
888.643	14716
888.767	14796
888.891	14526
889.015	14514
889.139	14579
889.263	14560
889.387	14625
889.511	14697
889.635	14606
889.759	14518
889.883	14526
890.006	14617
890.13	14610
890.254	14461
890.377	14495
890.501	14427
890.624	14370
890.748	14419
890.871	14267
890.995	14233
891.118	14069
891.241	14225
891.364	14278
891.488	14423
891.611	14229
891.734	14301
891.857	14347
891.98	14290
892.103	14313
892.226	14244
892.349	14259
892.471	14115
892.594	14180
892.717	14252
892.839	14237
892.962	14248
893.085	14320
893.207	14233
893.33	14195
893.452	14134
893.575	14183
893.697	14199
893.819	14499
893.941	14507
894.064	14393
894.186	14282
894.308	14259
894.43	14351
894.552	14396
894.674	14396
894.796	14142
894.918	14221
895.04	14214
895.161	14328
895.283	14324
895.405	14256
895.526	14393
895.648	14332
895.769	14370
895.891	14385
896.012	14499
896.134	14454
896.255	14400
896.376	14423
896.498	14476
896.619	14571
896.74	14454
896.861	14488
896.982	14743
897.103	14925
897.224	14735
897.345	14659
897.466	14564
897.587	14663
897.708	14891
897.828	14735
897.949	14724
898.07	14518
898.19	14663
898.311	14872
898.431	14727
898.552	14701
898.672	14857
898.792	14887
898.913	14743
899.033	14758
899.153	14678
899.273	14480
899.393	14579
899.513	14621
899.633	14552
899.753	14708
899.873	14552
899.993	14655
900.113	14556
900.232	14727
900.352	14670
900.472	14495
900.591	14533
900.711	14552
900.83	14473
900.95	14476
901.069	14632
901.189	14446
901.308	14103
901.427	14077
901.546	14138
901.665	14301
901.784	14191
901.904	13970
902.023	13860
902.141	13776
902.26	13731
902.379	13871
902.498	13757
902.617	13655
902.735	13765
902.854	13841
902.973	13575
903.091	13487
903.21	13476
903.328	13381
903.446	13346
903.565	13263
903.683	13289
903.801	13179
903.919	13301
904.038	13335
904.156	13164
904.274	13183
904.392	13160
904.51	13053
904.627	13019
904.745	13126
904.863	13171
904.981	12958
905.098	12852
905.216	12821
905.334	12787
905.451	12814
905.569	12806
905.686	12875
905.803	12787
905.921	12684
906.038	12764
906.155	12585
906.272	12509
906.389	12585
906.506	12369
906.623	12388
906.74	12334
906.857	12292
906.974	12376
907.091	12441
907.208	12559
907.324	12391
907.441	12232
907.557	12136
907.674	12098
907.79	12076
907.907	12083
908.023	12079
908.139	12110
908.256	12030
908.372	11996
908.488	12057
908.604	11824
908.72	11836
908.836	11973
908.952	11843
909.068	11817
909.184	12076
909.3	11878
909.415	11874
909.531	11923
909.647	11741
909.762	11604
909.878	11604
909.993	11661
910.108	11611
910.224	11558
910.339	11627
910.454	11554
910.57	11467
910.685	11414
910.8	11661
910.915	11672
911.03	11528
911.145	11356
911.259	11254
911.374	11482
911.489	11258
911.604	11296
911.718	11056
911.833	11140
911.947	11045
912.062	10991
912.176	11124
912.291	11136
912.405	11109
912.519	11227
912.633	11296
912.748	11216
912.862	11223
912.976	10984
913.09	10889
913.204	10892
913.318	11025
913.431	11022
913.545	11086
913.659	11128
913.772	10991
913.886	10778
914	10774
914.113	10972
914.226	10968
914.34	11006
914.453	10835
914.566	10976
914.68	10778
914.793	10744
914.906	10683
915.019	10535
915.132	10550
915.245	10512
915.358	10653
915.47	10634
915.583	10588
915.696	10668
915.809	10771
915.921	10740
916.034	10516
916.146	10535
916.259	10443
916.371	10653
916.483	10710
916.595	10474
916.708	10592
916.82	10497
916.932	10542
917.044	10436
917.156	10481
917.268	10318
917.38	10375
917.491	10390
917.603	10451
917.715	10504
917.826	10531
917.938	10451
918.049	10379
918.161	10424
918.272	10622
918.384	10523
918.495	10379
918.606	10405
918.717	10188
918.828	10318
918.939	10394
919.05	10242
919.161	10314
919.272	10105
919.383	10166
919.494	10325
919.604	10516
919.715	10322
919.826	10230
919.936	10257
920.047	10337
920.157	10272
920.267	10554
920.378	10386
920.488	10310
920.598	10512
920.708	10668
920.818	10466
920.928	10550
921.038	10618
921.148	10641
921.258	10284
921.368	10291
921.477	10158
921.587	10139
921.697	10044
921.806	10219
921.916	10097
922.025	9911
922.134	9827
922.244	9770
922.353	9857
922.462	9785
922.571	9705
922.68	9580
922.789	9603
922.898	9557
923.007	9534
923.116	9572
923.224	9637
923.333	9545
923.442	9447
923.55	9424
923.659	9450
923.767	9553
923.876	9351
923.984	9386
924.092	9344
924.201	9447
924.309	9450
924.417	9439
924.525	9378
924.633	9374
924.741	10135
924.849	9150
924.956	9397
925.064	9264
925.172	9116
925.279	9211
925.387	9233
925.494	9100
925.602	9355
925.709	9226
925.816	9142
925.924	9226
926.031	9336
926.138	9283
926.245	9253
926.352	9116
926.459	9222
926.566	9317
926.673	9188
926.779	9104
926.886	9089
926.993	8895
927.099	8910
927.206	8937
927.312	8845
927.419	8982
927.525	8910
927.631	9005
927.737	8864
927.843	8853
927.95	8670
928.056	8845
928.162	8876
928.267	8823
928.373	9428
928.479	8838
928.585	8651
928.69	8864
928.796	8872
928.901	8727
929.007	8587
929.112	8769
929.218	8807
929.323	8640
929.428	8655
929.533	8777
929.638	8587
929.743	8632
929.848	8727
929.953	8617
930.058	8526
930.163	8339
930.267	8434
930.372	8629
930.477	8381
930.581	8575
930.685	8560
930.79	8393
930.894	8374
930.998	8351
931.103	8518
931.207	8172
931.311	8149
931.415	8092
931.519	7925
931.623	7913
