Data from test_V78500241_2731.txt Node
Date: Fri Mar 25 14:52:43 CST 2022
User: usil
Spectrometer: V785-0024
Trigger mode: 0
Integration Time (sec): 4.000000E-1
Scans to average: 1
Nonlinearity correction enabled: false
Boxcar width: 0
Storing dark spectrum: false
XAxis mode: Wavelengths
Number of Pixels in Spectrum: 1024
>>>>>Begin Spectral Data<<<<<
801.071	22112
801.214	21979
801.356	21690
801.499	21591
801.641	21519
801.783	21523
801.926	21397
802.068	21386
802.211	21260
802.353	21100
802.496	20937
802.638	20849
802.78	20762
802.923	20739
803.065	20697
803.208	20625
803.35	20731
803.492	20849
803.635	20876
803.777	20640
803.919	20800
804.061	21032
804.204	20708
804.346	20701
804.488	20659
804.63	20834
804.773	20526
804.915	20594
805.057	20781
805.199	20571
805.341	20674
805.483	20678
805.626	20705
805.768	20644
805.91	20575
806.052	20613
806.194	20602
806.336	20739
806.478	20571
806.62	20503
806.762	20651
806.904	20887
807.046	20975
807.188	20918
807.33	21036
807.472	20982
807.614	20804
807.756	20842
807.898	20762
808.04	20648
808.182	20815
808.324	20682
808.465	20731
808.607	20887
808.749	20982
808.891	20990
809.033	21051
809.174	21150
809.316	20918
809.458	20967
809.6	20868
809.741	21043
809.883	21009
810.025	21207
810.166	21142
810.308	21032
810.45	21009
810.591	20891
810.733	20857
810.875	20849
811.016	20617
811.158	20705
811.299	20716
811.441	20994
811.582	20880
811.724	20834
811.865	20727
812.007	20800
812.148	20788
812.29	20910
812.431	20921
812.573	21055
812.714	21131
812.855	21176
812.997	21386
813.138	21405
813.279	21321
813.421	21241
813.562	21195
813.703	21066
813.845	20857
813.986	20568
814.127	20442
814.268	20404
814.41	20396
814.551	20381
814.692	20454
814.833	20309
814.974	20233
815.115	20233
815.256	20126
815.397	20149
815.539	20157
815.68	20107
815.821	19875
815.962	20130
816.103	20008
816.244	19803
816.385	19788
816.526	19693
816.666	19677
816.807	19544
816.948	19571
817.089	19544
817.23	19518
817.371	19358
817.512	19453
817.653	19430
817.793	19312
817.934	19324
818.075	19400
818.216	19434
818.356	19259
818.497	19221
818.638	19031
818.778	19103
818.919	19076
819.06	19107
819.2	19244
819.341	19259
819.481	19228
819.622	19453
819.762	19582
819.903	19567
820.043	19434
820.184	19373
820.324	19499
820.465	19445
820.605	19472
820.746	19263
820.886	19148
821.026	19312
821.167	19373
821.307	19434
821.447	19335
821.588	19187
821.728	19217
821.868	18996
822.008	18821
822.149	18867
822.289	18840
822.429	18642
822.569	18540
822.709	18426
822.849	18281
822.99	18228
823.13	18323
823.27	18277
823.41	18068
823.55	18125
823.69	18102
823.83	18144
823.97	18030
824.11	17817
824.25	17870
824.389	17855
824.529	17973
824.669	17840
824.809	17939
824.949	18007
825.089	17980
825.228	17870
825.368	17737
825.508	17691
825.648	17817
825.787	17722
825.927	17687
826.067	17638
826.206	17653
826.346	17680
826.485	17668
826.625	17680
826.765	17767
826.904	17676
827.044	17474
827.183	17372
827.323	17391
827.462	17471
827.601	17288
827.741	17417
827.88	17341
828.02	17292
828.159	17387
828.298	17448
828.437	17516
828.577	17322
828.716	17558
828.855	17376
828.994	17189
829.134	17174
829.273	17143
829.412	17136
829.551	17041
829.69	17045
829.829	17143
829.968	17239
830.107	17258
830.246	17162
830.385	17113
830.524	17025
830.663	17022
830.802	16854
830.941	16725
831.08	16679
831.219	16831
831.357	16809
831.496	16877
831.635	16729
831.774	16767
831.913	16546
832.051	16512
832.19	16588
832.329	16584
832.467	16424
832.606	16535
832.744	16569
832.883	16371
833.022	16432
833.16	16516
833.299	16531
833.437	16417
833.576	16428
833.714	16394
833.852	16504
833.991	16615
834.129	16634
834.267	16580
834.406	16421
834.544	16554
834.682	16531
834.821	16550
834.959	16660
835.097	16497
835.235	16607
835.373	16447
835.511	16550
835.65	16516
835.788	16451
835.926	16299
836.064	16333
836.202	16192
836.34	16546
836.478	16558
836.615	16402
836.753	16500
836.891	16497
837.029	16398
837.167	16382
837.305	16356
837.443	16432
837.58	16242
837.718	16314
837.856	16341
837.993	16181
838.131	16291
838.269	16272
838.406	16284
838.544	16242
838.681	16006
838.819	16051
838.956	15842
839.094	15895
839.231	15892
839.369	15972
839.506	16196
839.643	16177
839.781	15850
839.918	15911
840.055	15850
840.193	15842
840.33	15854
840.467	15873
840.604	15991
840.742	16025
840.879	15698
841.016	15755
841.153	15694
841.29	16074
841.427	15850
841.564	16025
841.701	15831
841.838	15903
841.975	15793
842.112	15781
842.249	15633
842.385	15542
842.522	15831
842.659	15652
842.796	15595
842.933	15739
843.069	15709
843.206	15629
843.343	15724
843.479	15743
843.616	15679
843.752	15466
843.889	15458
844.025	15610
844.162	15389
844.298	15454
844.435	15374
844.571	15355
844.708	15553
844.844	15644
844.98	15599
845.117	15584
845.253	15424
845.389	15443
845.525	15374
845.661	15310
845.798	15173
845.934	15218
846.07	15218
846.206	15226
846.342	15424
846.478	15165
846.614	15013
846.75	14914
846.886	14967
847.022	15173
847.158	15074
847.294	15058
847.429	15150
847.565	14925
847.701	15245
847.837	14727
847.972	14754
848.108	14792
848.244	14781
848.379	14689
848.515	14617
848.65	14564
848.786	14621
848.921	14537
849.057	14758
849.192	14731
849.328	14648
849.463	14571
849.598	14545
849.734	14533
849.869	14404
850.004	14393
850.14	14412
850.275	14355
850.41	14332
850.545	14309
850.68	14358
850.815	14343
850.95	14324
851.085	14545
851.22	14438
851.355	14355
851.49	14431
851.625	14317
851.76	14286
851.895	14240
852.03	14225
852.165	14286
852.299	14400
852.434	14469
852.569	14423
852.703	14442
852.838	14545
852.973	14530
853.107	14438
853.242	14324
853.376	14267
853.511	14126
853.645	14202
853.78	14339
853.914	14221
854.048	14256
854.183	14199
854.317	14233
854.451	14469
854.585	14229
854.72	14237
854.854	14229
854.988	14153
855.122	14202
855.256	14096
855.39	14248
855.524	14298
855.658	14237
855.792	14286
855.926	14191
856.06	14286
856.194	14324
856.327	14286
856.461	14176
856.595	14176
856.729	14282
856.862	14317
856.996	14294
857.13	14252
857.263	14370
857.397	14377
857.53	14294
857.664	14351
857.797	14298
857.931	14412
858.064	14278
858.197	14415
858.331	14309
858.464	14252
858.597	14111
858.731	14191
858.864	14187
858.997	14176
859.13	14195
859.263	14282
859.396	14377
859.529	14218
859.662	14202
859.795	14183
859.928	14233
860.061	14381
860.194	14530
860.327	14336
860.46	14275
860.592	14301
860.725	14370
860.858	14347
860.99	14233
861.123	14282
861.256	14187
861.388	14298
861.521	14819
861.653	14039
861.786	14062
861.918	14123
862.05	14111
862.183	14214
862.315	14221
862.447	14259
862.58	14168
862.712	14050
862.844	13997
862.976	14024
863.108	14081
863.24	14476
863.372	13970
863.504	14035
863.636	14005
863.768	14145
863.9	14024
864.032	13978
864.164	13989
864.296	14107
864.428	14225
864.559	14126
864.691	14191
864.823	14062
864.954	14161
865.086	14016
865.217	14012
865.349	13917
865.48	13955
865.612	13967
865.743	14168
865.875	13936
866.006	13970
866.137	14142
866.269	13967
866.4	13917
866.531	13963
866.662	14012
866.793	13967
866.924	13997
867.055	13951
867.186	13917
867.317	13932
867.448	13932
867.579	13940
867.71	13860
867.841	13902
867.972	13959
868.103	14005
868.233	14046
868.364	14024
868.495	14107
868.625	14161
868.756	14339
868.886	14119
869.017	14221
869.147	14286
869.278	14412
869.408	14298
869.539	14195
869.669	14370
869.799	14324
869.929	14408
870.06	14400
870.19	14571
870.32	14442
870.45	14530
870.58	14648
870.71	14781
870.84	14708
870.97	14625
871.1	14621
871.23	14811
871.36	14876
871.489	14754
871.619	14743
871.749	14899
871.879	14899
872.008	15020
872.138	14838
872.267	14720
872.397	14663
872.526	14686
872.656	14682
872.785	14640
872.915	14906
873.044	14800
873.173	14925
873.303	14899
873.432	15036
873.561	14857
873.69	15005
873.819	14845
873.948	14982
874.077	14906
874.206	14861
874.335	14899
874.464	15058
874.593	15157
874.722	15127
874.851	15310
874.979	15249
875.108	15306
875.237	15154
875.365	15119
875.494	15127
875.623	15291
875.751	15207
875.88	15268
876.008	15439
876.136	15511
876.265	15625
876.393	15675
876.521	15861
876.65	15682
876.778	15671
876.906	15603
877.034	15584
877.162	15736
877.29	15572
877.418	15694
877.546	15698
877.674	15705
877.802	15576
877.93	15557
878.058	15584
878.185	15447
878.313	15580
878.441	15679
878.568	15408
878.696	15538
878.824	15633
878.951	15610
879.079	15774
879.206	15937
879.333	15781
879.461	15660
879.588	15736
879.715	15732
879.842	15869
879.97	15709
880.097	15374
880.224	15526
880.351	15610
880.478	15488
880.605	15393
880.732	15435
880.859	15705
880.986	15557
881.112	15469
881.239	15348
881.366	15146
881.493	15207
881.619	15161
881.746	15192
881.872	15123
881.999	15188
882.125	15154
882.252	15173
882.378	15169
882.505	15340
882.631	15047
882.757	14956
882.883	14967
883.01	15032
883.136	14933
883.262	14826
883.388	14811
883.514	14952
883.64	14929
883.766	14868
883.892	14693
884.018	14788
884.143	14986
884.269	14990
884.395	14731
884.52	14667
884.646	14743
884.772	14617
884.897	14571
885.023	14689
885.148	14785
885.274	14746
885.399	14834
885.524	14640
885.65	14720
885.775	14724
885.9	14625
886.025	14777
886.15	14758
886.275	14606
886.4	14568
886.525	14762
886.65	14514
886.775	14610
886.9	14727
887.025	14941
887.149	14735
887.274	14541
887.399	14419
887.523	14473
887.648	14400
887.773	14438
887.897	14541
888.021	14575
888.146	14366
888.27	14564
888.395	14552
888.519	14473
888.643	14571
888.767	14632
888.891	14385
889.015	14343
889.139	14408
889.263	14358
889.387	14381
889.511	14564
889.635	14511
889.759	14298
889.883	14377
890.006	14298
890.13	14434
890.254	14259
890.377	14396
890.501	14119
890.624	14130
890.748	14256
890.871	14138
890.995	14008
891.118	14065
891.241	14084
891.364	14161
891.488	14218
891.611	14065
891.734	14046
891.857	14195
891.98	14153
892.103	14142
892.226	14176
892.349	14062
892.471	13921
892.594	13993
892.717	14073
892.839	14005
892.962	14054
893.085	14073
893.207	13917
893.33	13936
893.452	13993
893.575	14088
893.697	14008
893.819	14248
893.941	14275
894.064	14100
894.186	14001
894.308	13974
894.43	14130
894.552	14263
894.674	14134
894.796	14039
894.918	14062
895.04	14035
895.161	14172
895.283	14111
895.405	14164
895.526	14161
895.648	14221
895.769	14214
895.891	14202
896.012	14290
896.134	14313
896.255	14343
896.376	14195
896.498	14286
896.619	14294
896.74	14320
896.861	14275
896.982	14575
897.103	14693
897.224	14533
897.345	14423
897.466	14377
897.587	14434
897.708	14625
897.828	14552
897.949	14309
898.07	14412
898.19	14469
898.311	14617
898.431	14552
898.552	14545
898.672	14678
898.792	14640
898.913	14644
899.033	14507
899.153	14374
899.273	14271
899.393	14252
899.513	14571
899.633	14434
899.753	14389
899.873	14385
899.993	14522
900.113	14328
900.232	14461
900.352	14385
900.472	14362
900.591	14206
900.711	14305
900.83	14180
900.95	14400
901.069	14396
901.189	14267
901.308	13982
901.427	13928
901.546	13936
901.665	14016
901.784	14005
901.904	13879
902.023	13837
902.141	13632
902.26	13609
902.379	13601
902.498	13594
902.617	13411
902.735	13548
902.854	13632
902.973	13464
903.091	13297
903.21	13304
903.328	13301
903.446	13206
903.565	13149
903.683	13133
903.801	13034
903.919	13141
904.038	13107
904.156	12867
904.274	12951
904.392	12882
904.51	12901
904.627	12935
904.745	13023
904.863	12924
904.981	12802
905.098	12601
905.216	12589
905.334	12646
905.451	12631
905.569	12608
905.686	12692
905.803	12574
905.921	12486
906.038	12498
906.155	12467
906.272	12361
906.389	12346
906.506	12224
906.623	12254
906.74	12152
906.857	12152
906.974	12117
907.091	12308
907.208	12353
907.324	12289
907.441	12125
907.557	11988
907.674	11942
907.79	11996
907.907	11935
908.023	12026
908.139	11992
908.256	11950
908.372	11923
908.488	11790
908.604	11832
908.72	11627
908.836	11657
908.952	11642
909.068	11623
909.184	11855
909.3	11767
909.415	11756
909.531	11710
909.647	11467
909.762	11478
909.878	11421
909.993	11528
910.108	11467
910.224	11490
910.339	11455
910.454	11391
910.57	11391
910.685	11220
910.8	11661
910.915	11493
911.03	11334
911.145	11269
911.259	11143
911.374	11220
911.489	11105
911.604	11006
911.718	10953
911.833	10987
911.947	10831
912.062	10767
912.176	10980
912.291	10961
912.405	10934
912.519	11159
912.633	11056
912.748	11006
912.862	10919
912.976	10812
913.09	10710
913.204	10812
913.318	10835
913.431	10835
913.545	10942
913.659	10980
913.772	10873
913.886	10694
914	10725
914.113	10694
914.226	10847
914.34	10828
914.453	10630
914.566	10691
914.68	10668
914.793	10634
914.906	10489
915.019	10466
915.132	10386
915.245	10371
915.358	10550
915.47	10470
915.583	10447
915.696	10440
915.809	10561
915.921	10634
916.034	10508
916.146	10478
916.259	10402
916.371	10519
916.483	10436
916.595	10337
916.708	10356
916.82	10363
916.932	10318
917.044	10295
917.156	10333
917.268	10234
917.38	10268
917.491	10253
917.603	10230
917.715	10367
917.826	10417
917.938	10238
918.049	10139
918.161	10325
918.272	10417
918.384	10432
918.495	10287
918.606	10135
918.717	10093
918.828	10169
918.939	10169
919.05	10071
919.161	10154
919.272	9987
919.383	9983
919.494	10246
919.604	10363
919.715	10177
919.826	10093
919.936	10135
920.047	10219
920.157	10276
920.267	10394
920.378	10291
920.488	10177
920.598	10379
920.708	10436
920.818	10443
920.928	10424
921.038	10508
921.148	10478
921.258	10169
921.368	10192
921.477	10143
921.587	9994
921.697	9888
921.806	10078
921.916	9979
922.025	9759
922.134	9743
922.244	9679
922.353	9816
922.462	9625
922.571	9584
922.68	9443
922.789	9447
922.898	9416
923.007	9466
923.116	9534
923.224	9420
923.333	9428
923.442	9370
923.55	9298
923.659	9336
923.767	9397
923.876	9310
923.984	9378
924.092	9283
924.201	9302
924.309	9351
924.417	9340
924.525	9203
924.633	9253
924.741	10059
924.849	9093
924.956	9218
925.064	9074
925.172	9055
925.279	9070
925.387	9112
925.494	9055
925.602	9218
925.709	9127
925.816	9024
925.924	9074
926.031	9214
926.138	9116
926.245	9112
926.352	9028
926.459	9176
926.566	9245
926.673	9074
926.779	9066
926.886	9055
926.993	8845
927.099	8838
927.206	8788
927.312	8796
927.419	8811
927.525	8785
927.631	8796
927.737	8731
927.843	8720
927.95	8655
928.056	8701
928.162	8670
928.267	8762
928.373	9382
928.479	8845
928.585	8571
928.69	8625
928.796	8777
928.901	8549
929.007	8488
929.112	8655
929.218	8602
929.323	8511
929.428	8530
929.533	8667
929.638	8495
929.743	8511
929.848	8571
929.953	8533
930.058	8438
930.163	8358
930.267	8336
930.372	8465
930.477	8259
930.581	8522
930.685	8290
930.79	8195
930.894	8301
930.998	8233
931.103	8374
931.207	8103
931.311	8016
931.415	8031
931.519	7776
931.623	7750
