Data from test_V78500241_2669.txt Node
Date: Fri Mar 25 14:52:17 CST 2022
User: usil
Spectrometer: V785-0024
Trigger mode: 0
Integration Time (sec): 4.000000E-1
Scans to average: 1
Nonlinearity correction enabled: false
Boxcar width: 0
Storing dark spectrum: false
XAxis mode: Wavelengths
Number of Pixels in Spectrum: 1024
>>>>>Begin Spectral Data<<<<<
801.071	22101
801.214	21884
801.356	21663
801.499	21549
801.641	21397
801.783	21260
801.926	21504
802.068	21355
802.211	21291
802.353	21230
802.496	20971
802.638	20765
802.78	20819
802.923	20807
803.065	20697
803.208	20765
803.35	20697
803.492	20762
803.635	20937
803.777	20636
803.919	20849
804.061	20960
804.204	20758
804.346	20746
804.488	20518
804.63	20754
804.773	20507
804.915	20594
805.057	20758
805.199	20651
805.341	20701
805.483	20880
805.626	20583
805.768	20617
805.91	20705
806.052	20655
806.194	20629
806.336	20777
806.478	20667
806.62	20511
806.762	20682
806.904	20727
807.046	21039
807.188	21009
807.33	21017
807.472	21013
807.614	20842
807.756	20785
807.898	20659
808.04	20697
808.182	20674
808.324	20777
808.465	20769
808.607	20864
808.749	21047
808.891	21150
809.033	21184
809.174	20975
809.316	20868
809.458	21005
809.6	20944
809.741	21047
809.883	21013
810.025	21199
810.166	21180
810.308	21241
810.45	21028
810.591	20944
810.733	20971
810.875	20739
811.016	20697
811.158	20575
811.299	20804
811.441	20887
811.582	20781
811.724	20640
811.865	20689
812.007	20697
812.148	20697
812.29	20693
812.431	20967
812.573	21089
812.714	21142
812.855	21176
812.997	21279
813.138	21401
813.279	21370
813.421	21291
813.562	21188
813.703	21074
813.845	20948
813.986	20659
814.127	20537
814.268	20404
814.41	20473
814.551	20328
814.692	20355
814.833	20130
814.974	20172
815.115	20256
815.256	20103
815.397	20119
815.539	20145
815.68	20062
815.821	19993
815.962	20024
816.103	20005
816.244	19818
816.385	19765
816.526	19765
816.666	19658
816.807	19400
816.948	19609
817.089	19597
817.23	19441
817.371	19460
817.512	19304
817.653	19419
817.793	19358
817.934	19419
818.075	19388
818.216	19419
818.356	19377
818.497	19221
818.638	19091
818.778	19088
818.919	18985
819.06	19107
819.2	19293
819.341	19285
819.481	19335
819.622	19548
819.762	19647
819.903	19521
820.043	19502
820.184	19506
820.324	19419
820.465	19632
820.605	19384
820.746	19396
820.886	19343
821.026	19426
821.167	19358
821.307	19457
821.447	19422
821.588	19183
821.728	19023
821.868	18886
822.008	18806
822.149	18837
822.289	18741
822.429	18570
822.569	18498
822.709	18608
822.849	18342
822.99	18319
823.13	18399
823.27	18235
823.41	18098
823.55	18121
823.69	18258
823.83	18163
823.97	18148
824.11	17851
824.25	17855
824.389	17870
824.529	17893
824.669	17836
824.809	18049
824.949	17939
825.089	17969
825.228	17878
825.368	17779
825.508	17748
825.648	17714
825.787	17707
825.927	17589
826.067	17707
826.206	17623
826.346	17729
826.485	17653
826.625	17672
826.765	17695
826.904	17680
827.044	17505
827.183	17509
827.323	17360
827.462	17444
827.601	17459
827.741	17284
827.88	17345
828.02	17174
828.159	17433
828.298	17421
828.437	17414
828.577	17326
828.716	17429
828.855	17364
828.994	17220
829.134	17037
829.273	17147
829.412	17102
829.551	17014
829.69	17128
829.829	17174
829.968	17315
830.107	17162
830.246	17235
830.385	16953
830.524	16980
830.663	16949
830.802	16965
830.941	16649
831.08	16683
831.219	16763
831.357	16904
831.496	16972
831.635	16721
831.774	16599
831.913	16675
832.051	16512
832.19	16504
832.329	16603
832.467	16558
832.606	16451
832.744	16371
832.883	16500
833.022	16299
833.16	16375
833.299	16516
833.437	16493
833.576	16402
833.714	16519
833.852	16558
833.991	16550
834.129	16630
834.267	16531
834.406	16497
834.544	16535
834.682	16500
834.821	16497
834.959	16588
835.097	16538
835.235	16622
835.373	16603
835.511	16569
835.65	16447
835.788	16390
835.926	16188
836.064	16280
836.202	16253
836.34	16451
836.478	16531
836.615	16360
836.753	16516
836.891	16508
837.029	16478
837.167	16341
837.305	16398
837.443	16211
837.58	16375
837.718	16417
837.856	16379
837.993	16169
838.131	16287
838.269	16223
838.406	16169
838.544	16051
838.681	16074
838.819	15975
838.956	15922
839.094	15701
839.231	15842
839.369	15972
839.506	16253
839.643	16078
839.781	15819
839.918	15838
840.055	15850
840.193	15865
840.33	15789
840.467	15819
840.604	15907
840.742	16063
840.879	15766
841.016	15656
841.153	15732
841.29	15869
841.427	15857
841.564	15926
841.701	15915
841.838	15789
841.975	15766
842.112	15743
842.249	15660
842.385	15553
842.522	15835
842.659	15671
842.796	15580
842.933	15614
843.069	15564
843.206	15557
843.343	15728
843.479	15614
843.616	15705
843.752	15340
843.889	15386
844.025	15587
844.162	15431
844.298	15439
844.435	15447
844.571	15424
844.708	15428
844.844	15561
844.98	15587
845.117	15515
845.253	15488
845.389	15302
845.525	15291
845.661	15237
845.798	15188
845.934	15260
846.07	15184
846.206	15283
846.342	15344
846.478	15249
846.614	15119
846.75	15020
846.886	15009
847.022	15127
847.158	15043
847.294	15039
847.429	15028
847.565	14975
847.701	15199
847.837	14693
847.972	14590
848.108	14910
848.244	14811
848.379	14655
848.515	14598
848.65	14610
848.786	14556
848.921	14686
849.057	14735
849.192	14796
849.328	14636
849.463	14568
849.598	14575
849.734	14495
849.869	14412
850.004	14377
850.14	14457
850.275	14393
850.41	14259
850.545	14294
850.68	14343
850.815	14389
850.95	14343
851.085	14549
851.22	14389
851.355	14336
851.49	14298
851.625	14404
851.76	14263
851.895	14358
852.03	14275
852.165	14301
852.299	14290
852.434	14579
852.569	14343
852.703	14408
852.838	14427
852.973	14564
853.107	14511
853.242	14381
853.376	14271
853.511	14111
853.645	14267
853.78	14275
853.914	14244
854.048	14111
854.183	14176
854.317	14187
854.451	14431
854.585	14237
854.72	14142
854.854	14259
854.988	14100
855.122	14172
855.256	14065
855.39	14191
855.524	14259
855.658	14313
855.792	14240
855.926	14290
856.06	14282
856.194	14377
856.327	14244
856.461	14157
856.595	14153
856.729	14103
856.862	14366
856.996	14263
857.13	14336
857.263	14305
857.397	14351
857.53	14229
857.664	14290
857.797	14221
857.931	14347
858.064	14195
858.197	14343
858.331	14180
858.464	14107
858.597	14233
858.731	14206
858.864	14256
858.997	14149
859.13	14256
859.263	14317
859.396	14313
859.529	14229
859.662	14180
859.795	14305
859.928	14221
860.061	14381
860.194	14366
860.327	14286
860.46	14233
860.592	14320
860.725	14343
860.858	14427
860.99	14153
861.123	14046
861.256	14199
861.388	14267
861.521	14819
861.653	14130
861.786	14031
861.918	14088
862.05	14199
862.183	14168
862.315	14259
862.447	14332
862.58	14202
862.712	14008
862.844	13982
862.976	14092
863.108	13993
863.24	14370
863.372	13963
863.504	13978
863.636	14005
863.768	14157
863.9	13974
864.032	13940
864.164	13986
864.296	13963
864.428	14062
864.559	14088
864.691	14054
864.823	14111
864.954	14069
865.086	14161
865.217	13955
865.349	13902
865.48	14043
865.612	13989
865.743	14134
865.875	13989
866.006	13997
866.137	13959
866.269	13967
866.4	13936
866.531	13940
866.662	13875
866.793	13959
866.924	13967
867.055	13993
867.186	13997
867.317	13928
867.448	13944
867.579	14001
867.71	13928
867.841	13944
867.972	14027
868.103	13982
868.233	14050
868.364	14031
868.495	14103
868.625	14157
868.756	14336
868.886	14172
869.017	14126
869.147	14305
869.278	14309
869.408	14320
869.539	14244
869.669	14275
869.799	14355
869.929	14412
870.06	14412
870.19	14583
870.32	14450
870.45	14587
870.58	14545
870.71	14845
870.84	14648
870.97	14629
871.1	14670
871.23	14842
871.36	14880
871.489	14807
871.619	14701
871.749	14910
871.879	14876
872.008	14918
872.138	14864
872.267	14811
872.397	14804
872.526	14712
872.656	14674
872.785	14705
872.915	14857
873.044	14971
873.173	14899
873.303	14868
873.432	14861
873.561	15055
873.69	14918
873.819	14891
873.948	14982
874.077	14895
874.206	14834
874.335	14853
874.464	15009
874.593	15252
874.722	15127
874.851	15245
874.979	15195
875.108	15222
875.237	15127
875.365	15066
875.494	15237
875.623	15389
875.751	15173
875.88	15173
876.008	15386
876.136	15397
876.265	15663
876.393	15751
876.521	15690
876.65	15781
876.778	15724
876.906	15660
877.034	15629
877.162	15622
877.29	15644
877.418	15720
877.546	15641
877.674	15466
877.802	15595
877.93	15671
878.058	15564
878.185	15545
878.313	15580
878.441	15618
878.568	15466
878.696	15580
878.824	15663
878.951	15671
879.079	15793
879.206	15880
879.333	15759
879.461	15622
879.588	15694
879.715	15762
879.842	15892
879.97	15675
880.097	15469
880.224	15431
880.351	15504
880.478	15477
880.605	15340
880.732	15458
880.859	15816
880.986	15439
881.112	15515
881.239	15336
881.366	15157
881.493	15245
881.619	15104
881.746	15089
881.872	15192
881.999	15119
882.125	15032
882.252	15131
882.378	15264
882.505	15275
882.631	15131
882.757	14887
882.883	15093
883.01	14925
883.136	14861
883.262	14921
883.388	14880
883.514	14937
883.64	14952
883.766	14937
883.892	14689
884.018	14819
884.143	14887
884.269	15055
884.395	14644
884.52	14511
884.646	14686
884.772	14575
884.897	14640
885.023	14590
885.148	14705
885.274	14800
885.399	14701
885.524	14712
885.65	14701
885.775	14686
885.9	14712
886.025	14830
886.15	14765
886.275	14663
886.4	14549
886.525	14564
886.65	14590
886.775	14560
886.9	14792
887.025	14765
887.149	14708
887.274	14473
887.399	14400
887.523	14427
887.648	14408
887.773	14320
887.897	14518
888.021	14598
888.146	14511
888.27	14537
888.395	14640
888.519	14503
888.643	14617
888.767	14507
888.891	14431
889.015	14336
889.139	14343
889.263	14377
889.387	14431
889.511	14514
889.635	14560
889.759	14454
889.883	14347
890.006	14290
890.13	14427
890.254	14320
890.377	14263
890.501	14172
890.624	14077
890.748	14149
890.871	14092
890.995	14016
891.118	13967
891.241	13940
891.364	14046
891.488	14161
891.611	14123
891.734	14092
891.857	14145
891.98	14092
892.103	14065
892.226	14119
892.349	14039
892.471	13936
892.594	14024
892.717	13997
892.839	14031
892.962	14058
893.085	14069
893.207	14111
893.33	13928
893.452	13951
893.575	14058
893.697	14008
893.819	14259
893.941	14168
894.064	14256
894.186	14001
894.308	14016
894.43	14233
894.552	14286
894.674	14180
894.796	14020
894.918	14183
895.04	14084
895.161	14259
895.283	14183
895.405	14134
895.526	14187
895.648	14278
895.769	14183
895.891	14229
896.012	14275
896.134	14309
896.255	14263
896.376	14195
896.498	14225
896.619	14278
896.74	14256
896.861	14275
896.982	14556
897.103	14758
897.224	14556
897.345	14450
897.466	14419
897.587	14495
897.708	14575
897.828	14514
897.949	14484
898.07	14438
898.19	14507
898.311	14583
898.431	14533
898.552	14568
898.672	14655
898.792	14579
898.913	14518
899.033	14530
899.153	14423
899.273	14301
899.393	14473
899.513	14408
899.633	14480
899.753	14526
899.873	14408
899.993	14412
900.113	14434
900.232	14457
900.352	14419
900.472	14343
900.591	14256
900.711	14374
900.83	14210
900.95	14465
901.069	14431
901.189	14126
901.308	14058
901.427	13890
901.546	13875
901.665	14084
901.784	13967
901.904	13879
902.023	13765
902.141	13594
902.26	13510
902.379	13613
902.498	13441
902.617	13445
902.735	13658
902.854	13590
902.973	13400
903.091	13282
903.21	13221
903.328	13335
903.446	13263
903.565	13095
903.683	13152
903.801	12993
903.919	13053
904.038	13126
904.156	12973
904.274	12970
904.392	12852
904.51	12890
904.627	12935
904.745	12943
904.863	13004
904.981	12662
905.098	12597
905.216	12616
905.334	12684
905.451	12525
905.569	12582
905.686	12677
905.803	12563
905.921	12441
906.038	12517
906.155	12365
906.272	12327
906.389	12399
906.506	12254
906.623	12213
906.74	12247
906.857	12087
906.974	12106
907.091	12311
907.208	12270
907.324	12220
907.441	12159
907.557	12034
907.674	11942
907.79	11817
907.907	11969
908.023	12034
908.139	11942
908.256	11882
908.372	11927
908.488	11874
908.604	11672
908.72	11665
908.836	11676
908.952	11710
909.068	11634
909.184	11798
909.3	11741
909.415	11760
909.531	11779
909.647	11535
909.762	11589
909.878	11414
909.993	11516
910.108	11455
910.224	11493
910.339	11505
910.454	11379
910.57	11341
910.685	11254
910.8	11581
910.915	11490
911.03	11296
911.145	11178
911.259	11197
911.374	11318
911.489	11056
911.604	11140
911.718	10866
911.833	10991
911.947	10908
912.062	10744
912.176	10946
912.291	10961
912.405	10987
912.519	11151
912.633	11204
912.748	10953
912.862	10987
912.976	10797
913.09	10774
913.204	10790
913.318	10847
913.431	10968
913.545	10904
913.659	10927
913.772	10778
913.886	10778
914	10752
914.113	10809
914.226	10824
914.34	10763
914.453	10687
914.566	10782
914.68	10611
914.793	10634
914.906	10432
915.019	10421
915.132	10459
915.245	10386
915.358	10386
915.47	10493
915.583	10462
915.696	10485
915.809	10622
915.921	10603
916.034	10459
916.146	10402
916.259	10360
916.371	10535
916.483	10538
916.595	10447
916.708	10382
916.82	10371
916.932	10398
917.044	10402
917.156	10299
917.268	10284
917.38	10341
917.491	10299
917.603	10268
917.715	10348
917.826	10348
917.938	10306
918.049	10238
918.161	10265
918.272	10398
918.384	10402
918.495	10337
918.606	10192
918.717	10097
918.828	10158
918.939	10188
919.05	10063
919.161	10147
919.272	9968
919.383	10071
919.494	10268
919.604	10367
919.715	10219
919.826	10086
919.936	10120
920.047	10238
920.157	10223
920.267	10455
920.378	10227
920.488	10280
920.598	10447
920.708	10500
920.818	10363
920.928	10405
921.038	10542
921.148	10398
921.258	10287
921.368	10078
921.477	10051
921.587	10067
921.697	9880
921.806	10051
921.916	9934
922.025	9789
922.134	9709
922.244	9644
922.353	9827
922.462	9671
922.571	9587
922.68	9431
922.789	9454
922.898	9416
923.007	9359
923.116	9420
923.224	9424
923.333	9492
923.442	9351
923.55	9291
923.659	9332
923.767	9431
923.876	9222
923.984	9416
924.092	9260
924.201	9405
924.309	9287
924.417	9317
924.525	9203
924.633	9294
924.741	10040
924.849	8967
924.956	9317
925.064	9074
925.172	9028
925.279	9074
925.387	9112
925.494	9081
925.602	9161
925.709	9184
925.816	9055
925.924	9074
926.031	9188
926.138	9081
926.245	9108
926.352	8994
926.459	9150
926.566	9165
926.673	9074
926.779	8921
926.886	9009
926.993	8857
927.099	8811
927.206	8743
927.312	8777
927.419	8887
927.525	8777
927.631	8891
927.737	8712
927.843	8743
927.95	8644
928.056	8697
928.162	8678
928.267	8731
928.373	9397
928.479	8792
928.585	8579
928.69	8640
928.796	8750
928.901	8606
929.007	8514
929.112	8636
929.218	8663
929.323	8564
929.428	8484
929.533	8686
929.638	8419
929.743	8473
929.848	8556
929.953	8499
930.058	8412
930.163	8240
930.267	8290
930.372	8423
930.477	8298
930.581	8518
930.685	8393
930.79	8275
930.894	8305
930.998	8225
931.103	8301
931.207	8039
931.311	7940
931.415	7936
931.519	7769
931.623	7719
