Data from test_V78500241_1304.txt Node
Date: Fri Mar 25 14:42:47 CST 2022
User: usil
Spectrometer: V785-0024
Trigger mode: 0
Integration Time (sec): 4.000000E-1
Scans to average: 1
Nonlinearity correction enabled: false
Boxcar width: 0
Storing dark spectrum: false
XAxis mode: Wavelengths
Number of Pixels in Spectrum: 1024
>>>>>Begin Spectral Data<<<<<
801.071	22394
801.214	22268
801.356	22120
801.499	22010
801.641	21888
801.783	21759
801.926	21739
802.068	21717
802.211	21591
802.353	21523
802.496	21336
802.638	21306
802.78	21344
802.923	21176
803.065	21089
803.208	21066
803.35	21165
803.492	21058
803.635	21173
803.777	21070
803.919	21214
804.061	21466
804.204	21127
804.346	21043
804.488	21020
804.63	21013
804.773	20902
804.915	21020
805.057	21066
805.199	21154
805.341	21142
805.483	21241
805.626	21150
805.768	20960
805.91	20979
806.052	21020
806.194	20948
806.336	21077
806.478	21070
806.62	20967
806.762	20971
806.904	21138
807.046	21515
807.188	21378
807.33	21329
807.472	21416
807.614	21378
807.756	21329
807.898	21237
808.04	21116
808.182	21154
808.324	21135
808.465	21264
808.607	21435
808.749	21572
808.891	21610
809.033	21751
809.174	21755
809.316	21599
809.458	21561
809.6	21416
809.741	21644
809.883	21492
810.025	21633
810.166	21530
810.308	21568
810.45	21576
810.591	21367
810.733	21291
810.875	21325
811.016	21176
811.158	21180
811.299	21214
811.441	21302
811.582	21256
811.724	21268
811.865	21230
812.007	21199
812.148	21195
812.29	21214
812.431	21336
812.573	21389
812.714	21774
812.855	21838
812.997	21819
813.138	21831
813.279	21774
813.421	21724
813.562	21682
813.703	21488
813.845	21317
813.986	21055
814.127	20906
814.268	20834
814.41	20754
814.551	20686
814.692	20758
814.833	20602
814.974	20731
815.115	20739
815.256	20609
815.397	20609
815.539	20587
815.68	20415
815.821	20438
815.962	20473
816.103	20389
816.244	20313
816.385	20286
816.526	20221
816.666	20050
816.807	19947
816.948	19989
817.089	20031
817.23	19997
817.371	19868
817.512	19780
817.653	19894
817.793	19868
817.934	19890
818.075	19887
818.216	19890
818.356	19784
818.497	19738
818.638	19609
818.778	19540
818.919	19685
819.06	19540
819.2	19776
819.341	19761
819.481	19822
819.622	19833
819.762	20027
819.903	20073
820.043	19982
820.184	19864
820.324	19894
820.465	19959
820.605	19887
820.746	19837
820.886	19704
821.026	19765
821.167	19852
821.307	19879
821.447	19841
821.588	19742
821.728	19578
821.868	19434
822.008	19301
822.149	19301
822.289	19187
822.429	19053
822.569	18909
822.709	19019
822.849	18760
822.99	18753
823.13	18703
823.27	18681
823.41	18486
823.55	18566
823.69	18521
823.83	18627
823.97	18407
824.11	18399
824.25	18338
824.389	18410
824.529	18407
824.669	18323
824.809	18346
824.949	18464
825.089	18418
825.228	18350
825.368	18174
825.508	18220
825.648	18117
825.787	18167
825.927	18254
826.067	18083
826.206	17992
826.346	18133
826.485	18121
826.625	18136
826.765	18235
826.904	18114
827.044	17889
827.183	17920
827.323	17805
827.462	17904
827.601	17809
827.741	17836
827.88	17828
828.02	17714
828.159	17783
828.298	17783
828.437	17843
828.577	17676
828.716	18057
828.855	17817
828.994	17512
829.134	17512
829.273	17627
829.412	17570
829.551	17512
829.69	17577
829.829	17642
829.968	17707
830.107	17604
830.246	17600
830.385	17474
830.524	17455
830.663	17345
830.802	17242
830.941	17098
831.08	17136
831.219	17261
831.357	17334
831.496	17410
831.635	17189
831.774	17155
831.913	17113
832.051	17006
832.19	16919
832.329	17094
832.467	16896
832.606	16961
832.744	16927
832.883	16957
833.022	16877
833.16	16839
833.299	16938
833.437	16850
833.576	16987
833.714	17014
833.852	16904
833.991	16923
834.129	17029
834.267	17064
834.406	16919
834.544	16976
834.682	16904
834.821	16972
834.959	17178
835.097	16991
835.235	17075
835.373	16965
835.511	17045
835.65	16850
835.788	16790
835.926	16809
836.064	16698
836.202	16694
836.34	16915
836.478	16904
836.615	16850
836.753	16862
836.891	16961
837.029	16847
837.167	16866
837.305	16668
837.443	16793
837.58	16668
837.718	16801
837.856	16778
837.993	16603
838.131	16694
838.269	16691
838.406	16618
838.544	16622
838.681	16489
838.819	16493
838.956	16280
839.094	16303
839.231	16318
839.369	16265
839.506	16729
839.643	16603
839.781	16299
839.918	16242
840.055	16299
840.193	16333
840.33	16150
840.467	16394
840.604	16223
840.742	16569
840.879	16188
841.016	16257
841.153	16169
841.29	16318
841.427	16226
841.564	16379
841.701	16322
841.838	16192
841.975	16207
842.112	16162
842.249	16078
842.385	15892
842.522	16188
842.659	16074
842.796	16078
842.933	16181
843.069	16044
843.206	16086
843.343	16036
843.479	16158
843.616	16040
843.752	15861
843.889	15804
844.025	15918
844.162	15819
844.298	15975
844.435	15800
844.571	15804
844.708	16048
844.844	16002
844.98	16090
845.117	15884
845.253	15819
845.389	15770
845.525	15907
845.661	15797
845.798	15766
845.934	15876
846.07	15892
846.206	15956
846.342	15873
846.478	15781
846.614	15496
846.75	15401
846.886	15355
847.022	15511
847.158	15492
847.294	15401
847.429	15553
847.565	15367
847.701	15587
847.837	15230
847.972	15093
848.108	15268
848.244	15329
848.379	15024
848.515	15062
848.65	14933
848.786	14990
848.921	14979
849.057	15081
849.192	15074
849.328	15051
849.463	15047
849.598	15024
849.734	14929
849.869	14811
850.004	14785
850.14	14826
850.275	14872
850.41	14716
850.545	14629
850.68	14731
850.815	14731
850.95	14750
851.085	14887
851.22	14724
851.355	14929
851.49	14720
851.625	14743
851.76	14754
851.895	14716
852.03	14632
852.165	14693
852.299	14788
852.434	14849
852.569	14925
852.703	14689
852.838	14918
852.973	14933
853.107	14963
853.242	14746
853.376	14655
853.511	14526
853.645	14617
853.78	14655
853.914	14613
854.048	14602
854.183	14621
854.317	14689
854.451	14765
854.585	14678
854.72	14663
854.854	14701
854.988	14522
855.122	14610
855.256	14415
855.39	14610
855.524	14727
855.658	14701
855.792	14629
855.926	14697
856.06	14712
856.194	14678
856.327	14617
856.461	14678
856.595	14613
856.729	14625
856.862	14804
856.996	14667
857.13	14686
857.263	14708
857.397	14811
857.53	14571
857.664	14648
857.797	14644
857.931	14765
858.064	14708
858.197	14720
858.331	14621
858.464	14625
858.597	14549
858.731	14621
858.864	14583
858.997	14590
859.13	14610
859.263	14705
859.396	14750
859.529	14648
859.662	14621
859.795	14613
859.928	14617
860.061	14849
860.194	14807
860.327	14651
860.46	14697
860.592	14708
860.725	14746
860.858	14701
860.99	14640
861.123	14530
861.256	14659
861.388	14625
861.521	15370
861.653	14492
861.786	14442
861.918	14526
862.05	14583
862.183	14655
862.315	14610
862.447	14739
862.58	14507
862.712	14408
862.844	14381
862.976	14480
863.108	14385
863.24	14891
863.372	14434
863.504	14347
863.636	14370
863.768	14393
863.9	14457
864.032	14381
864.164	14385
864.296	14377
864.428	14575
864.559	14465
864.691	14457
864.823	14461
864.954	14431
865.086	14408
865.217	14381
865.349	14347
865.48	14328
865.612	14457
865.743	14579
865.875	14347
866.006	14408
866.137	14484
866.269	14377
866.4	14347
866.531	14336
866.662	14377
866.793	14381
866.924	14343
867.055	14396
867.186	14290
867.317	14343
867.448	14294
867.579	14385
867.71	14332
867.841	14347
867.972	14385
868.103	14381
868.233	14488
868.364	14343
868.495	14480
868.625	14552
868.756	14678
868.886	14533
869.017	14575
869.147	14777
869.278	14883
869.408	14644
869.539	14670
869.669	14724
869.799	14727
869.929	14811
870.06	14727
870.19	15047
870.32	14937
870.45	15020
870.58	14941
870.71	15176
870.84	15131
870.97	15036
871.1	14967
871.23	15218
871.36	15127
871.489	15089
871.619	15203
871.749	15264
871.879	15272
872.008	15294
872.138	15256
872.267	15184
872.397	15093
872.526	15062
872.656	15001
872.785	15043
872.915	15195
873.044	15283
873.173	15252
873.303	15332
873.432	15218
873.561	15355
873.69	15287
873.819	15199
873.948	15386
874.077	15249
874.206	15222
874.335	15302
874.464	15386
874.593	15523
874.722	15488
874.851	15622
874.979	15625
875.108	15622
875.237	15469
875.365	15504
875.494	15545
875.623	15679
875.751	15572
875.88	15545
876.008	15778
876.136	15827
876.265	15975
876.393	16120
876.521	16082
876.65	16032
876.778	16002
876.906	15979
877.034	15911
877.162	15979
877.29	15892
877.418	15979
877.546	15949
877.674	16097
877.802	16029
877.93	15975
878.058	15857
878.185	15895
878.313	16040
878.441	16010
878.568	15876
878.696	15964
878.824	16010
878.951	16135
879.079	16173
879.206	16363
879.333	16276
879.461	16135
879.588	16295
879.715	16337
879.842	16382
879.97	16234
880.097	15949
880.224	15888
880.351	15873
880.478	15922
880.605	15884
880.732	15778
880.859	16166
880.986	15842
881.112	15873
881.239	15736
881.366	15587
881.493	15610
881.619	15542
881.746	15603
881.872	15534
881.999	15542
882.125	15466
882.252	15576
882.378	15496
882.505	15545
882.631	15443
882.757	15294
882.883	15485
883.01	15397
883.136	15272
883.262	15272
883.388	15279
883.514	15367
883.64	15306
883.766	15249
883.892	15108
884.018	15157
884.143	15302
884.269	15469
884.395	15237
884.52	15020
884.646	15081
884.772	14960
884.897	15093
885.023	15055
885.148	15108
885.274	15188
885.399	15127
885.524	15001
885.65	15039
885.775	15081
885.9	15017
886.025	15211
886.15	15116
886.275	14925
886.4	15032
886.525	14994
886.65	14952
886.775	14937
886.9	15127
887.025	15264
887.149	14941
887.274	14861
887.399	14899
887.523	14838
887.648	14758
887.773	14872
887.897	14899
888.021	14895
888.146	14842
888.27	14963
888.395	14933
888.519	14876
888.643	14941
888.767	14948
888.891	14705
889.015	14655
889.139	14804
889.263	14629
889.387	14864
889.511	14807
889.635	14872
889.759	14625
889.883	14705
890.006	14674
890.13	14762
890.254	14670
890.377	14648
890.501	14606
890.624	14495
890.748	14552
890.871	14404
890.995	14339
891.118	14324
891.241	14358
891.364	14476
891.488	14522
891.611	14389
891.734	14366
891.857	14507
891.98	14419
892.103	14492
892.226	14457
892.349	14355
892.471	14248
892.594	14431
892.717	14434
892.839	14358
892.962	14362
893.085	14575
893.207	14408
893.33	14317
893.452	14301
893.575	14427
893.697	14450
893.819	14484
893.941	14632
894.064	14526
894.186	14317
894.308	14423
894.43	14583
894.552	14522
894.674	14629
894.796	14362
894.918	14434
895.04	14370
895.161	14613
895.283	14556
895.405	14286
895.526	14446
895.648	14568
895.769	14545
895.891	14545
896.012	14549
896.134	14590
896.255	14594
896.376	14511
896.498	14655
896.619	14590
896.74	14606
896.861	14583
896.982	14899
897.103	15017
897.224	14830
897.345	14830
897.466	14739
897.587	14849
897.708	14918
897.828	14910
897.949	14788
898.07	14705
898.19	14826
898.311	14948
898.431	14785
898.552	14876
898.672	14918
898.792	14910
898.913	14967
899.033	14838
899.153	14754
899.273	14670
899.393	14731
899.513	14735
899.633	14701
899.753	14849
899.873	14788
899.993	14815
900.113	14708
900.232	14777
900.352	14701
900.472	14727
900.591	14518
900.711	14549
900.83	14644
900.95	14640
901.069	14724
901.189	14480
901.308	14366
901.427	14187
901.546	14298
901.665	14332
901.784	14423
901.904	14103
902.023	14115
902.141	13883
902.26	13947
902.379	13963
902.498	13780
902.617	13746
902.735	13898
902.854	13833
902.973	13742
903.091	13514
903.21	13540
903.328	13586
903.446	13487
903.565	13422
903.683	13400
903.801	13339
903.919	13346
904.038	13396
904.156	13255
904.274	13240
904.392	13209
904.51	13206
904.627	13236
904.745	13232
904.863	13217
904.981	13023
905.098	12882
905.216	12901
905.334	12916
905.451	12840
905.569	12886
905.686	12920
905.803	12897
905.921	12719
906.038	12867
906.155	12722
906.272	12620
906.389	12665
906.506	12452
906.623	12601
906.74	12460
906.857	12414
906.974	12399
907.091	12612
907.208	12662
907.324	12601
907.441	12448
907.557	12239
907.674	12190
907.79	12201
907.907	12262
908.023	12254
908.139	12224
908.256	12060
908.372	12262
908.488	12098
908.604	12022
908.72	11973
908.836	11965
908.952	11942
909.068	12022
909.184	12136
909.3	12011
909.415	12083
909.531	11950
909.647	11832
909.762	11756
909.878	11707
909.993	11764
910.108	11832
910.224	11855
910.339	11710
910.454	11726
910.57	11615
910.685	11566
910.8	11863
910.915	11748
911.03	11592
911.145	11501
911.259	11478
911.374	11467
911.489	11334
911.604	11402
911.718	11181
911.833	11292
911.947	11067
912.062	11033
912.176	11239
912.291	11254
912.405	11140
912.519	11398
912.633	11429
912.748	11311
912.862	11254
912.976	11105
913.09	11010
913.204	11033
913.318	11136
913.431	11151
913.545	11197
913.659	11170
913.772	11143
913.886	10892
914	10980
914.113	11124
914.226	11113
914.34	11060
914.453	10889
914.566	11105
914.68	10930
914.793	10896
914.906	10717
915.019	10748
915.132	10683
915.245	10653
915.358	10698
915.47	10755
915.583	10755
915.696	10828
915.809	10854
915.921	10771
916.034	10717
916.146	10668
916.259	10618
916.371	10774
916.483	10755
916.595	10580
916.708	10691
916.82	10706
916.932	10691
917.044	10641
917.156	10637
917.268	10577
917.38	10599
917.491	10447
917.603	10554
917.715	10622
917.826	10672
917.938	10493
918.049	10447
918.161	10550
918.272	10668
918.384	10755
918.495	10577
918.606	10421
918.717	10314
918.828	10481
918.939	10417
919.05	10318
919.161	10379
919.272	10246
919.383	10242
919.494	10504
919.604	10603
919.715	10421
919.826	10390
919.936	10382
920.047	10481
920.157	10455
920.267	10622
920.378	10409
920.488	10367
920.598	10710
920.708	10721
920.818	10596
920.928	10535
921.038	10744
921.148	10717
921.258	10436
921.368	10424
921.477	10337
921.587	10299
921.697	10097
921.806	10253
921.916	10131
922.025	9994
922.134	9888
922.244	10017
922.353	10059
922.462	9884
922.571	9907
922.68	9690
922.789	9701
922.898	9728
923.007	9667
923.116	9740
923.224	9595
923.333	9633
923.442	9549
923.55	9549
923.659	9504
923.767	9580
923.876	9515
923.984	9580
924.092	9431
924.201	9526
924.309	9538
924.417	9549
924.525	9481
924.633	9542
924.741	10158
924.849	9329
924.956	9397
925.064	9264
925.172	9241
925.279	9294
925.387	9340
925.494	9275
925.602	9481
925.709	9329
925.816	9321
925.924	9340
926.031	9374
926.138	9264
926.245	9332
926.352	9211
926.459	9382
926.566	9458
926.673	9249
926.779	9146
926.886	9169
926.993	9039
927.099	9020
927.206	8994
927.312	8872
927.419	9020
927.525	9070
927.631	9085
927.737	8998
927.843	8811
927.95	8807
928.056	9005
928.162	8891
928.267	8998
928.373	9572
928.479	8933
928.585	8792
928.69	8891
928.796	8849
928.901	8800
929.007	8678
929.112	8815
929.218	8819
929.323	8762
929.428	8705
929.533	8941
929.638	8659
929.743	8735
929.848	8769
929.953	8708
930.058	8670
930.163	8488
930.267	8450
930.372	8693
930.477	8503
930.581	8781
930.685	8526
930.79	8423
930.894	8495
930.998	8442
931.103	8518
931.207	8286
931.311	8149
931.415	8126
931.519	7898
931.623	7849
