Data from test_V78500241_1511.txt Node
Date: Fri Mar 25 14:44:14 CST 2022
User: usil
Spectrometer: V785-0024
Trigger mode: 0
Integration Time (sec): 4.000000E-1
Scans to average: 1
Nonlinearity correction enabled: false
Boxcar width: 0
Storing dark spectrum: false
XAxis mode: Wavelengths
Number of Pixels in Spectrum: 1024
>>>>>Begin Spectral Data<<<<<
801.071	22303
801.214	22223
801.356	22040
801.499	21926
801.641	21724
801.783	21667
801.926	21835
802.068	21751
802.211	21606
802.353	21606
802.496	21332
802.638	21226
802.78	21142
802.923	21116
803.065	20990
803.208	21036
803.35	21001
803.492	21146
803.635	21313
803.777	21131
803.919	21184
804.061	21523
804.204	21207
804.346	21001
804.488	20994
804.63	21074
804.773	21146
804.915	21017
805.057	21188
805.199	21055
805.341	21005
805.483	21195
805.626	21108
805.768	21135
805.91	20979
806.052	21055
806.194	21017
806.336	21203
806.478	20857
806.62	20971
806.762	21089
806.904	21184
807.046	21515
807.188	21439
807.33	21382
807.472	21424
807.614	21298
807.756	21317
807.898	21317
808.04	21188
808.182	21165
808.324	21207
808.465	21294
808.607	21542
808.749	21625
808.891	21705
809.033	21785
809.174	21800
809.316	21663
809.458	21606
809.6	21485
809.741	21606
809.883	21580
810.025	21667
810.166	21610
810.308	21587
810.45	21557
810.591	21549
810.733	21473
810.875	21169
811.016	21032
811.158	21108
811.299	21287
811.441	21488
811.582	21287
811.724	21355
811.865	21138
812.007	21275
812.148	21195
812.29	21237
812.431	21340
812.573	21481
812.714	21595
812.855	21797
812.997	21785
813.138	21865
813.279	21846
813.421	21603
813.562	21739
813.703	21485
813.845	21283
813.986	21047
814.127	20944
814.268	20769
814.41	20796
814.551	20743
814.692	20823
814.833	20655
814.974	20804
815.115	20689
815.256	20636
815.397	20686
815.539	20568
815.68	20454
815.821	20442
815.962	20488
816.103	20552
816.244	20301
816.385	20339
816.526	20119
816.666	20039
816.807	19921
816.948	19932
817.089	20035
817.23	19993
817.371	19913
817.512	19871
817.653	19898
817.793	19826
817.934	19860
818.075	19978
818.216	19909
818.356	19795
818.497	19712
818.638	19651
818.778	19582
818.919	19590
819.06	19712
819.2	19742
819.341	19738
819.481	19727
819.622	19780
819.762	20202
819.903	20020
820.043	19978
820.184	19845
820.324	19902
820.465	19906
820.605	19928
820.746	19849
820.886	19670
821.026	19883
821.167	19856
821.307	19967
821.447	19719
821.588	19613
821.728	19658
821.868	19472
822.008	19244
822.149	19160
822.289	19183
822.429	19042
822.569	18966
822.709	19053
822.849	18825
822.99	18837
823.13	18814
823.27	18646
823.41	18601
823.55	18544
823.69	18555
823.83	18521
823.97	18536
824.11	18395
824.25	18391
824.389	18372
824.529	18464
824.669	18441
824.809	18429
824.949	18429
825.089	18448
825.228	18308
825.368	18167
825.508	18262
825.648	18125
825.787	18190
825.927	18213
826.067	18140
826.206	18019
826.346	18224
826.485	18220
826.625	18174
826.765	18258
826.904	18262
827.044	17843
827.183	17897
827.323	17783
827.462	17843
827.601	17821
827.741	17684
827.88	17927
828.02	17729
828.159	17805
828.298	17843
828.437	17874
828.577	17695
828.716	17904
828.855	17748
828.994	17668
829.134	17646
829.273	17577
829.412	17512
829.551	17482
829.69	17505
829.829	17558
829.968	17592
830.107	17627
830.246	17570
830.385	17410
830.524	17334
830.663	17402
830.802	17220
830.941	17166
831.08	17121
831.219	17200
831.357	17204
831.496	17444
831.635	17159
831.774	17105
831.913	17094
832.051	16987
832.19	16866
832.329	16995
832.467	16908
832.606	16801
832.744	16934
832.883	16831
833.022	16767
833.16	16866
833.299	16869
833.437	16911
833.576	16965
833.714	17029
833.852	16946
833.991	16854
834.129	17052
834.267	16995
834.406	16915
834.544	16961
834.682	16934
834.821	16786
834.959	17132
835.097	16930
835.235	16881
835.373	16930
835.511	16957
835.65	16805
835.788	16904
835.926	16729
836.064	16626
836.202	16599
836.34	16847
836.478	16824
836.615	16771
836.753	16824
836.891	16881
837.029	16812
837.167	16656
837.305	16744
837.443	16763
837.58	16672
837.718	16778
837.856	16744
837.993	16668
838.131	16622
838.269	16626
838.406	16561
838.544	16523
838.681	16421
838.819	16314
838.956	16188
839.094	16181
839.231	16226
839.369	16329
839.506	16508
839.643	16485
839.781	16181
839.918	16177
840.055	16173
840.193	16200
840.33	16173
840.467	16188
840.604	16329
840.742	16424
840.879	16067
841.016	16109
841.153	15994
841.29	16322
841.427	16211
841.564	16268
841.701	16116
841.838	16177
841.975	16006
842.112	16135
842.249	16078
842.385	16002
842.522	16181
842.659	16078
842.796	15960
842.933	15987
843.069	15991
843.206	15945
843.343	16021
843.479	16063
843.616	15949
843.752	15770
843.889	15732
844.025	15968
844.162	15797
844.298	15797
844.435	15835
844.571	15804
844.708	15808
844.844	16013
844.98	15876
845.117	15785
845.253	15709
845.389	15679
845.525	15759
845.661	15766
845.798	15728
845.934	15934
846.07	15751
846.206	15793
846.342	15888
846.478	15720
846.614	15443
846.75	15504
846.886	15287
847.022	15408
847.158	15313
847.294	15306
847.429	15389
847.565	15291
847.701	15610
847.837	15104
847.972	15013
848.108	15195
848.244	15264
848.379	14941
848.515	14929
848.65	15013
848.786	14880
848.921	14921
849.057	14986
849.192	15146
849.328	14948
849.463	14948
849.598	14872
849.734	14849
849.869	14918
850.004	14705
850.14	14682
850.275	14758
850.41	14587
850.545	14651
850.68	14693
850.815	14701
850.95	14705
851.085	14857
851.22	14743
851.355	14785
851.49	14712
851.625	14644
851.76	14621
851.895	14651
852.03	14518
852.165	14727
852.299	14731
852.434	14765
852.569	14670
852.703	14663
852.838	14758
852.973	14762
853.107	14838
853.242	14602
853.376	14579
853.511	14454
853.645	14499
853.78	14705
853.914	14568
854.048	14530
854.183	14507
854.317	14621
854.451	14689
854.585	14560
854.72	14503
854.854	14549
854.988	14423
855.122	14469
855.256	14408
855.39	14602
855.524	14617
855.658	14670
855.792	14511
855.926	14590
856.06	14632
856.194	14663
856.327	14625
856.461	14522
856.595	14484
856.729	14530
856.862	14659
856.996	14606
857.13	14701
857.263	14682
857.397	14621
857.53	14533
857.664	14785
857.797	14579
857.931	14644
858.064	14697
858.197	14659
858.331	14568
858.464	14613
858.597	14465
858.731	14541
858.864	14564
858.997	14434
859.13	14590
859.263	14617
859.396	14571
859.529	14514
859.662	14549
859.795	14495
859.928	14507
860.061	14758
860.194	14667
860.327	14514
860.46	14636
860.592	14727
860.725	14712
860.858	14651
860.99	14587
861.123	14446
861.256	14526
861.388	14644
861.521	15268
861.653	14446
861.786	14393
861.918	14374
862.05	14480
862.183	14537
862.315	14579
862.447	14503
862.58	14492
862.712	14309
862.844	14252
862.976	14320
863.108	14446
863.24	14826
863.372	14298
863.504	14301
863.636	14267
863.768	14419
863.9	14396
864.032	14267
864.164	14282
864.296	14278
864.428	14454
864.559	14461
864.691	14381
864.823	14427
864.954	14294
865.086	14377
865.217	14473
865.349	14278
865.48	14336
865.612	14259
865.743	14480
865.875	14377
866.006	14366
866.137	14256
866.269	14278
866.4	14286
866.531	14332
866.662	14149
866.793	14271
866.924	14267
867.055	14305
867.186	14309
867.317	14259
867.448	14210
867.579	14278
867.71	14305
867.841	14191
867.972	14366
868.103	14320
868.233	14252
868.364	14320
868.495	14332
868.625	14610
868.756	14587
868.886	14549
869.017	14469
869.147	14663
869.278	14667
869.408	14537
869.539	14560
869.669	14602
869.799	14590
869.929	14750
870.06	14568
870.19	14956
870.32	14956
870.45	14876
870.58	15032
870.71	15089
870.84	15005
870.97	14929
871.1	14982
871.23	15131
871.36	15226
871.489	15039
871.619	15207
871.749	15241
871.879	15097
872.008	15184
872.138	15169
872.267	15211
872.397	14994
872.526	15039
872.656	15028
872.785	14979
872.915	15237
873.044	15218
873.173	15192
873.303	15104
873.432	15192
873.561	15302
873.69	15211
873.819	15161
873.948	15351
874.077	15218
874.206	15226
874.335	15199
874.464	15275
874.593	15538
874.722	15477
874.851	15564
874.979	15564
875.108	15477
875.237	15428
875.365	15431
875.494	15519
875.623	15576
875.751	15568
875.88	15450
876.008	15633
876.136	15694
876.265	15922
876.393	16048
876.521	15922
876.65	15953
876.778	15918
876.906	15827
877.034	15937
877.162	15895
877.29	15884
877.418	15907
877.546	15915
877.674	15835
877.802	15930
877.93	15899
878.058	15884
878.185	15831
878.313	15922
878.441	15979
878.568	15766
878.696	15937
878.824	15907
878.951	16013
879.079	16143
879.206	16360
879.333	16230
879.461	16002
879.588	16067
879.715	16219
879.842	16287
879.97	16101
880.097	15751
880.224	15797
880.351	15800
880.478	15797
880.605	15831
880.732	15770
880.859	16044
880.986	15789
881.112	15907
881.239	15648
881.366	15568
881.493	15485
881.619	15492
881.746	15405
881.872	15526
881.999	15416
882.125	15416
882.252	15515
882.378	15336
882.505	15580
882.631	15401
882.757	15287
882.883	15283
883.01	15279
883.136	15112
883.262	15074
883.388	15020
883.514	15226
883.64	15359
883.766	15233
883.892	15093
884.018	15142
884.143	15203
884.269	15431
884.395	15077
884.52	14830
884.646	15017
884.772	14906
884.897	14990
885.023	14918
885.148	15085
885.274	15199
885.399	15058
885.524	14925
885.65	14979
885.775	14986
885.9	14914
886.025	15104
886.15	14918
886.275	14952
886.4	14883
886.525	14918
886.65	14876
886.775	14971
886.9	15089
887.025	15180
887.149	15024
887.274	14838
887.399	14758
887.523	14765
887.648	14758
887.773	14697
887.897	14872
888.021	14876
888.146	14754
888.27	14883
888.395	14979
888.519	14853
888.643	14800
888.767	14811
888.891	14754
889.015	14579
889.139	14602
889.263	14621
889.387	14750
889.511	14876
889.635	14800
889.759	14663
889.883	14484
890.006	14674
890.13	14800
890.254	14568
890.377	14560
890.501	14358
890.624	14446
890.748	14606
890.871	14351
890.995	14290
891.118	14164
891.241	14328
891.364	14324
891.488	14381
891.611	14298
891.734	14362
891.857	14351
891.98	14332
892.103	14457
892.226	14343
892.349	14370
892.471	14317
892.594	14229
892.717	14317
892.839	14286
892.962	14244
893.085	14396
893.207	14393
893.33	14218
893.452	14214
893.575	14366
893.697	14370
893.819	14488
893.941	14545
894.064	14415
894.186	14240
894.308	14271
894.43	14454
894.552	14537
894.674	14454
894.796	14199
894.918	14503
895.04	14450
895.161	14473
895.283	14488
895.405	14400
895.526	14393
895.648	14393
895.769	14404
895.891	14564
896.012	14427
896.134	14465
896.255	14457
896.376	14355
896.498	14537
896.619	14655
896.74	14484
896.861	14476
896.982	14838
897.103	14880
897.224	14762
897.345	14727
897.466	14644
897.587	14739
897.708	14853
897.828	14830
897.949	14731
898.07	14708
898.19	14800
898.311	14880
898.431	14792
898.552	14887
898.672	14918
898.792	14845
898.913	14937
899.033	14735
899.153	14689
899.273	14663
899.393	14746
899.513	14705
899.633	14682
899.753	14746
899.873	14541
899.993	14739
900.113	14625
900.232	14765
900.352	14644
900.472	14689
900.591	14549
900.711	14465
900.83	14541
900.95	14629
901.069	14689
901.189	14495
901.308	14267
901.427	14145
901.546	14229
901.665	14301
901.784	14290
901.904	14119
902.023	14084
902.141	13753
902.26	13761
902.379	13875
902.498	13887
902.617	13753
902.735	13761
902.854	13769
902.973	13696
903.091	13556
903.21	13483
903.328	13529
903.446	13419
903.565	13316
903.683	13377
903.801	13187
903.919	13373
904.038	13339
904.156	13240
904.274	13346
904.392	13160
904.51	13209
904.627	13088
904.745	13316
904.863	13236
904.981	12966
905.098	12954
905.216	12886
905.334	12821
905.451	12848
905.569	12939
905.686	12958
905.803	12909
905.921	12738
906.038	12730
906.155	12753
906.272	12547
906.389	12612
906.506	12437
906.623	12475
906.74	12433
906.857	12357
906.974	12460
907.091	12540
907.208	12616
907.324	12521
907.441	12346
907.557	12304
907.674	12216
907.79	12133
907.907	12190
908.023	12216
908.139	12178
908.256	12178
908.372	12136
908.488	12114
908.604	12026
908.72	11889
908.836	11969
908.952	11965
909.068	11992
909.184	12136
909.3	11958
909.415	11973
909.531	12026
909.647	11786
909.762	11745
909.878	11668
909.993	11786
910.108	11745
910.224	11642
910.339	11710
910.454	11649
910.57	11623
910.685	11509
910.8	11809
910.915	11752
911.03	11611
911.145	11452
911.259	11387
911.374	11353
911.489	11337
911.604	11296
911.718	11174
911.833	11223
911.947	11064
912.062	10968
912.176	11189
912.291	11159
912.405	11113
912.519	11376
912.633	11360
912.748	11239
912.862	11189
912.976	11052
913.09	10946
913.204	11014
913.318	11045
913.431	11151
913.545	11136
913.659	11121
913.772	11033
913.886	10968
914	10949
914.113	10889
914.226	11132
914.34	10930
914.453	10778
914.566	10984
914.68	10839
914.793	10828
914.906	10691
915.019	10653
915.132	10588
915.245	10660
915.358	10694
915.47	10656
915.583	10710
915.696	10790
915.809	10820
915.921	10790
916.034	10725
916.146	10649
916.259	10599
916.371	10691
916.483	10660
916.595	10561
916.708	10573
916.82	10588
916.932	10584
917.044	10588
917.156	10504
917.268	10470
917.38	10478
917.491	10474
917.603	10538
917.715	10599
917.826	10641
917.938	10493
918.049	10356
918.161	10577
918.272	10664
918.384	10580
918.495	10558
918.606	10367
918.717	10200
918.828	10314
918.939	10402
919.05	10287
919.161	10322
919.272	10192
919.383	10177
919.494	10470
919.604	10588
919.715	10466
919.826	10230
919.936	10371
920.047	10424
920.157	10344
920.267	10615
920.378	10367
920.488	10451
920.598	10611
920.708	10672
920.818	10554
920.928	10626
921.038	10714
921.148	10725
921.258	10447
921.368	10318
921.477	10265
921.587	10261
921.697	10124
921.806	10371
921.916	10112
922.025	9991
922.134	9960
922.244	9861
922.353	9934
922.462	9846
922.571	9808
922.68	9629
922.789	9610
922.898	9561
923.007	9542
923.116	9656
923.224	9618
923.333	9648
923.442	9485
923.55	9492
923.659	9523
923.767	9625
923.876	9496
923.984	9584
924.092	9447
924.201	9504
924.309	9481
924.417	9485
924.525	9393
924.633	9534
924.741	10379
924.849	9253
924.956	9389
925.064	9230
925.172	9150
925.279	9218
925.387	9344
925.494	9256
925.602	9340
925.709	9321
925.816	9150
925.924	9283
926.031	9329
926.138	9264
926.245	9355
926.352	9207
926.459	9260
926.566	9348
926.673	9298
926.779	9077
926.886	9161
926.993	8944
927.099	9005
927.206	9001
927.312	8948
927.419	9024
927.525	9005
927.631	9001
927.737	8929
927.843	8918
927.95	8838
928.056	8906
928.162	8887
928.267	8948
928.373	9504
928.479	8963
928.585	8705
928.69	8857
928.796	8872
928.901	8769
929.007	8625
929.112	8788
929.218	8826
929.323	8739
929.428	8766
929.533	8868
929.638	8617
929.743	8682
929.848	8716
929.953	8670
930.058	8625
930.163	8431
930.267	8431
930.372	8598
930.477	8362
930.581	8670
930.685	8568
930.79	8408
930.894	8423
930.998	8438
931.103	8507
931.207	8199
931.311	8145
931.415	8039
931.519	7898
931.623	7890
