Data from test_V78500241_2105.txt Node
Date: Fri Mar 25 14:48:22 CST 2022
User: usil
Spectrometer: V785-0024
Trigger mode: 0
Integration Time (sec): 4.000000E-1
Scans to average: 1
Nonlinearity correction enabled: false
Boxcar width: 0
Storing dark spectrum: false
XAxis mode: Wavelengths
Number of Pixels in Spectrum: 1024
>>>>>Begin Spectral Data<<<<<
801.071	22173
801.214	22074
801.356	21800
801.499	21709
801.641	21549
801.783	21538
801.926	21507
802.068	21340
802.211	21416
802.353	21252
802.496	21100
802.638	21051
802.78	20895
802.923	20811
803.065	20708
803.208	20845
803.35	20937
803.492	20963
803.635	20921
803.777	20891
803.919	20960
804.061	21272
804.204	20868
804.346	20785
804.488	20731
804.63	20746
804.773	20670
804.915	20788
805.057	20811
805.199	20800
805.341	20758
805.483	20872
805.626	20781
805.768	20655
805.91	20670
806.052	20823
806.194	20731
806.336	20781
806.478	20590
806.62	20746
806.762	20811
806.904	21028
807.046	21260
807.188	21195
807.33	21100
807.472	21135
807.614	21085
807.756	20998
807.898	20823
808.04	20872
808.182	20800
808.324	20918
808.465	20872
808.607	21051
808.749	21146
808.891	21389
809.033	21336
809.174	21241
809.316	21119
809.458	21142
809.6	21135
809.741	21051
809.883	21135
810.025	21367
810.166	21291
810.308	21203
810.45	21264
810.591	21207
810.733	21127
810.875	20925
811.016	20785
811.158	20830
811.299	20925
811.441	20994
811.582	21005
811.724	20872
811.865	20891
812.007	20785
812.148	20906
812.29	20998
812.431	20982
812.573	21116
812.714	21336
812.855	21325
812.997	21542
813.138	21671
813.279	21401
813.421	21313
813.562	21321
813.703	21089
813.845	21036
813.986	20765
814.127	20655
814.268	20400
814.41	20602
814.551	20480
814.692	20575
814.833	20278
814.974	20415
815.115	20507
815.256	20210
815.397	20195
815.539	20271
815.68	20130
815.821	20115
815.962	20180
816.103	20096
816.244	20107
816.385	19826
816.526	19883
816.666	19769
816.807	19582
816.948	19677
817.089	19681
817.23	19586
817.371	19639
817.512	19571
817.653	19556
817.793	19510
817.934	19518
818.075	19609
818.216	19594
818.356	19575
818.497	19354
818.638	19145
818.778	19221
818.919	19255
819.06	19263
819.2	19396
819.341	19358
819.481	19430
819.622	19715
819.762	19677
819.903	19719
820.043	19639
820.184	19510
820.324	19613
820.465	19620
820.605	19445
820.746	19666
820.886	19289
821.026	19480
821.167	19403
821.307	19514
821.447	19434
821.588	19304
821.728	19274
821.868	19126
822.008	18970
822.149	18989
822.289	18966
822.429	18768
822.569	18681
822.709	18601
822.849	18448
822.99	18441
823.13	18376
823.27	18289
823.41	18262
823.55	18342
823.69	18296
823.83	18289
823.97	18220
824.11	18072
824.25	17958
824.389	18053
824.529	18178
824.669	18011
824.809	18102
824.949	18121
825.089	18060
825.228	18019
825.368	17855
825.508	17748
825.648	17889
825.787	17863
825.927	17863
826.067	17912
826.206	17668
826.346	17840
826.485	17836
826.625	17794
826.765	17851
826.904	17874
827.044	17478
827.183	17539
827.323	17360
827.462	17532
827.601	17509
827.741	17501
827.88	17554
828.02	17360
828.159	17554
828.298	17490
828.437	17520
828.577	17474
828.716	17672
828.855	17425
828.994	17337
829.134	17341
829.273	17280
829.412	17143
829.551	17220
829.69	17162
829.829	17284
829.968	17429
830.107	17269
830.246	17311
830.385	17273
830.524	17121
830.663	17067
830.802	16984
830.941	16881
831.08	16915
831.219	16896
831.357	16896
831.496	17170
831.635	16869
831.774	16752
831.913	16881
832.051	16672
832.19	16599
832.329	16649
832.467	16599
832.606	16493
832.744	16489
832.883	16538
833.022	16561
833.16	16523
833.299	16641
833.437	16721
833.576	16634
833.714	16592
833.852	16584
833.991	16641
834.129	16706
834.267	16630
834.406	16622
834.544	16618
834.682	16626
834.821	16577
834.959	16675
835.097	16535
835.235	16637
835.373	16611
835.511	16706
835.65	16573
835.788	16459
835.926	16276
836.064	16329
836.202	16322
836.34	16527
836.478	16637
836.615	16546
836.753	16462
836.891	16691
837.029	16569
837.167	16561
837.305	16459
837.443	16451
837.58	16390
837.718	16333
837.856	16344
837.993	16417
838.131	16318
838.269	16276
838.406	16325
838.544	16314
838.681	16112
838.819	16116
838.956	15937
839.094	15880
839.231	16059
839.369	16059
839.506	16249
839.643	16116
839.781	15975
839.918	15915
840.055	15968
840.193	15907
840.33	15972
840.467	15953
840.604	15994
840.742	16158
840.879	15823
841.016	15876
841.153	15918
841.29	16093
841.427	15949
841.564	15953
841.701	15899
841.838	15884
841.975	15846
842.112	15857
842.249	15728
842.385	15701
842.522	15922
842.659	15766
842.796	15671
842.933	15656
843.069	15701
843.206	15599
843.343	15827
843.479	15701
843.616	15720
843.752	15450
843.889	15526
844.025	15682
844.162	15504
844.298	15496
844.435	15450
844.571	15496
844.708	15553
844.844	15656
844.98	15519
845.117	15755
845.253	15386
845.389	15450
845.525	15367
845.661	15401
845.798	15272
845.934	15435
846.07	15329
846.206	15481
846.342	15393
846.478	15344
846.614	15081
846.75	15020
846.886	15089
847.022	15108
847.158	14982
847.294	15150
847.429	15135
847.565	15070
847.701	15389
847.837	14891
847.972	14906
848.108	14899
848.244	14887
848.379	14769
848.515	14701
848.65	14701
848.786	14735
848.921	14659
849.057	14735
849.192	14758
849.328	14670
849.463	14693
849.598	14617
849.734	14610
849.869	14488
850.004	14465
850.14	14389
850.275	14476
850.41	14431
850.545	14412
850.68	14400
850.815	14412
850.95	14377
851.085	14678
851.22	14541
851.355	14423
851.49	14412
851.625	14355
851.76	14377
851.895	14347
852.03	14358
852.165	14450
852.299	14434
852.434	14480
852.569	14484
852.703	14450
852.838	14571
852.973	14617
853.107	14552
853.242	14396
853.376	14305
853.511	14214
853.645	14294
853.78	14423
853.914	14358
854.048	14385
854.183	14271
854.317	14415
854.451	14530
854.585	14313
854.72	14343
854.854	14385
854.988	14221
855.122	14259
855.256	14123
855.39	14218
855.524	14393
855.658	14366
855.792	14286
855.926	14339
856.06	14358
856.194	14457
856.327	14271
856.461	14180
856.595	14221
856.729	14301
856.862	14408
856.996	14180
857.13	14374
857.263	14415
857.397	14469
857.53	14275
857.664	14271
857.797	14358
857.931	14389
858.064	14320
858.197	14339
858.331	14286
858.464	14202
858.597	14168
858.731	14221
858.864	14294
858.997	14374
859.13	14305
859.263	14347
859.396	14328
859.529	14290
859.662	14282
859.795	14320
859.928	14309
860.061	14503
860.194	14575
860.327	14343
860.46	14252
860.592	14495
860.725	14446
860.858	14362
860.99	14259
861.123	14305
861.256	14172
861.388	14305
861.521	14834
861.653	14176
861.786	14119
861.918	14130
862.05	14172
862.183	14229
862.315	14298
862.447	14374
862.58	14343
862.712	14062
862.844	13959
862.976	14164
863.108	14096
863.24	14370
863.372	14008
863.504	14142
863.636	14138
863.768	14161
863.9	14084
864.032	13947
864.164	14016
864.296	14123
864.428	14317
864.559	14229
864.691	14043
864.823	14092
864.954	14077
865.086	14244
865.217	14123
865.349	13947
865.48	14107
865.612	14115
865.743	14111
865.875	14100
866.006	14027
866.137	14134
866.269	14069
866.4	14073
866.531	14012
866.662	13955
866.793	13986
866.924	14088
867.055	14008
867.186	14134
867.317	14092
867.448	13997
867.579	14092
867.71	13944
867.841	14077
867.972	14115
868.103	14062
868.233	14088
868.364	14027
868.495	14202
868.625	14229
868.756	14412
868.886	14336
869.017	14244
869.147	14412
869.278	14545
869.408	14339
869.539	14317
869.669	14404
869.799	14343
869.929	14431
870.06	14450
870.19	14610
870.32	14621
870.45	14678
870.58	14800
870.71	14819
870.84	14826
870.97	14678
871.1	14712
871.23	14895
871.36	14785
871.489	14811
871.619	14895
871.749	14960
871.879	14937
872.008	14975
872.138	14948
872.267	14830
872.397	14788
872.526	14800
872.656	14727
872.785	14788
872.915	14861
873.044	14963
873.173	15089
873.303	14960
873.432	15028
873.561	15009
873.69	15043
873.819	14921
873.948	15043
874.077	15024
874.206	14895
874.335	14952
874.464	15207
874.593	15203
874.722	15252
874.851	15310
874.979	15325
875.108	15374
875.237	15256
875.365	15237
875.494	15233
875.623	15363
875.751	15283
875.88	15351
876.008	15450
876.136	15416
876.265	15720
876.393	15785
876.521	15808
876.65	15728
876.778	15785
876.906	15679
877.034	15622
877.162	15736
877.29	15660
877.418	15656
877.546	15720
877.674	15724
877.802	15686
877.93	15633
878.058	15641
878.185	15576
878.313	15633
878.441	15652
878.568	15603
878.696	15610
878.824	15846
878.951	15755
879.079	15945
879.206	16078
879.333	15880
879.461	15724
879.588	15671
879.715	15903
879.842	15987
879.97	15686
880.097	15500
880.224	15599
880.351	15485
880.478	15576
880.605	15580
880.732	15481
880.859	15739
880.986	15519
881.112	15606
881.239	15542
881.366	15329
881.493	15405
881.619	15161
881.746	15245
881.872	15211
881.999	15218
882.125	15188
882.252	15268
882.378	15192
882.505	15359
882.631	15207
882.757	14929
882.883	15127
883.01	15028
883.136	15017
883.262	14902
883.388	14887
883.514	15085
883.64	15112
883.766	15032
883.892	14788
884.018	14872
884.143	15074
884.269	15192
884.395	14731
884.52	14613
884.646	14731
884.772	14629
884.897	14640
885.023	14830
885.148	14853
885.274	14838
885.399	14819
885.524	14689
885.65	14708
885.775	14788
885.9	14788
886.025	14849
886.15	14804
886.275	14644
886.4	14552
886.525	14670
886.65	14598
886.775	14530
886.9	14918
887.025	14861
887.149	14712
887.274	14629
887.399	14522
887.523	14488
887.648	14454
887.773	14480
887.897	14670
888.021	14655
888.146	14594
888.27	14716
888.395	14678
888.519	14602
888.643	14674
888.767	14636
888.891	14503
889.015	14400
889.139	14469
889.263	14362
889.387	14488
889.511	14678
889.635	14530
889.759	14454
889.883	14389
890.006	14438
890.13	14533
890.254	14343
890.377	14324
890.501	14206
890.624	14233
890.748	14286
890.871	14183
890.995	14027
891.118	14096
891.241	13989
891.364	14195
891.488	14240
891.611	14199
891.734	14126
891.857	14126
891.98	14180
892.103	14214
892.226	14199
892.349	14199
892.471	13947
892.594	14126
892.717	14142
892.839	14107
892.962	14123
893.085	14195
893.207	14221
893.33	14027
893.452	14016
893.575	14259
893.697	14054
893.819	14259
893.941	14351
894.064	14339
894.186	14081
894.308	14058
894.43	14199
894.552	14320
894.674	14282
894.796	14065
894.918	14077
895.04	14126
895.161	14309
895.283	14301
895.405	14153
895.526	14278
895.648	14282
895.769	14298
895.891	14290
896.012	14267
896.134	14324
896.255	14301
896.376	14313
896.498	14301
896.619	14317
896.74	14370
896.861	14336
896.982	14678
897.103	14785
897.224	14674
897.345	14495
897.466	14457
897.587	14514
897.708	14659
897.828	14602
897.949	14492
898.07	14469
898.19	14438
898.311	14655
898.431	14568
898.552	14659
898.672	14697
898.792	14720
898.913	14731
899.033	14541
899.153	14465
899.273	14454
899.393	14465
899.513	14579
899.633	14518
899.753	14469
899.873	14480
899.993	14560
900.113	14469
900.232	14564
900.352	14450
900.472	14362
900.591	14362
900.711	14358
900.83	14301
900.95	14434
901.069	14450
901.189	14229
901.308	14084
901.427	14005
901.546	13982
901.665	14027
901.784	14005
901.904	13864
902.023	13887
902.141	13681
902.26	13613
902.379	13742
902.498	13571
902.617	13499
902.735	13666
902.854	13578
902.973	13601
903.091	13228
903.21	13285
903.328	13354
903.446	13316
903.565	13145
903.683	13145
903.801	13019
903.919	12985
904.038	13149
904.156	13004
904.274	13069
904.392	12894
904.51	12962
904.627	12932
904.745	13004
904.863	12996
904.981	12776
905.098	12673
905.216	12707
905.334	12730
905.451	12684
905.569	12506
905.686	12711
905.803	12654
905.921	12532
906.038	12719
906.155	12471
906.272	12467
906.389	12372
906.506	12254
906.623	12239
906.74	12262
906.857	12114
906.974	12251
907.091	12273
907.208	12330
907.324	12361
907.441	12220
907.557	12163
907.674	12068
907.79	12011
907.907	12007
908.023	12034
908.139	12011
908.256	12045
908.372	11958
908.488	11866
908.604	11790
908.72	11718
908.836	11821
908.952	11798
909.068	11824
909.184	11897
909.3	11722
909.415	11840
909.531	11832
909.647	11429
909.762	11558
909.878	11512
909.993	11562
910.108	11512
910.224	11539
910.339	11524
910.454	11486
910.57	11387
910.685	11299
910.8	11615
910.915	11554
911.03	11383
911.145	11201
911.259	11265
911.374	11315
911.489	11181
911.604	11132
911.718	10976
911.833	11041
911.947	10919
912.062	10782
912.176	11048
912.291	10991
912.405	11022
912.519	11151
912.633	11166
912.748	11105
912.862	11003
912.976	10915
913.09	10763
913.204	10828
913.318	10911
913.431	10961
913.545	10923
913.659	10923
913.772	10885
913.886	10778
914	10702
914.113	10831
914.226	10877
914.34	10885
914.453	10706
914.566	10809
914.68	10714
914.793	10691
914.906	10546
915.019	10516
915.132	10428
915.245	10523
915.358	10546
915.47	10500
915.583	10615
915.696	10527
915.809	10714
915.921	10706
916.034	10402
916.146	10443
916.259	10500
916.371	10489
916.483	10531
916.595	10314
916.708	10466
916.82	10481
916.932	10512
917.044	10409
917.156	10451
917.268	10295
917.38	10303
917.491	10322
917.603	10382
917.715	10428
917.826	10470
917.938	10322
918.049	10181
918.161	10344
918.272	10443
918.384	10504
918.495	10386
918.606	10223
918.717	10150
918.828	10200
918.939	10166
919.05	10181
919.161	10196
919.272	10048
919.383	10029
919.494	10261
919.604	10432
919.715	10261
919.826	10139
919.936	10272
920.047	10356
920.157	10215
920.267	10508
920.378	10246
920.488	10211
920.598	10386
920.708	10580
920.818	10436
920.928	10413
921.038	10637
921.148	10493
921.258	10322
921.368	10200
921.477	10109
921.587	10074
921.697	9934
921.806	10116
921.916	9998
922.025	9835
922.134	9781
922.244	9770
922.353	9835
922.462	9686
922.571	9614
922.68	9481
922.789	9485
922.898	9500
923.007	9431
923.116	9507
923.224	9473
923.333	9458
923.442	9435
923.55	9412
923.659	9389
923.767	9408
923.876	9329
923.984	9386
924.092	9302
924.201	9351
924.309	9298
924.417	9374
924.525	9287
924.633	9272
924.741	10253
924.849	9138
924.956	9253
925.064	9161
925.172	9077
925.279	9100
925.387	9222
925.494	9154
925.602	9294
925.709	9256
925.816	9074
925.924	9119
926.031	9241
926.138	9150
926.245	9150
926.352	9089
926.459	9180
926.566	9226
926.673	9036
926.779	8948
926.886	8982
926.993	8902
927.099	8811
927.206	8845
927.312	8826
927.419	8937
927.525	8857
927.631	8933
927.737	8800
927.843	8743
927.95	8651
928.056	8773
928.162	8708
928.267	8857
928.373	9401
928.479	8864
928.585	8587
928.69	8758
928.796	8826
928.901	8594
929.007	8438
929.112	8670
929.218	8655
929.323	8560
929.428	8526
929.533	8602
929.638	8545
929.743	8568
929.848	8602
929.953	8594
930.058	8492
930.163	8366
930.267	8317
930.372	8541
930.477	8294
930.581	8629
930.685	8389
930.79	8324
930.894	8298
930.998	8275
931.103	8374
931.207	8115
931.311	8069
931.415	7982
931.519	7811
931.623	7814
