Data from test_V78500241_2031.txt Node
Date: Fri Mar 25 14:47:51 CST 2022
User: usil
Spectrometer: V785-0024
Trigger mode: 0
Integration Time (sec): 4.000000E-1
Scans to average: 1
Nonlinearity correction enabled: false
Boxcar width: 0
Storing dark spectrum: false
XAxis mode: Wavelengths
Number of Pixels in Spectrum: 1024
>>>>>Begin Spectral Data<<<<<
801.071	22150
801.214	21979
801.356	21778
801.499	21679
801.641	21515
801.783	21462
801.926	21450
802.068	21389
802.211	21412
802.353	21192
802.496	21017
802.638	20956
802.78	20849
802.923	20887
803.065	20807
803.208	20796
803.35	20826
803.492	20838
803.635	20864
803.777	20849
803.919	20868
804.061	21211
804.204	20712
804.346	20834
804.488	20682
804.63	20693
804.773	20609
804.915	20765
805.057	20891
805.199	20644
805.341	20781
805.483	20952
805.626	20815
805.768	20716
805.91	20777
806.052	20724
806.194	20606
806.336	20849
806.478	20712
806.62	20644
806.762	20750
806.904	20967
807.046	21135
807.188	21116
807.33	21032
807.472	21154
807.614	21062
807.756	20998
807.898	20781
808.04	20686
808.182	20762
808.324	20883
808.465	20899
808.607	21009
808.749	21127
808.891	21169
809.033	21325
809.174	21112
809.316	21138
809.458	21043
809.6	21036
809.741	21154
809.883	21211
810.025	21348
810.166	21298
810.308	21272
810.45	21249
810.591	21173
810.733	21047
810.875	20918
811.016	20891
811.158	20686
811.299	20941
811.441	21096
811.582	20861
811.724	20868
811.865	20826
812.007	20826
812.148	20902
812.29	20887
812.431	21051
812.573	21093
812.714	21249
812.855	21401
812.997	21450
813.138	21568
813.279	21496
813.421	21306
813.562	21370
813.703	21085
813.845	21085
813.986	20785
814.127	20587
814.268	20415
814.41	20366
814.551	20423
814.692	20465
814.833	20396
814.974	20415
815.115	20389
815.256	20229
815.397	20248
815.539	20248
815.68	20126
815.821	20046
815.962	20229
816.103	20168
816.244	20027
816.385	20005
816.526	19818
816.666	19689
816.807	19700
816.948	19556
817.089	19708
817.23	19639
817.371	19483
817.512	19670
817.653	19643
817.793	19445
817.934	19620
818.075	19643
818.216	19643
818.356	19495
818.497	19426
818.638	19236
818.778	19259
818.919	19266
819.06	19091
819.2	19384
819.341	19392
819.481	19468
819.622	19567
819.762	19746
819.903	19723
820.043	19613
820.184	19502
820.324	19552
820.465	19685
820.605	19597
820.746	19529
820.886	19377
821.026	19556
821.167	19453
821.307	19597
821.447	19571
821.588	19354
821.728	19381
821.868	19069
822.008	18901
822.149	18996
822.289	18859
822.429	18601
822.569	18661
822.709	18566
822.849	18319
822.99	18467
823.13	18479
823.27	18433
823.41	18152
823.55	18174
823.69	18273
823.83	18235
823.97	18262
824.11	18064
824.25	18045
824.389	17984
824.529	18121
824.669	17999
824.809	18133
824.949	18155
825.089	18083
825.228	18068
825.368	17737
825.508	17771
825.648	17863
825.787	17866
825.927	17786
826.067	17805
826.206	17817
826.346	17786
826.485	17783
826.625	17802
826.765	17973
826.904	17859
827.044	17653
827.183	17642
827.323	17459
827.462	17558
827.601	17493
827.741	17459
827.88	17493
828.02	17368
828.159	17387
828.298	17406
828.437	17535
828.577	17334
828.716	17520
828.855	17425
828.994	17322
829.134	17246
829.273	17307
829.412	17204
829.551	17208
829.69	17288
829.829	17299
829.968	17341
830.107	17322
830.246	17299
830.385	17254
830.524	17102
830.663	17113
830.802	16949
830.941	16869
831.08	16877
831.219	16957
831.357	16850
831.496	17083
831.635	16915
831.774	16752
831.913	16797
832.051	16691
832.19	16656
832.329	16763
832.467	16630
832.606	16508
832.744	16584
832.883	16599
833.022	16561
833.16	16546
833.299	16592
833.437	16607
833.576	16573
833.714	16683
833.852	16664
833.991	16656
834.129	16672
834.267	16721
834.406	16577
834.544	16729
834.682	16607
834.821	16596
834.959	16771
835.097	16500
835.235	16694
835.373	16725
835.511	16565
835.65	16569
835.788	16504
835.926	16360
836.064	16329
836.202	16272
836.34	16485
836.478	16721
836.615	16573
836.753	16580
836.891	16656
837.029	16538
837.167	16382
837.305	16462
837.443	16409
837.58	16386
837.718	16497
837.856	16421
837.993	16367
838.131	16538
838.269	16413
838.406	16272
838.544	16314
838.681	16032
838.819	16135
838.956	15991
839.094	15994
839.231	15953
839.369	16086
839.506	16375
839.643	16223
839.781	16017
839.918	15979
840.055	16013
840.193	16036
840.33	15930
840.467	15975
840.604	16048
840.742	16211
840.879	15838
841.016	15895
841.153	15819
841.29	16055
841.427	16021
841.564	16032
841.701	15964
841.838	15880
841.975	15907
842.112	15850
842.249	15747
842.385	15762
842.522	15964
842.659	15701
842.796	15682
842.933	15774
843.069	15625
843.206	15660
843.343	15804
843.479	15850
843.616	15778
843.752	15557
843.889	15496
844.025	15618
844.162	15549
844.298	15656
844.435	15469
844.571	15416
844.708	15523
844.844	15690
844.98	15667
845.117	15705
845.253	15450
845.389	15355
845.525	15389
845.661	15450
845.798	15268
845.934	15401
846.07	15310
846.206	15237
846.342	15348
846.478	15279
846.614	15112
846.75	15055
846.886	15062
847.022	15195
847.158	15146
847.294	15169
847.429	15077
847.565	15066
847.701	15412
847.837	14815
847.972	14792
848.108	14891
848.244	14902
848.379	14682
848.515	14731
848.65	14575
848.786	14735
848.921	14731
849.057	14773
849.192	14773
849.328	14739
849.463	14762
849.598	14640
849.734	14575
849.869	14484
850.004	14454
850.14	14412
850.275	14431
850.41	14400
850.545	14343
850.68	14408
850.815	14450
850.95	14355
851.085	14587
851.22	14393
851.355	14503
851.49	14476
851.625	14343
851.76	14457
851.895	14370
852.03	14454
852.165	14438
852.299	14442
852.434	14446
852.569	14469
852.703	14488
852.838	14560
852.973	14640
853.107	14663
853.242	14408
853.376	14339
853.511	14267
853.645	14328
853.78	14408
853.914	14343
854.048	14278
854.183	14298
854.317	14328
854.451	14507
854.585	14404
854.72	14225
854.854	14415
854.988	14237
855.122	14290
855.256	14157
855.39	14336
855.524	14385
855.658	14328
855.792	14305
855.926	14408
856.06	14427
856.194	14301
856.327	14294
856.461	14332
856.595	14324
856.729	14233
856.862	14309
856.996	14332
857.13	14336
857.263	14522
857.397	14442
857.53	14339
857.664	14347
857.797	14370
857.931	14457
858.064	14377
858.197	14476
858.331	14240
858.464	14275
858.597	14240
858.731	14259
858.864	14233
858.997	14244
859.13	14286
859.263	14473
859.396	14370
859.529	14282
859.662	14263
859.795	14206
859.928	14400
860.061	14457
860.194	14423
860.327	14355
860.46	14393
860.592	14412
860.725	14385
860.858	14450
860.99	14301
861.123	14271
861.256	14244
861.388	14313
861.521	14967
861.653	14309
861.786	14126
861.918	14180
862.05	14210
862.183	14172
862.315	14233
862.447	14393
862.58	14263
862.712	14100
862.844	14119
862.976	14164
863.108	14145
863.24	14499
863.372	14062
863.504	14069
863.636	14130
863.768	14164
863.9	14130
864.032	14001
864.164	14077
864.296	14123
864.428	14263
864.559	14195
864.691	14145
864.823	14183
864.954	14088
865.086	14043
865.217	14123
865.349	14035
865.48	14115
865.612	14092
865.743	14267
865.875	14069
866.006	14081
866.137	14065
866.269	14077
866.4	14111
866.531	14035
866.662	14100
866.793	14050
866.924	14054
867.055	14016
867.186	14115
867.317	14134
867.448	13940
867.579	13940
867.71	14039
867.841	14016
867.972	14043
868.103	14069
868.233	14088
868.364	14065
868.495	14221
868.625	14374
868.756	14465
868.886	14244
869.017	14381
869.147	14495
869.278	14473
869.408	14328
869.539	14294
869.669	14434
869.799	14317
869.929	14415
870.06	14533
870.19	14686
870.32	14663
870.45	14682
870.58	14777
870.71	14815
870.84	14906
870.97	14727
871.1	14678
871.23	14899
871.36	14849
871.489	14758
871.619	14975
871.749	14914
871.879	15024
872.008	15013
872.138	15017
872.267	14906
872.397	14804
872.526	14762
872.656	14758
872.785	14731
872.915	14967
873.044	14982
873.173	14979
873.303	14944
873.432	15043
873.561	15081
873.69	14971
873.819	14998
873.948	15085
874.077	15020
874.206	14963
874.335	14967
874.464	15089
874.593	15226
874.722	15169
874.851	15321
874.979	15329
875.108	15256
875.237	15252
875.365	15203
875.494	15291
875.623	15351
875.751	15260
875.88	15325
876.008	15450
876.136	15507
876.265	15675
876.393	15827
876.521	15953
876.65	15781
876.778	15739
876.906	15671
877.034	15614
877.162	15690
877.29	15736
877.418	15709
877.546	15713
877.674	15808
877.802	15709
877.93	15736
878.058	15739
878.185	15519
878.313	15732
878.441	15671
878.568	15534
878.696	15682
878.824	15743
878.951	15755
879.079	15808
879.206	15960
879.333	15968
879.461	15797
879.588	15816
879.715	15827
879.842	15979
879.97	15793
880.097	15663
880.224	15553
880.351	15553
880.478	15469
880.605	15534
880.732	15568
880.859	15812
880.986	15500
881.112	15496
881.239	15496
881.366	15408
881.493	15256
881.619	15173
881.746	15226
881.872	15222
881.999	15123
882.125	15203
882.252	15241
882.378	15119
882.505	15363
882.631	15150
882.757	14982
882.883	15108
883.01	14986
883.136	14944
883.262	14876
883.388	14883
883.514	14986
883.64	15146
883.766	14982
883.892	14819
884.018	14941
884.143	15119
884.269	15116
884.395	14811
884.52	14682
884.646	14739
884.772	14617
884.897	14621
885.023	14739
885.148	14849
885.274	14880
885.399	14785
885.524	14731
885.65	14708
885.775	14834
885.9	14720
886.025	14804
886.15	14788
886.275	14613
886.4	14621
886.525	14640
886.65	14678
886.775	14648
886.9	14872
887.025	14982
887.149	14807
887.274	14594
887.399	14488
887.523	14530
887.648	14499
887.773	14404
887.897	14629
888.021	14613
888.146	14632
888.27	14629
888.395	14693
888.519	14632
888.643	14621
888.767	14537
888.891	14560
889.015	14438
889.139	14522
889.263	14427
889.387	14522
889.511	14552
889.635	14434
889.759	14450
889.883	14431
890.006	14492
890.13	14507
890.254	14366
890.377	14465
890.501	14298
890.624	14134
890.748	14298
890.871	14161
890.995	13982
891.118	14039
891.241	14123
891.364	14153
891.488	14149
891.611	14126
891.734	14103
891.857	14229
891.98	14199
892.103	14252
892.226	14153
892.349	14096
892.471	13963
892.594	14100
892.717	14225
892.839	14065
892.962	14111
893.085	14172
893.207	14149
893.33	13894
893.452	14073
893.575	14206
893.697	14107
893.819	14320
893.941	14377
894.064	14324
894.186	14164
894.308	14039
894.43	14298
894.552	14351
894.674	14267
894.796	14084
894.918	14126
895.04	14221
895.161	14328
895.283	14252
895.405	14237
895.526	14225
895.648	14199
895.769	14240
895.891	14305
896.012	14400
896.134	14309
896.255	14248
896.376	14290
896.498	14370
896.619	14358
896.74	14294
896.861	14469
896.982	14651
897.103	14838
897.224	14663
897.345	14488
897.466	14507
897.587	14533
897.708	14655
897.828	14587
897.949	14484
898.07	14518
898.19	14522
898.311	14727
898.431	14594
898.552	14655
898.672	14743
898.792	14708
898.913	14735
899.033	14602
899.153	14556
899.273	14389
899.393	14457
899.513	14541
899.633	14533
899.753	14556
899.873	14461
899.993	14450
900.113	14522
900.232	14511
900.352	14408
900.472	14457
900.591	14309
900.711	14385
900.83	14343
900.95	14469
901.069	14465
901.189	14313
901.308	14164
901.427	13959
901.546	14050
901.665	14145
901.784	14100
901.904	13868
902.023	13826
902.141	13700
902.26	13666
902.379	13830
902.498	13578
902.617	13548
902.735	13529
902.854	13601
902.973	13518
903.091	13282
903.21	13346
903.328	13289
903.446	13293
903.565	13251
903.683	13202
903.801	13050
903.919	13187
904.038	13057
904.156	13023
904.274	12989
904.392	12985
904.51	12939
904.627	12954
904.745	13042
904.863	13107
904.981	12745
905.098	12741
905.216	12722
905.334	12722
905.451	12684
905.569	12696
905.686	12730
905.803	12616
905.921	12403
906.038	12604
906.155	12551
906.272	12410
906.389	12388
906.506	12338
906.623	12292
906.74	12323
906.857	12228
906.974	12098
907.091	12346
907.208	12479
907.324	12422
907.441	12235
907.557	12007
907.674	12007
907.79	11950
907.907	12076
908.023	12038
908.139	12057
908.256	11870
908.372	11984
908.488	11980
908.604	11779
908.72	11710
908.836	11786
908.952	11722
909.068	11828
909.184	11832
909.3	11813
909.415	11889
909.531	11745
909.647	11581
909.762	11493
909.878	11619
909.993	11577
910.108	11524
910.224	11471
910.339	11562
910.454	11493
910.57	11391
910.685	11349
910.8	11577
910.915	11566
911.03	11490
911.145	11307
911.259	11197
911.374	11258
911.489	11197
911.604	11155
911.718	11018
911.833	11029
911.947	10923
912.062	10877
912.176	10942
912.291	10995
912.405	11010
912.519	11197
912.633	11254
912.748	11143
912.862	11037
912.976	10904
913.09	10702
913.204	10839
913.318	10877
913.431	10976
913.545	10972
913.659	10980
913.772	10968
913.886	10771
914	10801
914.113	10816
914.226	10904
914.34	10904
914.453	10824
914.566	10885
914.68	10702
914.793	10725
914.906	10550
915.019	10462
915.132	10390
915.245	10424
915.358	10538
915.47	10580
915.583	10523
915.696	10561
915.809	10649
915.921	10694
916.034	10561
916.146	10398
916.259	10470
916.371	10527
916.483	10527
916.595	10466
916.708	10440
916.82	10504
916.932	10398
917.044	10497
917.156	10455
917.268	10314
917.38	10379
917.491	10253
917.603	10314
917.715	10402
917.826	10440
917.938	10310
918.049	10223
918.161	10360
918.272	10466
918.384	10512
918.495	10417
918.606	10242
918.717	10154
918.828	10352
918.939	10234
919.05	10162
919.161	10234
919.272	9994
919.383	10090
919.494	10261
919.604	10402
919.715	10196
919.826	10116
919.936	10154
920.047	10325
920.157	10196
920.267	10443
920.378	10314
920.488	10272
920.598	10363
920.708	10668
920.818	10363
920.928	10382
921.038	10569
921.148	10573
921.258	10272
921.368	10204
921.477	10166
921.587	10135
921.697	9937
921.806	10169
921.916	9987
922.025	9857
922.134	9854
922.244	9793
922.353	9934
922.462	9663
922.571	9580
922.68	9454
922.789	9477
922.898	9507
923.007	9443
923.116	9466
923.224	9496
923.333	9450
923.442	9416
923.55	9302
923.659	9443
923.767	9485
923.876	9325
923.984	9382
924.092	9291
924.201	9408
924.309	9332
924.417	9348
924.525	9249
924.633	9283
924.741	10139
924.849	9142
924.956	9237
925.064	9192
925.172	9089
925.279	9024
925.387	9214
925.494	9047
925.602	9233
925.709	9222
925.816	9017
925.924	9154
926.031	9214
926.138	9154
926.245	9195
926.352	9104
926.459	9188
926.566	9184
926.673	9116
926.779	8994
926.886	8990
926.993	8918
927.099	8754
927.206	8804
927.312	8796
927.419	8891
927.525	8937
927.631	8887
927.737	8853
927.843	8804
927.95	8686
928.056	8712
928.162	8754
928.267	8788
928.373	9412
928.479	8826
928.585	8621
928.69	8705
928.796	8743
928.901	8651
929.007	8484
929.112	8731
929.218	8598
929.323	8648
929.428	8594
929.533	8693
929.638	8503
929.743	8537
929.848	8598
929.953	8530
930.058	8511
930.163	8339
930.267	8313
930.372	8461
930.477	8320
930.581	8488
930.685	8412
930.79	8225
930.894	8313
930.998	8313
931.103	8431
931.207	8077
931.311	8039
931.415	7993
931.519	7818
931.623	7814
