Data from test_V78500241_2640.txt Node
Date: Fri Mar 25 14:52:05 CST 2022
User: usil
Spectrometer: V785-0024
Trigger mode: 0
Integration Time (sec): 4.000000E-1
Scans to average: 1
Nonlinearity correction enabled: false
Boxcar width: 0
Storing dark spectrum: false
XAxis mode: Wavelengths
Number of Pixels in Spectrum: 1024
>>>>>Begin Spectral Data<<<<<
801.071	22025
801.214	21797
801.356	21519
801.499	21534
801.641	21283
801.783	21393
801.926	21393
802.068	21157
802.211	21249
802.353	21203
802.496	20861
802.638	20826
802.78	20773
802.923	20678
803.065	20648
803.208	20617
803.35	20552
803.492	20735
803.635	20864
803.777	20606
803.919	20773
804.061	20990
804.204	20792
804.346	20598
804.488	20594
804.63	20549
804.773	20537
804.915	20613
805.057	20629
805.199	20507
805.341	20697
805.483	20720
805.626	20629
805.768	20503
805.91	20651
806.052	20670
806.194	20431
806.336	20739
806.478	20530
806.62	20552
806.762	20541
806.904	20678
807.046	21100
807.188	20830
807.33	20883
807.472	21028
807.614	20712
807.756	20811
807.898	20606
808.04	20708
808.182	20659
808.324	20552
808.465	20758
808.607	20830
808.749	20883
808.891	21055
809.033	21039
809.174	20971
809.316	20963
809.458	20994
809.6	20937
809.741	21142
809.883	20979
810.025	21058
810.166	21165
810.308	21009
810.45	21005
810.591	20956
810.733	20807
810.875	20765
811.016	20667
811.158	20613
811.299	20724
811.441	20811
811.582	20807
811.724	20663
811.865	20655
812.007	20739
812.148	20598
812.29	20678
812.431	20960
812.573	21230
812.714	21180
812.855	21287
812.997	21249
813.138	21401
813.279	21230
813.421	21154
813.562	21165
813.703	21020
813.845	20929
813.986	20648
814.127	20362
814.268	20351
814.41	20370
814.551	20214
814.692	20438
814.833	20134
814.974	20122
815.115	20221
815.256	20100
815.397	20130
815.539	20096
815.68	19913
815.821	20035
815.962	20092
816.103	20035
816.244	19791
816.385	19803
816.526	19693
816.666	19571
816.807	19422
816.948	19529
817.089	19426
817.23	19384
817.371	19476
817.512	19392
817.653	19320
817.793	19289
817.934	19297
818.075	19354
818.216	19468
818.356	19320
818.497	19088
818.638	18958
818.778	18989
818.919	18989
819.06	19156
819.2	19247
819.341	19316
819.481	19232
819.622	19422
819.762	19525
819.903	19506
820.043	19476
820.184	19449
820.324	19335
820.465	19460
820.605	19441
820.746	19369
820.886	19263
821.026	19396
821.167	19365
821.307	19346
821.447	19335
821.588	19259
821.728	19126
821.868	18958
822.008	18821
822.149	18741
822.289	18787
822.429	18532
822.569	18582
822.709	18536
822.849	18258
822.99	18334
823.13	18277
823.27	18308
823.41	18174
823.55	18060
823.69	18091
823.83	18026
823.97	17977
824.11	17870
824.25	17908
824.389	17859
824.529	17927
824.669	17813
824.809	17999
824.949	17859
825.089	17855
825.228	17882
825.368	17767
825.508	17699
825.648	17661
825.787	17722
825.927	17691
826.067	17535
826.206	17649
826.346	17627
826.485	17729
826.625	17634
826.765	17722
826.904	17608
827.044	17448
827.183	17398
827.323	17258
827.462	17436
827.601	17360
827.741	17349
827.88	17250
828.02	17166
828.159	17322
828.298	17395
828.437	17387
828.577	17284
828.716	17482
828.855	17299
828.994	17090
829.134	17174
829.273	17117
829.412	17109
829.551	17083
829.69	17136
829.829	17140
829.968	17200
830.107	17140
830.246	17102
830.385	17003
830.524	16976
830.663	16923
830.802	16869
830.941	16706
831.08	16649
831.219	16664
831.357	16801
831.496	16892
831.635	16744
831.774	16694
831.913	16698
832.051	16516
832.19	16500
832.329	16599
832.467	16478
832.606	16390
832.744	16382
832.883	16421
833.022	16356
833.16	16390
833.299	16417
833.437	16535
833.576	16516
833.714	16474
833.852	16489
833.991	16523
834.129	16516
834.267	16519
834.406	16398
834.544	16478
834.682	16527
834.821	16485
834.959	16653
835.097	16436
835.235	16615
835.373	16508
835.511	16413
835.65	16413
835.788	16489
835.926	16204
836.064	16207
836.202	16162
836.34	16421
836.478	16538
836.615	16394
836.753	16440
836.891	16489
837.029	16451
837.167	16382
837.305	16287
837.443	16341
837.58	16219
837.718	16344
837.856	16265
837.993	16306
838.131	16192
838.269	16234
838.406	16253
838.544	16032
838.681	16021
838.819	15899
838.956	15857
839.094	15804
839.231	15804
839.369	15994
839.506	16196
839.643	16097
839.781	15823
839.918	15838
840.055	15838
840.193	15846
840.33	15816
840.467	15816
840.604	15895
840.742	16109
840.879	15648
841.016	15778
841.153	15812
841.29	15888
841.427	15899
841.564	15842
841.701	15819
841.838	15743
841.975	15724
842.112	15736
842.249	15720
842.385	15629
842.522	15869
842.659	15656
842.796	15610
842.933	15622
843.069	15561
843.206	15690
843.343	15728
843.479	15641
843.616	15679
843.752	15424
843.889	15359
844.025	15561
844.162	15340
844.298	15466
844.435	15386
844.571	15367
844.708	15481
844.844	15591
844.98	15496
845.117	15485
845.253	15367
845.389	15298
845.525	15298
845.661	15256
845.798	15165
845.934	15203
846.07	15192
846.206	15222
846.342	15298
846.478	15241
846.614	15077
846.75	14998
846.886	14960
847.022	15039
847.158	15062
847.294	14967
847.429	14998
847.565	14941
847.701	15165
847.837	14705
847.972	14701
848.108	14804
848.244	14765
848.379	14640
848.515	14594
848.65	14560
848.786	14613
848.921	14480
849.057	14693
849.192	14708
849.328	14583
849.463	14552
849.598	14514
849.734	14530
849.869	14423
850.004	14377
850.14	14377
850.275	14301
850.41	14282
850.545	14343
850.68	14358
850.815	14370
850.95	14259
851.085	14469
851.22	14461
851.355	14332
851.49	14408
851.625	14240
851.76	14351
851.895	14275
852.03	14187
852.165	14332
852.299	14336
852.434	14370
852.569	14339
852.703	14320
852.838	14396
852.973	14530
853.107	14476
853.242	14370
853.376	14256
853.511	14016
853.645	14096
853.78	14317
853.914	14229
854.048	14157
854.183	14130
854.317	14210
854.451	14351
854.585	14267
854.72	14176
854.854	14275
854.988	14111
855.122	14195
855.256	14035
855.39	14153
855.524	14301
855.658	14267
855.792	14157
855.926	14240
856.06	14286
856.194	14385
856.327	14199
856.461	14138
856.595	14130
856.729	14111
856.862	14294
856.996	14259
857.13	14309
857.263	14309
857.397	14301
857.53	14157
857.664	14202
857.797	14282
857.931	14328
858.064	14294
858.197	14290
858.331	14286
858.464	14176
858.597	14088
858.731	14202
858.864	14191
858.997	14244
859.13	14172
859.263	14180
859.396	14317
859.529	14221
859.662	14164
859.795	14229
859.928	14210
860.061	14362
860.194	14385
860.327	14202
860.46	14107
860.592	14412
860.725	14374
860.858	14385
860.99	14096
861.123	14065
861.256	14256
861.388	14256
861.521	14914
861.653	14054
861.786	14039
861.918	14088
862.05	14123
862.183	14199
862.315	14317
862.447	14252
862.58	14157
862.712	14005
862.844	13871
862.976	14134
863.108	14069
863.24	14522
863.372	13974
863.504	13982
863.636	14005
863.768	14103
863.9	13978
864.032	13978
864.164	14005
864.296	14031
864.428	14149
864.559	14069
864.691	14043
864.823	14058
864.954	13993
865.086	14054
865.217	13959
865.349	13963
865.48	13993
865.612	14100
865.743	14164
865.875	13997
866.006	13967
866.137	13955
866.269	13993
866.4	14062
866.531	13963
866.662	13909
866.793	13925
866.924	13959
867.055	13963
867.186	13932
867.317	13940
867.448	13883
867.579	13864
867.71	13791
867.841	13864
867.972	13913
868.103	13963
868.233	14012
868.364	13997
868.495	14058
868.625	14358
868.756	14313
868.886	14187
869.017	14161
869.147	14362
869.278	14301
869.408	14240
869.539	14256
869.669	14275
869.799	14218
869.929	14431
870.06	14282
870.19	14613
870.32	14530
870.45	14606
870.58	14667
870.71	14727
870.84	14769
870.97	14617
871.1	14568
871.23	14739
871.36	14868
871.489	14746
871.619	14777
871.749	14807
871.879	14902
872.008	14994
872.138	14788
872.267	14857
872.397	14731
872.526	14644
872.656	14773
872.785	14716
872.915	14899
873.044	15001
873.173	14960
873.303	14902
873.432	14918
873.561	14937
873.69	14956
873.819	14921
873.948	14899
874.077	14861
874.206	14853
874.335	14941
874.464	15108
874.593	15222
874.722	15081
874.851	15233
874.979	15237
875.108	15340
875.237	15226
875.365	15036
875.494	15192
875.623	15275
875.751	15237
875.88	15176
876.008	15424
876.136	15435
876.265	15682
876.393	15759
876.521	15610
876.65	15701
876.778	15755
876.906	15663
877.034	15637
877.162	15648
877.29	15500
877.418	15595
877.546	15603
877.674	15564
877.802	15614
877.93	15667
878.058	15622
878.185	15424
878.313	15641
878.441	15629
878.568	15462
878.696	15606
878.824	15629
878.951	15648
879.079	15804
879.206	15998
879.333	15770
879.461	15774
879.588	15686
879.715	15835
879.842	15979
879.97	15739
880.097	15435
880.224	15481
880.351	15545
880.478	15405
880.605	15420
880.732	15389
880.859	15698
880.986	15675
881.112	15549
881.239	15435
881.366	15275
881.493	15146
881.619	15119
881.746	15157
881.872	15176
881.999	15074
882.125	15104
882.252	15165
882.378	15157
882.505	15252
882.631	15100
882.757	14986
882.883	14994
883.01	14982
883.136	14876
883.262	14746
883.388	14807
883.514	15047
883.64	14952
883.766	14921
883.892	14705
884.018	14838
884.143	14918
884.269	15032
884.395	14785
884.52	14655
884.646	14720
884.772	14594
884.897	14514
885.023	14575
885.148	14750
885.274	14811
885.399	14686
885.524	14705
885.65	14712
885.775	14682
885.9	14667
886.025	14758
886.15	14804
886.275	14667
886.4	14522
886.525	14621
886.65	14590
886.775	14549
886.9	14727
887.025	14811
887.149	14659
887.274	14499
887.399	14446
887.523	14545
887.648	14454
887.773	14404
887.897	14556
888.021	14537
888.146	14457
888.27	14636
888.395	14583
888.519	14484
888.643	14587
888.767	14606
888.891	14423
889.015	14282
889.139	14385
889.263	14351
889.387	14488
889.511	14579
889.635	14469
889.759	14370
889.883	14305
890.006	14290
890.13	14434
890.254	14351
890.377	14275
890.501	14180
890.624	14027
890.748	14294
890.871	14027
890.995	14054
891.118	13978
891.241	14039
891.364	14123
891.488	14202
891.611	14005
891.734	14024
891.857	14077
891.98	14088
892.103	14103
892.226	14096
892.349	14027
892.471	13894
892.594	14103
892.717	14100
892.839	14065
892.962	14077
893.085	14107
893.207	14031
893.33	13890
893.452	13951
893.575	14073
893.697	14012
893.819	14214
893.941	14320
894.064	14103
894.186	13978
894.308	14020
894.43	14096
894.552	14244
894.674	14153
894.796	14005
894.918	14065
895.04	14111
895.161	14172
895.283	14168
895.405	14092
895.526	14130
895.648	14202
895.769	14275
895.891	14202
896.012	14290
896.134	14252
896.255	14263
896.376	14218
896.498	14240
896.619	14248
896.74	14229
896.861	14298
896.982	14636
897.103	14727
897.224	14610
897.345	14465
897.466	14366
897.587	14412
897.708	14575
897.828	14530
897.949	14423
898.07	14358
898.19	14457
898.311	14575
898.431	14530
898.552	14556
898.672	14629
898.792	14712
898.913	14606
899.033	14495
899.153	14446
899.273	14229
899.393	14419
899.513	14469
899.633	14446
899.753	14408
899.873	14366
899.993	14434
900.113	14415
900.232	14454
900.352	14324
900.472	14320
900.591	14225
900.711	14225
900.83	14248
900.95	14328
901.069	14412
901.189	14248
901.308	14039
901.427	13887
901.546	13982
901.665	13997
901.784	13925
901.904	13822
902.023	13643
902.141	13495
902.26	13567
902.379	13540
902.498	13525
902.617	13472
902.735	13525
902.854	13514
902.973	13426
903.091	13324
903.21	13320
903.328	13221
903.446	13187
903.565	13088
903.683	13069
903.801	12993
903.919	13149
904.038	13057
904.156	12894
904.274	12935
904.392	12894
904.51	12981
904.627	12913
904.745	12951
904.863	12909
904.981	12608
905.098	12574
905.216	12681
905.334	12669
905.451	12589
905.569	12593
905.686	12627
905.803	12646
905.921	12391
906.038	12418
906.155	12433
906.272	12270
906.389	12353
906.506	12239
906.623	12224
906.74	12159
906.857	12045
906.974	12129
907.091	12266
907.208	12418
907.324	12300
907.441	12121
907.557	11988
907.674	12034
907.79	11889
907.907	11885
908.023	11950
908.139	12011
908.256	11885
908.372	11958
908.488	11836
908.604	11691
908.72	11688
908.836	11676
908.952	11600
909.068	11771
909.184	11851
909.3	11756
909.415	11764
909.531	11783
909.647	11497
909.762	11368
909.878	11532
909.993	11528
910.108	11452
910.224	11395
910.339	11497
910.454	11303
910.57	11216
910.685	11254
910.8	11532
910.915	11551
911.03	11353
911.145	11208
911.259	11185
911.374	11208
911.489	11155
911.604	11064
911.718	10980
911.833	10976
911.947	10877
912.062	10801
912.176	10835
912.291	11022
912.405	10911
912.519	11181
912.633	11288
912.748	11006
912.862	10946
912.976	10881
913.09	10645
913.204	10809
913.318	10812
913.431	10987
913.545	10885
913.659	10984
913.772	10820
913.886	10748
914	10615
914.113	10805
914.226	10881
914.34	10793
914.453	10580
914.566	10793
914.68	10599
914.793	10637
914.906	10481
915.019	10413
915.132	10386
915.245	10424
915.358	10481
915.47	10478
915.583	10447
915.696	10512
915.809	10622
915.921	10615
916.034	10447
916.146	10295
916.259	10447
916.371	10531
916.483	10508
916.595	10459
916.708	10394
916.82	10363
916.932	10367
917.044	10291
917.156	10367
917.268	10265
917.38	10306
917.491	10211
917.603	10265
917.715	10424
917.826	10421
917.938	10276
918.049	10147
918.161	10413
918.272	10440
918.384	10421
918.495	10310
918.606	10318
918.717	10135
918.828	10150
918.939	10227
919.05	10105
919.161	10147
919.272	9953
919.383	10063
919.494	10227
919.604	10409
919.715	10177
919.826	10086
919.936	10139
920.047	10211
920.157	10158
920.267	10440
920.378	10284
920.488	10143
920.598	10371
920.708	10618
920.818	10436
920.928	10390
921.038	10561
921.148	10516
921.258	10314
921.368	10173
921.477	10051
921.587	9998
921.697	9831
921.806	10013
921.916	9960
922.025	9762
922.134	9812
922.244	9698
922.353	9781
922.462	9599
922.571	9538
922.68	9458
922.789	9355
922.898	9412
923.007	9412
923.116	9542
923.224	9488
923.333	9447
923.442	9310
923.55	9291
923.659	9397
923.767	9378
923.876	9157
923.984	9313
924.092	9260
924.201	9291
924.309	9287
924.417	9287
924.525	9241
924.633	9230
924.741	9945
924.849	9062
924.956	9226
925.064	9036
925.172	9047
925.279	9036
925.387	9127
925.494	9093
925.602	9157
925.709	9207
925.816	9055
925.924	9108
926.031	9142
926.138	9157
926.245	9123
926.352	9039
926.459	9169
926.566	9249
926.673	9097
926.779	8971
926.886	8933
926.993	8792
927.099	8811
927.206	8750
927.312	8746
927.419	8899
927.525	8792
927.631	8849
927.737	8807
927.843	8686
927.95	8526
928.056	8613
928.162	8739
928.267	8781
928.373	9378
928.479	8845
928.585	8579
928.69	8621
928.796	8735
928.901	8667
929.007	8431
929.112	8636
929.218	8552
929.323	8530
929.428	8484
929.533	8674
929.638	8427
929.743	8560
929.848	8526
929.953	8511
930.058	8412
930.163	8233
930.267	8324
930.372	8381
930.477	8275
930.581	8503
930.685	8317
930.79	8221
930.894	8240
930.998	8221
931.103	8389
931.207	8077
931.311	7955
931.415	7959
931.519	7776
931.623	7734
