Data from test_V78500241_2066.txt Node
Date: Fri Mar 25 14:48:05 CST 2022
User: usil
Spectrometer: V785-0024
Trigger mode: 0
Integration Time (sec): 4.000000E-1
Scans to average: 1
Nonlinearity correction enabled: false
Boxcar width: 0
Storing dark spectrum: false
XAxis mode: Wavelengths
Number of Pixels in Spectrum: 1024
>>>>>Begin Spectral Data<<<<<
801.071	22055
801.214	22013
801.356	21679
801.499	21694
801.641	21591
801.783	21477
801.926	21644
802.068	21355
802.211	21287
802.353	21203
802.496	21119
802.638	21036
802.78	20963
802.923	20754
803.065	20796
803.208	20693
803.35	20804
803.492	20906
803.635	20925
803.777	20777
803.919	20880
804.061	21161
804.204	20861
804.346	20746
804.488	20701
804.63	20701
804.773	20674
804.915	20697
805.057	20880
805.199	20663
805.341	20826
805.483	20864
805.626	20823
805.768	20701
805.91	20731
806.052	20781
806.194	20651
806.336	20956
806.478	20640
806.62	20712
806.762	20823
806.904	20956
807.046	21036
807.188	21093
807.33	21081
807.472	21116
807.614	20960
807.756	21039
807.898	20880
808.04	20876
808.182	20788
808.324	20773
808.465	20834
808.607	21032
808.749	21089
808.891	21245
809.033	21241
809.174	21093
809.316	21245
809.458	21100
809.6	21032
809.741	21154
809.883	21272
810.025	21180
810.166	21237
810.308	21233
810.45	21116
810.591	21104
810.733	20994
810.875	20925
811.016	20944
811.158	20754
811.299	20834
811.441	21039
811.582	21077
811.724	20777
811.865	20845
812.007	20838
812.148	20845
812.29	20902
812.431	21036
812.573	21154
812.714	21279
812.855	21389
812.997	21511
813.138	21606
813.279	21477
813.421	21420
813.562	21435
813.703	21154
813.845	20982
813.986	20743
814.127	20583
814.268	20480
814.41	20488
814.551	20450
814.692	20454
814.833	20347
814.974	20480
815.115	20381
815.256	20370
815.397	20309
815.539	20328
815.68	20244
815.821	20138
815.962	20294
816.103	20111
816.244	19959
816.385	19921
816.526	19841
816.666	19635
816.807	19518
816.948	19616
817.089	19674
817.23	19643
817.371	19559
817.512	19586
817.653	19480
817.793	19411
817.934	19582
818.075	19575
818.216	19510
818.356	19464
818.497	19426
818.638	19266
818.778	19251
818.919	19236
819.06	19293
819.2	19407
819.341	19495
819.481	19430
819.622	19594
819.762	19719
819.903	19750
820.043	19540
820.184	19540
820.324	19533
820.465	19719
820.605	19525
820.746	19525
820.886	19499
821.026	19518
821.167	19502
821.307	19518
821.447	19392
821.588	19316
821.728	19145
821.868	19069
822.008	18928
822.149	18966
822.289	18935
822.429	18738
822.569	18620
822.709	18642
822.849	18357
822.99	18365
823.13	18414
823.27	18448
823.41	18296
823.55	18186
823.69	18285
823.83	18330
823.97	18163
824.11	18060
824.25	18076
824.389	18045
824.529	18155
824.669	17988
824.809	18133
824.949	18019
825.089	18110
825.228	18026
825.368	17786
825.508	17672
825.648	17767
825.787	17843
825.927	17767
826.067	17722
826.206	17707
826.346	17863
826.485	17847
826.625	17741
826.765	17916
826.904	17939
827.044	17623
827.183	17581
827.323	17463
827.462	17482
827.601	17429
827.741	17482
827.88	17524
828.02	17410
828.159	17463
828.298	17524
828.437	17554
828.577	17558
828.716	17699
828.855	17452
828.994	17223
829.134	17303
829.273	17269
829.412	17277
829.551	17045
829.69	17239
829.829	17322
829.968	17299
830.107	17307
830.246	17242
830.385	17239
830.524	17102
830.663	17056
830.802	17067
830.941	16862
831.08	16847
831.219	16923
831.357	17056
831.496	17105
831.635	16987
831.774	16866
831.913	16771
832.051	16626
832.19	16649
832.329	16706
832.467	16603
832.606	16497
832.744	16504
832.883	16542
833.022	16485
833.16	16596
833.299	16580
833.437	16596
833.576	16580
833.714	16558
833.852	16615
833.991	16641
834.129	16691
834.267	16653
834.406	16588
834.544	16542
834.682	16694
834.821	16561
834.959	16816
835.097	16592
835.235	16759
835.373	16565
835.511	16679
835.65	16440
835.788	16596
835.926	16356
836.064	16291
836.202	16363
836.34	16542
836.478	16561
836.615	16519
836.753	16580
836.891	16603
837.029	16615
837.167	16474
837.305	16398
837.443	16348
837.58	16325
837.718	16474
837.856	16466
837.993	16284
838.131	16299
838.269	16299
838.406	16333
838.544	16207
838.681	15987
838.819	16173
838.956	15960
839.094	15979
839.231	15941
839.369	15991
839.506	16310
839.643	16188
839.781	15968
839.918	15926
840.055	15865
840.193	15884
840.33	15869
840.467	15854
840.604	15903
840.742	16166
840.879	15884
841.016	15911
841.153	15895
841.29	16036
841.427	15968
841.564	15991
841.701	15998
841.838	15911
841.975	15934
842.112	15941
842.249	15838
842.385	15739
842.522	15892
842.659	15705
842.796	15679
842.933	15625
843.069	15576
843.206	15656
843.343	15755
843.479	15778
843.616	15705
843.752	15584
843.889	15485
844.025	15652
844.162	15553
844.298	15622
844.435	15523
844.571	15443
844.708	15523
844.844	15618
844.98	15614
845.117	15618
845.253	15420
845.389	15420
845.525	15458
845.661	15473
845.798	15272
845.934	15416
846.07	15298
846.206	15348
846.342	15386
846.478	15302
846.614	15097
846.75	14914
846.886	15123
847.022	15252
847.158	15116
847.294	15116
847.429	15131
847.565	15131
847.701	15363
847.837	14864
847.972	14819
848.108	14880
848.244	14914
848.379	14754
848.515	14686
848.65	14514
848.786	14610
848.921	14697
849.057	14868
849.192	14697
849.328	14716
849.463	14689
849.598	14712
849.734	14644
849.869	14514
850.004	14530
850.14	14499
850.275	14427
850.41	14343
850.545	14427
850.68	14450
850.815	14484
850.95	14282
851.085	14617
851.22	14575
851.355	14419
851.49	14454
851.625	14374
851.76	14431
851.895	14252
852.03	14362
852.165	14423
852.299	14495
852.434	14469
852.569	14495
852.703	14484
852.838	14492
852.973	14587
853.107	14511
853.242	14419
853.376	14362
853.511	14183
853.645	14221
853.78	14442
853.914	14347
854.048	14278
854.183	14252
854.317	14298
854.451	14469
854.585	14358
854.72	14347
854.854	14332
854.988	14195
855.122	14225
855.256	14161
855.39	14328
855.524	14431
855.658	14301
855.792	14389
855.926	14294
856.06	14309
856.194	14457
856.327	14301
856.461	14240
856.595	14339
856.729	14305
856.862	14389
856.996	14381
857.13	14438
857.263	14450
857.397	14533
857.53	14434
857.664	14336
857.797	14427
857.931	14434
858.064	14465
858.197	14438
858.331	14366
858.464	14305
858.597	14149
858.731	14278
858.864	14278
858.997	14233
859.13	14377
859.263	14240
859.396	14442
859.529	14317
859.662	14355
859.795	14263
859.928	14393
860.061	14454
860.194	14514
860.327	14332
860.46	14324
860.592	14507
860.725	14412
860.858	14434
860.99	14404
861.123	14202
861.256	14168
861.388	14343
861.521	14941
861.653	14309
861.786	14168
861.918	14130
862.05	14233
862.183	14180
862.315	14275
862.447	14336
862.58	14256
862.712	14005
862.844	13963
862.976	14142
863.108	14164
863.24	14434
863.372	14005
863.504	14088
863.636	14107
863.768	14183
863.9	14183
864.032	14073
864.164	14107
864.296	14084
864.428	14142
864.559	14172
864.691	14218
864.823	14111
864.954	14100
865.086	14100
865.217	14142
865.349	14031
865.48	14100
865.612	14103
865.743	14237
865.875	14050
866.006	13944
866.137	14077
866.269	14046
866.4	14073
866.531	13970
866.662	14005
866.793	13978
866.924	13940
867.055	14107
867.186	14065
867.317	14092
867.448	13970
867.579	14024
867.71	13963
867.841	14092
867.972	14138
868.103	14058
868.233	14008
868.364	14100
868.495	14084
868.625	14240
868.756	14355
868.886	14187
869.017	14267
869.147	14427
869.278	14442
869.408	14396
869.539	14275
869.669	14423
869.799	14419
869.929	14492
870.06	14457
870.19	14621
870.32	14610
870.45	14693
870.58	14743
870.71	14785
870.84	14861
870.97	14769
871.1	14720
871.23	15036
871.36	14933
871.489	14891
871.619	14914
871.749	14914
871.879	14967
872.008	14982
872.138	14861
872.267	14876
872.397	14785
872.526	14830
872.656	14708
872.785	14727
872.915	14929
873.044	15020
873.173	14982
873.303	15009
873.432	15020
873.561	15097
873.69	14880
873.819	15001
873.948	15001
874.077	15009
874.206	14941
874.335	14925
874.464	15104
874.593	15230
874.722	15218
874.851	15412
874.979	15252
875.108	15367
875.237	15233
875.365	15154
875.494	15119
875.623	15283
875.751	15237
875.88	15260
876.008	15496
876.136	15507
876.265	15739
876.393	15838
876.521	15736
876.65	15812
876.778	15785
876.906	15633
877.034	15701
877.162	15633
877.29	15576
877.418	15720
877.546	15584
877.674	15739
877.802	15675
877.93	15644
878.058	15751
878.185	15648
878.313	15781
878.441	15671
878.568	15572
878.696	15705
878.824	15747
878.951	15732
879.079	15915
879.206	16044
879.333	15827
879.461	15842
879.588	15819
879.715	15873
879.842	15968
879.97	15800
880.097	15462
880.224	15568
880.351	15530
880.478	15584
880.605	15545
880.732	15519
880.859	15831
880.986	15564
881.112	15648
881.239	15405
881.366	15310
881.493	15176
881.619	15203
881.746	15226
881.872	15180
881.999	15154
882.125	15184
882.252	15291
882.378	15207
882.505	15363
882.631	15097
882.757	15032
882.883	15032
883.01	15062
883.136	15116
883.262	14868
883.388	14819
883.514	14967
883.64	15119
883.766	14952
883.892	14857
884.018	14899
884.143	15013
884.269	15017
884.395	14880
884.52	14739
884.646	14743
884.772	14720
884.897	14568
885.023	14705
885.148	14804
885.274	14937
885.399	14773
885.524	14682
885.65	14667
885.775	14826
885.9	14693
886.025	14796
886.15	14765
886.275	14693
886.4	14629
886.525	14765
886.65	14739
886.775	14746
886.9	14845
887.025	15036
887.149	14731
887.274	14568
887.399	14545
887.523	14492
887.648	14492
887.773	14450
887.897	14636
888.021	14613
888.146	14492
888.27	14571
888.395	14663
888.519	14587
888.643	14663
888.767	14602
888.891	14412
889.015	14393
889.139	14476
889.263	14389
889.387	14571
889.511	14632
889.635	14537
889.759	14339
889.883	14351
890.006	14457
890.13	14621
890.254	14415
890.377	14431
890.501	14237
890.624	14142
890.748	14267
890.871	14096
890.995	14081
891.118	14027
891.241	14100
891.364	14191
891.488	14248
891.611	14073
891.734	14195
891.857	14172
891.98	14119
892.103	14164
892.226	14142
892.349	14237
892.471	13955
892.594	14027
892.717	14092
892.839	14054
892.962	14138
893.085	14172
893.207	14027
893.33	14046
893.452	14027
893.575	14077
893.697	14161
893.819	14309
893.941	14431
894.064	14244
894.186	14119
894.308	14039
894.43	14157
894.552	14313
894.674	14275
894.796	14035
894.918	14001
895.04	14077
895.161	14294
895.283	14168
895.405	14126
895.526	14221
895.648	14218
895.769	14244
895.891	14263
896.012	14347
896.134	14195
896.255	14259
896.376	14263
896.498	14267
896.619	14351
896.74	14202
896.861	14305
896.982	14670
897.103	14788
897.224	14689
897.345	14541
897.466	14434
897.587	14689
897.708	14689
897.828	14613
897.949	14484
898.07	14347
898.19	14526
898.311	14697
898.431	14636
898.552	14556
898.672	14701
898.792	14670
898.913	14746
899.033	14594
899.153	14408
899.273	14442
899.393	14533
899.513	14552
899.633	14415
899.753	14579
899.873	14431
899.993	14480
900.113	14526
900.232	14454
900.352	14408
900.472	14492
900.591	14320
900.711	14396
900.83	14381
900.95	14446
901.069	14457
901.189	14317
901.308	14088
901.427	13978
901.546	14100
901.665	14031
901.784	14054
901.904	13959
902.023	13887
902.141	13696
902.26	13632
902.379	13677
902.498	13533
902.617	13609
902.735	13704
902.854	13696
902.973	13571
903.091	13373
903.21	13263
903.328	13381
903.446	13282
903.565	13129
903.683	13122
903.801	13091
903.919	13217
904.038	13133
904.156	13019
904.274	13042
904.392	12966
904.51	12928
904.627	12947
904.745	13038
904.863	13015
904.981	12833
905.098	12711
905.216	12715
905.334	12741
905.451	12593
905.569	12658
905.686	12696
905.803	12692
905.921	12528
906.038	12544
906.155	12559
906.272	12391
906.389	12483
906.506	12277
906.623	12224
906.74	12296
906.857	12117
906.974	12175
907.091	12361
907.208	12388
907.324	12308
907.441	12182
907.557	12045
907.674	11984
907.79	11965
907.907	12007
908.023	11965
908.139	12019
908.256	11920
908.372	11946
908.488	11920
908.604	11760
908.72	11707
908.836	11783
908.952	11794
909.068	11802
909.184	11916
909.3	11821
909.415	11798
909.531	11832
909.647	11558
909.762	11585
909.878	11627
909.993	11562
910.108	11558
910.224	11471
910.339	11577
910.454	11463
910.57	11376
910.685	11364
910.8	11710
910.915	11554
911.03	11368
911.145	11265
911.259	11166
911.374	11296
911.489	11132
911.604	11121
911.718	11041
911.833	10987
911.947	10915
912.062	10873
912.176	11006
912.291	11003
912.405	10991
912.519	11128
912.633	11197
912.748	11102
912.862	10968
912.976	10885
913.09	10748
913.204	10892
913.318	10858
913.431	10946
913.545	10938
913.659	11033
913.772	10968
913.886	10828
914	10721
914.113	10854
914.226	10850
914.34	10881
914.453	10706
914.566	10797
914.68	10691
914.793	10755
914.906	10584
915.019	10504
915.132	10459
915.245	10451
915.358	10516
915.47	10523
915.583	10615
915.696	10554
915.809	10717
915.921	10634
916.034	10558
916.146	10421
916.259	10428
916.371	10603
916.483	10489
916.595	10455
916.708	10405
916.82	10504
916.932	10405
917.044	10405
917.156	10470
917.268	10291
917.38	10314
917.491	10375
917.603	10352
917.715	10402
917.826	10417
917.938	10341
918.049	10154
918.161	10379
918.272	10371
918.384	10382
918.495	10386
918.606	10249
918.717	10200
918.828	10246
918.939	10249
919.05	10150
919.161	10143
919.272	9968
919.383	10101
919.494	10249
919.604	10352
919.715	10219
919.826	10128
919.936	10223
920.047	10284
920.157	10223
920.267	10424
920.378	10299
920.488	10249
920.598	10428
920.708	10637
920.818	10462
920.928	10394
921.038	10561
921.148	10580
921.258	10219
921.368	10211
921.477	10097
921.587	10044
921.697	9994
921.806	10090
921.916	10032
922.025	9819
922.134	9720
922.244	9720
922.353	9846
922.462	9644
922.571	9599
922.68	9492
922.789	9458
922.898	9542
923.007	9408
923.116	9504
923.224	9428
923.333	9519
923.442	9401
923.55	9294
923.659	9420
923.767	9428
923.876	9340
923.984	9454
924.092	9348
924.201	9420
924.309	9393
924.417	9344
924.525	9245
924.633	9291
924.741	10215
924.849	9112
924.956	9291
925.064	9131
925.172	9074
925.279	9039
925.387	9119
925.494	9173
925.602	9287
925.709	9184
925.816	9104
925.924	9093
926.031	9207
926.138	9097
926.245	9165
926.352	9058
926.459	9222
926.566	9226
926.673	9058
926.779	8956
926.886	9062
926.993	8937
927.099	8807
927.206	8876
927.312	8811
927.419	8880
927.525	8830
927.631	8906
927.737	8777
927.843	8689
927.95	8575
928.056	8750
928.162	8773
928.267	8804
928.373	9340
928.479	8804
928.585	8689
928.69	8826
928.796	8800
928.901	8659
929.007	8571
929.112	8625
929.218	8594
929.323	8613
929.428	8537
929.533	8720
929.638	8473
929.743	8526
929.848	8526
929.953	8602
930.058	8415
930.163	8286
930.267	8320
930.372	8549
930.477	8282
930.581	8560
930.685	8423
930.79	8294
930.894	8290
930.998	8305
931.103	8412
931.207	8081
931.311	7997
931.415	8016
931.519	7753
931.623	7776
