Data from test_V78500241_410.txt Node
Date: Fri Mar 25 14:36:34 CST 2022
User: usil
Spectrometer: V785-0024
Trigger mode: 0
Integration Time (sec): 4.000000E-1
Scans to average: 1
Nonlinearity correction enabled: false
Boxcar width: 0
Storing dark spectrum: false
XAxis mode: Wavelengths
Number of Pixels in Spectrum: 1024
>>>>>Begin Spectral Data<<<<<
801.071	26636
801.214	26587
801.356	26294
801.499	26248
801.641	26126
801.783	26043
801.926	25940
802.068	25951
802.211	25993
802.353	25906
802.496	25753
802.638	25826
802.78	25723
802.923	25681
803.065	25525
803.208	25616
803.35	25537
803.492	25700
803.635	25609
803.777	25529
803.919	25772
804.061	26058
804.204	25632
804.346	25613
804.488	25411
804.63	25521
804.773	25491
804.915	25586
805.057	25708
805.199	25590
805.341	25677
805.483	25772
805.626	25647
805.768	25616
805.91	25765
806.052	25502
806.194	25468
806.336	25727
806.478	25567
806.62	25647
806.762	25814
806.904	25909
807.046	26210
807.188	26081
807.33	25989
807.472	26077
807.614	25944
807.756	25932
807.898	25814
808.04	25860
808.182	25875
808.324	25811
808.465	25913
808.607	26054
808.749	26145
808.891	26336
809.033	26362
809.174	26149
809.316	26084
809.458	26050
809.6	25997
809.741	26161
809.883	26065
810.025	26225
810.166	26301
810.308	26275
810.45	26229
810.591	26229
810.733	26043
810.875	26073
811.016	25906
811.158	25856
811.299	25993
811.441	26096
811.582	25993
811.724	25936
811.865	25989
812.007	25955
812.148	25970
812.29	25940
812.431	26115
812.573	26252
812.714	26267
812.855	26298
812.997	26667
813.138	26571
813.279	26537
813.421	26499
813.562	26362
813.703	26290
813.845	26149
813.986	25750
814.127	25681
814.268	25521
814.41	25571
814.551	25544
814.692	25556
814.833	25468
814.974	25392
815.115	25464
815.256	25301
815.397	25202
815.539	25362
815.68	25297
815.821	25263
815.962	25320
816.103	25187
816.244	25129
816.385	24863
816.526	24894
816.666	24833
816.807	24719
816.948	24578
817.089	24707
817.23	24749
817.371	24661
817.512	24639
817.653	24528
817.793	24608
817.934	24593
818.075	24646
818.216	24681
818.356	24517
818.497	24338
818.638	24224
818.778	24388
818.919	24232
819.06	24376
819.2	24448
819.341	24494
819.481	24494
819.622	24578
819.762	24890
819.903	24779
820.043	24787
820.184	24597
820.324	24521
820.465	24658
820.605	24563
820.746	24665
820.886	24509
821.026	24532
821.167	24521
821.307	24692
821.447	24513
821.588	24486
821.728	24235
821.868	24155
822.008	24117
822.149	24072
822.289	23748
822.429	23786
822.569	23596
822.709	23570
822.849	23452
822.99	23410
823.13	23410
823.27	23337
823.41	23296
823.55	23193
823.69	23330
823.83	23239
823.97	23025
824.11	23067
824.25	22835
824.389	23010
824.529	22999
824.669	23048
824.809	23025
824.949	23067
825.089	22980
825.228	23067
825.368	22801
825.508	22930
825.648	22759
825.787	22809
825.927	22824
826.067	22812
826.206	22668
826.346	22850
826.485	22835
826.625	22706
826.765	22889
826.904	22793
827.044	22557
827.183	22527
827.323	22379
827.462	22592
827.601	22561
827.741	22371
827.88	22470
828.02	22398
828.159	22474
828.298	22466
828.437	22474
828.577	22379
828.716	22519
828.855	22371
828.994	22249
829.134	22238
829.273	22169
829.412	22109
829.551	22036
829.69	22204
829.829	21941
829.968	22204
830.107	22135
830.246	22246
830.385	22021
830.524	21953
830.663	21903
830.802	21945
830.941	21842
831.08	21648
831.219	21728
831.357	21759
831.496	21762
831.635	21648
831.774	21576
831.913	21591
832.051	21462
832.19	21488
832.329	21477
832.467	21355
832.606	21256
832.744	21291
832.883	21241
833.022	21317
833.16	21294
833.299	21462
833.437	21310
833.576	21378
833.714	21458
833.852	21397
833.991	21481
834.129	21469
834.267	21260
834.406	21355
834.544	21454
834.682	21412
834.821	21355
834.959	21485
835.097	21294
835.235	21367
835.373	21401
835.511	21374
835.65	21245
835.788	21203
835.926	21001
836.064	21089
836.202	21100
836.34	21150
836.478	21313
836.615	21142
836.753	21214
836.891	21291
837.029	21279
837.167	21074
837.305	21096
837.443	21176
837.58	21138
837.718	21119
837.856	21058
837.993	21036
838.131	21032
838.269	21001
838.406	21039
838.544	20944
838.681	20697
838.819	20667
838.956	20514
839.094	20530
839.231	20613
839.369	20758
839.506	20948
839.643	20659
839.781	20484
839.918	20404
840.055	20492
840.193	20499
840.33	20419
840.467	20438
840.604	20412
840.742	20724
840.879	20233
841.016	20370
841.153	20320
841.29	20575
841.427	20351
841.564	20473
841.701	20431
841.838	20381
841.975	20267
842.112	20271
842.249	20221
842.385	20240
842.522	20381
842.659	20191
842.796	20168
842.933	20035
843.069	20161
843.206	20122
843.343	20225
843.479	20195
843.616	20199
843.752	19921
843.889	19959
844.025	20058
844.162	19875
844.298	19986
844.435	19856
844.571	19753
844.708	20035
844.844	19974
844.98	19928
845.117	20039
845.253	19833
845.389	19685
845.525	19868
845.661	19841
845.798	19719
845.934	19704
846.07	19700
846.206	19772
846.342	19727
846.478	19681
846.614	19441
846.75	19419
846.886	19392
847.022	19476
847.158	19396
847.294	19369
847.429	19426
847.565	19343
847.701	19575
847.837	19091
847.972	19065
848.108	19198
848.244	19255
848.379	18985
848.515	18947
848.65	18863
848.786	18970
848.921	18905
849.057	19080
849.192	18920
849.328	19019
849.463	18924
849.598	18863
849.734	18913
849.869	18760
850.004	18745
850.14	18688
850.275	18795
850.41	18661
850.545	18681
850.68	18585
850.815	18798
850.95	18700
851.085	18829
851.22	18760
851.355	18658
851.49	18726
851.625	18563
851.76	18635
851.895	18471
852.03	18517
852.165	18646
852.299	18555
852.434	18700
852.569	18582
852.703	18627
852.838	18738
852.973	18825
853.107	18779
853.242	18506
853.376	18525
853.511	18414
853.645	18399
853.78	18650
853.914	18490
854.048	18464
854.183	18464
854.317	18498
854.451	18661
854.585	18509
854.72	18380
854.854	18642
854.988	18426
855.122	18452
855.256	18319
855.39	18391
855.524	18433
855.658	18525
855.792	18585
855.926	18509
856.06	18540
856.194	18658
856.327	18479
856.461	18471
856.595	18441
856.729	18456
856.862	18433
856.996	18570
857.13	18517
857.263	18623
857.397	18498
857.53	18399
857.664	18585
857.797	18620
857.931	18506
858.064	18460
858.197	18547
858.331	18395
858.464	18376
858.597	18194
858.731	18361
858.864	18266
858.997	18395
859.13	18559
859.263	18464
859.396	18509
859.529	18521
859.662	18429
859.795	18441
859.928	18513
860.061	18661
860.194	18517
860.327	18410
860.46	18384
860.592	18395
860.725	18528
860.858	18559
860.99	18479
861.123	18258
861.256	18300
861.388	18479
861.521	19190
861.653	18194
861.786	18201
861.918	18334
862.05	18323
862.183	18429
862.315	18517
862.447	18483
862.58	18372
862.712	18346
862.844	18129
862.976	18216
863.108	18273
863.24	18517
863.372	18102
863.504	18186
863.636	18110
863.768	18121
863.9	18121
864.032	18098
864.164	18114
864.296	18144
864.428	18270
864.559	18247
864.691	18266
864.823	18079
864.954	18178
865.086	18072
865.217	17999
865.349	18007
865.48	18011
865.612	18095
865.743	18262
865.875	17950
866.006	18117
866.137	18129
866.269	18106
866.4	17999
866.531	18007
866.662	18049
866.793	18060
866.924	17996
867.055	17988
867.186	17996
867.317	17958
867.448	17969
867.579	18015
867.71	17885
867.841	18007
867.972	17931
868.103	18049
868.233	17980
868.364	17999
868.495	18060
868.625	18186
868.756	18342
868.886	18190
869.017	18232
869.147	18285
869.278	18323
869.408	18197
869.539	18258
869.669	18426
869.799	18281
869.929	18300
870.06	18334
870.19	18547
870.32	18437
870.45	18578
870.58	18627
870.71	18817
870.84	18791
870.97	18578
871.1	18642
871.23	18684
871.36	18829
871.489	18806
871.619	18871
871.749	18856
871.879	18806
872.008	18928
872.138	18848
872.267	18829
872.397	18658
872.526	18764
872.656	18578
872.785	18681
872.915	18905
873.044	19027
873.173	18935
873.303	18802
873.432	18844
873.561	19031
873.69	18890
873.819	18844
873.948	19015
874.077	18977
874.206	18795
874.335	18913
874.464	18932
874.593	19110
874.722	19065
874.851	19194
874.979	19152
875.108	19228
875.237	19137
875.365	19038
875.494	19088
875.623	19126
875.751	19110
875.88	19236
876.008	19304
876.136	19312
876.265	19575
876.393	19605
876.521	19624
876.65	19601
876.778	19552
876.906	19533
877.034	19567
877.162	19540
877.29	19472
877.418	19552
877.546	19529
877.674	19533
877.802	19537
877.93	19521
878.058	19426
878.185	19407
878.313	19506
878.441	19563
878.568	19407
878.696	19506
878.824	19537
878.951	19582
879.079	19746
879.206	19833
879.333	19651
879.461	19731
879.588	19651
879.715	19803
879.842	19833
879.97	19597
880.097	19392
880.224	19263
880.351	19483
880.478	19331
880.605	19335
880.732	19362
880.859	19563
880.986	19369
881.112	19381
881.239	19175
881.366	19190
881.493	19084
881.619	19046
881.746	18962
881.872	19015
881.999	18958
882.125	18764
882.252	19209
882.378	19042
882.505	19187
882.631	18913
882.757	18776
882.883	18894
883.01	18726
883.136	18696
883.262	18604
883.388	18570
883.514	18840
883.64	18859
883.766	18604
883.892	18563
884.018	18639
884.143	18772
884.269	18787
884.395	18623
884.52	18391
884.646	18407
884.772	18369
884.897	18262
885.023	18467
885.148	18544
885.274	18563
885.399	18525
885.524	18403
885.65	18395
885.775	18414
885.9	18448
886.025	18559
886.15	18422
886.275	18277
886.4	18300
886.525	18380
886.65	18319
886.775	18407
886.9	18513
887.025	18483
887.149	18426
887.274	18239
887.399	18220
887.523	18110
887.648	18155
887.773	17992
887.897	18266
888.021	18167
888.146	18243
888.27	18277
888.395	18346
888.519	18277
888.643	18174
888.767	18232
888.891	18182
889.015	18041
889.139	18068
889.263	17980
889.387	18155
889.511	18243
889.635	18117
889.759	17916
889.883	17904
890.006	18034
890.13	18095
890.254	17813
890.377	18007
890.501	17802
890.624	17729
890.748	17752
890.871	17680
890.995	17646
891.118	17547
891.241	17703
891.364	17661
891.488	17657
891.611	17547
891.734	17611
891.857	17611
891.98	17604
892.103	17684
892.226	17615
892.349	17646
892.471	17467
892.594	17547
892.717	17566
892.839	17497
892.962	17547
893.085	17634
893.207	17497
893.33	17474
893.452	17391
893.575	17600
893.697	17516
893.819	17691
893.941	17657
894.064	17707
894.186	17478
894.308	17524
894.43	17596
894.552	17707
894.674	17581
894.796	17543
894.918	17581
895.04	17592
895.161	17649
895.283	17589
895.405	17554
895.526	17672
895.648	17627
895.769	17627
895.891	17672
896.012	17653
896.134	17752
896.255	17520
896.376	17608
896.498	17657
896.619	17676
896.74	17699
896.861	17794
896.982	18064
897.103	18251
897.224	17980
897.345	17950
897.466	17817
897.587	17843
897.708	17939
897.828	17904
897.949	17901
898.07	17870
898.19	17863
898.311	18003
898.431	17882
898.552	17870
898.672	17939
898.792	17984
898.913	17874
899.033	17661
899.153	17611
899.273	17592
899.393	17596
899.513	17646
899.633	17764
899.753	17657
899.873	17600
899.993	17668
900.113	17600
900.232	17707
900.352	17558
900.472	17486
900.591	17471
900.711	17467
900.83	17421
900.95	17638
901.069	17703
901.189	17410
901.308	17166
901.427	17124
901.546	17083
901.665	17155
901.784	17235
901.904	17029
902.023	16961
902.141	16809
902.26	16584
902.379	16774
902.498	16542
902.617	16607
902.735	16645
902.854	16706
902.973	16531
903.091	16409
903.21	16314
903.328	16284
903.446	16215
903.565	16192
903.683	16230
903.801	16036
903.919	16173
904.038	16173
904.156	15930
904.274	16059
904.392	15941
904.51	15911
904.627	15895
904.745	15979
904.863	15975
904.981	15739
905.098	15637
905.216	15652
905.334	15686
905.451	15595
905.569	15580
905.686	15606
905.803	15523
905.921	15450
906.038	15496
906.155	15431
906.272	15203
906.389	15336
906.506	15142
906.623	15142
906.74	15108
906.857	15131
906.974	15074
907.091	15211
907.208	15264
907.324	15195
907.441	15020
907.557	14899
907.674	14918
907.79	14891
907.907	14765
908.023	14796
908.139	14785
908.256	14830
908.372	14830
908.488	14716
908.604	14541
908.72	14533
908.836	14530
908.952	14480
909.068	14579
909.184	14689
909.3	14602
909.415	14575
909.531	14533
909.647	14237
909.762	14294
909.878	14290
909.993	14290
910.108	14199
910.224	14229
910.339	14256
910.454	14244
910.57	14111
910.685	14073
910.8	14358
910.915	14195
911.03	14111
911.145	13932
911.259	13928
911.374	13852
911.489	13868
911.604	13746
911.718	13662
911.833	13666
911.947	13533
912.062	13529
912.176	13674
912.291	13575
912.405	13662
912.519	13837
912.633	13898
912.748	13723
912.862	13651
912.976	13529
913.09	13422
913.204	13419
913.318	13468
913.431	13559
913.545	13571
913.659	13597
913.772	13407
913.886	13396
914	13324
914.113	13343
914.226	13441
914.34	13365
914.453	13236
914.566	13441
914.68	13221
914.793	13244
914.906	13000
915.019	12989
915.132	12951
915.245	13023
915.358	13095
915.47	12989
915.583	13103
915.696	13038
915.809	13103
915.921	13149
916.034	12909
916.146	12916
916.259	12875
916.371	12951
916.483	12973
916.595	12863
916.708	12924
916.82	12913
916.932	12806
917.044	12840
917.156	12856
917.268	12745
917.38	12662
917.491	12700
917.603	12783
917.715	12757
917.826	12886
917.938	12601
918.049	12521
918.161	12677
918.272	12802
918.384	12795
918.495	12616
918.606	12589
918.717	12456
918.828	12540
918.939	12662
919.05	12437
919.161	12513
919.272	12369
919.383	12418
919.494	12566
919.604	12684
919.715	12517
919.826	12365
919.936	12490
920.047	12620
920.157	12563
920.267	12700
920.378	12509
920.488	12498
920.598	12627
920.708	12791
920.818	12620
920.928	12722
921.038	12859
921.148	12760
921.258	12426
921.368	12327
921.477	12323
921.587	12304
921.697	12194
921.806	12315
921.916	12205
922.025	11965
922.134	11996
922.244	11866
922.353	12030
922.462	11843
922.571	11745
922.68	11653
922.789	11589
922.898	11566
923.007	11554
923.116	11627
923.224	11668
923.333	11547
923.442	11512
923.55	11345
923.659	11429
923.767	11581
923.876	11391
923.984	11512
924.092	11292
924.201	11379
924.309	11395
924.417	11330
924.525	11254
924.633	11231
924.741	12273
924.849	11174
924.956	11280
925.064	11208
925.172	11094
925.279	11140
925.387	11197
925.494	11102
925.602	11311
925.709	11181
925.816	11113
925.924	11071
926.031	11197
926.138	11094
926.245	11174
926.352	11041
926.459	11197
926.566	11121
926.673	11060
926.779	10942
926.886	10835
926.993	10752
927.099	10763
927.206	10675
927.312	10679
927.419	10835
927.525	10755
927.631	10847
927.737	10694
927.843	10687
927.95	10546
928.056	10580
928.162	10637
928.267	10706
928.373	11220
928.479	10706
928.585	10421
928.69	10637
928.796	10664
928.901	10546
929.007	10367
929.112	10516
929.218	10447
929.323	10440
929.428	10314
929.533	10508
929.638	10337
929.743	10352
929.848	10390
929.953	10318
930.058	10268
930.163	10158
930.267	10086
930.372	10246
930.477	10051
930.581	10314
930.685	10200
930.79	10017
930.894	10048
930.998	9941
931.103	10086
931.207	9686
931.311	9656
931.415	9671
931.519	9405
931.623	9408
