Data from test_V78500241_2975.txt Node
Date: Fri Mar 25 14:54:25 CST 2022
User: usil
Spectrometer: V785-0024
Trigger mode: 0
Integration Time (sec): 4.000000E-1
Scans to average: 1
Nonlinearity correction enabled: false
Boxcar width: 0
Storing dark spectrum: false
XAxis mode: Wavelengths
Number of Pixels in Spectrum: 1024
>>>>>Begin Spectral Data<<<<<
801.071	22021
801.214	21903
801.356	21766
801.499	21545
801.641	21496
801.783	21408
801.926	21500
802.068	21363
802.211	21264
802.353	21169
802.496	20998
802.638	20998
802.78	20956
802.923	20895
803.065	20731
803.208	20682
803.35	20842
803.492	20864
803.635	20914
803.777	20807
803.919	20872
804.061	21066
804.204	20895
804.346	20781
804.488	20667
804.63	20659
804.773	20750
804.915	20750
805.057	20785
805.199	20644
805.341	20762
805.483	20788
805.626	20830
805.768	20762
805.91	20750
806.052	20701
806.194	20640
806.336	20815
806.478	20625
806.62	20667
806.762	20689
806.904	20963
807.046	21192
807.188	21093
807.33	20990
807.472	21165
807.614	21013
807.756	21005
807.898	20754
808.04	20769
808.182	20830
808.324	20777
808.465	20838
808.607	21001
808.749	21203
808.891	21104
809.033	21245
809.174	21169
809.316	21028
809.458	21077
809.6	20998
809.741	21047
809.883	21036
810.025	21241
810.166	21192
810.308	21150
810.45	21131
810.591	21127
810.733	20921
810.875	20872
811.016	20777
811.158	20727
811.299	20925
811.441	20883
811.582	20944
811.724	20876
811.865	20735
812.007	20891
812.148	20845
812.29	20815
812.431	20960
812.573	21184
812.714	21241
812.855	21279
812.997	21382
813.138	21549
813.279	21389
813.421	21302
813.562	21264
813.703	21173
813.845	20963
813.986	20746
814.127	20552
814.268	20396
814.41	20465
814.551	20351
814.692	20454
814.833	20317
814.974	20366
815.115	20301
815.256	20248
815.397	20168
815.539	20130
815.68	20024
815.821	20115
815.962	20191
816.103	20126
816.244	19906
816.385	19883
816.526	19856
816.666	19677
816.807	19499
816.948	19506
817.089	19635
817.23	19647
817.371	19533
817.512	19597
817.653	19400
817.793	19575
817.934	19438
818.075	19537
818.216	19502
818.356	19453
818.497	19266
818.638	19088
818.778	19194
818.919	19240
819.06	19225
819.2	19312
819.341	19320
819.481	19354
819.622	19548
819.762	19685
819.903	19681
820.043	19533
820.184	19533
820.324	19559
820.465	19556
820.605	19487
820.746	19502
820.886	19312
821.026	19415
821.167	19304
821.307	19434
821.447	19400
821.588	19343
821.728	19225
821.868	19209
822.008	18882
822.149	18905
822.289	18833
822.429	18589
822.569	18563
822.709	18661
822.849	18407
822.99	18448
823.13	18448
823.27	18350
823.41	18129
823.55	18011
823.69	18235
823.83	18129
823.97	18083
824.11	17889
824.25	17870
824.389	17836
824.529	18060
824.669	17931
824.809	18114
824.949	17958
825.089	18064
825.228	17904
825.368	17889
825.508	17767
825.648	17695
825.787	17783
825.927	17722
826.067	17707
826.206	17646
826.346	17703
826.485	17726
826.625	17668
826.765	17809
826.904	17805
827.044	17520
827.183	17474
827.323	17402
827.462	17471
827.601	17406
827.741	17360
827.88	17478
828.02	17273
828.159	17410
828.298	17482
828.437	17463
828.577	17315
828.716	17505
828.855	17322
828.994	17170
829.134	17235
829.273	17223
829.412	17140
829.551	17060
829.69	17052
829.829	17185
829.968	17265
830.107	17223
830.246	17124
830.385	17147
830.524	17147
830.663	17048
830.802	16782
830.941	16736
831.08	16752
831.219	16801
831.357	16767
831.496	17010
831.635	16729
831.774	16763
831.913	16752
832.051	16592
832.19	16504
832.329	16660
832.467	16367
832.606	16451
832.744	16451
832.883	16402
833.022	16360
833.16	16402
833.299	16618
833.437	16451
833.576	16497
833.714	16440
833.852	16592
833.991	16596
834.129	16519
834.267	16679
834.406	16470
834.544	16573
834.682	16615
834.821	16508
834.959	16622
835.097	16451
835.235	16641
835.373	16592
835.511	16546
835.65	16451
835.788	16352
835.926	16238
836.064	16169
836.202	16303
836.34	16417
836.478	16542
836.615	16356
836.753	16424
836.891	16554
837.029	16512
837.167	16409
837.305	16310
837.443	16386
837.58	16177
837.718	16325
837.856	16265
837.993	16207
838.131	16276
838.269	16093
838.406	16242
838.544	16109
838.681	15861
838.819	15983
838.956	15812
839.094	15781
839.231	15892
839.369	15998
839.506	16238
839.643	16044
839.781	15827
839.918	15835
840.055	15823
840.193	15846
840.33	15743
840.467	15842
840.604	15876
840.742	16074
840.879	15747
841.016	15816
841.153	15724
841.29	15888
841.427	15766
841.564	15880
841.701	15884
841.838	15759
841.975	15690
842.112	15739
842.249	15587
842.385	15492
842.522	15698
842.659	15755
842.796	15530
842.933	15481
843.069	15481
843.206	15530
843.343	15633
843.479	15591
843.616	15610
843.752	15386
843.889	15393
844.025	15500
844.162	15378
844.298	15431
844.435	15424
844.571	15306
844.708	15351
844.844	15488
844.98	15473
845.117	15370
845.253	15306
845.389	15169
845.525	15256
845.661	15252
845.798	15119
845.934	15249
846.07	15135
846.206	15260
846.342	15275
846.478	15195
846.614	14990
846.75	14872
846.886	14823
847.022	15055
847.158	15001
847.294	14899
847.429	14967
847.565	14960
847.701	15180
847.837	14651
847.972	14651
848.108	14762
848.244	14868
848.379	14617
848.515	14492
848.65	14533
848.786	14518
848.921	14533
849.057	14655
849.192	14613
849.328	14560
849.463	14476
849.598	14545
849.734	14400
849.869	14404
850.004	14366
850.14	14313
850.275	14351
850.41	14248
850.545	14256
850.68	14282
850.815	14355
850.95	14286
851.085	14450
851.22	14381
851.355	14309
851.49	14267
851.625	14233
851.76	14358
851.895	14275
852.03	14259
852.165	14286
852.299	14339
852.434	14431
852.569	14332
852.703	14309
852.838	14358
852.973	14461
853.107	14465
853.242	14290
853.376	14233
853.511	14043
853.645	14111
853.78	14336
853.914	14214
854.048	14149
854.183	14225
854.317	14180
854.451	14415
854.585	14145
854.72	14123
854.854	14286
854.988	14157
855.122	14138
855.256	14069
855.39	14164
855.524	14218
855.658	14180
855.792	14229
855.926	14180
856.06	14210
856.194	14438
856.327	14046
856.461	14115
856.595	14126
856.729	14142
856.862	14256
856.996	14240
857.13	14313
857.263	14199
857.397	14282
857.53	14183
857.664	14210
857.797	14298
857.931	14305
858.064	14206
858.197	14385
858.331	14145
858.464	14149
858.597	14142
858.731	14240
858.864	14199
858.997	14157
859.13	14153
859.263	14176
859.396	14320
859.529	14142
859.662	14111
859.795	14168
859.928	14149
860.061	14351
860.194	14286
860.327	14218
860.46	14081
860.592	14237
860.725	14267
860.858	14332
860.99	14142
861.123	14183
861.256	14161
861.388	14107
861.521	14876
861.653	14111
861.786	14001
861.918	13993
862.05	14145
862.183	14164
862.315	14092
862.447	14218
862.58	14100
862.712	13936
862.844	13887
862.976	14020
863.108	13936
863.24	14381
863.372	13989
863.504	13993
863.636	14035
863.768	14062
863.9	14043
864.032	13890
864.164	13928
864.296	14039
864.428	14134
864.559	14081
864.691	14054
864.823	14016
864.954	14046
865.086	14001
865.217	13955
865.349	13841
865.48	13898
865.612	13913
865.743	14145
865.875	13906
866.006	13890
866.137	14024
866.269	13951
866.4	13944
866.531	13913
866.662	13852
866.793	13864
866.924	13902
867.055	13913
867.186	13902
867.317	13883
867.448	13849
867.579	13826
867.71	13814
867.841	13955
867.972	13963
868.103	13928
868.233	13974
868.364	13902
868.495	14073
868.625	14199
868.756	14248
868.886	14176
869.017	14180
869.147	14317
869.278	14240
869.408	14202
869.539	14157
869.669	14339
869.799	14218
869.929	14358
870.06	14355
870.19	14533
870.32	14434
870.45	14598
870.58	14659
870.71	14606
870.84	14686
870.97	14549
871.1	14549
871.23	14765
871.36	14769
871.489	14670
871.619	14739
871.749	14880
871.879	14895
872.008	14933
872.138	14785
872.267	14861
872.397	14617
872.526	14617
872.656	14701
872.785	14697
872.915	14842
873.044	14944
873.173	14792
873.303	14891
873.432	14872
873.561	14853
873.69	14804
873.819	14804
873.948	14956
874.077	14807
874.206	14857
874.335	14830
874.464	14952
874.593	15260
874.722	15017
874.851	15150
874.979	15211
875.108	15230
875.237	15047
875.365	15070
875.494	15097
875.623	15233
875.751	15020
875.88	15161
876.008	15294
876.136	15298
876.265	15576
876.393	15671
876.521	15705
876.65	15545
876.778	15595
876.906	15667
877.034	15439
877.162	15599
877.29	15469
877.418	15698
877.546	15606
877.674	15549
877.802	15580
877.93	15526
878.058	15519
878.185	15549
878.313	15424
878.441	15641
878.568	15450
878.696	15519
878.824	15526
878.951	15629
879.079	15709
879.206	15876
879.333	15618
879.461	15633
879.588	15652
879.715	15736
879.842	15823
879.97	15629
880.097	15389
880.224	15447
880.351	15485
880.478	15466
880.605	15287
880.732	15450
880.859	15671
880.986	15469
881.112	15454
881.239	15306
881.366	15226
881.493	15138
881.619	15104
881.746	15036
881.872	15100
881.999	14998
882.125	15039
882.252	15028
882.378	15028
882.505	15119
882.631	14975
882.757	14891
882.883	14891
883.01	14868
883.136	14838
883.262	14792
883.388	14746
883.514	14933
883.64	14918
883.766	14785
883.892	14701
884.018	14743
884.143	14906
884.269	14979
884.395	14701
884.52	14560
884.646	14583
884.772	14648
884.897	14492
885.023	14610
885.148	14796
885.274	14746
885.399	14667
885.524	14568
885.65	14598
885.775	14594
885.9	14575
886.025	14731
886.15	14689
886.275	14552
886.4	14587
886.525	14575
886.65	14518
886.775	14492
886.9	14724
887.025	14895
887.149	14499
887.274	14431
887.399	14381
887.523	14298
887.648	14328
887.773	14278
887.897	14560
888.021	14568
888.146	14355
888.27	14549
888.395	14625
888.519	14579
888.643	14488
888.767	14324
888.891	14393
889.015	14298
889.139	14320
889.263	14309
889.387	14351
889.511	14530
889.635	14431
889.759	14366
889.883	14282
890.006	14290
890.13	14351
890.254	14244
890.377	14199
890.501	14107
890.624	14180
890.748	14210
890.871	13986
890.995	13917
891.118	13925
891.241	14088
891.364	14005
891.488	14183
891.611	13982
891.734	14012
891.857	14058
891.98	14050
892.103	14119
892.226	14005
892.349	13959
892.471	13894
892.594	13951
892.717	14039
892.839	14012
892.962	13936
893.085	14088
893.207	13906
893.33	13883
893.452	13989
893.575	14058
893.697	14035
893.819	14153
893.941	14214
894.064	14206
894.186	13947
894.308	13902
894.43	14130
894.552	14195
894.674	14123
894.796	13947
894.918	14054
895.04	13970
895.161	14138
895.283	14119
895.405	14069
895.526	13989
895.648	14142
895.769	14145
895.891	14157
896.012	14199
896.134	14183
896.255	14233
896.376	14069
896.498	14172
896.619	14271
896.74	14195
896.861	14233
896.982	14503
897.103	14659
897.224	14526
897.345	14518
897.466	14362
897.587	14419
897.708	14621
897.828	14476
897.949	14317
898.07	14362
898.19	14377
898.311	14621
898.431	14427
898.552	14518
898.672	14602
898.792	14598
898.913	14564
899.033	14499
899.153	14419
899.273	14298
899.393	14301
899.513	14412
899.633	14423
899.753	14412
899.873	14358
899.993	14465
900.113	14454
900.232	14415
900.352	14336
900.472	14259
900.591	14111
900.711	14301
900.83	14218
900.95	14336
901.069	14385
901.189	14161
901.308	14001
901.427	13986
901.546	14008
901.665	14046
901.784	13936
901.904	13772
902.023	13700
902.141	13453
902.26	13586
902.379	13567
902.498	13453
902.617	13381
902.735	13540
902.854	13552
902.973	13430
903.091	13297
903.21	13221
903.328	13236
903.446	13168
903.565	13126
903.683	13129
903.801	12916
903.919	13088
904.038	12989
904.156	12901
904.274	12993
904.392	12913
904.51	12867
904.627	12901
904.745	13019
904.863	12913
904.981	12768
905.098	12452
905.216	12608
905.334	12574
905.451	12509
905.569	12555
905.686	12673
905.803	12585
905.921	12372
906.038	12506
906.155	12502
906.272	12247
906.389	12220
906.506	12175
906.623	12213
906.74	12171
906.857	12045
906.974	11988
907.091	12319
907.208	12273
907.324	12140
907.441	12064
907.557	11973
907.674	11874
907.79	11836
907.907	11946
908.023	11973
908.139	11992
908.256	11824
908.372	11904
908.488	11821
908.604	11729
908.72	11688
908.836	11672
908.952	11589
909.068	11737
909.184	11847
909.3	11684
909.415	11733
909.531	11729
909.647	11505
909.762	11493
909.878	11436
909.993	11474
910.108	11471
910.224	11490
910.339	11440
910.454	11372
910.57	11376
910.685	11296
910.8	11589
910.915	11474
911.03	11326
911.145	11204
911.259	11155
911.374	11204
911.489	11094
911.604	11071
911.718	10984
911.833	10915
911.947	10778
912.062	10786
912.176	10938
912.291	10980
912.405	10896
912.519	11109
912.633	11113
912.748	10919
912.862	10965
912.976	10839
913.09	10740
913.204	10748
913.318	10896
913.431	10919
913.545	10908
913.659	10961
913.772	10854
913.886	10725
914	10759
914.113	10778
914.226	10816
914.34	10774
914.453	10596
914.566	10771
914.68	10774
914.793	10653
914.906	10447
915.019	10447
915.132	10382
915.245	10466
915.358	10485
915.47	10440
915.583	10466
915.696	10546
915.809	10596
915.921	10653
916.034	10409
916.146	10413
916.259	10382
916.371	10485
916.483	10447
916.595	10306
916.708	10379
916.82	10344
916.932	10409
917.044	10352
917.156	10344
917.268	10318
917.38	10322
917.491	10280
917.603	10325
917.715	10363
917.826	10352
917.938	10287
918.049	10116
918.161	10246
918.272	10398
918.384	10421
918.495	10295
918.606	10154
918.717	10086
918.828	10188
918.939	10207
919.05	10101
919.161	10200
919.272	9926
919.383	10044
919.494	10249
919.604	10386
919.715	10139
919.826	10139
919.936	10204
920.047	10310
920.157	10219
920.267	10356
920.378	10207
920.488	10196
920.598	10421
920.708	10531
920.818	10417
920.928	10352
921.038	10561
921.148	10493
921.258	10181
921.368	10116
921.477	10021
921.587	10017
921.697	9956
921.806	10010
921.916	9850
922.025	9793
922.134	9785
922.244	9667
922.353	9785
922.462	9648
922.571	9572
922.68	9523
922.789	9386
922.898	9466
923.007	9393
923.116	9542
923.224	9454
923.333	9348
923.442	9332
923.55	9291
923.659	9378
923.767	9351
923.876	9317
923.984	9412
924.092	9313
924.201	9272
924.309	9359
924.417	9325
924.525	9264
924.633	9283
924.741	10253
924.849	9131
924.956	9199
925.064	9100
925.172	9013
925.279	9070
925.387	9058
925.494	9169
925.602	9256
925.709	9146
925.816	9020
925.924	9089
926.031	9123
926.138	9100
926.245	9173
926.352	8971
926.459	9135
926.566	9268
926.673	9028
926.779	8937
926.886	8979
926.993	8819
927.099	8842
927.206	8766
927.312	8781
927.419	8906
927.525	8838
927.631	8902
927.737	8746
927.843	8716
927.95	8556
928.056	8720
928.162	8731
928.267	8777
928.373	9367
928.479	8800
928.585	8549
928.69	8708
928.796	8785
928.901	8712
929.007	8545
929.112	8625
929.218	8587
929.323	8522
929.428	8564
929.533	8697
929.638	8461
929.743	8541
929.848	8575
929.953	8533
930.058	8446
930.163	8320
930.267	8317
930.372	8442
930.477	8214
930.581	8511
930.685	8396
930.79	8221
930.894	8282
930.998	8252
931.103	8408
931.207	8062
931.311	8001
931.415	7921
931.519	7780
931.623	7742
