Data from test_V78500241_566.txt Node
Date: Fri Mar 25 14:37:39 CST 2022
User: usil
Spectrometer: V785-0024
Trigger mode: 0
Integration Time (sec): 4.000000E-1
Scans to average: 1
Nonlinearity correction enabled: false
Boxcar width: 0
Storing dark spectrum: false
XAxis mode: Wavelengths
Number of Pixels in Spectrum: 1024
>>>>>Begin Spectral Data<<<<<
801.071	27759
801.214	27705
801.356	27462
801.499	27291
801.641	27142
801.783	27005
801.926	27169
802.068	27009
802.211	26967
802.353	26777
802.496	26724
802.638	26564
802.78	26602
802.923	26636
803.065	26514
803.208	26606
803.35	26651
803.492	26712
803.635	26731
803.777	26792
803.919	26632
804.061	27039
804.204	26864
804.346	26754
804.488	26568
804.63	26667
804.773	26712
804.915	26769
805.057	26918
805.199	26933
805.341	26910
805.483	27009
805.626	27077
805.768	26948
805.91	27169
806.052	27104
806.194	27104
806.336	27427
806.478	27450
806.62	27481
806.762	27770
806.904	27960
807.046	28417
807.188	28451
807.33	28683
807.472	29071
807.614	29349
807.756	29710
807.898	30235
808.04	31148
808.182	32130
808.324	33450
808.465	35105
808.607	36932
808.749	38457
808.891	39401
809.033	39477
809.174	38450
809.316	36753
809.458	34942
809.6	33237
809.741	32008
809.883	30932
810.025	30121
810.166	29680
810.308	29151
810.45	28831
810.591	28569
810.733	28242
810.875	28044
811.016	27682
811.158	27682
811.299	27766
811.441	27759
811.582	27701
811.724	27553
811.865	27378
812.007	27389
812.148	27306
812.29	27329
812.431	27473
812.573	27526
812.714	27443
812.855	27637
812.997	27622
813.138	27857
813.279	27709
813.421	27462
813.562	27317
813.703	27249
813.845	27104
813.986	26792
814.127	26560
814.268	26530
814.41	26545
814.551	26499
814.692	26590
814.833	26503
814.974	26385
815.115	26431
815.256	26202
815.397	26240
815.539	26248
815.68	26111
815.821	26050
815.962	26103
816.103	26065
816.244	25894
816.385	25951
816.526	25822
816.666	25632
816.807	25460
816.948	25506
817.089	25506
817.23	25476
817.371	25422
817.512	25354
817.653	25285
817.793	25308
817.934	25373
818.075	25449
818.216	25495
818.356	25316
818.497	25221
818.638	25046
818.778	24924
818.919	25080
819.06	25069
819.2	25240
819.341	25316
819.481	25285
819.622	25476
819.762	25586
819.903	25415
820.043	25335
820.184	25415
820.324	25343
820.465	25362
820.605	25209
820.746	25365
820.886	24973
821.026	25282
821.167	25141
821.307	25263
821.447	25065
821.588	25103
821.728	24875
821.868	24623
822.008	24601
822.149	24494
822.289	24441
822.429	24292
822.569	24235
822.709	24098
822.849	24057
822.99	24076
823.13	23901
823.27	23935
823.41	23939
823.55	23729
823.69	23809
823.83	23691
823.97	23699
824.11	23463
824.25	23501
824.389	23558
824.529	23520
824.669	23471
824.809	23573
824.949	23695
825.089	23592
825.228	23604
825.368	23417
825.508	23444
825.648	23402
825.787	23410
825.927	23455
826.067	23292
826.206	23379
826.346	23311
826.485	23326
826.625	23223
826.765	23501
826.904	23341
827.044	22923
827.183	23071
827.323	23086
827.462	23010
827.601	22980
827.741	22919
827.88	22991
828.02	22904
828.159	22957
828.298	22892
828.437	22923
828.577	22957
828.716	23006
828.855	22866
828.994	22755
829.134	22740
829.273	22603
829.412	22668
829.551	22531
829.69	22672
829.829	22641
829.968	22828
830.107	22596
830.246	22637
830.385	22584
830.524	22592
830.663	22363
830.802	22371
830.941	22226
831.08	22192
831.219	22344
831.357	22272
831.496	22394
831.635	22253
831.774	22200
831.913	22032
832.051	21975
832.19	22032
832.329	22063
832.467	21861
832.606	21895
832.744	22010
832.883	22006
833.022	22029
833.16	22002
833.299	22177
833.437	22246
833.576	22303
833.714	22341
833.852	22569
833.991	22504
834.129	22710
834.267	22645
834.406	22481
834.544	22474
834.682	22481
834.821	22322
834.959	22538
835.097	22306
835.235	22166
835.373	22097
835.511	22105
835.65	21888
835.788	21991
835.926	21717
836.064	21717
836.202	21629
836.34	21747
836.478	21759
836.615	21736
836.753	21728
836.891	21701
837.029	21743
837.167	21709
837.305	21572
837.443	21618
837.58	21504
837.718	21595
837.856	21603
837.993	21424
838.131	21583
838.269	21462
838.406	21420
838.544	21450
838.681	21207
838.819	21074
838.956	20895
839.094	21036
839.231	20921
839.369	21142
839.506	21374
839.643	21195
839.781	21017
839.918	20811
840.055	20918
840.193	20948
840.33	20929
840.467	20902
840.604	20998
840.742	21222
840.879	20724
841.016	20705
841.153	20693
841.29	21100
841.427	20811
841.564	20868
841.701	20952
841.838	20807
841.975	20807
842.112	20880
842.249	20594
842.385	20556
842.522	20937
842.659	20720
842.796	20670
842.933	20678
843.069	20701
843.206	20670
843.343	20735
843.479	20640
843.616	20708
843.752	20609
843.889	20541
844.025	20743
844.162	20617
844.298	20769
844.435	20811
844.571	20826
844.708	21085
844.844	21230
844.98	21435
845.117	21827
845.253	22261
845.389	22991
845.525	24909
845.661	27641
845.798	31179
845.934	34154
846.07	35212
846.206	34649
846.342	32450
846.478	28771
846.614	25518
846.75	23474
846.886	22185
847.022	21526
847.158	21032
847.294	20754
847.429	20495
847.565	20313
847.701	20507
847.837	19803
847.972	19803
848.108	19875
848.244	19860
848.379	19567
848.515	19578
848.65	19472
848.786	19582
848.921	19514
849.057	19655
849.192	19518
849.328	19548
849.463	19506
849.598	19483
849.734	19441
849.869	19426
850.004	19206
850.14	19171
850.275	19350
850.41	19118
850.545	19118
850.68	19141
850.815	19244
850.95	19057
851.085	19407
851.22	19335
851.355	19183
851.49	19145
851.625	19209
851.76	19057
851.895	18981
852.03	18958
852.165	19228
852.299	19095
852.434	19206
852.569	19206
852.703	19148
852.838	19282
852.973	19388
853.107	19457
853.242	19145
853.376	19141
853.511	19012
853.645	19023
853.78	19343
853.914	19152
854.048	19183
854.183	19240
854.317	19339
854.451	19411
854.585	19282
854.72	19263
854.854	19270
854.988	19091
855.122	19183
855.256	19031
855.39	19095
855.524	19057
855.658	19027
855.792	19129
855.926	19072
856.06	19088
856.194	18935
856.327	19084
856.461	19133
856.595	18973
856.729	18993
856.862	19141
856.996	18954
857.13	19042
857.263	19061
857.397	19004
857.53	18943
857.664	18989
857.797	18996
857.931	19137
858.064	18977
858.197	19118
858.331	18848
858.464	18764
858.597	18757
858.731	18856
858.864	18817
858.997	18920
859.13	18970
859.263	18886
859.396	18913
859.529	18909
859.662	18916
859.795	18852
859.928	18890
860.061	18993
860.194	19042
860.327	18897
860.46	18875
860.592	18890
860.725	19012
860.858	18973
860.99	18897
861.123	18802
861.256	18726
861.388	18837
861.521	19521
861.653	18829
861.786	18681
861.918	18715
862.05	18749
862.183	18878
862.315	18973
862.447	18939
862.58	18935
862.712	18661
862.844	18578
862.976	18601
863.108	18654
863.24	18970
863.372	18551
863.504	18521
863.636	18650
863.768	18639
863.9	18525
864.032	18414
864.164	18604
864.296	18494
864.428	18673
864.559	18631
864.691	18601
864.823	18612
864.954	18570
865.086	18635
865.217	18486
865.349	18410
865.48	18467
865.612	18437
865.743	18646
865.875	18483
866.006	18475
866.137	18639
866.269	18509
866.4	18433
866.531	18490
866.662	18418
866.793	18498
866.924	18437
867.055	18464
867.186	18407
867.317	18319
867.448	18433
867.579	18357
867.71	18338
867.841	18308
867.972	18456
868.103	18429
868.233	18509
868.364	18376
868.495	18574
868.625	18597
868.756	18741
868.886	18604
869.017	18684
869.147	18749
869.278	18802
869.408	18681
869.539	18745
869.669	18844
869.799	18757
869.929	18741
870.06	18817
870.19	19061
870.32	18962
870.45	19129
870.58	19038
870.71	19274
870.84	19278
870.97	19057
871.1	19160
871.23	19331
871.36	19324
871.489	19289
871.619	19388
871.749	19236
871.879	19476
872.008	19510
872.138	19270
872.267	19384
872.397	19251
872.526	19304
872.656	19206
872.785	19221
872.915	19426
873.044	19533
873.173	19354
873.303	19460
873.432	19422
873.561	19609
873.69	19548
873.819	19472
873.948	19712
874.077	19506
874.206	19491
874.335	19556
874.464	19769
874.593	19772
874.722	19811
874.851	19791
874.979	19932
875.108	19940
875.237	19925
875.365	19849
875.494	19898
875.623	19986
875.751	20058
875.88	20035
876.008	20191
876.136	20278
876.265	20431
876.393	20632
876.521	20530
876.65	20724
876.778	20602
876.906	20632
877.034	20609
877.162	20746
877.29	20617
877.418	20785
877.546	20834
877.674	20883
877.802	20979
877.93	21032
878.058	21032
878.185	21203
878.313	21211
878.441	21564
878.568	21564
878.696	21926
878.824	22432
878.951	23060
879.079	23965
879.206	24905
879.333	26092
879.461	26956
879.588	27622
879.715	27591
879.842	27252
879.97	26161
880.097	24848
880.224	23832
880.351	23315
880.478	22900
880.605	22523
880.732	22367
880.859	22466
880.986	22306
881.112	22067
881.239	21998
881.366	21785
881.493	21663
881.619	21698
881.746	21698
881.872	21717
881.999	21690
882.125	21766
882.252	21793
882.378	21812
882.505	21892
882.631	21759
882.757	21519
882.883	21679
883.01	21610
883.136	21523
883.262	21507
883.388	21378
883.514	21580
883.64	21595
883.766	21515
883.892	21428
884.018	21321
884.143	21462
884.269	21515
884.395	21245
884.52	21279
884.646	21283
884.772	21230
884.897	21112
885.023	21222
885.148	21344
885.274	21302
885.399	21287
885.524	21131
885.65	21062
885.775	21058
885.9	20910
886.025	20963
886.15	20921
886.275	20636
886.4	20583
886.525	20522
886.65	20381
886.775	20393
886.9	20499
887.025	20587
887.149	20339
887.274	19967
887.399	20008
887.523	19887
887.648	19852
887.773	19753
887.897	19734
888.021	19811
888.146	19655
888.27	19902
888.395	19791
888.519	19791
888.643	19689
888.767	19689
888.891	19563
889.015	19438
889.139	19544
889.263	19384
889.387	19468
889.511	19635
889.635	19419
889.759	19187
889.883	19202
890.006	19206
890.13	19312
890.254	19209
890.377	19031
890.501	18939
890.624	18981
890.748	18973
890.871	18894
890.995	18753
891.118	18665
891.241	18722
891.364	18703
891.488	18726
891.611	18776
891.734	18646
891.857	18654
891.98	18684
892.103	18661
892.226	18707
892.349	18498
892.471	18433
892.594	18544
892.717	18555
892.839	18407
892.962	18486
893.085	18479
893.207	18521
893.33	18384
893.452	18304
893.575	18380
893.697	18338
893.819	18547
893.941	18627
894.064	18483
894.186	18327
894.308	18205
894.43	18342
894.552	18391
894.674	18433
894.796	18194
894.918	18254
895.04	18232
895.161	18388
895.283	18342
895.405	18270
895.526	18319
895.648	18285
895.769	18266
895.891	18292
896.012	18334
896.134	18186
896.255	18353
896.376	18174
896.498	18174
896.619	18410
896.74	18228
896.861	18346
896.982	18593
897.103	18817
897.224	18403
897.345	18513
897.466	18464
897.587	18494
897.708	18551
897.828	18521
897.949	18361
898.07	18403
898.19	18399
898.311	18544
898.431	18372
898.552	18433
898.672	18464
898.792	18517
898.913	18506
899.033	18311
899.153	18266
899.273	18216
899.393	18178
899.513	18232
899.633	18190
899.753	18296
899.873	18114
899.993	18292
900.113	18095
900.232	18155
900.352	18190
900.472	18136
900.591	18026
900.711	18083
900.83	18030
900.95	18136
901.069	18060
901.189	17904
901.308	17676
901.427	17608
901.546	17634
901.665	17573
901.784	17661
901.904	17501
902.023	17398
902.141	17292
902.26	17109
902.379	17204
902.498	17037
902.617	17090
902.735	17006
902.854	16991
902.973	16999
903.091	16790
903.21	16763
903.328	16736
903.446	16626
903.565	16554
903.683	16615
903.801	16489
903.919	16535
904.038	16554
904.156	16455
904.274	16348
904.392	16432
904.51	16215
904.627	16234
904.745	16375
904.863	16325
904.981	15956
905.098	16002
905.216	15941
905.334	15956
905.451	15911
905.569	15876
905.686	16090
905.803	15911
905.921	15800
906.038	15850
906.155	15759
906.272	15553
906.389	15629
906.506	15477
906.623	15420
906.74	15458
906.857	15291
906.974	15370
907.091	15481
907.208	15637
907.324	15496
907.441	15424
907.557	15161
907.674	15272
907.79	15043
907.907	15135
908.023	15058
908.139	15154
908.256	15051
908.372	15074
908.488	15047
908.604	14994
908.72	14823
908.836	14902
908.952	14838
909.068	14880
909.184	14880
909.3	14845
909.415	14887
909.531	14861
909.647	14727
909.762	14606
909.878	14610
909.993	14583
910.108	14533
910.224	14533
910.339	14556
910.454	14408
910.57	14415
910.685	14263
910.8	14587
910.915	14545
911.03	14442
911.145	14301
911.259	14233
911.374	14221
911.489	14103
911.604	14054
911.718	14012
911.833	14008
911.947	13868
912.062	13750
912.176	13852
912.291	13902
912.405	13917
912.519	14138
912.633	14157
912.748	14035
912.862	13928
912.976	13765
913.09	13658
913.204	13746
913.318	13780
913.431	13879
913.545	13776
913.659	13830
913.772	13776
913.886	13601
914	13674
914.113	13708
914.226	13715
914.34	13662
914.453	13559
914.566	13601
914.68	13559
914.793	13457
914.906	13400
915.019	13301
915.132	13266
915.245	13274
915.358	13339
915.47	13316
915.583	13316
915.696	13327
915.809	13381
915.921	13426
916.034	13270
916.146	13331
916.259	13217
916.371	13331
916.483	13217
916.595	13114
916.708	13194
916.82	13270
916.932	13206
917.044	13187
917.156	13179
917.268	13072
917.38	13088
917.491	12977
917.603	13046
917.715	13110
917.826	13190
917.938	13019
918.049	12833
918.161	13012
918.272	13084
918.384	13137
918.495	12973
918.606	12932
918.717	12791
918.828	12871
918.939	12878
919.05	12795
919.161	12783
919.272	12696
919.383	12570
919.494	12844
919.604	12962
919.715	12772
919.826	12650
919.936	12711
920.047	12859
920.157	12772
920.267	12966
920.378	12810
920.488	12791
920.598	12913
920.708	13088
920.818	12932
920.928	12894
921.038	13088
921.148	13027
921.258	12745
921.368	12669
921.477	12506
921.587	12604
921.697	12418
921.806	12513
921.916	12418
922.025	12197
922.134	12079
922.244	12117
922.353	12262
922.462	12133
922.571	11984
922.68	11809
922.789	11809
922.898	11863
923.007	11843
923.116	11840
923.224	11828
923.333	11790
923.442	11737
923.55	11661
923.659	11699
923.767	11703
923.876	11680
923.984	11672
924.092	11630
924.201	11649
924.309	11646
924.417	11592
924.525	11486
924.633	11501
924.741	12384
924.849	11391
924.956	11467
925.064	11414
925.172	11368
925.279	11311
925.387	11376
925.494	11398
925.602	11402
925.709	11436
925.816	11277
925.924	11307
926.031	11395
926.138	11318
926.245	11356
926.352	11216
926.459	11406
926.566	11379
926.673	11235
926.779	11220
926.886	11136
926.993	11014
927.099	11025
927.206	10972
927.312	10908
927.419	11006
927.525	10946
927.631	11045
927.737	10854
927.843	10805
927.95	10736
928.056	10839
928.162	10862
928.267	10881
928.373	11402
928.479	10839
928.585	10656
928.69	10854
928.796	10801
928.901	10706
929.007	10546
929.112	10683
929.218	10752
929.323	10626
929.428	10550
929.533	10736
929.638	10531
929.743	10580
929.848	10573
929.953	10554
930.058	10428
930.163	10318
930.267	10295
930.372	10481
930.477	10242
930.581	10497
930.685	10356
930.79	10173
930.894	10291
930.998	10253
931.103	10291
931.207	9972
931.311	9945
931.415	9869
931.519	9614
931.623	9663
