Data from test_V78500241_3662.txt Node
Date: Fri Mar 25 14:59:13 CST 2022
User: usil
Spectrometer: V785-0024
Trigger mode: 0
Integration Time (sec): 4.000000E-1
Scans to average: 1
Nonlinearity correction enabled: false
Boxcar width: 0
Storing dark spectrum: false
XAxis mode: Wavelengths
Number of Pixels in Spectrum: 1024
>>>>>Begin Spectral Data<<<<<
801.071	21972
801.214	21759
801.356	21641
801.499	21458
801.641	21416
801.783	21344
801.926	21310
802.068	21154
802.211	21245
802.353	21093
802.496	20842
802.638	20739
802.78	20697
802.923	20762
803.065	20579
803.208	20507
803.35	20549
803.492	20807
803.635	20735
803.777	20609
803.919	20648
804.061	20937
804.204	20606
804.346	20549
804.488	20465
804.63	20575
804.773	20541
804.915	20419
805.057	20568
805.199	20446
805.341	20541
805.483	20674
805.626	20537
805.768	20488
805.91	20617
806.052	20454
806.194	20552
806.336	20670
806.478	20514
806.62	20454
806.762	20503
806.904	20670
807.046	20887
807.188	20864
807.33	20876
807.472	20796
807.614	20640
807.756	20613
807.898	20606
808.04	20575
808.182	20560
808.324	20754
808.465	20590
808.607	20765
808.749	20910
808.891	21001
809.033	21039
809.174	20834
809.316	20815
809.458	20830
809.6	20823
809.741	20830
809.883	20895
810.025	21020
810.166	21024
810.308	21051
810.45	20937
810.591	20899
810.733	20735
810.875	20613
811.016	20667
811.158	20400
811.299	20678
811.441	20758
811.582	20769
811.724	20552
811.865	20682
812.007	20480
812.148	20537
812.29	20689
812.431	20781
812.573	21009
812.714	20891
812.855	21074
812.997	21230
813.138	21283
813.279	21313
813.421	21074
813.562	21005
813.703	21043
813.845	20792
813.986	20503
814.127	20282
814.268	20267
814.41	20172
814.551	20096
814.692	20172
814.833	20115
814.974	20065
815.115	20126
815.256	20073
815.397	20069
815.539	19959
815.68	19845
815.821	19890
815.962	19944
816.103	19898
816.244	19658
816.385	19597
816.526	19616
816.666	19388
816.807	19263
816.948	19430
817.089	19468
817.23	19324
817.371	19209
817.512	19358
817.653	19232
817.793	19171
817.934	19422
818.075	19320
818.216	19293
818.356	19263
818.497	19027
818.638	18951
818.778	18947
818.919	19042
819.06	19038
819.2	19072
819.341	19057
819.481	19122
819.622	19285
819.762	19468
819.903	19312
820.043	19339
820.184	19259
820.324	19187
820.465	19282
820.605	19289
820.746	19209
820.886	19084
821.026	19263
821.167	19293
821.307	19255
821.447	19042
821.588	19137
821.728	19042
821.868	18840
822.008	18692
822.149	18639
822.289	18547
822.429	18486
822.569	18361
822.709	18376
822.849	18167
822.99	18125
823.13	18178
823.27	18098
823.41	18015
823.55	17942
823.69	17935
823.83	18026
823.97	17916
824.11	17817
824.25	17741
824.389	17832
824.529	17733
824.669	17813
824.809	17897
824.949	17870
825.089	17809
825.228	17824
825.368	17482
825.508	17600
825.648	17600
825.787	17528
825.927	17638
826.067	17532
826.206	17532
826.346	17547
826.485	17512
826.625	17535
826.765	17718
826.904	17471
827.044	17337
827.183	17235
827.323	17341
827.462	17204
827.601	17250
827.741	17121
827.88	17269
828.02	17090
828.159	17200
828.298	17239
828.437	17273
828.577	17166
828.716	17307
828.855	17162
828.994	16873
829.134	17029
829.273	17003
829.412	16911
829.551	16885
829.69	16892
829.829	17010
829.968	16995
830.107	17041
830.246	16938
830.385	16953
830.524	16881
830.663	16854
830.802	16706
830.941	16615
831.08	16615
831.219	16691
831.357	16618
831.496	16797
831.635	16668
831.774	16519
831.913	16516
832.051	16329
832.19	16337
832.329	16481
832.467	16318
832.606	16284
832.744	16306
832.883	16238
833.022	16318
833.16	16325
833.299	16295
833.437	16363
833.576	16314
833.714	16459
833.852	16375
833.991	16421
834.129	16375
834.267	16360
834.406	16287
834.544	16390
834.682	16489
834.821	16363
834.959	16489
835.097	16219
835.235	16440
835.373	16329
835.511	16352
835.65	16310
835.788	16242
835.926	16074
836.064	16090
836.202	16223
836.34	16291
836.478	16443
836.615	16234
836.753	16295
836.891	16341
837.029	16325
837.167	16303
837.305	16291
837.443	16093
837.58	16147
837.718	16200
837.856	16219
837.993	16135
838.131	16188
838.269	16010
838.406	16044
838.544	16044
838.681	15911
838.819	15755
838.956	15751
839.094	15675
839.231	15865
839.369	15926
839.506	16124
839.643	15983
839.781	15667
839.918	15766
840.055	15751
840.193	15724
840.33	15572
840.467	15648
840.604	15717
840.742	15968
840.879	15462
841.016	15671
841.153	15663
841.29	15876
841.427	15774
841.564	15660
841.701	15789
841.838	15618
841.975	15648
842.112	15553
842.249	15458
842.385	15523
842.522	15614
842.659	15507
842.796	15454
842.933	15477
843.069	15553
843.206	15481
843.343	15500
843.479	15561
843.616	15496
843.752	15226
843.889	15317
844.025	15466
844.162	15211
844.298	15370
844.435	15294
844.571	15260
844.708	15397
844.844	15523
844.98	15420
845.117	15291
845.253	15211
845.389	15165
845.525	15150
845.661	15157
845.798	15127
845.934	15104
846.07	15036
846.206	15131
846.342	15138
846.478	15074
846.614	14986
846.75	14902
846.886	14777
847.022	14891
847.158	14781
847.294	14902
847.429	14899
847.565	14838
847.701	15062
847.837	14621
847.972	14594
848.108	14743
848.244	14804
848.379	14427
848.515	14503
848.65	14396
848.786	14351
848.921	14549
849.057	14556
849.192	14568
849.328	14465
849.463	14461
849.598	14393
849.734	14324
849.869	14366
850.004	14271
850.14	14320
850.275	14286
850.41	14065
850.545	14233
850.68	14229
850.815	14259
850.95	14267
851.085	14438
851.22	14370
851.355	14267
851.49	14164
851.625	14191
851.76	14126
851.895	14081
852.03	14084
852.165	14180
852.299	14233
852.434	14252
852.569	14195
852.703	14206
852.838	14294
852.973	14393
853.107	14362
853.242	14191
853.376	14092
853.511	14027
853.645	14100
853.78	14252
853.914	14145
854.048	14115
854.183	14100
854.317	14199
854.451	14214
854.585	14119
854.72	14088
854.854	14191
854.988	14039
855.122	13970
855.256	13906
855.39	14153
855.524	14130
855.658	14130
855.792	14168
855.926	14142
856.06	14168
856.194	14271
856.327	14084
856.461	14046
856.595	14153
856.729	14107
856.862	14187
856.996	14084
857.13	14191
857.263	14218
857.397	14218
857.53	14058
857.664	14077
857.797	14229
857.931	14233
858.064	14157
858.197	14206
858.331	14050
858.464	14058
858.597	13986
858.731	14134
858.864	14115
858.997	14103
859.13	14153
859.263	14191
859.396	14161
859.529	14149
859.662	14065
859.795	14073
859.928	14233
860.061	14240
860.194	14206
860.327	14134
860.46	14130
860.592	14206
860.725	14282
860.858	14183
860.99	14119
861.123	14069
861.256	13997
861.388	14024
861.521	14796
861.653	13986
861.786	13963
861.918	13940
862.05	13993
862.183	14020
862.315	14115
862.447	14176
862.58	14001
862.712	13833
862.844	13776
862.976	13936
863.108	13951
863.24	14259
863.372	13845
863.504	13868
863.636	13868
863.768	13917
863.9	13944
864.032	13807
864.164	13860
864.296	13906
864.428	14031
864.559	13967
864.691	13944
864.823	13940
864.954	13974
865.086	13955
865.217	13795
865.349	13868
865.48	13856
865.612	13860
865.743	14069
865.875	13951
866.006	13913
866.137	13906
866.269	13951
866.4	13814
866.531	13849
866.662	13894
866.793	13940
866.924	13841
867.055	13856
867.186	13814
867.317	13795
867.448	13814
867.579	13803
867.71	13788
867.841	13791
867.972	13967
868.103	13944
868.233	13921
868.364	13898
868.495	13849
868.625	14100
868.756	14126
868.886	14073
869.017	14058
869.147	14294
869.278	14309
869.408	14157
869.539	14084
869.669	14263
869.799	14282
869.929	14237
870.06	14206
870.19	14473
870.32	14492
870.45	14541
870.58	14606
870.71	14610
870.84	14777
870.97	14469
871.1	14598
871.23	14663
871.36	14659
871.489	14594
871.619	14686
871.749	14667
871.879	14800
872.008	14777
872.138	14739
872.267	14621
872.397	14564
872.526	14579
872.656	14556
872.785	14541
872.915	14857
873.044	14857
873.173	14716
873.303	14796
873.432	14819
873.561	14887
873.69	14724
873.819	14849
873.948	14781
874.077	14804
874.206	14758
874.335	14788
874.464	14952
874.593	15165
874.722	15017
874.851	15123
874.979	15184
875.108	15173
875.237	14994
875.365	15062
875.494	15093
875.623	15131
875.751	15055
875.88	15108
876.008	15211
876.136	15344
876.265	15511
876.393	15732
876.521	15580
876.65	15606
876.778	15507
876.906	15454
877.034	15485
877.162	15511
877.29	15492
877.418	15572
877.546	15557
877.674	15496
877.802	15538
877.93	15431
878.058	15466
878.185	15393
878.313	15492
878.441	15637
878.568	15363
878.696	15492
878.824	15526
878.951	15576
879.079	15701
879.206	15930
879.333	15633
879.461	15591
879.588	15622
879.715	15739
879.842	15686
879.97	15553
880.097	15370
880.224	15374
880.351	15370
880.478	15401
880.605	15382
880.732	15317
880.859	15606
880.986	15332
881.112	15412
881.239	15214
881.366	15123
881.493	15138
881.619	15032
881.746	14990
881.872	15081
881.999	15024
882.125	15032
882.252	15077
882.378	15077
882.505	15146
882.631	14967
882.757	14834
882.883	14868
883.01	14857
883.136	14899
883.262	14716
883.388	14674
883.514	14887
883.64	14857
883.766	14773
883.892	14689
884.018	14727
884.143	14811
884.269	14895
884.395	14667
884.52	14587
884.646	14590
884.772	14495
884.897	14415
885.023	14537
885.148	14625
885.274	14819
885.399	14716
885.524	14617
885.65	14602
885.775	14484
885.9	14549
886.025	14731
886.15	14602
886.275	14473
886.4	14450
886.525	14537
886.65	14492
886.775	14427
886.9	14724
887.025	14804
887.149	14533
887.274	14370
887.399	14358
887.523	14309
887.648	14290
887.773	14278
887.897	14484
888.021	14495
888.146	14362
888.27	14473
888.395	14552
888.519	14450
888.643	14499
888.767	14495
888.891	14313
889.015	14237
889.139	14301
889.263	14244
889.387	14370
889.511	14442
889.635	14381
889.759	14267
889.883	14183
890.006	14309
890.13	14320
890.254	14214
890.377	14199
890.501	14012
890.624	13974
890.748	14134
890.871	14062
890.995	13894
891.118	13902
891.241	13944
891.364	14016
891.488	14058
891.611	13871
891.734	13947
891.857	14035
891.98	13959
892.103	14043
892.226	13902
892.349	13936
892.471	13761
892.594	13974
892.717	14073
892.839	13925
892.962	14027
893.085	14001
893.207	13906
893.33	13799
893.452	13928
893.575	14035
893.697	13921
893.819	14168
893.941	14092
894.064	14092
894.186	13928
894.308	13951
894.43	13997
894.552	14145
894.674	14176
894.796	13925
894.918	14012
895.04	13970
895.161	14073
895.283	14016
895.405	13875
895.526	14054
895.648	14035
895.769	14244
895.891	14183
896.012	14191
896.134	14100
896.255	14126
896.376	14077
896.498	14111
896.619	14130
896.74	14138
896.861	14138
896.982	14442
897.103	14537
897.224	14431
897.345	14385
897.466	14286
897.587	14343
897.708	14438
897.828	14473
897.949	14301
898.07	14252
898.19	14366
898.311	14526
898.431	14381
898.552	14442
898.672	14530
898.792	14640
898.913	14560
899.033	14343
899.153	14259
899.273	14290
899.393	14320
899.513	14343
899.633	14370
899.753	14343
899.873	14347
899.993	14419
900.113	14305
900.232	14366
900.352	14275
900.472	14305
900.591	14218
900.711	14263
900.83	14206
900.95	14240
901.069	14324
901.189	14286
901.308	13947
901.427	13791
901.546	13955
901.665	13887
901.784	13860
901.904	13734
902.023	13677
902.141	13525
902.26	13460
902.379	13468
902.498	13403
902.617	13430
902.735	13548
902.854	13449
902.973	13312
903.091	13251
903.21	13190
903.328	13137
903.446	13099
903.565	13008
903.683	13084
903.801	13015
903.919	13008
904.038	13000
904.156	12783
904.274	12909
904.392	12810
904.51	12852
904.627	12852
904.745	12882
904.863	12848
904.981	12616
905.098	12479
905.216	12479
905.334	12536
905.451	12631
905.569	12517
905.686	12627
905.803	12559
905.921	12380
906.038	12399
906.155	12323
906.272	12311
906.389	12270
906.506	12110
906.623	12213
906.74	12129
906.857	12060
906.974	12106
907.091	12159
907.208	12292
907.324	12098
907.441	12083
907.557	11836
907.674	11878
907.79	11802
907.907	11790
908.023	11916
908.139	11904
908.256	11809
908.372	11828
908.488	11813
908.604	11672
908.72	11497
908.836	11608
908.952	11604
909.068	11733
909.184	11775
909.3	11623
909.415	11718
909.531	11665
909.647	11440
909.762	11516
909.878	11364
909.993	11429
910.108	11387
910.224	11395
910.339	11398
910.454	11288
910.57	11178
910.685	11162
910.8	11539
910.915	11444
911.03	11201
911.145	11056
911.259	11048
911.374	11060
911.489	10968
911.604	11041
911.718	10797
911.833	10892
911.947	10858
912.062	10702
912.176	10843
912.291	10847
912.405	10847
912.519	11064
912.633	11105
912.748	10873
912.862	10801
912.976	10755
913.09	10611
913.204	10672
913.318	10759
913.431	10854
913.545	10771
913.659	10881
913.772	10767
913.886	10717
914	10561
914.113	10752
914.226	10744
914.34	10702
914.453	10630
914.566	10710
914.68	10554
914.793	10561
914.906	10375
915.019	10382
915.132	10329
915.245	10402
915.358	10398
915.47	10402
915.583	10455
915.696	10508
915.809	10466
915.921	10546
916.034	10390
916.146	10303
916.259	10341
916.371	10440
916.483	10325
916.595	10398
916.708	10325
916.82	10371
916.932	10333
917.044	10352
917.156	10287
917.268	10200
917.38	10219
917.491	10242
917.603	10299
917.715	10287
917.826	10360
917.938	10207
918.049	10139
918.161	10310
918.272	10375
918.384	10386
918.495	10268
918.606	10112
918.717	10010
918.828	10101
918.939	10162
919.05	10086
919.161	10067
919.272	9915
919.383	10006
919.494	10253
919.604	10379
919.715	10143
919.826	10090
919.936	10227
920.047	10173
920.157	10200
920.267	10386
920.378	10192
920.488	10150
920.598	10360
920.708	10455
920.818	10367
920.928	10333
921.038	10565
921.148	10504
921.258	10211
921.368	10074
921.477	9972
921.587	9979
921.697	9907
921.806	10040
921.916	9808
922.025	9724
922.134	9759
922.244	9675
922.353	9751
922.462	9561
922.571	9500
922.68	9507
922.789	9405
922.898	9370
923.007	9348
923.116	9523
923.224	9447
923.333	9374
923.442	9378
923.55	9260
923.659	9249
923.767	9310
923.876	9287
923.984	9294
924.092	9249
924.201	9272
924.309	9294
924.417	9256
924.525	9279
924.633	9272
924.741	10010
924.849	9085
924.956	9218
925.064	9028
925.172	8975
925.279	9081
925.387	9192
925.494	9047
925.602	9237
925.709	9161
925.816	8994
925.924	9017
926.031	9112
926.138	9108
926.245	9077
926.352	9043
926.459	9108
926.566	9180
926.673	9074
926.779	8933
926.886	8929
926.993	8815
927.099	8758
927.206	8716
927.312	8781
927.419	8842
927.525	8804
927.631	8845
927.737	8716
927.843	8640
927.95	8606
928.056	8674
928.162	8693
928.267	8724
928.373	9230
928.479	8785
928.585	8537
928.69	8636
928.796	8693
928.901	8613
929.007	8484
929.112	8636
929.218	8541
929.323	8484
929.428	8499
929.533	8651
929.638	8476
929.743	8495
929.848	8575
929.953	8488
930.058	8400
930.163	8301
930.267	8221
930.372	8442
930.477	8240
930.581	8454
930.685	8336
930.79	8256
930.894	8233
930.998	8130
931.103	8374
931.207	7974
931.311	7902
931.415	7902
931.519	7742
931.623	7708
