Data from test_V78500241_3577.txt Node
Date: Fri Mar 25 14:58:37 CST 2022
User: usil
Spectrometer: V785-0024
Trigger mode: 0
Integration Time (sec): 4.000000E-1
Scans to average: 1
Nonlinearity correction enabled: false
Boxcar width: 0
Storing dark spectrum: false
XAxis mode: Wavelengths
Number of Pixels in Spectrum: 1024
>>>>>Begin Spectral Data<<<<<
801.071	21987
801.214	21766
801.356	21428
801.499	21481
801.641	21416
801.783	21260
801.926	21272
802.068	21119
802.211	21188
802.353	21188
802.496	20937
802.638	20804
802.78	20746
802.923	20777
803.065	20705
803.208	20522
803.35	20594
803.492	20712
803.635	20697
803.777	20571
803.919	20716
804.061	20899
804.204	20689
804.346	20613
804.488	20541
804.63	20556
804.773	20427
804.915	20632
805.057	20648
805.199	20476
805.341	20480
805.483	20587
805.626	20579
805.768	20465
805.91	20461
806.052	20473
806.194	20473
806.336	20648
806.478	20408
806.62	20530
806.762	20511
806.904	20739
807.046	20906
807.188	20823
807.33	20830
807.472	20845
807.614	20758
807.756	20731
807.898	20716
808.04	20564
808.182	20587
808.324	20590
808.465	20590
808.607	20762
808.749	20944
808.891	20979
809.033	21093
809.174	20963
809.316	20727
809.458	20868
809.6	20724
809.741	20960
809.883	20948
810.025	21123
810.166	21013
810.308	20941
810.45	20963
810.591	20948
810.733	20720
810.875	20602
811.016	20613
811.158	20598
811.299	20598
811.441	20731
811.582	20682
811.724	20613
811.865	20549
812.007	20541
812.148	20568
812.29	20625
812.431	20785
812.573	20986
812.714	21089
812.855	21173
812.997	21142
813.138	21378
813.279	21211
813.421	21085
813.562	21051
813.703	20830
813.845	20785
813.986	20560
814.127	20267
814.268	20244
814.41	20233
814.551	20119
814.692	20122
814.833	20142
814.974	20096
815.115	20187
815.256	19925
815.397	20062
815.539	20012
815.68	19830
815.821	19772
815.962	19921
816.103	19868
816.244	19628
816.385	19559
816.526	19575
816.666	19392
816.807	19350
816.948	19373
817.089	19403
817.23	19274
817.371	19263
817.512	19289
817.653	19304
817.793	19274
817.934	19278
818.075	19266
818.216	19244
818.356	19297
818.497	19107
818.638	19057
818.778	19122
818.919	18928
819.06	19042
819.2	19091
819.341	19152
819.481	19152
819.622	19362
819.762	19499
819.903	19388
820.043	19377
820.184	19422
820.324	19343
820.465	19384
820.605	19270
820.746	19247
820.886	19095
821.026	19080
821.167	19358
821.307	19263
821.447	19301
821.588	19114
821.728	19004
821.868	18863
822.008	18639
822.149	18692
822.289	18661
822.429	18521
822.569	18304
822.709	18327
822.849	18201
822.99	18224
823.13	18174
823.27	18106
823.41	17904
823.55	17965
823.69	18019
823.83	18068
823.97	17999
824.11	17767
824.25	17764
824.389	17764
824.529	17889
824.669	17589
824.809	17821
824.949	17703
825.089	17790
825.228	17733
825.368	17421
825.508	17532
825.648	17551
825.787	17653
825.927	17554
826.067	17490
826.206	17501
826.346	17478
826.485	17505
826.625	17433
826.765	17703
826.904	17585
827.044	17406
827.183	17307
827.323	17197
827.462	17254
827.601	17208
827.741	17254
827.88	17277
828.02	17121
828.159	17189
828.298	17140
828.437	17311
828.577	17261
828.716	17326
828.855	17117
828.994	16984
829.134	16923
829.273	17022
829.412	17067
829.551	16908
829.69	17010
829.829	17075
829.968	17105
830.107	17025
830.246	17086
830.385	16938
830.524	16904
830.663	16782
830.802	16656
830.941	16611
831.08	16592
831.219	16687
831.357	16736
831.496	16885
831.635	16584
831.774	16634
831.913	16470
832.051	16436
832.19	16432
832.329	16379
832.467	16348
832.606	16207
832.744	16379
832.883	16344
833.022	16242
833.16	16287
833.299	16352
833.437	16295
833.576	16436
833.714	16322
833.852	16466
833.991	16394
834.129	16421
834.267	16409
834.406	16371
834.544	16367
834.682	16398
834.821	16489
834.959	16485
835.097	16402
835.235	16405
835.373	16344
835.511	16386
835.65	16230
835.788	16265
835.926	16143
836.064	16071
836.202	16280
836.34	16280
836.478	16382
836.615	16223
836.753	16360
836.891	16348
837.029	16287
837.167	16295
837.305	16230
837.443	16253
837.58	16261
837.718	16067
837.856	16131
837.993	16067
838.131	16173
838.269	16044
838.406	16181
838.544	15983
838.681	15831
838.819	15873
838.956	15709
839.094	15736
839.231	15720
839.369	15831
839.506	16188
839.643	15991
839.781	15800
839.918	15641
840.055	15633
840.193	15781
840.33	15682
840.467	15770
840.604	15823
840.742	15930
840.879	15682
841.016	15572
841.153	15717
841.29	15880
841.427	15743
841.564	15743
841.701	15739
841.838	15736
841.975	15572
842.112	15606
842.249	15538
842.385	15447
842.522	15667
842.659	15580
842.796	15481
842.933	15606
843.069	15405
843.206	15408
843.343	15671
843.479	15572
843.616	15526
843.752	15321
843.889	15359
844.025	15450
844.162	15329
844.298	15378
844.435	15256
844.571	15214
844.708	15252
844.844	15359
844.98	15431
845.117	15454
845.253	15249
845.389	15237
845.525	15157
845.661	15176
845.798	15047
845.934	15176
846.07	15005
846.206	15108
846.342	15135
846.478	15055
846.614	14956
846.75	14906
846.886	14895
847.022	14899
847.158	14857
847.294	14925
847.429	14826
847.565	14819
847.701	15020
847.837	14598
847.972	14625
848.108	14693
848.244	14701
848.379	14552
848.515	14476
848.65	14476
848.786	14454
848.921	14450
849.057	14556
849.192	14571
849.328	14465
849.463	14499
849.598	14415
849.734	14366
849.869	14339
850.004	14271
850.14	14286
850.275	14267
850.41	14138
850.545	14237
850.68	14221
850.815	14202
850.95	14199
851.085	14476
851.22	14438
851.355	14233
851.49	14244
851.625	14130
851.76	14164
851.895	14142
852.03	14050
852.165	14240
852.299	14248
852.434	14237
852.569	14305
852.703	14259
852.838	14282
852.973	14385
853.107	14377
853.242	14130
853.376	14092
853.511	13997
853.645	13963
853.78	14278
853.914	14180
854.048	14138
854.183	14073
854.317	14149
854.451	14286
854.585	14062
854.72	14088
854.854	14172
854.988	14065
855.122	14046
855.256	13978
855.39	14069
855.524	14206
855.658	14157
855.792	14111
855.926	14176
856.06	14191
856.194	14100
856.327	14077
856.461	14001
856.595	14065
856.729	14077
856.862	14263
856.996	14161
857.13	14168
857.263	14294
857.397	14172
857.53	14073
857.664	14096
857.797	14161
857.931	14290
858.064	14176
858.197	14225
858.331	14134
858.464	14024
858.597	13963
858.731	14081
858.864	14191
858.997	14039
859.13	14103
859.263	14191
859.396	14305
859.529	14142
859.662	14096
859.795	13947
859.928	14039
860.061	14187
860.194	14267
860.327	14153
860.46	14168
860.592	14225
860.725	14263
860.858	14267
860.99	14134
861.123	14016
861.256	14043
861.388	14145
861.521	14914
861.653	14092
861.786	13906
861.918	13925
862.05	14020
862.183	13982
862.315	14214
862.447	14123
862.58	14096
862.712	13970
862.844	13909
862.976	14020
863.108	14050
863.24	14259
863.372	13814
863.504	13890
863.636	13955
863.768	13959
863.9	13841
864.032	13837
864.164	13879
864.296	13871
864.428	13997
864.559	14058
864.691	13997
864.823	13860
864.954	13902
865.086	13879
865.217	13963
865.349	13860
865.48	13791
865.612	14016
865.743	14081
865.875	13940
866.006	13780
866.137	13833
866.269	13890
866.4	13772
866.531	13799
866.662	13833
866.793	13879
866.924	13871
867.055	13898
867.186	13822
867.317	13799
867.448	13780
867.579	13849
867.71	13780
867.841	13761
867.972	13856
868.103	13936
868.233	13856
868.364	13826
868.495	13978
868.625	14164
868.756	14256
868.886	13974
869.017	14161
869.147	14259
869.278	14221
869.408	14183
869.539	14221
869.669	14221
869.799	14153
869.929	14214
870.06	14218
870.19	14518
870.32	14393
870.45	14419
870.58	14659
870.71	14678
870.84	14659
870.97	14503
871.1	14556
871.23	14640
871.36	14811
871.489	14636
871.619	14697
871.749	14716
871.879	14792
872.008	14891
872.138	14712
872.267	14720
872.397	14579
872.526	14590
872.656	14476
872.785	14594
872.915	14788
873.044	14769
873.173	14781
873.303	14777
873.432	14861
873.561	14880
873.69	14880
873.819	14765
873.948	14899
874.077	14765
874.206	14758
874.335	14864
874.464	14925
874.593	15009
874.722	14956
874.851	15131
874.979	15131
875.108	15256
875.237	15104
875.365	15093
875.494	15100
875.623	15195
875.751	15085
875.88	15169
876.008	15218
876.136	15367
876.265	15511
876.393	15606
876.521	15530
876.65	15557
876.778	15614
876.906	15454
877.034	15545
877.162	15492
877.29	15485
877.418	15561
877.546	15538
877.674	15526
877.802	15564
877.93	15580
878.058	15454
878.185	15515
878.313	15519
878.441	15530
878.568	15287
878.696	15428
878.824	15538
878.951	15591
879.079	15660
879.206	15812
879.333	15667
879.461	15576
879.588	15618
879.715	15625
879.842	15781
879.97	15561
880.097	15412
880.224	15351
880.351	15382
880.478	15466
880.605	15481
880.732	15386
880.859	15690
880.986	15408
881.112	15420
881.239	15230
881.366	15093
881.493	14982
881.619	14982
881.746	15074
881.872	15001
881.999	14933
882.125	14963
882.252	15127
882.378	15100
882.505	15211
882.631	14914
882.757	14910
882.883	14895
883.01	14868
883.136	14800
883.262	14746
883.388	14716
883.514	14906
883.64	14868
883.766	14769
883.892	14712
884.018	14678
884.143	14872
884.269	14929
884.395	14697
884.52	14514
884.646	14575
884.772	14514
884.897	14533
885.023	14488
885.148	14674
885.274	14670
885.399	14712
885.524	14533
885.65	14648
885.775	14621
885.9	14564
886.025	14724
886.15	14625
886.275	14434
886.4	14511
886.525	14492
886.65	14495
886.775	14560
886.9	14739
887.025	14720
887.149	14583
887.274	14454
887.399	14374
887.523	14282
887.648	14290
887.773	14252
887.897	14412
888.021	14507
888.146	14317
888.27	14575
888.395	14545
888.519	14412
888.643	14434
888.767	14400
888.891	14317
889.015	14240
889.139	14267
889.263	14305
889.387	14377
889.511	14450
889.635	14389
889.759	14282
889.883	14237
890.006	14263
890.13	14362
890.254	14168
890.377	14153
890.501	14054
890.624	14092
890.748	14183
890.871	14039
890.995	13887
891.118	13913
891.241	13997
891.364	13936
891.488	14130
891.611	13868
891.734	13917
891.857	13986
891.98	13967
892.103	14050
892.226	13944
892.349	13925
892.471	13746
892.594	13982
892.717	13955
892.839	13989
892.962	13944
893.085	14024
893.207	13967
893.33	13833
893.452	13894
893.575	13970
893.697	13925
893.819	14073
893.941	14088
894.064	14096
894.186	13898
894.308	13875
894.43	14123
894.552	14199
894.674	14107
894.796	13898
894.918	13921
895.04	14035
895.161	14096
895.283	14100
895.405	13951
895.526	14001
895.648	14157
895.769	14065
895.891	14138
896.012	14168
896.134	14126
896.255	14111
896.376	13997
896.498	14183
896.619	14172
896.74	14172
896.861	14221
896.982	14450
897.103	14606
897.224	14412
897.345	14298
897.466	14366
897.587	14393
897.708	14469
897.828	14427
897.949	14271
898.07	14343
898.19	14301
898.311	14442
898.431	14393
898.552	14552
898.672	14492
898.792	14579
898.913	14488
899.033	14461
899.153	14324
899.273	14256
899.393	14259
899.513	14355
899.633	14328
899.753	14355
899.873	14317
899.993	14355
900.113	14317
900.232	14248
900.352	14336
900.472	14191
900.591	14164
900.711	14275
900.83	14183
900.95	14275
901.069	14347
901.189	14115
901.308	14001
901.427	13902
901.546	13833
901.665	13906
901.784	13871
901.904	13799
902.023	13708
902.141	13563
902.26	13403
902.379	13597
902.498	13506
902.617	13460
902.735	13487
902.854	13354
902.973	13343
903.091	13240
903.21	13168
903.328	13236
903.446	13164
903.565	13072
903.683	13023
903.801	13000
903.919	13023
904.038	13004
904.156	12894
904.274	13000
904.392	12833
904.51	12863
904.627	12875
904.745	12954
904.863	12852
904.981	12677
905.098	12597
905.216	12570
905.334	12631
905.451	12601
905.569	12536
905.686	12559
905.803	12540
905.921	12429
906.038	12525
906.155	12456
906.272	12232
906.389	12403
906.506	12171
906.623	12213
906.74	12159
906.857	11969
906.974	12060
907.091	12251
907.208	12251
907.324	12152
907.441	12129
907.557	11916
907.674	11901
907.79	11901
907.907	11870
908.023	12007
908.139	11942
908.256	11878
908.372	11847
908.488	11737
908.604	11668
908.72	11653
908.836	11630
908.952	11611
909.068	11832
909.184	11737
909.3	11668
909.415	11783
909.531	11699
909.647	11486
909.762	11493
909.878	11444
909.993	11463
910.108	11444
910.224	11360
910.339	11421
910.454	11360
910.57	11292
910.685	11239
910.8	11596
910.915	11490
911.03	11284
911.145	11204
911.259	11174
911.374	11155
911.489	11067
911.604	11056
911.718	10896
911.833	11010
911.947	10835
912.062	10748
912.176	10949
912.291	10968
912.405	10885
912.519	11128
912.633	11086
912.748	10976
912.862	10930
912.976	10862
913.09	10740
913.204	10683
913.318	10763
913.431	10938
913.545	10908
913.659	10908
913.772	10771
913.886	10645
914	10637
914.113	10740
914.226	10786
914.34	10691
914.453	10565
914.566	10649
914.68	10630
914.793	10630
914.906	10474
915.019	10375
915.132	10325
915.245	10409
915.358	10360
915.47	10455
915.583	10447
915.696	10440
915.809	10504
915.921	10542
916.034	10443
916.146	10337
916.259	10337
916.371	10470
916.483	10432
916.595	10303
916.708	10325
916.82	10417
916.932	10329
917.044	10325
917.156	10291
917.268	10211
917.38	10360
917.491	10219
917.603	10249
917.715	10295
917.826	10348
917.938	10234
918.049	10162
918.161	10314
918.272	10413
918.384	10394
918.495	10276
918.606	10192
918.717	10051
918.828	10166
918.939	10131
919.05	10013
919.161	10116
919.272	9956
919.383	9994
919.494	10158
919.604	10325
919.715	10131
919.826	10021
919.936	10154
920.047	10265
920.157	10169
920.267	10325
920.378	10230
920.488	10120
920.598	10394
920.708	10584
920.818	10379
920.928	10363
921.038	10550
921.148	10527
921.258	10173
921.368	10116
921.477	10055
921.587	9979
921.697	9842
921.806	10017
921.916	9911
922.025	9793
922.134	9770
922.244	9682
922.353	9705
922.462	9553
922.571	9587
922.68	9435
922.789	9367
922.898	9443
923.007	9428
923.116	9386
923.224	9363
923.333	9355
923.442	9287
923.55	9249
923.659	9363
923.767	9389
923.876	9222
923.984	9382
924.092	9279
924.201	9279
924.309	9192
924.417	9245
924.525	9222
924.633	9306
924.741	10032
924.849	9032
924.956	9214
925.064	9028
925.172	8982
925.279	8998
925.387	9028
925.494	9127
925.602	9138
925.709	9203
925.816	8975
925.924	9135
926.031	9100
926.138	9055
926.245	9112
926.352	8914
926.459	9169
926.566	9165
926.673	9001
926.779	8914
926.886	8921
926.993	8792
927.099	8792
927.206	8735
927.312	8773
927.419	8842
927.525	8819
927.631	8819
927.737	8689
927.843	8655
927.95	8594
928.056	8632
928.162	8716
928.267	8716
928.373	9405
928.479	8834
928.585	8568
928.69	8640
928.796	8648
928.901	8560
929.007	8522
929.112	8590
929.218	8613
929.323	8568
929.428	8495
929.533	8686
929.638	8480
929.743	8488
929.848	8507
929.953	8473
930.058	8412
930.163	8202
930.267	8355
930.372	8415
930.477	8214
930.581	8549
930.685	8374
930.79	8221
930.894	8259
930.998	8225
931.103	8381
931.207	7982
931.311	8008
931.415	7871
931.519	7788
931.623	7658
