Data from test_V78500241_746.txt Node
Date: Fri Mar 25 14:38:54 CST 2022
User: usil
Spectrometer: V785-0024
Trigger mode: 0
Integration Time (sec): 4.000000E-1
Scans to average: 1
Nonlinearity correction enabled: false
Boxcar width: 0
Storing dark spectrum: false
XAxis mode: Wavelengths
Number of Pixels in Spectrum: 1024
>>>>>Begin Spectral Data<<<<<
801.071	27188
801.214	27119
801.356	26750
801.499	26762
801.641	26488
801.783	26473
801.926	26587
802.068	26431
802.211	26317
802.353	26168
802.496	25993
802.638	26161
802.78	26024
802.923	26016
803.065	25871
803.208	25970
803.35	26001
803.492	26229
803.635	26278
803.777	25871
803.919	26134
804.061	26408
804.204	26259
804.346	26100
804.488	26138
804.63	26210
804.773	26199
804.915	26366
805.057	26469
805.199	26476
805.341	26659
805.483	26781
805.626	26872
805.768	26735
805.91	26902
806.052	27001
806.194	27058
806.336	27542
806.478	27534
806.62	27583
806.762	27861
806.904	28474
807.046	28972
807.188	29151
807.33	29687
807.472	30338
807.614	30943
807.756	31978
807.898	32998
808.04	34500
808.182	36703
808.324	39496
808.465	42582
808.607	46048
808.749	49050
808.891	50773
809.033	51161
809.174	49339
809.316	46234
809.458	42985
809.6	39176
809.741	36148
809.883	34200
810.025	32530
810.166	31396
810.308	30650
810.45	29851
810.591	29292
810.733	28820
810.875	28432
811.016	27842
811.158	27816
811.299	27652
811.441	27751
811.582	27374
811.724	27112
811.865	27077
812.007	27043
812.148	27009
812.29	26804
812.431	26998
812.573	26994
812.714	27017
812.855	27142
812.997	27100
813.138	27260
813.279	27093
813.421	27028
813.562	26739
813.703	26651
813.845	26396
813.986	26107
814.127	26001
814.268	25780
814.41	25613
814.551	25662
814.692	25822
814.833	25628
814.974	25563
815.115	25613
815.256	25506
815.397	25434
815.539	25301
815.68	25304
815.821	25084
815.962	25198
816.103	25236
816.244	25053
816.385	24867
816.526	24840
816.666	24658
816.807	24536
816.948	24544
817.089	24509
817.23	24513
817.371	24525
817.512	24338
817.653	24403
817.793	24426
817.934	24502
818.075	24296
818.216	24521
818.356	24391
818.497	24235
818.638	24015
818.778	24194
818.919	24068
819.06	24163
819.2	24167
819.341	24311
819.481	24228
819.622	24391
819.762	24574
819.903	24616
820.043	24456
820.184	24308
820.324	24266
820.465	24365
820.605	24239
820.746	24133
820.886	24083
821.026	24258
821.167	24125
821.307	24194
821.447	23969
821.588	23916
821.728	23786
821.868	23646
822.008	23543
822.149	23573
822.289	23421
822.429	23349
822.569	23132
822.709	23231
822.849	22934
822.99	23025
823.13	22923
823.27	22927
823.41	22759
823.55	22618
823.69	22698
823.83	22790
823.97	22767
824.11	22470
824.25	22455
824.389	22455
824.529	22550
824.669	22375
824.809	22557
824.949	22637
825.089	22519
825.228	22356
825.368	22325
825.508	22344
825.648	22261
825.787	22246
825.927	22246
826.067	22276
826.206	22169
826.346	22261
826.485	22196
826.625	22226
826.765	22371
826.904	22306
827.044	22044
827.183	22036
827.323	21922
827.462	21960
827.601	22025
827.741	21812
827.88	21953
828.02	21641
828.159	21873
828.298	21861
828.437	21899
828.577	21781
828.716	22040
828.855	21732
828.994	21606
829.134	21618
829.273	21599
829.412	21603
829.551	21523
829.69	21507
829.829	21629
829.968	21564
830.107	21656
830.246	21652
830.385	21534
830.524	21469
830.663	21412
830.802	21184
830.941	21264
831.08	21131
831.219	21401
831.357	21188
831.496	21374
831.635	21188
831.774	21142
831.913	21146
832.051	21074
832.19	21081
832.329	21070
832.467	21028
832.606	21017
832.744	21192
832.883	21116
833.022	21180
833.16	21214
833.299	21378
833.437	21595
833.576	21789
833.714	21827
833.852	22063
833.991	22192
834.129	22154
834.267	22166
834.406	22158
834.544	22063
834.682	22017
834.821	21854
834.959	21766
835.097	21595
835.235	21663
835.373	21447
835.511	21260
835.65	21157
835.788	20986
835.926	20876
836.064	20674
836.202	20682
836.34	20823
836.478	20937
836.615	20663
836.753	20807
836.891	20796
837.029	20731
837.167	20686
837.305	20678
837.443	20575
837.58	20415
837.718	20629
837.856	20579
837.993	20492
838.131	20488
838.269	20537
838.406	20339
838.544	20252
838.681	20168
838.819	20202
838.956	19936
839.094	19997
839.231	19951
839.369	20138
839.506	20317
839.643	20122
839.781	19909
839.918	19967
840.055	19997
840.193	19986
840.33	19993
840.467	19894
840.604	19951
840.742	20187
840.879	19738
841.016	19917
841.153	19845
841.29	20088
841.427	19921
841.564	20050
841.701	20001
841.838	19940
841.975	19849
842.112	19852
842.249	19776
842.385	19685
842.522	19879
842.659	19833
842.796	19868
842.933	19746
843.069	19700
843.206	19811
843.343	19974
843.479	19947
843.616	19967
843.752	19788
843.889	19830
844.025	20062
844.162	19875
844.298	20199
844.435	20248
844.571	20404
844.708	20807
844.844	21207
844.98	21610
845.117	22291
845.253	23376
845.389	25289
845.525	29094
845.661	35227
845.798	42205
845.934	47562
846.07	49563
846.206	47980
846.342	42863
846.478	35920
846.614	29634
846.75	25788
846.886	23482
847.022	22002
847.158	21085
847.294	20530
847.429	20157
847.565	19845
847.701	19921
847.837	19354
847.972	19278
848.108	19270
848.244	19187
848.379	18981
848.515	18897
848.65	18730
848.786	18806
848.921	18837
849.057	18905
849.192	18779
849.328	18734
849.463	18745
849.598	18616
849.734	18631
849.869	18486
850.004	18479
850.14	18456
850.275	18422
850.41	18464
850.545	18281
850.68	18422
850.815	18445
850.95	18384
851.085	18509
851.22	18456
851.355	18456
851.49	18399
851.625	18350
851.76	18384
851.895	18277
852.03	18258
852.165	18353
852.299	18433
852.434	18422
852.569	18528
852.703	18490
852.838	18536
852.973	18635
853.107	18589
853.242	18547
853.376	18471
853.511	18391
853.645	18502
853.78	18684
853.914	18741
854.048	18574
854.183	18696
854.317	18753
854.451	18905
854.585	18749
854.72	18673
854.854	18604
854.988	18681
855.122	18688
855.256	18410
855.39	18464
855.524	18585
855.658	18486
855.792	18376
855.926	18452
856.06	18414
856.194	18361
856.327	18247
856.461	18163
856.595	18243
856.729	18334
856.862	18365
856.996	18247
857.13	18270
857.263	18251
857.397	18270
857.53	18243
857.664	18254
857.797	18346
857.931	18247
858.064	18209
858.197	18334
858.331	18171
858.464	18125
858.597	18041
858.731	18049
858.864	18053
858.997	18114
859.13	18152
859.263	18110
859.396	18232
859.529	18019
859.662	18110
859.795	17935
859.928	18049
860.061	18239
860.194	18186
860.327	18049
860.46	18106
860.592	18121
860.725	18258
860.858	18243
860.99	18182
861.123	17935
861.256	18003
861.388	18083
861.521	18703
861.653	17870
861.786	17802
861.918	17870
862.05	17897
862.183	18030
862.315	17984
862.447	18060
862.58	17984
862.712	17798
862.844	17745
862.976	17809
863.108	17809
863.24	18270
863.372	17562
863.504	17657
863.636	17722
863.768	17802
863.9	17585
864.032	17684
864.164	17699
864.296	17657
864.428	17847
864.559	17805
864.691	17790
864.823	17718
864.954	17764
865.086	17760
865.217	17695
865.349	17493
865.48	17680
865.612	17661
865.743	17809
865.875	17642
866.006	17592
866.137	17653
866.269	17764
866.4	17589
866.531	17509
866.662	17627
866.793	17577
866.924	17615
867.055	17722
867.186	17501
867.317	17596
867.448	17707
867.579	17596
867.71	17482
867.841	17478
867.972	17767
868.103	17703
868.233	17710
868.364	17600
868.495	17699
868.625	17897
868.756	18076
868.886	17817
869.017	17832
869.147	17992
869.278	18019
869.408	17958
869.539	17882
869.669	17984
869.799	17958
869.929	18064
870.06	18060
870.19	18369
870.32	18304
870.45	18304
870.58	18357
870.71	18445
870.84	18445
870.97	18448
871.1	18323
871.23	18490
871.36	18582
871.489	18429
871.619	18631
871.749	18612
871.879	18593
872.008	18677
872.138	18726
872.267	18707
872.397	18494
872.526	18506
872.656	18601
872.785	18593
872.915	18753
873.044	18779
873.173	18753
873.303	18859
873.432	18859
873.561	19008
873.69	18989
873.819	18954
873.948	19057
874.077	19084
874.206	18924
874.335	18966
874.464	19285
874.593	19232
874.722	19339
874.851	19407
874.979	19415
875.108	19472
875.237	19460
875.365	19476
875.494	19597
875.623	19597
875.751	19571
875.88	19643
876.008	19742
876.136	19959
876.265	20282
876.393	20450
876.521	20419
876.65	20541
876.778	20446
876.906	20385
877.034	20476
877.162	20575
877.29	20598
877.418	20830
877.546	20906
877.674	20982
877.802	21230
877.93	21214
878.058	21515
878.185	21625
878.313	21876
878.441	22253
878.568	22478
878.696	23143
878.824	24239
878.951	25430
879.079	26834
879.206	28972
879.333	31057
879.461	32986
879.588	33964
879.715	34051
879.842	33074
879.97	31202
880.097	29022
880.224	27237
880.351	26103
880.478	25072
880.605	24483
880.732	24140
880.859	24159
880.986	23539
881.112	23710
881.239	23433
881.366	23220
881.493	23136
881.619	23151
881.746	23159
881.872	23193
881.999	23261
882.125	23235
882.252	23444
882.378	23440
882.505	23463
882.631	23277
882.757	23197
882.883	23322
883.01	23235
883.136	23185
883.262	23102
883.388	23079
883.514	23166
883.64	23143
883.766	23143
883.892	22953
884.018	22908
884.143	23121
884.269	23216
884.395	22908
884.52	22911
884.646	23003
884.772	22976
884.897	22873
885.023	22968
885.148	22919
885.274	22972
885.399	22763
885.524	22668
885.65	22691
885.775	22443
885.9	22223
886.025	22200
886.15	22150
886.275	21895
886.4	21728
886.525	21583
886.65	21389
886.775	21173
886.9	21230
887.025	21241
887.149	20762
887.274	20655
887.399	20659
887.523	20537
887.648	20336
887.773	20278
887.897	20389
888.021	20267
888.146	20218
888.27	20237
888.395	20115
888.519	20107
888.643	20062
888.767	19883
888.891	19746
889.015	19578
889.139	19643
889.263	19426
889.387	19571
889.511	19719
889.635	19483
889.759	19346
889.883	19312
890.006	19400
890.13	19464
890.254	19232
890.377	19137
890.501	18993
890.624	18943
890.748	18890
890.871	18814
890.995	18635
891.118	18589
891.241	18623
891.364	18616
891.488	18703
891.611	18646
891.734	18593
891.857	18604
891.98	18456
892.103	18574
892.226	18365
892.349	18327
892.471	18144
892.594	18281
892.717	18403
892.839	18209
892.962	18098
893.085	18091
893.207	18140
893.33	18045
893.452	17939
893.575	18011
893.697	18019
893.819	18095
893.941	18140
894.064	18095
894.186	17847
894.308	17828
894.43	18011
894.552	18091
894.674	18038
894.796	17802
894.918	17733
895.04	17756
895.161	17832
895.283	17840
895.405	17767
895.526	17672
895.648	17790
895.769	17756
895.891	17760
896.012	17824
896.134	17760
896.255	17794
896.376	17646
896.498	17718
896.619	17589
896.74	17718
896.861	17756
896.982	18106
897.103	18102
897.224	17866
897.345	17908
897.466	17824
897.587	17878
897.708	17904
897.828	17836
897.949	17813
898.07	17676
898.19	17760
898.311	18026
898.431	17680
898.552	17874
898.672	17920
898.792	17939
898.913	17874
899.033	17687
899.153	17668
899.273	17585
899.393	17543
899.513	17619
899.633	17661
899.753	17699
899.873	17608
899.993	17767
900.113	17630
900.232	17653
900.352	17520
900.472	17532
900.591	17463
900.711	17459
900.83	17360
900.95	17532
901.069	17482
901.189	17307
901.308	17155
901.427	16987
901.546	16972
901.665	17067
901.784	16980
901.904	16908
902.023	16793
902.141	16516
902.26	16596
902.379	16474
902.498	16466
902.617	16417
902.735	16466
902.854	16379
902.973	16314
903.091	16021
903.21	16158
903.328	16116
903.446	16017
903.565	15983
903.683	15979
903.801	15728
903.919	15827
904.038	15915
904.156	15652
904.274	15633
904.392	15553
904.51	15606
904.627	15610
904.745	15766
904.863	15663
904.981	15473
905.098	15188
905.216	15321
905.334	15298
905.451	15355
905.569	15184
905.686	15359
905.803	15230
905.921	15077
906.038	15154
906.155	15104
906.272	14941
906.389	15013
906.506	14807
906.623	14758
906.74	14838
906.857	14796
906.974	14739
907.091	14895
907.208	14838
907.324	14849
907.441	14590
907.557	14579
907.674	14545
907.79	14465
907.907	14393
908.023	14568
908.139	14522
908.256	14514
908.372	14305
908.488	14454
908.604	14237
908.72	14142
908.836	14305
908.952	14123
909.068	14355
909.184	14275
909.3	14172
909.415	14259
909.531	14259
909.647	14024
909.762	14001
909.878	13947
909.993	13963
910.108	13951
910.224	13993
910.339	13967
910.454	13883
910.57	13875
910.685	13772
910.8	14035
910.915	13852
911.03	13795
911.145	13666
911.259	13658
911.374	13662
911.489	13586
911.604	13502
911.718	13430
911.833	13384
911.947	13293
912.062	13202
912.176	13324
912.291	13384
912.405	13308
912.519	13514
912.633	13457
912.748	13407
912.862	13346
912.976	13198
913.09	13110
913.204	13141
913.318	13133
913.431	13221
913.545	13308
913.659	13304
913.772	13270
913.886	13091
914	13091
914.113	13160
914.226	13164
914.34	13209
914.453	12981
914.566	13118
914.68	13034
914.793	12966
914.906	12798
915.019	12779
915.132	12722
915.245	12764
915.358	12821
915.47	12802
915.583	12837
915.696	12821
915.809	12928
915.921	12939
916.034	12764
916.146	12711
916.259	12779
916.371	12738
916.483	12856
916.595	12768
916.708	12776
916.82	12730
916.932	12669
917.044	12734
917.156	12711
917.268	12627
917.38	12589
917.491	12532
917.603	12559
917.715	12627
917.826	12646
917.938	12509
918.049	12464
918.161	12490
918.272	12559
918.384	12620
918.495	12555
918.606	12273
918.717	12220
918.828	12388
918.939	12296
919.05	12171
919.161	12228
919.272	12041
919.383	12102
919.494	12365
919.604	12467
919.715	12296
919.826	12209
919.936	12300
920.047	12319
920.157	12270
920.267	12372
920.378	12334
920.488	12197
920.598	12433
920.708	12616
920.818	12414
920.928	12429
921.038	12490
921.148	12498
921.258	12235
921.368	12136
921.477	12102
921.587	12098
921.697	11931
921.806	12095
921.916	11828
922.025	11752
922.134	11703
922.244	11707
922.353	11767
922.462	11627
922.571	11596
922.68	11444
922.789	11417
922.898	11410
923.007	11299
923.116	11474
923.224	11433
923.333	11364
923.442	11269
923.55	11208
923.659	11239
923.767	11303
923.876	11128
923.984	11322
924.092	11124
924.201	11151
924.309	11223
924.417	11174
924.525	11136
924.633	11140
924.741	11851
924.849	10892
924.956	11178
925.064	10911
925.172	10831
925.279	10946
925.387	10927
925.494	10919
925.602	11056
925.709	11003
925.816	10816
925.924	10942
926.031	10999
926.138	10843
926.245	10961
926.352	10812
926.459	10900
926.566	11037
926.673	10858
926.779	10744
926.886	10771
926.993	10637
927.099	10573
927.206	10558
927.312	10527
927.419	10596
927.525	10481
927.631	10660
927.737	10455
927.843	10527
927.95	10360
928.056	10470
928.162	10394
928.267	10497
928.373	11113
928.479	10500
928.585	10329
928.69	10474
928.796	10413
928.901	10272
929.007	10177
929.112	10276
929.218	10249
929.323	10234
929.428	10181
929.533	10322
929.638	10105
929.743	10135
929.848	10166
929.953	10173
930.058	10010
930.163	9941
930.267	9892
930.372	10074
930.477	9903
930.581	10150
930.685	9953
930.79	9880
930.894	9911
930.998	9846
931.103	9972
931.207	9667
931.311	9500
931.415	9534
931.519	9245
931.623	9275
