Data from test_V78500241_1749.txt Node
Date: Fri Mar 25 14:45:53 CST 2022
User: usil
Spectrometer: V785-0024
Trigger mode: 0
Integration Time (sec): 4.000000E-1
Scans to average: 1
Nonlinearity correction enabled: false
Boxcar width: 0
Storing dark spectrum: false
XAxis mode: Wavelengths
Number of Pixels in Spectrum: 1024
>>>>>Begin Spectral Data<<<<<
801.071	22207
801.214	22131
801.356	21732
801.499	21789
801.641	21591
801.783	21534
801.926	21633
802.068	21603
802.211	21466
802.353	21256
802.496	21260
802.638	21135
802.78	21009
802.923	20925
803.065	20845
803.208	20838
803.35	20933
803.492	20830
803.635	21116
803.777	20975
803.919	21001
804.061	21211
804.204	20899
804.346	20811
804.488	20762
804.63	20902
804.773	20811
804.915	20811
805.057	20868
805.199	20773
805.341	20929
805.483	21009
805.626	20956
805.768	20735
805.91	20849
806.052	20834
806.194	20731
806.336	21047
806.478	20792
806.62	20724
806.762	20872
806.904	21055
807.046	21249
807.188	21127
807.33	21226
807.472	21173
807.614	21047
807.756	21135
807.898	20975
808.04	20979
808.182	20868
808.324	20902
808.465	21043
808.607	21093
808.749	21321
808.891	21272
809.033	21344
809.174	21222
809.316	21203
809.458	21256
809.6	21184
809.741	21195
809.883	21332
810.025	21340
810.166	21313
810.308	21275
810.45	21306
810.591	21199
810.733	21062
810.875	21047
811.016	20914
811.158	21005
811.299	20998
811.441	21138
811.582	21199
811.724	21001
811.865	21017
812.007	20857
812.148	20963
812.29	21081
812.431	21131
812.573	21348
812.714	21287
812.855	21397
812.997	21542
813.138	21618
813.279	21553
813.421	21374
813.562	21329
813.703	21116
813.845	21142
813.986	21005
814.127	20655
814.268	20514
814.41	20594
814.551	20568
814.692	20568
814.833	20552
814.974	20377
815.115	20404
815.256	20355
815.397	20377
815.539	20290
815.68	20381
815.821	20218
815.962	20336
816.103	20187
816.244	20164
816.385	20016
816.526	20008
816.666	19982
816.807	19750
816.948	19662
817.089	19803
817.23	19750
817.371	19776
817.512	19662
817.653	19784
817.793	19601
817.934	19647
818.075	19704
818.216	19704
818.356	19510
818.497	19552
818.638	19289
818.778	19350
818.919	19445
819.06	19521
819.2	19491
819.341	19449
819.481	19525
819.622	19628
819.762	19932
819.903	19811
820.043	19811
820.184	19647
820.324	19655
820.465	19647
820.605	19643
820.746	19613
820.886	19453
821.026	19571
821.167	19529
821.307	19563
821.447	19601
821.588	19434
821.728	19346
821.868	19183
822.008	19031
822.149	19095
822.289	19015
822.429	18814
822.569	18779
822.709	18722
822.849	18547
822.99	18608
823.13	18429
823.27	18486
823.41	18319
823.55	18186
823.69	18388
823.83	18410
823.97	18220
824.11	18148
824.25	18072
824.389	18117
824.529	18140
824.669	18076
824.809	18296
824.949	18220
825.089	18174
825.228	18167
825.368	17882
825.508	17988
825.648	17916
825.787	18007
825.927	17931
826.067	17790
826.206	17885
826.346	18030
826.485	17923
826.625	17767
826.765	18060
826.904	17817
827.044	17653
827.183	17642
827.323	17585
827.462	17661
827.601	17551
827.741	17649
827.88	17501
828.02	17611
828.159	17600
828.298	17638
828.437	17592
828.577	17497
828.716	17729
828.855	17581
828.994	17421
829.134	17303
829.273	17452
829.412	17261
829.551	17402
829.69	17349
829.829	17387
829.968	17433
830.107	17258
830.246	17372
830.385	17273
830.524	17235
830.663	17197
830.802	16999
830.941	16946
831.08	16927
831.219	16976
831.357	17094
831.496	17200
831.635	16911
831.774	16927
831.913	16854
832.051	16774
832.19	16771
832.329	16740
832.467	16630
832.606	16687
832.744	16611
832.883	16675
833.022	16611
833.16	16596
833.299	16618
833.437	16733
833.576	16755
833.714	16675
833.852	16740
833.991	16721
834.129	16763
834.267	16759
834.406	16672
834.544	16611
834.682	16710
834.821	16672
834.959	16972
835.097	16683
835.235	16809
835.373	16763
835.511	16611
835.65	16637
835.788	16558
835.926	16538
836.064	16569
836.202	16489
836.34	16546
836.478	16691
836.615	16588
836.753	16660
836.891	16713
837.029	16672
837.167	16596
837.305	16546
837.443	16607
837.58	16421
837.718	16504
837.856	16470
837.993	16318
838.131	16493
838.269	16363
838.406	16382
838.544	16379
838.681	16284
838.819	16048
838.956	16063
839.094	15968
839.231	16078
839.369	16143
839.506	16337
839.643	16333
839.781	16086
839.918	15968
840.055	16002
840.193	16135
840.33	16021
840.467	16055
840.604	16002
840.742	16276
840.879	15850
841.016	16010
841.153	15975
841.29	16090
841.427	15915
841.564	16029
841.701	16063
841.838	15979
841.975	15994
842.112	16025
842.249	15895
842.385	15755
842.522	16013
842.659	15816
842.796	15709
842.933	15812
843.069	15774
843.206	15686
843.343	15827
843.479	15774
843.616	15842
843.752	15720
843.889	15553
844.025	15671
844.162	15603
844.298	15637
844.435	15599
844.571	15553
844.708	15648
844.844	15808
844.98	15656
845.117	15713
845.253	15595
845.389	15420
845.525	15580
845.661	15564
845.798	15420
845.934	15477
846.07	15431
846.206	15515
846.342	15469
846.478	15431
846.614	15184
846.75	15093
846.886	15116
847.022	15260
847.158	15199
847.294	15165
847.429	15154
847.565	15199
847.701	15428
847.837	14933
847.972	14880
848.108	15028
848.244	14921
848.379	14872
848.515	14678
848.65	14830
848.786	14750
848.921	14785
849.057	14906
849.192	14762
849.328	14792
849.463	14735
849.598	14720
849.734	14629
849.869	14625
850.004	14632
850.14	14552
850.275	14625
850.41	14431
850.545	14446
850.68	14503
850.815	14507
850.95	14488
851.085	14773
851.22	14689
851.355	14549
851.49	14488
851.625	14499
851.76	14461
851.895	14465
852.03	14442
852.165	14400
852.299	14499
852.434	14575
852.569	14568
852.703	14556
852.838	14667
852.973	14743
853.107	14651
853.242	14579
853.376	14389
853.511	14267
853.645	14366
853.78	14495
853.914	14362
854.048	14366
854.183	14301
854.317	14480
854.451	14575
854.585	14358
854.72	14320
854.854	14431
854.988	14313
855.122	14347
855.256	14214
855.39	14408
855.524	14583
855.658	14492
855.792	14499
855.926	14480
856.06	14457
856.194	14473
856.327	14476
856.461	14343
856.595	14336
856.729	14374
856.862	14533
856.996	14438
857.13	14469
857.263	14537
857.397	14526
857.53	14461
857.664	14412
857.797	14480
857.931	14511
858.064	14400
858.197	14469
858.331	14442
858.464	14404
858.597	14252
858.731	14366
858.864	14317
858.997	14400
859.13	14450
859.263	14415
859.396	14518
859.529	14404
859.662	14389
859.795	14385
859.928	14419
860.061	14514
860.194	14465
860.327	14400
860.46	14473
860.592	14499
860.725	14541
860.858	14503
860.99	14408
861.123	14282
861.256	14317
861.388	14415
861.521	15058
861.653	14244
861.786	14210
861.918	14320
862.05	14290
862.183	14317
862.315	14317
862.447	14415
862.58	14320
862.712	14183
862.844	14187
862.976	14195
863.108	14172
863.24	14454
863.372	14111
863.504	14180
863.636	14221
863.768	14221
863.9	14294
864.032	14058
864.164	14073
864.296	14191
864.428	14298
864.559	14229
864.691	14256
864.823	14294
864.954	14240
865.086	14305
865.217	14096
865.349	14100
865.48	14195
865.612	14252
865.743	14164
865.875	14157
866.006	14183
866.137	14134
866.269	14225
866.4	14145
866.531	14092
866.662	14176
866.793	14176
866.924	14100
867.055	14172
867.186	14168
867.317	14130
867.448	14130
867.579	14145
867.71	14084
867.841	14107
867.972	14214
868.103	14119
868.233	14138
868.364	14142
868.495	14138
868.625	14450
868.756	14549
868.886	14317
869.017	14286
869.147	14526
869.278	14571
869.408	14385
869.539	14454
869.669	14484
869.799	14465
869.929	14568
870.06	14492
870.19	14777
870.32	14705
870.45	14682
870.58	14849
870.71	14849
870.84	14876
870.97	14773
871.1	14689
871.23	15028
871.36	15013
871.489	14895
871.619	14902
871.749	14910
871.879	15043
872.008	15154
872.138	14944
872.267	15009
872.397	14887
872.526	14819
872.656	14838
872.785	14868
872.915	15028
873.044	15074
873.173	15017
873.303	15123
873.432	15055
873.561	15100
873.69	15085
873.819	15123
873.948	15039
874.077	15062
874.206	15097
874.335	14986
874.464	15260
874.593	15367
874.722	15222
874.851	15408
874.979	15382
875.108	15374
875.237	15268
875.365	15237
875.494	15355
875.623	15496
875.751	15302
875.88	15351
876.008	15485
876.136	15553
876.265	15717
876.393	15911
876.521	15884
876.65	15895
876.778	15797
876.906	15800
877.034	15701
877.162	15778
877.29	15629
877.418	15838
877.546	15857
877.674	15778
877.802	15804
877.93	15720
878.058	15637
878.185	15724
878.313	15728
878.441	15679
878.568	15618
878.696	15724
878.824	15770
878.951	15781
879.079	15956
879.206	16223
879.333	15842
879.461	15804
879.588	15937
879.715	15884
879.842	15934
879.97	15808
880.097	15679
880.224	15606
880.351	15671
880.478	15606
880.605	15618
880.732	15648
880.859	15861
880.986	15724
881.112	15599
881.239	15485
881.366	15370
881.493	15344
881.619	15256
881.746	15313
881.872	15310
881.999	15306
882.125	15207
882.252	15287
882.378	15348
882.505	15431
882.631	15214
882.757	15062
882.883	15142
883.01	15184
883.136	15097
883.262	14944
883.388	14918
883.514	15036
883.64	15097
883.766	14963
883.892	15032
884.018	14929
884.143	14986
884.269	15264
884.395	14842
884.52	14815
884.646	14861
884.772	14743
884.897	14682
885.023	14708
885.148	14941
885.274	14998
885.399	14906
885.524	14800
885.65	14788
885.775	14845
885.9	14864
886.025	14826
886.15	14895
886.275	14651
886.4	14712
886.525	14731
886.65	14785
886.775	14705
886.9	14910
887.025	15039
887.149	14823
887.274	14610
887.399	14533
887.523	14617
887.648	14568
887.773	14511
887.897	14693
888.021	14686
888.146	14556
888.27	14693
888.395	14720
888.519	14712
888.643	14663
888.767	14640
888.891	14530
889.015	14454
889.139	14564
889.263	14427
889.387	14564
889.511	14705
889.635	14545
889.759	14377
889.883	14518
890.006	14465
890.13	14564
890.254	14484
890.377	14415
890.501	14370
890.624	14336
890.748	14320
890.871	14183
890.995	14195
891.118	14062
891.241	14149
891.364	14164
891.488	14263
891.611	14195
891.734	14237
891.857	14115
891.98	14164
892.103	14278
892.226	14199
892.349	14115
892.471	14035
892.594	14115
892.717	14149
892.839	14263
892.962	14252
893.085	14191
893.207	14088
893.33	14050
893.452	14123
893.575	14259
893.697	14031
893.819	14355
893.941	14473
894.064	14252
894.186	14153
894.308	14100
894.43	14286
894.552	14389
894.674	14290
894.796	14149
894.918	14237
895.04	14195
895.161	14336
895.283	14275
895.405	14180
895.526	14286
895.648	14298
895.769	14358
895.891	14381
896.012	14431
896.134	14328
896.255	14336
896.376	14366
896.498	14366
896.619	14355
896.74	14434
896.861	14446
896.982	14750
897.103	14929
897.224	14648
897.345	14606
897.466	14552
897.587	14552
897.708	14739
897.828	14602
897.949	14545
898.07	14446
898.19	14556
898.311	14807
898.431	14594
898.552	14667
898.672	14754
898.792	14674
898.913	14765
899.033	14552
899.153	14670
899.273	14469
899.393	14590
899.513	14560
899.633	14549
899.753	14484
899.873	14499
899.993	14640
900.113	14492
900.232	14594
900.352	14495
900.472	14492
900.591	14389
900.711	14389
900.83	14370
900.95	14442
901.069	14571
901.189	14309
901.308	14221
901.427	14073
901.546	13993
901.665	14153
901.784	14237
901.904	13871
902.023	13784
902.141	13750
902.26	13677
902.379	13704
902.498	13624
902.617	13639
902.735	13696
902.854	13727
902.973	13514
903.091	13392
903.21	13422
903.328	13453
903.446	13312
903.565	13209
903.683	13175
903.801	13080
903.919	13160
904.038	13228
904.156	13008
904.274	13156
904.392	12996
904.51	13057
904.627	12951
904.745	13042
904.863	13061
904.981	12768
905.098	12787
905.216	12745
905.334	12726
905.451	12734
905.569	12627
905.686	12806
905.803	12837
905.921	12547
906.038	12616
906.155	12646
906.272	12483
906.389	12593
906.506	12300
906.623	12418
906.74	12315
906.857	12133
906.974	12292
907.091	12403
907.208	12388
907.324	12281
907.441	12296
907.557	12087
907.674	12064
907.79	11920
907.907	12102
908.023	12148
908.139	12064
908.256	11999
908.372	12034
908.488	11980
908.604	11946
908.72	11802
908.836	11866
908.952	11882
909.068	11828
909.184	11863
909.3	11863
909.415	11893
909.531	11851
909.647	11627
909.762	11714
909.878	11581
909.993	11551
910.108	11592
910.224	11509
910.339	11630
910.454	11543
910.57	11444
910.685	11421
910.8	11608
910.915	11615
911.03	11505
911.145	11360
911.259	11269
911.374	11204
911.489	11258
911.604	11113
911.718	11105
911.833	11037
911.947	10938
912.062	10793
912.176	11056
912.291	10999
912.405	10980
912.519	11242
912.633	11212
912.748	11071
912.862	11025
912.976	10946
913.09	10862
913.204	10934
913.318	10938
913.431	11048
913.545	11052
913.659	10991
913.772	10953
913.886	10755
914	10850
914.113	10949
914.226	10942
914.34	10923
914.453	10797
914.566	10889
914.68	10790
914.793	10763
914.906	10641
915.019	10523
915.132	10451
915.245	10485
915.358	10596
915.47	10603
915.583	10622
915.696	10580
915.809	10683
915.921	10687
916.034	10538
916.146	10485
916.259	10512
916.371	10592
916.483	10599
916.595	10409
916.708	10565
916.82	10478
916.932	10432
917.044	10481
917.156	10478
917.268	10352
917.38	10402
917.491	10382
917.603	10424
917.715	10542
917.826	10474
917.938	10360
918.049	10276
918.161	10363
918.272	10519
918.384	10409
918.495	10417
918.606	10246
918.717	10265
918.828	10284
918.939	10223
919.05	10272
919.161	10291
919.272	10074
919.383	10150
919.494	10341
919.604	10500
919.715	10352
919.826	10242
919.936	10188
920.047	10344
920.157	10280
920.267	10512
920.378	10306
920.488	10211
920.598	10519
920.708	10626
920.818	10455
920.928	10497
921.038	10653
921.148	10752
921.258	10287
921.368	10219
921.477	10143
921.587	10109
921.697	10097
921.806	10090
921.916	10032
922.025	9869
922.134	9865
922.244	9812
922.353	9861
922.462	9690
922.571	9663
922.68	9545
922.789	9511
922.898	9542
923.007	9431
923.116	9538
923.224	9538
923.333	9542
923.442	9378
923.55	9382
923.659	9481
923.767	9511
923.876	9454
923.984	9462
924.092	9374
924.201	9420
924.309	9355
924.417	9367
924.525	9332
924.633	9325
924.741	10265
924.849	9188
924.956	9370
925.064	9253
925.172	9070
925.279	9135
925.387	9207
925.494	9188
925.602	9302
925.709	9222
925.816	9157
925.924	9176
926.031	9268
926.138	9119
926.245	9211
926.352	9077
926.459	9275
926.566	9275
926.673	9104
926.779	8994
926.886	9024
926.993	8895
927.099	8883
927.206	8838
927.312	8845
927.419	8952
927.525	8921
927.631	8967
927.737	8819
927.843	8796
927.95	8613
928.056	8773
928.162	8773
928.267	8868
928.373	9428
928.479	8891
928.585	8667
928.69	8731
928.796	8781
928.901	8766
929.007	8594
929.112	8674
929.218	8655
929.323	8613
929.428	8659
929.533	8701
929.638	8575
929.743	8571
929.848	8655
929.953	8594
930.058	8480
930.163	8366
930.267	8396
930.372	8488
930.477	8324
930.581	8560
930.685	8507
930.79	8313
930.894	8313
930.998	8294
931.103	8427
931.207	8084
931.311	8039
931.415	7928
931.519	7814
931.623	7776
