Data from test_V78500241_3145.txt Node
Date: Fri Mar 25 14:55:36 CST 2022
User: usil
Spectrometer: V785-0024
Trigger mode: 0
Integration Time (sec): 4.000000E-1
Scans to average: 1
Nonlinearity correction enabled: false
Boxcar width: 0
Storing dark spectrum: false
XAxis mode: Wavelengths
Number of Pixels in Spectrum: 1024
>>>>>Begin Spectral Data<<<<<
801.071	22070
801.214	21846
801.356	21705
801.499	21644
801.641	21511
801.783	21367
801.926	21469
802.068	21374
802.211	21325
802.353	21180
802.496	20891
802.638	20998
802.78	20807
802.923	20868
803.065	20686
803.208	20693
803.35	20925
803.492	20963
803.635	20925
803.777	20834
803.919	20739
804.061	21070
804.204	20731
804.346	20678
804.488	20644
804.63	20842
804.773	20564
804.915	20648
805.057	20937
805.199	20564
805.341	20602
805.483	20750
805.626	20777
805.768	20720
805.91	20735
806.052	20617
806.194	20583
806.336	20769
806.478	20686
806.62	20568
806.762	20659
806.904	20678
807.046	21032
807.188	20975
807.33	21062
807.472	21032
807.614	21024
807.756	20933
807.898	20743
808.04	20651
808.182	20682
808.324	20739
808.465	20716
808.607	20982
808.749	21100
808.891	21169
809.033	21192
809.174	21024
809.316	20979
809.458	20986
809.6	20864
809.741	21085
809.883	21192
810.025	21237
810.166	21157
810.308	21161
810.45	21077
810.591	21108
810.733	20925
810.875	20807
811.016	20720
811.158	20640
811.299	20781
811.441	20986
811.582	20910
811.724	20819
811.865	20731
812.007	20629
812.148	20701
812.29	20785
812.431	20906
812.573	21093
812.714	21058
812.855	21230
812.997	21416
813.138	21447
813.279	21447
813.421	21260
813.562	21218
813.703	21039
813.845	20963
813.986	20735
814.127	20575
814.268	20446
814.41	20438
814.551	20358
814.692	20442
814.833	20271
814.974	20339
815.115	20278
815.256	20202
815.397	20062
815.539	20313
815.68	20096
815.821	19902
815.962	20073
816.103	20126
816.244	19864
816.385	19826
816.526	19788
816.666	19586
816.807	19567
816.948	19518
817.089	19544
817.23	19578
817.371	19556
817.512	19476
817.653	19434
817.793	19419
817.934	19400
818.075	19472
818.216	19559
818.356	19480
818.497	19270
818.638	19137
818.778	19088
818.919	19168
819.06	19175
819.2	19148
819.341	19392
819.481	19278
819.622	19464
819.762	19624
819.903	19628
820.043	19377
820.184	19441
820.324	19487
820.465	19521
820.605	19358
820.746	19373
820.886	19160
821.026	19411
821.167	19438
821.307	19514
821.447	19392
821.588	19221
821.728	19129
821.868	18962
822.008	18764
822.149	18875
822.289	18837
822.429	18551
822.569	18525
822.709	18441
822.849	18319
822.99	18319
823.13	18281
823.27	18205
823.41	18136
823.55	18167
823.69	18019
823.83	18186
823.97	18060
824.11	17882
824.25	17893
824.389	17843
824.529	17973
824.669	17965
824.809	18034
824.949	17935
825.089	17920
825.228	17935
825.368	17722
825.508	17676
825.648	17733
825.787	17729
825.927	17756
826.067	17642
826.206	17672
826.346	17741
826.485	17661
826.625	17760
826.765	17767
826.904	17752
827.044	17478
827.183	17372
827.323	17395
827.462	17395
827.601	17360
827.741	17326
827.88	17315
828.02	17208
828.159	17311
828.298	17311
828.437	17455
828.577	17322
828.716	17467
828.855	17299
828.994	17048
829.134	17079
829.273	17102
829.412	17056
829.551	17105
829.69	17159
829.829	17174
829.968	17200
830.107	17124
830.246	17079
830.385	17048
830.524	17121
830.663	16915
830.802	16911
830.941	16778
831.08	16740
831.219	16809
831.357	16831
831.496	16892
831.635	16672
831.774	16717
831.913	16622
832.051	16622
832.19	16478
832.329	16550
832.467	16462
832.606	16363
832.744	16367
832.883	16447
833.022	16421
833.16	16382
833.299	16500
833.437	16527
833.576	16527
833.714	16508
833.852	16558
833.991	16462
834.129	16588
834.267	16489
834.406	16512
834.544	16508
834.682	16481
834.821	16565
834.959	16634
835.097	16409
835.235	16615
835.373	16447
835.511	16546
835.65	16421
835.788	16329
835.926	16185
836.064	16242
836.202	16291
836.34	16409
836.478	16379
836.615	16421
836.753	16322
836.891	16432
837.029	16409
837.167	16390
837.305	16405
837.443	16188
837.58	16242
837.718	16375
837.856	16268
837.993	16200
838.131	16234
838.269	16116
838.406	16139
838.544	16143
838.681	15884
838.819	15865
838.956	15827
839.094	15797
839.231	15865
839.369	15998
839.506	16188
839.643	16101
839.781	15770
839.918	15823
840.055	15869
840.193	15861
840.33	15766
840.467	15774
840.604	15880
840.742	16067
840.879	15717
841.016	15732
841.153	15705
841.29	15880
841.427	15778
841.564	15823
841.701	15869
841.838	15675
841.975	15713
842.112	15720
842.249	15568
842.385	15625
842.522	15778
842.659	15534
842.796	15542
842.933	15606
843.069	15572
843.206	15587
843.343	15587
843.479	15580
843.616	15431
843.752	15317
843.889	15435
844.025	15530
844.162	15340
844.298	15564
844.435	15291
844.571	15321
844.708	15496
844.844	15538
844.98	15458
845.117	15481
845.253	15332
845.389	15260
845.525	15252
845.661	15230
845.798	15058
845.934	15161
846.07	15104
846.206	15237
846.342	15329
846.478	15226
846.614	14929
846.75	14937
846.886	14963
847.022	14906
847.158	14986
847.294	15047
847.429	14994
847.565	14880
847.701	15154
847.837	14678
847.972	14697
848.108	14769
848.244	14720
848.379	14571
848.515	14484
848.65	14507
848.786	14602
848.921	14602
849.057	14587
849.192	14682
849.328	14590
849.463	14465
849.598	14537
849.734	14480
849.869	14362
850.004	14355
850.14	14286
850.275	14294
850.41	14278
850.545	14267
850.68	14309
850.815	14328
850.95	14324
851.085	14499
851.22	14484
851.355	14412
851.49	14313
851.625	14275
851.76	14294
851.895	14176
852.03	14180
852.165	14229
852.299	14377
852.434	14370
852.569	14282
852.703	14313
852.838	14343
852.973	14423
853.107	14446
853.242	14172
853.376	14237
853.511	14043
853.645	14157
853.78	14305
853.914	14206
854.048	14119
854.183	14008
854.317	14225
854.451	14465
854.585	14176
854.72	14077
854.854	14168
854.988	14126
855.122	14145
855.256	13963
855.39	14130
855.524	14286
855.658	14263
855.792	14328
855.926	14202
856.06	14214
856.194	14248
856.327	14123
856.461	14058
856.595	14161
856.729	14142
856.862	14168
856.996	14244
857.13	14259
857.263	14229
857.397	14332
857.53	14103
857.664	14195
857.797	14320
857.931	14252
858.064	14199
858.197	14218
858.331	14206
858.464	14183
858.597	13989
858.731	14100
858.864	14183
858.997	14119
859.13	14199
859.263	14221
859.396	14305
859.529	14267
859.662	14199
859.795	14149
859.928	14092
860.061	14305
860.194	14415
860.327	14183
860.46	14187
860.592	14237
860.725	14199
860.858	14366
860.99	14172
861.123	14111
861.256	14244
861.388	14183
861.521	14788
861.653	14050
861.786	13940
861.918	13989
862.05	14126
862.183	14081
862.315	14202
862.447	14221
862.58	14096
862.712	13955
862.844	13894
862.976	14062
863.108	13951
863.24	14278
863.372	13890
863.504	13925
863.636	13833
863.768	13974
863.9	14043
864.032	13970
864.164	13963
864.296	14050
864.428	14008
864.559	14088
864.691	14081
864.823	13982
864.954	14058
865.086	13959
865.217	13849
865.349	13833
865.48	13917
865.612	13982
865.743	14005
865.875	13970
866.006	13913
866.137	13883
866.269	13871
866.4	13967
866.531	13913
866.662	13887
866.793	13902
866.924	13906
867.055	13913
867.186	13868
867.317	13856
867.448	13849
867.579	13852
867.71	13845
867.841	13928
867.972	13917
868.103	13951
868.233	13967
868.364	13947
868.495	14024
868.625	14191
868.756	14240
868.886	14126
869.017	14168
869.147	14389
869.278	14240
869.408	14278
869.539	14237
869.669	14172
869.799	14271
869.929	14362
870.06	14286
870.19	14419
870.32	14415
870.45	14594
870.58	14621
870.71	14678
870.84	14640
870.97	14549
871.1	14533
871.23	14788
871.36	14773
871.489	14712
871.619	14724
871.749	14796
871.879	14861
872.008	14880
872.138	14777
872.267	14750
872.397	14754
872.526	14590
872.656	14655
872.785	14617
872.915	14868
873.044	14921
873.173	14781
873.303	14815
873.432	14914
873.561	14944
873.69	14849
873.819	14872
873.948	14807
874.077	14796
874.206	14826
874.335	14788
874.464	14994
874.593	15116
874.722	15020
874.851	15135
874.979	15184
875.108	15199
875.237	15157
875.365	15127
875.494	15116
875.623	15310
875.751	15055
875.88	15127
876.008	15294
876.136	15359
876.265	15492
876.393	15690
876.521	15671
876.65	15610
876.778	15519
876.906	15641
877.034	15610
877.162	15599
877.29	15553
877.418	15591
877.546	15538
877.674	15557
877.802	15553
877.93	15545
878.058	15477
878.185	15492
878.313	15591
878.441	15542
878.568	15401
878.696	15511
878.824	15584
878.951	15580
879.079	15705
879.206	15937
879.333	15876
879.461	15652
879.588	15698
879.715	15762
879.842	15861
879.97	15644
880.097	15382
880.224	15416
880.351	15492
880.478	15523
880.605	15386
880.732	15435
880.859	15587
880.986	15443
881.112	15439
881.239	15279
881.366	15112
881.493	15169
881.619	15093
881.746	15123
881.872	15104
881.999	15097
882.125	15070
882.252	15112
882.378	15203
882.505	15165
882.631	14986
882.757	14956
882.883	14937
883.01	14933
883.136	14845
883.262	14762
883.388	14663
883.514	14960
883.64	14948
883.766	14819
883.892	14644
884.018	14693
884.143	14849
884.269	15009
884.395	14629
884.52	14533
884.646	14655
884.772	14533
884.897	14568
885.023	14648
885.148	14777
885.274	14727
885.399	14674
885.524	14651
885.65	14473
885.775	14575
885.9	14579
886.025	14762
886.15	14667
886.275	14499
886.4	14419
886.525	14549
886.65	14480
886.775	14579
886.9	14724
887.025	14735
887.149	14575
887.274	14473
887.399	14442
887.523	14419
887.648	14298
887.773	14351
887.897	14473
888.021	14473
888.146	14415
888.27	14419
888.395	14579
888.519	14522
888.643	14560
888.767	14438
888.891	14343
889.015	14225
889.139	14240
889.263	14263
889.387	14431
889.511	14545
889.635	14385
889.759	14298
889.883	14233
890.006	14328
890.13	14400
890.254	14225
890.377	14233
890.501	14115
890.624	14081
890.748	14240
890.871	14088
890.995	13993
891.118	13932
891.241	14103
891.364	14046
891.488	14081
891.611	13936
891.734	14027
891.857	14107
891.98	14107
892.103	14115
892.226	14107
892.349	13989
892.471	13879
892.594	13986
892.717	14035
892.839	13928
892.962	14081
893.085	14050
893.207	13978
893.33	13871
893.452	13955
893.575	14046
893.697	14020
893.819	14103
893.941	14199
894.064	14123
894.186	14031
894.308	13849
894.43	14130
894.552	14199
894.674	14149
894.796	14046
894.918	14016
895.04	14107
895.161	14161
895.283	14069
895.405	14031
895.526	14035
895.648	14103
895.769	14119
895.891	14161
896.012	14237
896.134	14259
896.255	14229
896.376	14199
896.498	14183
896.619	14168
896.74	14225
896.861	14240
896.982	14541
897.103	14636
897.224	14457
897.345	14480
897.466	14328
897.587	14473
897.708	14552
897.828	14514
897.949	14427
898.07	14328
898.19	14469
898.311	14530
898.431	14473
898.552	14522
898.672	14629
898.792	14648
898.913	14670
899.033	14457
899.153	14419
899.273	14339
899.393	14423
899.513	14465
899.633	14305
899.753	14415
899.873	14370
899.993	14469
900.113	14454
900.232	14412
900.352	14324
900.472	14187
900.591	14195
900.711	14275
900.83	14161
900.95	14339
901.069	14400
901.189	14256
901.308	13967
901.427	13814
901.546	13868
901.665	14001
901.784	13993
901.904	13807
902.023	13738
902.141	13499
902.26	13548
902.379	13537
902.498	13468
902.617	13358
902.735	13502
902.854	13499
902.973	13453
903.091	13312
903.21	13202
903.328	13259
903.446	13103
903.565	13046
903.683	13133
903.801	13004
903.919	13042
904.038	13141
904.156	12863
904.274	12989
904.392	12905
904.51	12947
904.627	12863
904.745	12871
904.863	12962
904.981	12730
905.098	12570
905.216	12608
905.334	12570
905.451	12639
905.569	12502
905.686	12631
905.803	12620
905.921	12407
906.038	12448
906.155	12369
906.272	12311
906.389	12319
906.506	12129
906.623	12197
906.74	12171
906.857	12076
906.974	12091
907.091	12296
907.208	12201
907.324	12228
907.441	12110
907.557	11984
907.674	11836
907.79	11786
907.907	11859
908.023	11946
908.139	11908
908.256	11904
908.372	11980
908.488	11836
908.604	11745
908.72	11653
908.836	11661
908.952	11634
909.068	11665
909.184	11726
909.3	11733
909.415	11745
909.531	11703
909.647	11497
909.762	11516
909.878	11379
909.993	11535
910.108	11402
910.224	11452
910.339	11433
910.454	11402
910.57	11288
910.685	11162
910.8	11474
910.915	11455
911.03	11284
911.145	11166
911.259	11094
911.374	11189
911.489	11143
911.604	10980
911.718	10949
911.833	10953
911.947	10847
912.062	10763
912.176	10915
912.291	10889
912.405	10953
912.519	11064
912.633	11140
912.748	10995
912.862	10953
912.976	10767
913.09	10706
913.204	10721
913.318	10839
913.431	10900
913.545	10850
913.659	10923
913.772	10706
913.886	10725
914	10675
914.113	10714
914.226	10805
914.34	10748
914.453	10660
914.566	10706
914.68	10721
914.793	10577
914.906	10413
915.019	10405
915.132	10379
915.245	10443
915.358	10398
915.47	10497
915.583	10493
915.696	10421
915.809	10546
915.921	10611
916.034	10417
916.146	10436
916.259	10394
916.371	10440
916.483	10421
916.595	10356
916.708	10390
916.82	10386
916.932	10299
917.044	10322
917.156	10329
917.268	10295
917.38	10329
917.491	10242
917.603	10211
917.715	10390
917.826	10322
917.938	10276
918.049	10188
918.161	10261
918.272	10402
918.384	10527
918.495	10329
918.606	10166
918.717	9987
918.828	10162
918.939	10177
919.05	10044
919.161	10101
919.272	9975
919.383	10006
919.494	10131
919.604	10322
919.715	10200
919.826	10093
919.936	10086
920.047	10173
920.157	10188
920.267	10413
920.378	10196
920.488	10112
920.598	10398
920.708	10447
920.818	10386
920.928	10386
921.038	10535
921.148	10550
921.258	10246
921.368	10150
921.477	10044
921.587	9998
921.697	9880
921.806	10002
921.916	9922
922.025	9755
922.134	9701
922.244	9652
922.353	9804
922.462	9561
922.571	9523
922.68	9382
922.789	9408
922.898	9469
923.007	9329
923.116	9469
923.224	9351
923.333	9424
923.442	9382
923.55	9272
923.659	9336
923.767	9351
923.876	9306
923.984	9370
924.092	9165
924.201	9340
924.309	9287
924.417	9268
924.525	9264
924.633	9241
924.741	10143
924.849	9036
924.956	9241
925.064	9077
925.172	9032
925.279	8998
925.387	9081
925.494	9127
925.602	9222
925.709	9173
925.816	9055
925.924	9112
926.031	9116
926.138	9028
926.245	9135
926.352	9043
926.459	9093
926.566	9161
926.673	9013
926.779	8986
926.886	8952
926.993	8815
927.099	8804
927.206	8819
927.312	8750
927.419	8842
927.525	8826
927.631	8872
927.737	8674
927.843	8686
927.95	8571
928.056	8640
928.162	8705
928.267	8735
928.373	9264
928.479	8788
928.585	8514
928.69	8651
928.796	8686
928.901	8590
929.007	8457
929.112	8541
929.218	8571
929.323	8518
929.428	8469
929.533	8568
929.638	8434
929.743	8415
929.848	8522
929.953	8549
930.058	8370
930.163	8282
930.267	8396
930.372	8415
930.477	8145
930.581	8492
930.685	8370
930.79	8267
930.894	8294
930.998	8172
931.103	8351
931.207	8065
931.311	7959
931.415	7909
931.519	7753
931.623	7799
