Data from test_V78500241_248.txt Node
Date: Fri Mar 25 14:35:27 CST 2022
User: usil
Spectrometer: V785-0024
Trigger mode: 0
Integration Time (sec): 4.000000E-1
Scans to average: 1
Nonlinearity correction enabled: false
Boxcar width: 0
Storing dark spectrum: false
XAxis mode: Wavelengths
Number of Pixels in Spectrum: 1024
>>>>>Begin Spectral Data<<<<<
801.071	27477
801.214	27473
801.356	27165
801.499	27302
801.641	27047
801.783	27108
801.926	26994
802.068	26887
802.211	26880
802.353	26651
802.496	26743
802.638	26640
802.78	26484
802.923	26404
803.065	26362
803.208	26431
803.35	26450
803.492	26598
803.635	26473
803.777	26648
803.919	26644
804.061	26906
804.204	26564
804.346	26507
804.488	26358
804.63	26533
804.773	26419
804.915	26377
805.057	26762
805.199	26533
805.341	26537
805.483	26587
805.626	26587
805.768	26575
805.91	26545
806.052	26602
806.194	26355
806.336	26796
806.478	26587
806.62	26651
806.762	26606
806.904	26754
807.046	26975
807.188	26933
807.33	26861
807.472	27009
807.614	26910
807.756	26899
807.898	26845
808.04	26689
808.182	26823
808.324	26861
808.465	26834
808.607	27138
808.749	27279
808.891	27321
809.033	27462
809.174	27211
809.316	27325
809.458	27180
809.6	27066
809.741	27184
809.883	27169
810.025	27226
810.166	27310
810.308	27386
810.45	27241
810.591	27138
810.733	26880
810.875	26971
811.016	26758
811.158	26762
811.299	26758
811.441	26914
811.582	26960
811.724	26872
811.865	26861
812.007	26960
812.148	26792
812.29	26963
812.431	26979
812.573	27275
812.714	27260
812.855	27416
812.997	27595
813.138	27530
813.279	27443
813.421	27344
813.562	27291
813.703	27169
813.845	27028
813.986	26815
814.127	26705
814.268	26476
814.41	26400
814.551	26545
814.692	26453
814.833	26366
814.974	26415
815.115	26438
815.256	26218
815.397	26317
815.539	26286
815.68	26134
815.821	26191
815.962	26191
816.103	26183
816.244	25970
816.385	25989
816.526	25906
816.666	25765
816.807	25582
816.948	25674
817.089	25651
817.23	25655
817.371	25586
817.512	25613
817.653	25422
817.793	25613
817.934	25647
818.075	25594
818.216	25628
818.356	25502
818.497	25358
818.638	25270
818.778	25297
818.919	25202
819.06	25312
819.2	25350
819.341	25377
819.481	25510
819.622	25445
819.762	25769
819.903	25677
820.043	25521
820.184	25632
820.324	25445
820.465	25544
820.605	25620
820.746	25510
820.886	25232
821.026	25544
821.167	25483
821.307	25597
821.447	25457
821.588	25285
821.728	25141
821.868	25137
822.008	24981
822.149	24894
822.289	24924
822.429	24696
822.569	24502
822.709	24456
822.849	24350
822.99	24357
823.13	24296
823.27	24426
823.41	24018
823.55	24022
823.69	24228
823.83	24315
823.97	24030
824.11	23874
824.25	23942
824.389	23961
824.529	23942
824.669	23851
824.809	24053
824.949	23988
825.089	24022
825.228	23969
825.368	23771
825.508	23798
825.648	23646
825.787	23840
825.927	23756
826.067	23653
826.206	23710
826.346	23748
826.485	23847
826.625	23764
826.765	23851
826.904	23748
827.044	23410
827.183	23573
827.323	23387
827.462	23474
827.601	23372
827.741	23429
827.88	23493
828.02	23299
828.159	23307
828.298	23265
828.437	23383
828.577	23349
828.716	23429
828.855	23334
828.994	23174
829.134	22976
829.273	23174
829.412	23056
829.551	23025
829.69	22942
829.829	23044
829.968	22991
830.107	23010
830.246	23121
830.385	22949
830.524	22930
830.663	22904
830.802	22930
830.941	22634
831.08	22641
831.219	22641
831.357	22710
831.496	22850
831.635	22599
831.774	22546
831.913	22455
832.051	22344
832.19	22291
832.329	22386
832.467	22409
832.606	22166
832.744	22139
832.883	22360
833.022	22306
833.16	22238
833.299	22223
833.437	22268
833.576	22329
833.714	22280
833.852	22341
833.991	22360
834.129	22432
834.267	22398
834.406	22322
834.544	22287
834.682	22261
834.821	22341
834.959	22337
835.097	22219
835.235	22261
835.373	22223
835.511	22185
835.65	22025
835.788	22048
835.926	21911
836.064	21964
836.202	21888
836.34	22067
836.478	22093
836.615	21846
836.753	22055
836.891	22143
837.029	22169
837.167	22082
837.305	22070
837.443	21945
837.58	21953
837.718	22074
837.856	21991
837.993	21819
838.131	21945
838.269	21819
838.406	21831
838.544	21793
838.681	21667
838.819	21519
838.956	21378
839.094	21310
839.231	21405
839.369	21485
839.506	21785
839.643	21572
839.781	21317
839.918	21287
840.055	21306
840.193	21363
840.33	21332
840.467	21321
840.604	21386
840.742	21591
840.879	21077
841.016	21230
841.153	21218
841.29	21428
841.427	21310
841.564	21138
841.701	21374
841.838	21306
841.975	21043
842.112	21100
842.249	21089
842.385	20952
842.522	21230
842.659	21047
842.796	21009
842.933	21009
843.069	20960
843.206	20933
843.343	20963
843.479	21020
843.616	21074
843.752	20667
843.889	20826
844.025	20819
844.162	20667
844.298	20834
844.435	20640
844.571	20788
844.708	20746
844.844	20830
844.98	20887
845.117	20861
845.253	20575
845.389	20689
845.525	20560
845.661	20705
845.798	20754
845.934	20746
846.07	20758
846.206	20880
846.342	20902
846.478	20667
846.614	20446
846.75	20225
846.886	20214
847.022	20377
847.158	20221
847.294	20233
847.429	20286
847.565	20195
847.701	20484
847.837	19856
847.972	19909
848.108	20039
848.244	20050
848.379	19696
848.515	19658
848.65	19674
848.786	19841
848.921	19734
849.057	19822
849.192	20012
849.328	19788
849.463	19742
849.598	19791
849.734	19609
849.869	19567
850.004	19464
850.14	19559
850.275	19548
850.41	19403
850.545	19510
850.68	19468
850.815	19480
850.95	19434
851.085	19525
851.22	19537
851.355	19422
851.49	19468
851.625	19476
851.76	19381
851.895	19373
852.03	19297
852.165	19354
852.299	19483
852.434	19601
852.569	19525
852.703	19514
852.838	19499
852.973	19529
853.107	19674
853.242	19422
853.376	19293
853.511	19198
853.645	19225
853.78	19403
853.914	19122
854.048	19228
854.183	19194
854.317	19354
854.451	19407
854.585	19228
854.72	19198
854.854	19308
854.988	19346
855.122	19384
855.256	19129
855.39	19198
855.524	19354
855.658	19244
855.792	19392
855.926	19331
856.06	19312
856.194	19304
856.327	19308
856.461	19213
856.595	19236
856.729	19259
856.862	19365
856.996	19247
857.13	19240
857.263	19350
857.397	19316
857.53	19171
857.664	19217
857.797	19324
857.931	19335
858.064	19198
858.197	19331
858.331	19194
858.464	19259
858.597	19133
858.731	19274
858.864	19175
858.997	19126
859.13	19213
859.263	19247
859.396	19297
859.529	19046
859.662	19145
859.795	19137
859.928	19255
860.061	19282
860.194	19362
860.327	19118
860.46	19217
860.592	19209
860.725	19285
860.858	19312
860.99	19183
861.123	19019
861.256	19198
861.388	19107
861.521	19765
861.653	19042
861.786	18920
861.918	19061
862.05	19255
862.183	19175
862.315	19194
862.447	19301
862.58	19198
862.712	18996
862.844	18894
862.976	19027
863.108	18962
863.24	19297
863.372	18954
863.504	18939
863.636	18894
863.768	18837
863.9	18779
864.032	18844
864.164	18844
864.296	18844
864.428	19031
864.559	19038
864.691	18977
864.823	18894
864.954	18871
865.086	18924
865.217	18837
865.349	18696
865.48	18722
865.612	18886
865.743	18913
865.875	18924
866.006	18738
866.137	18852
866.269	18844
866.4	18779
866.531	18749
866.662	18677
866.793	18661
866.924	18696
867.055	18837
867.186	18741
867.317	18677
867.448	18677
867.579	18681
867.71	18673
867.841	18696
867.972	18715
868.103	18734
868.233	18916
868.364	18738
868.495	18928
868.625	18909
868.756	18970
868.886	18852
869.017	19080
869.147	19118
869.278	19091
869.408	18981
869.539	19072
869.669	19084
869.799	18935
869.929	19107
870.06	19042
870.19	19381
870.32	19247
870.45	19270
870.58	19304
870.71	19556
870.84	19510
870.97	19327
871.1	19350
871.23	19613
871.36	19499
871.489	19483
871.619	19563
871.749	19533
871.879	19655
872.008	19696
872.138	19567
872.267	19620
872.397	19445
872.526	19537
872.656	19434
872.785	19468
872.915	19643
873.044	19662
873.173	19662
873.303	19601
873.432	19586
873.561	19658
873.69	19582
873.819	19639
873.948	19639
874.077	19563
874.206	19537
874.335	19597
874.464	19639
874.593	19750
874.722	19841
874.851	19879
874.979	19883
875.108	19898
875.237	19898
875.365	19822
875.494	19894
875.623	19890
875.751	19917
875.88	19833
876.008	20001
876.136	20012
876.265	20343
876.393	20404
876.521	20377
876.65	20400
876.778	20358
876.906	20183
877.034	20317
877.162	20301
877.29	20191
877.418	20221
877.546	20267
877.674	20225
877.802	20233
877.93	20313
878.058	20202
878.185	20237
878.313	20183
878.441	20263
878.568	20119
878.696	20195
878.824	20351
878.951	20355
879.079	20545
879.206	20617
879.333	20499
879.461	20415
879.588	20537
879.715	20590
879.842	20598
879.97	20457
880.097	20172
880.224	20092
880.351	20210
880.478	20248
880.605	20126
880.732	20103
880.859	20431
880.986	20077
881.112	20130
881.239	20100
881.366	19868
881.493	19913
881.619	19772
881.746	19761
881.872	19757
881.999	19674
882.125	19616
882.252	19708
882.378	19818
882.505	19875
882.631	19761
882.757	19540
882.883	19658
883.01	19540
883.136	19453
883.262	19400
883.388	19339
883.514	19430
883.64	19460
883.766	19460
883.892	19297
884.018	19377
884.143	19563
884.269	19578
884.395	19232
884.52	19031
884.646	19228
884.772	19084
884.897	18996
885.023	19171
885.148	19228
885.274	19403
885.399	19194
885.524	19179
885.65	19198
885.775	19114
885.9	19034
886.025	19274
886.15	19236
886.275	19103
886.4	19103
886.525	19107
886.65	19034
886.775	19114
886.9	19209
887.025	19270
887.149	19046
887.274	18962
887.399	18939
887.523	18859
887.648	18886
887.773	18757
887.897	18897
888.021	18905
888.146	18779
888.27	18886
888.395	18962
888.519	18825
888.643	18985
888.767	18954
888.891	18757
889.015	18703
889.139	18787
889.263	18817
889.387	18817
889.511	18924
889.635	18829
889.759	18639
889.883	18795
890.006	18654
890.13	18642
890.254	18692
890.377	18540
890.501	18391
890.624	18407
890.748	18509
890.871	18346
890.995	18220
891.118	18289
891.241	18197
891.364	18395
891.488	18353
891.611	18273
891.734	18308
891.857	18353
891.98	18399
892.103	18350
892.226	18380
892.349	18235
892.471	18098
892.594	18273
892.717	18163
892.839	18163
892.962	18216
893.085	18334
893.207	18201
893.33	18095
893.452	18213
893.575	18262
893.697	18095
893.819	18323
893.941	18384
894.064	18311
894.186	18270
894.308	18194
894.43	18315
894.552	18353
894.674	18327
894.796	18125
894.918	18209
895.04	18216
895.161	18338
895.283	18205
895.405	18182
895.526	18133
895.648	18213
895.769	18243
895.891	18228
896.012	18270
896.134	18289
896.255	18270
896.376	18201
896.498	18319
896.619	18311
896.74	18300
896.861	18357
896.982	18684
897.103	18707
897.224	18616
897.345	18616
897.466	18521
897.587	18471
897.708	18646
897.828	18513
897.949	18464
898.07	18467
898.19	18376
898.311	18578
898.431	18441
898.552	18585
898.672	18410
898.792	18566
898.913	18528
899.033	18403
899.153	18262
899.273	18194
899.393	18369
899.513	18308
899.633	18292
899.753	18262
899.873	18243
899.993	18289
900.113	18289
900.232	18296
900.352	18216
900.472	18213
900.591	18041
900.711	18167
900.83	18011
900.95	18190
901.069	18144
901.189	18007
901.308	17794
901.427	17710
901.546	17718
901.665	17726
901.784	17794
901.904	17600
902.023	17459
902.141	17395
902.26	17299
902.379	17433
902.498	17246
902.617	17174
902.735	17166
902.854	17235
902.973	17136
903.091	16961
903.21	16911
903.328	17029
903.446	16717
903.565	16744
903.683	16767
903.801	16725
903.919	16694
904.038	16706
904.156	16500
904.274	16630
904.392	16500
904.51	16421
904.627	16367
904.745	16485
904.863	16459
904.981	16200
905.098	16131
905.216	16158
905.334	16223
905.451	16135
905.569	16112
905.686	16246
905.803	16192
905.921	15968
906.038	15964
906.155	16051
906.272	15816
906.389	15854
906.506	15751
906.623	15759
906.74	15720
906.857	15496
906.974	15553
907.091	15701
907.208	15747
907.324	15637
907.441	15511
907.557	15431
907.674	15412
907.79	15226
907.907	15393
908.023	15389
908.139	15477
908.256	15340
908.372	15279
908.488	15302
908.604	15165
908.72	15089
908.836	15089
908.952	15062
909.068	15070
909.184	15207
909.3	15089
909.415	15097
909.531	14975
909.647	14887
909.762	14754
909.878	14883
909.993	14796
910.108	14743
910.224	14678
910.339	14762
910.454	14708
910.57	14571
910.685	14511
910.8	14845
910.915	14800
911.03	14651
911.145	14427
911.259	14351
911.374	14457
911.489	14343
911.604	14282
911.718	14218
911.833	14199
911.947	14073
912.062	13982
912.176	14164
912.291	14069
912.405	14126
912.519	14355
912.633	14396
912.748	14142
912.862	14176
912.976	13898
913.09	13849
913.204	13967
913.318	13921
913.431	14054
913.545	14005
913.659	14161
913.772	13936
913.886	13830
914	13795
914.113	14039
914.226	13909
914.34	13936
914.453	13750
914.566	13909
914.68	13750
914.793	13704
914.906	13544
915.019	13483
915.132	13419
915.245	13464
915.358	13434
915.47	13506
915.583	13495
915.696	13518
915.809	13594
915.921	13556
916.034	13396
916.146	13381
916.259	13346
916.371	13441
916.483	13449
916.595	13369
916.708	13331
916.82	13282
916.932	13339
917.044	13285
917.156	13335
917.268	13122
917.38	13236
917.491	13168
917.603	13164
917.715	13301
917.826	13289
917.938	13107
918.049	13088
918.161	13137
918.272	13213
918.384	13236
918.495	13194
918.606	13088
918.717	12954
918.828	12977
918.939	12966
919.05	12859
919.161	12886
919.272	12760
919.383	12844
919.494	12970
919.604	13149
919.715	12932
919.826	12920
919.936	12856
920.047	12962
920.157	12973
920.267	13129
920.378	12962
920.488	12985
920.598	13095
920.708	13221
920.818	13061
920.928	13084
921.038	13187
921.148	13122
921.258	12924
921.368	12745
921.477	12612
921.587	12658
921.697	12566
921.806	12726
921.916	12601
922.025	12410
922.134	12399
922.244	12308
922.353	12445
922.462	12281
922.571	12133
922.68	12041
922.789	11999
922.898	12007
923.007	11961
923.116	12007
923.224	11980
923.333	11980
923.442	11916
923.55	11794
923.659	11942
923.767	11874
923.876	11771
923.984	11912
924.092	11805
924.201	11756
924.309	11840
924.417	11805
924.525	11619
924.633	11722
924.741	12669
924.849	11493
924.956	11684
925.064	11528
925.172	11440
925.279	11478
925.387	11528
925.494	11425
925.602	11497
925.709	11581
925.816	11448
925.924	11391
926.031	11528
926.138	11528
926.245	11505
926.352	11433
926.459	11535
926.566	11512
926.673	11406
926.779	11345
926.886	11296
926.993	11239
927.099	11143
927.206	11018
927.312	11098
927.419	11174
927.525	11128
927.631	11166
927.737	11022
927.843	11006
927.95	10927
928.056	10961
928.162	11014
928.267	10946
928.373	11539
928.479	11094
928.585	10782
928.69	10930
928.796	10961
928.901	10850
929.007	10698
929.112	10809
929.218	10793
929.323	10721
929.428	10653
929.533	10820
929.638	10645
929.743	10691
929.848	10755
929.953	10672
930.058	10626
930.163	10367
930.267	10447
930.372	10516
930.477	10382
930.581	10580
930.685	10523
930.79	10348
930.894	10382
930.998	10352
931.103	10310
931.207	10120
931.311	10032
931.415	9941
931.519	9717
931.623	9759
