Data from test_V78500241_555.txt Node
Date: Fri Mar 25 14:37:35 CST 2022
User: usil
Spectrometer: V785-0024
Trigger mode: 0
Integration Time (sec): 4.000000E-1
Scans to average: 1
Nonlinearity correction enabled: false
Boxcar width: 0
Storing dark spectrum: false
XAxis mode: Wavelengths
Number of Pixels in Spectrum: 1024
>>>>>Begin Spectral Data<<<<<
801.071	27705
801.214	27439
801.356	27393
801.499	27310
801.641	27154
801.783	27017
801.926	27081
802.068	27036
802.211	26891
802.353	26845
802.496	26674
802.638	26473
802.78	26499
802.923	26514
803.065	26511
803.208	26412
803.35	26537
803.492	26651
803.635	26632
803.777	26655
803.919	26571
804.061	26921
804.204	26530
804.346	26579
804.488	26469
804.63	26731
804.773	26537
804.915	26743
805.057	26785
805.199	26735
805.341	26857
805.483	26891
805.626	26933
805.768	26918
805.91	26986
806.052	26975
806.194	26998
806.336	27108
806.478	27180
806.62	27268
806.762	27557
806.904	27705
807.046	28162
807.188	28173
807.33	28459
807.472	28873
807.614	29037
807.756	29383
807.898	29756
808.04	30452
808.182	31537
808.324	32720
808.465	33876
808.607	35630
808.749	37015
808.891	37795
809.033	37913
809.174	37038
809.316	35604
809.458	34154
809.6	32499
809.741	31331
809.883	30365
810.025	29824
810.166	29239
810.308	28987
810.45	28565
810.591	28287
810.733	28036
810.875	27781
811.016	27549
811.158	27447
811.299	27530
811.441	27568
811.582	27557
811.724	27226
811.865	27256
812.007	26971
812.148	27081
812.29	27043
812.431	27207
812.573	27378
812.714	27424
812.855	27545
812.997	27610
813.138	27698
813.279	27568
813.421	27496
813.562	27424
813.703	27070
813.845	27123
813.986	26648
814.127	26606
814.268	26389
814.41	26457
814.551	26415
814.692	26465
814.833	26286
814.974	26240
815.115	26370
815.256	26180
815.397	26142
815.539	26126
815.68	26065
815.821	26031
815.962	26046
816.103	26031
816.244	25727
816.385	25655
816.526	25727
816.666	25495
816.807	25316
816.948	25487
817.089	25479
817.23	25343
817.371	25343
817.512	25285
817.653	25381
817.793	25247
817.934	25335
818.075	25270
818.216	25324
818.356	25209
818.497	25126
818.638	25012
818.778	24996
818.919	25031
819.06	25103
819.2	25004
819.341	25217
819.481	25232
819.622	25422
819.762	25472
819.903	25499
820.043	25297
820.184	25289
820.324	25381
820.465	25198
820.605	25183
820.746	25152
820.886	25103
821.026	25141
821.167	25179
821.307	25236
821.447	24977
821.588	25126
821.728	24837
821.868	24791
822.008	24582
822.149	24525
822.289	24433
822.429	24129
822.569	24167
822.709	24228
822.849	23958
822.99	23969
823.13	23870
823.27	23821
823.41	23821
823.55	23676
823.69	23699
823.83	23805
823.97	23649
824.11	23497
824.25	23414
824.389	23566
824.529	23539
824.669	23509
824.809	23604
824.949	23581
825.089	23516
825.228	23516
825.368	23242
825.508	23318
825.648	23356
825.787	23356
825.927	23296
826.067	23341
826.206	23231
826.346	23318
826.485	23391
826.625	23227
826.765	23425
826.904	23360
827.044	23117
827.183	22991
827.323	22908
827.462	23003
827.601	22961
827.741	22835
827.88	22812
828.02	22835
828.159	22900
828.298	22809
828.437	22972
828.577	22915
828.716	22980
828.855	22862
828.994	22679
829.134	22626
829.273	22675
829.412	22519
829.551	22344
829.69	22618
829.829	22538
829.968	22645
830.107	22656
830.246	22580
830.385	22584
830.524	22500
830.663	22394
830.802	22238
830.941	22230
831.08	22169
831.219	22188
831.357	22295
831.496	22295
831.635	22188
831.774	22013
831.913	22101
832.051	22013
832.19	21873
832.329	21956
832.467	21873
832.606	21846
832.744	21911
832.883	22002
833.022	21926
833.16	22070
833.299	21975
833.437	22032
833.576	22147
833.714	22268
833.852	22409
833.991	22481
834.129	22428
834.267	22447
834.406	22398
834.544	22398
834.682	22394
834.821	22188
834.959	22405
835.097	22147
835.235	22200
835.373	22017
835.511	22086
835.65	21816
835.788	21850
835.926	21534
836.064	21564
836.202	21549
836.34	21732
836.478	21789
836.615	21671
836.753	21717
836.891	21774
837.029	21766
837.167	21583
837.305	21663
837.443	21466
837.58	21492
837.718	21591
837.856	21507
837.993	21412
838.131	21542
838.269	21473
838.406	21393
838.544	21272
838.681	21199
838.819	21081
838.956	20880
839.094	20792
839.231	20975
839.369	21154
839.506	21260
839.643	21169
839.781	20887
839.918	20967
840.055	20868
840.193	20724
840.33	20773
840.467	20819
840.604	20800
840.742	21096
840.879	20750
841.016	20701
841.153	20651
841.29	20998
841.427	20872
841.564	20845
841.701	20807
841.838	20765
841.975	20720
842.112	20788
842.249	20659
842.385	20476
842.522	20815
842.659	20667
842.796	20602
842.933	20594
843.069	20530
843.206	20556
843.343	20602
843.479	20686
843.616	20655
843.752	20556
843.889	20469
844.025	20659
844.162	20408
844.298	20773
844.435	20697
844.571	20735
844.708	21039
844.844	21157
844.98	21256
845.117	21587
845.253	21880
845.389	22740
845.525	24197
845.661	26746
845.798	29912
845.934	32507
846.07	33374
846.206	33039
846.342	30951
846.478	27755
846.614	24817
846.75	22900
846.886	21827
847.022	21310
847.158	20914
847.294	20533
847.429	20381
847.565	20278
847.701	20377
847.837	19879
847.972	19814
848.108	19803
848.244	19776
848.379	19651
848.515	19605
848.65	19533
848.786	19533
848.921	19434
849.057	19590
849.192	19556
849.328	19495
849.463	19445
849.598	19495
849.734	19419
849.869	19240
850.004	19213
850.14	19187
850.275	19251
850.41	19038
850.545	19076
850.68	19152
850.815	19114
850.95	19129
851.085	19190
851.22	19232
851.355	19107
851.49	19175
851.625	19247
851.76	19088
851.895	19076
852.03	18924
852.165	19061
852.299	19198
852.434	19171
852.569	19320
852.703	19190
852.838	19312
852.973	19327
853.107	19270
853.242	19084
853.376	19202
853.511	19046
853.645	19061
853.78	19232
853.914	19187
854.048	19088
854.183	19148
854.317	19232
854.451	19369
854.585	19190
854.72	19114
854.854	19168
854.988	19019
855.122	19072
855.256	18989
855.39	19148
855.524	19133
855.658	19012
855.792	19110
855.926	18962
856.06	19038
856.194	19091
856.327	19031
856.461	19000
856.595	18909
856.729	18966
856.862	19004
856.996	19019
857.13	19061
857.263	18958
857.397	19069
857.53	18981
857.664	18932
857.797	18920
857.931	19034
858.064	18939
858.197	18901
858.331	18920
858.464	18856
858.597	18787
858.731	18791
858.864	18814
858.997	18806
859.13	18760
859.263	18993
859.396	18943
859.529	18806
859.662	18856
859.795	18776
859.928	18840
860.061	19019
860.194	19099
860.327	18837
860.46	18867
860.592	19034
860.725	18951
860.858	18905
860.99	18848
861.123	18795
861.256	18760
861.388	18859
861.521	19537
861.653	18901
861.786	18696
861.918	18700
862.05	18757
862.183	18802
862.315	18833
862.447	18856
862.58	18802
862.712	18604
862.844	18612
862.976	18696
863.108	18612
863.24	18935
863.372	18646
863.504	18490
863.636	18483
863.768	18597
863.9	18528
864.032	18315
864.164	18589
864.296	18585
864.428	18677
864.559	18642
864.691	18509
864.823	18593
864.954	18551
865.086	18597
865.217	18517
865.349	18399
865.48	18353
865.612	18437
865.743	18555
865.875	18528
866.006	18372
866.137	18498
866.269	18441
866.4	18456
866.531	18448
866.662	18247
866.793	18380
866.924	18429
867.055	18460
867.186	18547
867.317	18437
867.448	18262
867.579	18384
867.71	18403
867.841	18266
867.972	18490
868.103	18490
868.233	18422
868.364	18426
868.495	18555
868.625	18635
868.756	18798
868.886	18574
869.017	18589
869.147	18779
869.278	18863
869.408	18673
869.539	18631
869.669	18783
869.799	18753
869.929	18768
870.06	18722
870.19	18897
870.32	19012
870.45	18996
870.58	19107
870.71	19270
870.84	19232
870.97	19004
871.1	19019
871.23	19358
871.36	19339
871.489	19236
871.619	19247
871.749	19301
871.879	19327
872.008	19339
872.138	19324
872.267	19232
872.397	19103
872.526	19225
872.656	19232
872.785	19194
872.915	19422
873.044	19533
873.173	19449
873.303	19365
873.432	19331
873.561	19483
873.69	19396
873.819	19559
873.948	19578
874.077	19445
874.206	19514
874.335	19441
874.464	19575
874.593	19799
874.722	19769
874.851	19932
874.979	19898
875.108	19902
875.237	19807
875.365	19791
875.494	19822
875.623	20005
875.751	19845
875.88	19967
876.008	20069
876.136	20161
876.265	20476
876.393	20556
876.521	20419
876.65	20644
876.778	20606
876.906	20442
877.034	20415
877.162	20670
877.29	20621
877.418	20724
877.546	20552
877.674	20845
877.802	20830
877.93	20864
878.058	20899
878.185	20941
878.313	21207
878.441	21230
878.568	21283
878.696	21732
878.824	22093
878.951	22672
879.079	23318
879.206	24505
879.333	25320
879.461	26107
879.588	26708
879.715	26651
879.842	26431
879.97	25400
880.097	24258
880.224	23425
880.351	22835
880.478	22626
880.605	22310
880.732	22029
880.859	22185
880.986	21949
881.112	21854
881.239	21530
881.366	21530
881.493	21492
881.619	21363
881.746	21473
881.872	21291
881.999	21378
882.125	21389
882.252	21469
882.378	21405
882.505	21644
882.631	21405
882.757	21302
882.883	21363
883.01	21195
883.136	21233
883.262	21127
883.388	21157
883.514	21245
883.64	21367
883.766	21123
883.892	21047
884.018	21032
884.143	21138
884.269	21294
884.395	21058
884.52	20876
884.646	20990
884.772	20933
884.897	20834
885.023	20921
885.148	20948
885.274	21100
885.399	20861
885.524	20785
885.65	20769
885.775	20663
885.9	20663
886.025	20693
886.15	20564
886.275	20393
886.4	20225
886.525	20263
886.65	20168
886.775	20115
886.9	20339
887.025	20355
887.149	20119
887.274	19772
887.399	19814
887.523	19753
887.648	19677
887.773	19559
887.897	19655
888.021	19594
888.146	19434
888.27	19559
888.395	19620
888.519	19521
888.643	19495
888.767	19518
888.891	19369
889.015	19293
889.139	19270
889.263	19190
889.387	19343
889.511	19369
889.635	19358
889.759	19133
889.883	19160
890.006	19133
890.13	19202
890.254	19015
890.377	18985
890.501	18734
890.624	18837
890.748	18856
890.871	18859
890.995	18589
891.118	18513
891.241	18707
891.364	18597
891.488	18722
891.611	18506
891.734	18627
891.857	18525
891.98	18502
892.103	18563
892.226	18498
892.349	18452
892.471	18391
892.594	18464
892.717	18456
892.839	18376
892.962	18410
893.085	18414
893.207	18353
893.33	18262
893.452	18270
893.575	18308
893.697	18273
893.819	18391
893.941	18437
894.064	18338
894.186	18304
894.308	18209
894.43	18304
894.552	18372
894.674	18273
894.796	18190
894.918	18232
895.04	18232
895.161	18232
895.283	18216
895.405	18190
895.526	18228
895.648	18106
895.769	18243
895.891	18205
896.012	18266
896.134	18140
896.255	18213
896.376	18114
896.498	18205
896.619	18209
896.74	18186
896.861	18285
896.982	18642
897.103	18684
897.224	18551
897.345	18384
897.466	18376
897.587	18361
897.708	18517
897.828	18239
897.949	18346
898.07	18262
898.19	18372
898.311	18502
898.431	18262
898.552	18414
898.672	18574
898.792	18486
898.913	18437
899.033	18296
899.153	18251
899.273	18228
899.393	18201
899.513	18205
899.633	18167
899.753	18281
899.873	18102
899.993	18266
900.113	18079
900.232	18228
900.352	18144
900.472	18041
900.591	18030
900.711	17984
900.83	17923
900.95	18091
901.069	18155
901.189	17870
901.308	17653
901.427	17562
901.546	17516
901.665	17608
901.784	17680
901.904	17482
902.023	17330
902.141	17185
902.26	17159
902.379	17132
902.498	17071
902.617	16972
902.735	17159
902.854	17109
902.973	17083
903.091	16778
903.21	16771
903.328	16790
903.446	16653
903.565	16599
903.683	16569
903.801	16409
903.919	16478
904.038	16474
904.156	16261
904.274	16390
904.392	16265
904.51	16348
904.627	16303
904.745	16367
904.863	16306
904.981	16090
905.098	16021
905.216	15823
905.334	15953
905.451	15903
905.569	15972
905.686	16025
905.803	15915
905.921	15698
906.038	15812
906.155	15625
906.272	15656
906.389	15660
906.506	15469
906.623	15492
906.74	15420
906.857	15355
906.974	15340
907.091	15488
907.208	15530
907.324	15477
907.441	15447
907.557	15256
907.674	15127
907.79	15017
907.907	15131
908.023	15180
908.139	15112
908.256	15074
908.372	15123
908.488	15100
908.604	14906
908.72	14853
908.836	14883
908.952	14861
909.068	14804
909.184	14864
909.3	14857
909.415	14804
909.531	14842
909.647	14606
909.762	14571
909.878	14507
909.993	14621
910.108	14541
910.224	14518
910.339	14541
910.454	14438
910.57	14457
910.685	14294
910.8	14492
910.915	14488
911.03	14396
911.145	14084
911.259	14252
911.374	14130
911.489	14134
911.604	14069
911.718	14005
911.833	13955
911.947	13761
912.062	13738
912.176	13849
912.291	13913
912.405	13906
912.519	13993
912.633	14088
912.748	13936
912.862	13970
912.976	13738
913.09	13609
913.204	13723
913.318	13769
913.431	13925
913.545	13860
913.659	13830
913.772	13750
913.886	13632
914	13518
914.113	13734
914.226	13689
914.34	13708
914.453	13491
914.566	13731
914.68	13575
914.793	13480
914.906	13274
915.019	13225
915.132	13198
915.245	13293
915.358	13312
915.47	13369
915.583	13346
915.696	13316
915.809	13460
915.921	13411
916.034	13255
916.146	13244
916.259	13266
916.371	13362
916.483	13301
916.595	13274
916.708	13107
916.82	13282
916.932	13145
917.044	13103
917.156	13156
917.268	13038
917.38	13050
917.491	12996
917.603	12970
917.715	13110
917.826	13095
917.938	12966
918.049	12814
918.161	12989
918.272	13050
918.384	13168
918.495	12947
918.606	12829
918.717	12776
918.828	12791
918.939	12894
919.05	12730
919.161	12753
919.272	12620
919.383	12627
919.494	12863
919.604	12943
919.715	12848
919.826	12631
919.936	12798
920.047	12833
920.157	12840
920.267	12901
920.378	12783
920.488	12741
920.598	12817
920.708	13152
920.818	12916
920.928	12897
921.038	13076
921.148	13034
921.258	12760
921.368	12631
921.477	12574
921.587	12574
921.697	12426
921.806	12528
921.916	12369
922.025	12391
922.134	12197
922.244	12136
922.353	12209
922.462	12079
922.571	12038
922.68	11912
922.789	11779
922.898	11836
923.007	11836
923.116	11969
923.224	11843
923.333	11813
923.442	11752
923.55	11688
923.659	11661
923.767	11748
923.876	11600
923.984	11752
924.092	11592
924.201	11558
924.309	11642
924.417	11668
924.525	11558
924.633	11600
924.741	12361
924.849	11334
924.956	11516
925.064	11444
925.172	11356
925.279	11277
925.387	11395
925.494	11406
925.602	11398
925.709	11490
925.816	11258
925.924	11296
926.031	11425
926.138	11315
926.245	11326
926.352	11265
926.459	11395
926.566	11425
926.673	11235
926.779	11143
926.886	11159
926.993	10976
927.099	10968
927.206	11037
927.312	10995
927.419	10889
927.525	10995
927.631	10987
927.737	10915
927.843	10839
927.95	10755
928.056	10820
928.162	10862
928.267	10869
928.373	11459
928.479	10927
928.585	10664
928.69	10812
928.796	10828
928.901	10675
929.007	10565
929.112	10755
929.218	10641
929.323	10634
929.428	10622
929.533	10740
929.638	10542
929.743	10569
929.848	10592
929.953	10596
930.058	10485
930.163	10291
930.267	10375
930.372	10371
930.477	10268
930.581	10527
930.685	10318
930.79	10242
930.894	10249
930.998	10253
931.103	10272
931.207	10013
931.311	9911
931.415	9736
931.519	9713
931.623	9671
