Data from test_V78500241_1333.txt Node
Date: Fri Mar 25 14:42:59 CST 2022
User: usil
Spectrometer: V785-0024
Trigger mode: 0
Integration Time (sec): 4.000000E-1
Scans to average: 1
Nonlinearity correction enabled: false
Boxcar width: 0
Storing dark spectrum: false
XAxis mode: Wavelengths
Number of Pixels in Spectrum: 1024
>>>>>Begin Spectral Data<<<<<
801.071	22337
801.214	22318
801.356	22051
801.499	22032
801.641	21705
801.783	21622
801.926	21728
802.068	21675
802.211	21652
802.353	21542
802.496	21325
802.638	21332
802.78	21283
802.923	21165
803.065	21039
803.208	21043
803.35	21108
803.492	21222
803.635	21192
803.777	20975
803.919	21268
804.061	21534
804.204	21104
804.346	21001
804.488	20967
804.63	21066
804.773	20971
804.915	21036
805.057	21192
805.199	20990
805.341	21131
805.483	21066
805.626	21321
805.768	20925
805.91	21039
806.052	21017
806.194	20838
806.336	21131
806.478	21074
806.62	20941
806.762	21138
806.904	21279
807.046	21420
807.188	21325
807.33	21317
807.472	21603
807.614	21294
807.756	21199
807.898	21135
808.04	21195
808.182	21081
808.324	21184
808.465	21252
808.607	21469
808.749	21671
808.891	21652
809.033	21785
809.174	21652
809.316	21504
809.458	21587
809.6	21496
809.741	21595
809.883	21481
810.025	21618
810.166	21507
810.308	21553
810.45	21542
810.591	21526
810.733	21363
810.875	21199
811.016	21154
811.158	21108
811.299	21214
811.441	21355
811.582	21363
811.724	21275
811.865	21230
812.007	21173
812.148	21173
812.29	21260
812.431	21325
812.573	21549
812.714	21557
812.855	21682
812.997	21789
813.138	21850
813.279	21591
813.421	21717
813.562	21507
813.703	21492
813.845	21382
813.986	20975
814.127	20925
814.268	20765
814.41	20720
814.551	20735
814.692	20758
814.833	20648
814.974	20701
815.115	20682
815.256	20602
815.397	20431
815.539	20568
815.68	20530
815.821	20366
815.962	20400
816.103	20545
816.244	20225
816.385	20229
816.526	20229
816.666	20081
816.807	19887
816.948	20039
817.089	20077
817.23	19936
817.371	19879
817.512	19940
817.653	19860
817.793	19784
817.934	19925
818.075	19875
818.216	19890
818.356	19833
818.497	19791
818.638	19624
818.778	19643
818.919	19525
819.06	19571
819.2	19700
819.341	19685
819.481	19780
819.622	19856
819.762	20035
819.903	19989
820.043	19856
820.184	19761
820.324	19803
820.465	19879
820.605	19845
820.746	19852
820.886	19750
821.026	19868
821.167	19845
821.307	19917
821.447	19708
821.588	19795
821.728	19582
821.868	19510
822.008	19365
822.149	19240
822.289	19133
822.429	19027
822.569	18951
822.709	18939
822.849	18753
822.99	18795
823.13	18760
823.27	18661
823.41	18555
823.55	18452
823.69	18620
823.83	18517
823.97	18566
824.11	18243
824.25	18365
824.389	18456
824.529	18437
824.669	18369
824.809	18532
824.949	18479
825.089	18414
825.228	18319
825.368	18182
825.508	18083
825.648	18125
825.787	18136
825.927	18167
826.067	18087
826.206	18129
826.346	18186
826.485	18186
826.625	18133
826.765	18273
826.904	18174
827.044	17897
827.183	17817
827.323	17790
827.462	17851
827.601	17870
827.741	17813
827.88	17912
828.02	17748
828.159	17798
828.298	17904
828.437	17939
828.577	17855
828.716	18011
828.855	17813
828.994	17718
829.134	17714
829.273	17661
829.412	17562
829.551	17452
829.69	17497
829.829	17653
829.968	17611
830.107	17676
830.246	17748
830.385	17516
830.524	17558
830.663	17395
830.802	17402
830.941	17239
831.08	17220
831.219	17311
831.357	17220
831.496	17425
831.635	17223
831.774	17197
831.913	17071
832.051	17041
832.19	17045
832.329	17079
832.467	16972
832.606	16866
832.744	16984
832.883	16904
833.022	16957
833.16	16885
833.299	17006
833.437	17025
833.576	17048
833.714	16949
833.852	17006
833.991	16995
834.129	17083
834.267	17041
834.406	16972
834.544	17033
834.682	17006
834.821	16987
834.959	17124
835.097	16987
835.235	17075
835.373	17033
835.511	17033
835.65	16900
835.788	16934
835.926	16736
836.064	16672
836.202	16873
836.34	16911
836.478	16938
836.615	16866
836.753	16911
836.891	16972
837.029	16904
837.167	16763
837.305	16946
837.443	16752
837.58	16755
837.718	16847
837.856	16774
837.993	16698
838.131	16824
838.269	16691
838.406	16831
838.544	16596
838.681	16474
838.819	16405
838.956	16238
839.094	16299
839.231	16386
839.369	16424
839.506	16721
839.643	16546
839.781	16344
839.918	16291
840.055	16360
840.193	16352
840.33	16234
840.467	16238
840.604	16329
840.742	16538
840.879	16249
841.016	16162
841.153	16234
841.29	16363
841.427	16272
841.564	16303
841.701	16268
841.838	16226
841.975	16166
842.112	16318
842.249	16029
842.385	16040
842.522	16306
842.659	16074
842.796	15975
842.933	16120
843.069	16078
843.206	16063
843.343	16101
843.479	16078
843.616	16181
843.752	15778
843.889	15949
844.025	15972
844.162	15842
844.298	15930
844.435	15926
844.571	15804
844.708	15922
844.844	16101
844.98	16101
845.117	16029
845.253	15899
845.389	15838
845.525	15732
845.661	15903
845.798	15968
845.934	16029
846.07	15884
846.206	16006
846.342	15926
846.478	15816
846.614	15511
846.75	15447
846.886	15329
847.022	15507
847.158	15401
847.294	15477
847.429	15485
847.565	15431
847.701	15614
847.837	15150
847.972	15192
848.108	15249
848.244	15294
848.379	15001
848.515	15100
848.65	14990
848.786	15135
848.921	15097
849.057	15173
849.192	15097
849.328	15077
849.463	15119
849.598	14929
849.734	14883
849.869	14838
850.004	14937
850.14	14872
850.275	14746
850.41	14689
850.545	14807
850.68	14758
850.815	14758
850.95	14674
851.085	14895
851.22	14921
851.355	14815
851.49	14735
851.625	14781
851.76	14788
851.895	14686
852.03	14724
852.165	14773
852.299	14792
852.434	14910
852.569	14773
852.703	14899
852.838	14868
852.973	14941
853.107	14956
853.242	14727
853.376	14670
853.511	14590
853.645	14682
853.78	14777
853.914	14773
854.048	14743
854.183	14617
854.317	14651
854.451	14716
854.585	14743
854.72	14640
854.854	14670
854.988	14602
855.122	14678
855.256	14533
855.39	14651
855.524	14724
855.658	14765
855.792	14739
855.926	14712
856.06	14743
856.194	14815
856.327	14697
856.461	14587
856.595	14552
856.729	14655
856.862	14670
856.996	14659
857.13	14758
857.263	14781
857.397	14845
857.53	14720
857.664	14735
857.797	14758
857.931	14712
858.064	14594
858.197	14686
858.331	14689
858.464	14636
858.597	14518
858.731	14659
858.864	14689
858.997	14648
859.13	14686
859.263	14712
859.396	14765
859.529	14648
859.662	14697
859.795	14598
859.928	14678
860.061	14743
860.194	14842
860.327	14720
860.46	14632
860.592	14758
860.725	14823
860.858	14701
860.99	14590
861.123	14670
861.256	14610
861.388	14727
861.521	15435
861.653	14556
861.786	14492
861.918	14492
862.05	14442
862.183	14511
862.315	14655
862.447	14667
862.58	14552
862.712	14488
862.844	14370
862.976	14511
863.108	14522
863.24	14899
863.372	14408
863.504	14431
863.636	14431
863.768	14473
863.9	14370
864.032	14389
864.164	14370
864.296	14503
864.428	14583
864.559	14564
864.691	14461
864.823	14396
864.954	14454
865.086	14450
865.217	14473
865.349	14278
865.48	14355
865.612	14393
865.743	14556
865.875	14412
866.006	14324
866.137	14442
866.269	14313
866.4	14419
866.531	14499
866.662	14347
866.793	14301
866.924	14309
867.055	14347
867.186	14317
867.317	14324
867.448	14259
867.579	14324
867.71	14366
867.841	14301
867.972	14404
868.103	14377
868.233	14461
868.364	14336
868.495	14415
868.625	14613
868.756	14807
868.886	14526
869.017	14701
869.147	14701
869.278	14686
869.408	14724
869.539	14693
869.669	14830
869.799	14735
869.929	14720
870.06	14727
870.19	14963
870.32	14963
870.45	14990
870.58	14998
870.71	15135
870.84	15195
870.97	15009
871.1	14979
871.23	15268
871.36	15116
871.489	15169
871.619	15272
871.749	15188
871.879	15306
872.008	15416
872.138	15306
872.267	15211
872.397	15154
872.526	15058
872.656	15127
872.785	15112
872.915	15287
873.044	15310
873.173	15329
873.303	15329
873.432	15408
873.561	15329
873.69	15386
873.819	15294
873.948	15450
874.077	15340
874.206	15291
874.335	15260
874.464	15382
874.593	15675
874.722	15500
874.851	15641
874.979	15671
875.108	15660
875.237	15462
875.365	15469
875.494	15587
875.623	15762
875.751	15595
875.88	15584
876.008	15720
876.136	15865
876.265	16051
876.393	16310
876.521	16025
876.65	16021
876.778	16059
876.906	16044
877.034	15956
877.162	15922
877.29	15972
877.418	16082
877.546	15964
877.674	16044
877.802	16071
877.93	15998
878.058	16021
878.185	15850
878.313	16006
878.441	15964
878.568	15926
878.696	16021
878.824	16116
878.951	16101
879.079	16333
879.206	16493
879.333	16299
879.461	16139
879.588	16226
879.715	16253
879.842	16504
879.97	16090
880.097	15899
880.224	15926
880.351	15907
880.478	15922
880.605	15918
880.732	15865
880.859	16131
880.986	15892
881.112	15884
881.239	15778
881.366	15701
881.493	15652
881.619	15504
881.746	15564
881.872	15553
881.999	15557
882.125	15477
882.252	15572
882.378	15633
882.505	15709
882.631	15488
882.757	15268
882.883	15542
883.01	15363
883.136	15386
883.262	15313
883.388	15249
883.514	15469
883.64	15367
883.766	15275
883.892	15154
884.018	15245
884.143	15412
884.269	15576
884.395	15108
884.52	14941
884.646	15104
884.772	14990
884.897	14952
885.023	15081
885.148	15058
885.274	15199
885.399	15146
885.524	15055
885.65	15062
885.775	15116
885.9	15066
886.025	15264
886.15	15131
886.275	15028
886.4	14937
886.525	15039
886.65	14990
886.775	14994
886.9	15077
887.025	15245
887.149	14998
887.274	14910
887.399	14868
887.523	14929
887.648	14754
887.773	14788
887.897	15001
888.021	14895
888.146	14773
888.27	14956
888.395	14956
888.519	14933
888.643	14918
888.767	14944
888.891	14868
889.015	14716
889.139	14765
889.263	14667
889.387	14826
889.511	14937
889.635	14868
889.759	14724
889.883	14743
890.006	14735
890.13	14906
890.254	14708
890.377	14769
890.501	14598
890.624	14427
890.748	14473
890.871	14545
890.995	14351
891.118	14366
891.241	14328
891.364	14381
891.488	14503
891.611	14408
891.734	14374
891.857	14518
891.98	14495
892.103	14488
892.226	14461
892.349	14339
892.471	14229
892.594	14484
892.717	14434
892.839	14374
892.962	14412
893.085	14503
893.207	14415
893.33	14358
893.452	14393
893.575	14484
893.697	14377
893.819	14587
893.941	14587
894.064	14503
894.186	14324
894.308	14347
894.43	14590
894.552	14701
894.674	14560
894.796	14442
894.918	14419
895.04	14389
895.161	14514
895.283	14408
895.405	14476
895.526	14488
895.648	14522
895.769	14613
895.891	14655
896.012	14556
896.134	14705
896.255	14545
896.376	14621
896.498	14606
896.619	14655
896.74	14549
896.861	14648
896.982	14921
897.103	15119
897.224	14853
897.345	14868
897.466	14708
897.587	14792
897.708	14895
897.828	14861
897.949	14804
898.07	14773
898.19	14804
898.311	15032
898.431	14800
898.552	14868
898.672	15036
898.792	14925
898.913	14876
899.033	14819
899.153	14765
899.273	14743
899.393	14712
899.513	14861
899.633	14781
899.753	14823
899.873	14724
899.993	14781
900.113	14823
900.232	14746
900.352	14750
900.472	14663
900.591	14606
900.711	14640
900.83	14587
900.95	14659
901.069	14727
901.189	14541
901.308	14317
901.427	14328
901.546	14320
901.665	14278
901.784	14240
901.904	14240
902.023	14115
902.141	13925
902.26	13826
902.379	14012
902.498	13837
902.617	13849
902.735	13841
902.854	13833
902.973	13776
903.091	13518
903.21	13643
903.328	13567
903.446	13472
903.565	13373
903.683	13468
903.801	13301
903.919	13392
904.038	13419
904.156	13255
904.274	13266
904.392	13225
904.51	13217
904.627	13221
904.745	13247
904.863	13358
904.981	13042
905.098	12878
905.216	12890
905.334	13050
905.451	13050
905.569	12909
905.686	12958
905.803	12920
905.921	12779
906.038	12882
906.155	12734
906.272	12654
906.389	12749
906.506	12506
906.623	12563
906.74	12483
906.857	12346
906.974	12407
907.091	12528
907.208	12574
907.324	12631
907.441	12414
907.557	12228
907.674	12292
907.79	12205
907.907	12228
908.023	12209
908.139	12323
908.256	12228
908.372	12205
908.488	12125
908.604	12026
908.72	11996
908.836	12057
908.952	11935
909.068	11984
909.184	12125
909.3	11961
909.415	12057
909.531	12015
909.647	11847
909.762	11809
909.878	11813
909.993	11764
910.108	11752
910.224	11752
910.339	11737
910.454	11646
910.57	11653
910.685	11589
910.8	11828
910.915	11824
911.03	11676
911.145	11551
911.259	11414
911.374	11429
911.489	11414
911.604	11341
911.718	11250
911.833	11223
911.947	11075
912.062	11048
912.176	11220
912.291	11223
912.405	11246
912.519	11448
912.633	11360
912.748	11296
912.862	11216
912.976	11105
913.09	10980
913.204	11067
913.318	11147
913.431	11212
913.545	11212
913.659	11197
913.772	11075
913.886	11018
914	10961
914.113	11041
914.226	11117
914.34	11018
914.453	10858
914.566	11045
914.68	10850
914.793	10900
914.906	10778
915.019	10675
915.132	10660
915.245	10687
915.358	10752
915.47	10717
915.583	10771
915.696	10740
915.809	10812
915.921	10828
916.034	10702
916.146	10694
916.259	10702
916.371	10687
916.483	10717
916.595	10580
916.708	10694
916.82	10626
916.932	10637
917.044	10565
917.156	10584
917.268	10542
917.38	10542
917.491	10462
917.603	10535
917.715	10573
917.826	10596
917.938	10504
918.049	10451
918.161	10531
918.272	10767
918.384	10653
918.495	10573
918.606	10390
918.717	10417
918.828	10405
918.939	10462
919.05	10211
919.161	10402
919.272	10143
919.383	10272
919.494	10470
919.604	10679
919.715	10424
919.826	10386
919.936	10390
920.047	10455
920.157	10470
920.267	10573
920.378	10527
920.488	10402
920.598	10588
920.708	10778
920.818	10603
920.928	10626
921.038	10759
921.148	10744
921.258	10443
921.368	10367
921.477	10299
921.587	10234
921.697	10120
921.806	10215
921.916	10150
922.025	10017
922.134	10010
922.244	9899
922.353	10025
922.462	9869
922.571	9812
922.68	9709
922.789	9542
922.898	9747
923.007	9584
923.116	9671
923.224	9671
923.333	9663
923.442	9519
923.55	9542
923.659	9641
923.767	9648
923.876	9469
923.984	9534
924.092	9515
924.201	9526
924.309	9564
924.417	9603
924.525	9515
924.633	9515
924.741	10398
924.849	9264
924.956	9439
925.064	9313
925.172	9199
925.279	9268
925.387	9294
925.494	9272
925.602	9477
925.709	9363
925.816	9264
925.924	9317
926.031	9302
926.138	9245
926.245	9412
926.352	9207
926.459	9370
926.566	9397
926.673	9233
926.779	9127
926.886	9135
926.993	8986
927.099	9032
927.206	8960
927.312	8998
927.419	8998
927.525	9024
927.631	9089
927.737	8910
927.843	8876
927.95	8804
928.056	8918
928.162	8899
928.267	9024
928.373	9633
928.479	9032
928.585	8716
928.69	8845
928.796	8956
928.901	8838
929.007	8648
929.112	8804
929.218	8750
929.323	8663
929.428	8716
929.533	8826
929.638	8636
929.743	8621
929.848	8796
929.953	8769
930.058	8659
930.163	8438
930.267	8541
930.372	8613
930.477	8480
930.581	8701
930.685	8610
930.79	8393
930.894	8457
930.998	8461
931.103	8583
931.207	8210
931.311	8218
931.415	8069
931.519	7917
931.623	7921
