Data from test_V78500241_2542.txt Node
Date: Fri Mar 25 14:51:24 CST 2022
User: usil
Spectrometer: V785-0024
Trigger mode: 0
Integration Time (sec): 4.000000E-1
Scans to average: 1
Nonlinearity correction enabled: false
Boxcar width: 0
Storing dark spectrum: false
XAxis mode: Wavelengths
Number of Pixels in Spectrum: 1024
>>>>>Begin Spectral Data<<<<<
801.071	22029
801.214	21899
801.356	21751
801.499	21701
801.641	21450
801.783	21428
801.926	21447
802.068	21363
802.211	21302
802.353	21169
802.496	21001
802.638	21085
802.78	20849
802.923	20823
803.065	20674
803.208	20625
803.35	20758
803.492	20823
803.635	20826
803.777	20739
803.919	20918
804.061	21203
804.204	20937
804.346	20724
804.488	20651
804.63	20735
804.773	20659
804.915	20575
805.057	20682
805.199	20701
805.341	20663
805.483	20716
805.626	20781
805.768	20560
805.91	20632
806.052	20735
806.194	20583
806.336	20845
806.478	20689
806.62	20598
806.762	20815
806.904	20979
807.046	21123
807.188	21070
807.33	21032
807.472	21005
807.614	21017
807.756	20876
807.898	20727
808.04	20670
808.182	20731
808.324	20739
808.465	20796
808.607	21005
808.749	20872
808.891	21116
809.033	21283
809.174	21150
809.316	20956
809.458	21135
809.6	20952
809.741	21062
809.883	21123
810.025	21146
810.166	21154
810.308	21138
810.45	21112
810.591	20941
810.733	20986
810.875	20750
811.016	20720
811.158	20743
811.299	20868
811.441	20925
811.582	20887
811.724	20785
811.865	20754
812.007	20636
812.148	20788
812.29	20864
812.431	21047
812.573	20986
812.714	21291
812.855	21298
812.997	21408
813.138	21435
813.279	21287
813.421	21211
813.562	21135
813.703	21013
813.845	21020
813.986	20606
814.127	20503
814.268	20480
814.41	20355
814.551	20400
814.692	20381
814.833	20294
814.974	20263
815.115	20343
815.256	20229
815.397	20183
815.539	20153
815.68	19955
815.821	19978
815.962	20092
816.103	19951
816.244	19989
816.385	19811
816.526	19696
816.666	19670
816.807	19537
816.948	19422
817.089	19556
817.23	19563
817.371	19521
817.512	19388
817.653	19506
817.793	19407
817.934	19510
818.075	19403
818.216	19472
818.356	19373
818.497	19266
818.638	19187
818.778	19088
818.919	19194
819.06	19190
819.2	19213
819.341	19320
819.481	19438
819.622	19441
819.762	19666
819.903	19582
820.043	19563
820.184	19476
820.324	19388
820.465	19483
820.605	19445
820.746	19445
820.886	19289
821.026	19362
821.167	19441
821.307	19533
821.447	19308
821.588	19247
821.728	19126
821.868	18947
822.008	18901
822.149	18726
822.289	18916
822.429	18612
822.569	18692
822.709	18715
822.849	18353
822.99	18304
823.13	18258
823.27	18273
823.41	18163
823.55	18098
823.69	18273
823.83	18167
823.97	18045
824.11	17889
824.25	17866
824.389	17942
824.529	17992
824.669	18015
824.809	18079
824.949	17958
825.089	18038
825.228	18022
825.368	17748
825.508	17657
825.648	17767
825.787	17767
825.927	17767
826.067	17726
826.206	17737
826.346	17687
826.485	17722
826.625	17634
826.765	17843
826.904	17767
827.044	17524
827.183	17532
827.323	17372
827.462	17482
827.601	17307
827.741	17345
827.88	17452
828.02	17208
828.159	17391
828.298	17429
828.437	17482
828.577	17417
828.716	17611
828.855	17337
828.994	17250
829.134	17174
829.273	17197
829.412	17143
829.551	17071
829.69	17071
829.829	17261
829.968	17265
830.107	17220
830.246	17022
830.385	17143
830.524	17056
830.663	16972
830.802	16866
830.941	16816
831.08	16744
831.219	16778
831.357	16854
831.496	16965
831.635	16736
831.774	16672
831.913	16649
832.051	16561
832.19	16538
832.329	16565
832.467	16474
832.606	16497
832.744	16523
832.883	16542
833.022	16348
833.16	16504
833.299	16432
833.437	16504
833.576	16421
833.714	16478
833.852	16618
833.991	16577
834.129	16546
834.267	16554
834.406	16504
834.544	16592
834.682	16538
834.821	16546
834.959	16710
835.097	16497
835.235	16672
835.373	16497
835.511	16497
835.65	16432
835.788	16462
835.926	16272
836.064	16265
836.202	16246
836.34	16371
836.478	16550
836.615	16455
836.753	16421
836.891	16493
837.029	16481
837.167	16394
837.305	16268
837.443	16352
837.58	16379
837.718	16394
837.856	16261
837.993	16181
838.131	16295
838.269	16204
838.406	16261
838.544	16109
838.681	16010
838.819	16036
838.956	15762
839.094	15819
839.231	15804
839.369	16074
839.506	16200
839.643	16036
839.781	15819
839.918	15842
840.055	15854
840.193	15857
840.33	15804
840.467	15835
840.604	15831
840.742	16147
840.879	15766
841.016	15831
841.153	15800
841.29	16040
841.427	15880
841.564	15915
841.701	15956
841.838	15850
841.975	15644
842.112	15819
842.249	15705
842.385	15504
842.522	15698
842.659	15610
842.796	15599
842.933	15709
843.069	15534
843.206	15549
843.343	15823
843.479	15580
843.616	15713
843.752	15523
843.889	15466
844.025	15492
844.162	15355
844.298	15542
844.435	15374
844.571	15450
844.708	15431
844.844	15534
844.98	15705
845.117	15530
845.253	15363
845.389	15306
845.525	15405
845.661	15306
845.798	15249
845.934	15249
846.07	15173
846.206	15302
846.342	15298
846.478	15180
846.614	15024
846.75	14906
846.886	14971
847.022	15085
847.158	14998
847.294	14960
847.429	14910
847.565	15039
847.701	15180
847.837	14785
847.972	14701
848.108	14823
848.244	14785
848.379	14651
848.515	14606
848.65	14522
848.786	14495
848.921	14568
849.057	14674
849.192	14727
849.328	14651
849.463	14606
849.598	14530
849.734	14438
849.869	14423
850.004	14404
850.14	14419
850.275	14404
850.41	14237
850.545	14396
850.68	14309
850.815	14271
850.95	14336
851.085	14590
851.22	14404
851.355	14366
851.49	14286
851.625	14339
851.76	14351
851.895	14233
852.03	14206
852.165	14298
852.299	14400
852.434	14450
852.569	14355
852.703	14358
852.838	14419
852.973	14556
853.107	14526
853.242	14370
853.376	14218
853.511	14088
853.645	14214
853.78	14362
853.914	14187
854.048	14237
854.183	14237
854.317	14290
854.451	14385
854.585	14290
854.72	14233
854.854	14210
854.988	14058
855.122	14267
855.256	14096
855.39	14252
855.524	14328
855.658	14263
855.792	14278
855.926	14138
856.06	14366
856.194	14286
856.327	14176
856.461	14218
856.595	14195
856.729	14206
856.862	14320
856.996	14370
857.13	14294
857.263	14415
857.397	14396
857.53	14275
857.664	14355
857.797	14332
857.931	14317
858.064	14275
858.197	14400
858.331	14199
858.464	14172
858.597	14168
858.731	14290
858.864	14149
858.997	14176
859.13	14282
859.263	14290
859.396	14336
859.529	14218
859.662	14256
859.795	14172
859.928	14294
860.061	14332
860.194	14434
860.327	14355
860.46	14214
860.592	14324
860.725	14339
860.858	14370
860.99	14267
861.123	14183
861.256	14176
861.388	14286
861.521	14804
861.653	14142
861.786	14100
861.918	14145
862.05	14282
862.183	14180
862.315	14191
862.447	14267
862.58	14164
862.712	13997
862.844	13936
862.976	14088
863.108	14130
863.24	14473
863.372	14130
863.504	13970
863.636	13982
863.768	14073
863.9	14005
864.032	14046
864.164	13997
864.296	14039
864.428	14077
864.559	14157
864.691	14050
864.823	14020
864.954	14062
865.086	13997
865.217	13944
865.349	13883
865.48	13921
865.612	13955
865.743	14176
865.875	14046
866.006	13989
866.137	14039
866.269	13963
866.4	14024
866.531	13909
866.662	13883
866.793	13978
866.924	13986
867.055	13963
867.186	14001
867.317	13970
867.448	13951
867.579	13967
867.71	13909
867.841	13963
867.972	14016
868.103	14046
868.233	14062
868.364	14084
868.495	14069
868.625	14195
868.756	14313
868.886	14214
869.017	14275
869.147	14347
869.278	14339
869.408	14324
869.539	14191
869.669	14377
869.799	14301
869.929	14256
870.06	14336
870.19	14579
870.32	14541
870.45	14469
870.58	14670
870.71	14708
870.84	14765
870.97	14670
871.1	14606
871.23	14720
871.36	14826
871.489	14765
871.619	14861
871.749	14864
871.879	14910
872.008	15005
872.138	14838
872.267	14815
872.397	14674
872.526	14716
872.656	14629
872.785	14667
872.915	14830
873.044	14963
873.173	14929
873.303	14823
873.432	14952
873.561	14899
873.69	14952
873.819	14967
873.948	15005
874.077	14929
874.206	14788
874.335	14906
874.464	15066
874.593	15188
874.722	15077
874.851	15157
874.979	15268
875.108	15230
875.237	15275
875.365	15146
875.494	15207
875.623	15294
875.751	15203
875.88	15321
876.008	15332
876.136	15477
876.265	15644
876.393	15701
876.521	15614
876.65	15736
876.778	15660
876.906	15675
877.034	15595
877.162	15652
877.29	15595
877.418	15709
877.546	15694
877.674	15667
877.802	15568
877.93	15584
878.058	15652
878.185	15473
878.313	15663
878.441	15637
878.568	15477
878.696	15545
878.824	15701
878.951	15705
879.079	15785
879.206	15941
879.333	15831
879.461	15686
879.588	15720
879.715	15854
879.842	15975
879.97	15694
880.097	15557
880.224	15325
880.351	15534
880.478	15572
880.605	15382
880.732	15458
880.859	15690
880.986	15504
881.112	15504
881.239	15393
881.366	15291
881.493	15249
881.619	15176
881.746	15146
881.872	15062
881.999	15119
882.125	15089
882.252	15169
882.378	15108
882.505	15230
882.631	15066
882.757	14952
882.883	15024
883.01	14921
883.136	14933
883.262	14788
883.388	14765
883.514	14933
883.64	14979
883.766	14842
883.892	14788
884.018	14819
884.143	14895
884.269	15131
884.395	14819
884.52	14693
884.646	14640
884.772	14617
884.897	14537
885.023	14678
885.148	14785
885.274	14868
885.399	14720
885.524	14743
885.65	14701
885.775	14667
885.9	14727
886.025	14777
886.15	14712
886.275	14636
886.4	14522
886.525	14621
886.65	14526
886.775	14602
886.9	14788
887.025	14864
887.149	14682
887.274	14583
887.399	14408
887.523	14465
887.648	14457
887.773	14389
887.897	14606
888.021	14537
888.146	14438
888.27	14583
888.395	14636
888.519	14484
888.643	14476
888.767	14594
888.891	14396
889.015	14355
889.139	14366
889.263	14355
889.387	14408
889.511	14484
889.635	14427
889.759	14438
889.883	14313
890.006	14381
890.13	14484
890.254	14271
890.377	14305
890.501	14195
890.624	14103
890.748	14233
890.871	14145
890.995	14024
891.118	13947
891.241	14092
891.364	14069
891.488	14164
891.611	14111
891.734	14107
891.857	14050
891.98	14039
892.103	14157
892.226	14161
892.349	14119
892.471	13845
892.594	13993
892.717	14012
892.839	14069
892.962	14111
893.085	14119
893.207	14081
893.33	13978
893.452	14054
893.575	14138
893.697	14062
893.819	14218
893.941	14317
894.064	14206
894.186	14031
894.308	14065
894.43	14218
894.552	14214
894.674	14157
894.796	14058
894.918	14123
895.04	14073
895.161	14233
895.283	14214
895.405	14107
895.526	14145
895.648	14183
895.769	14149
895.891	14172
896.012	14221
896.134	14286
896.255	14225
896.376	14248
896.498	14294
896.619	14317
896.74	14263
896.861	14317
896.982	14552
897.103	14746
897.224	14503
897.345	14492
897.466	14427
897.587	14400
897.708	14651
897.828	14590
897.949	14434
898.07	14469
898.19	14511
898.311	14629
898.431	14473
898.552	14579
898.672	14689
898.792	14629
898.913	14689
899.033	14431
899.153	14393
899.273	14298
899.393	14442
899.513	14450
899.633	14434
899.753	14499
899.873	14499
899.993	14465
900.113	14476
900.232	14476
900.352	14351
900.472	14343
900.591	14294
900.711	14298
900.83	14210
900.95	14419
901.069	14522
901.189	14298
901.308	13993
901.427	13887
901.546	13978
901.665	13917
901.784	14062
901.904	13887
902.023	13784
902.141	13582
902.26	13597
902.379	13616
902.498	13556
902.617	13491
902.735	13533
902.854	13502
902.973	13510
903.091	13324
903.21	13244
903.328	13259
903.446	13217
903.565	13126
903.683	13149
903.801	13019
903.919	13133
904.038	13065
904.156	13008
904.274	13008
904.392	12939
904.51	12817
904.627	12932
904.745	12954
904.863	12985
904.981	12753
905.098	12616
905.216	12673
905.334	12692
905.451	12654
905.569	12593
905.686	12650
905.803	12616
905.921	12464
906.038	12536
906.155	12433
906.272	12334
906.389	12391
906.506	12190
906.623	12270
906.74	12129
906.857	12060
906.974	12159
907.091	12342
907.208	12289
907.324	12201
907.441	12213
907.557	12030
907.674	12011
907.79	11923
907.907	11931
908.023	11927
908.139	11950
908.256	11882
908.372	11935
908.488	11790
908.604	11779
908.72	11729
908.836	11745
908.952	11703
909.068	11710
909.184	11931
909.3	11703
909.415	11790
909.531	11729
909.647	11528
909.762	11459
909.878	11467
909.993	11547
910.108	11425
910.224	11532
910.339	11486
910.454	11482
910.57	11391
910.685	11246
910.8	11493
910.915	11505
911.03	11417
911.145	11231
911.259	11227
911.374	11178
911.489	11124
911.604	11124
911.718	10938
911.833	11033
911.947	10900
912.062	10717
912.176	10972
912.291	10866
912.405	10919
912.519	11136
912.633	11193
912.748	11014
912.862	10938
912.976	10911
913.09	10774
913.204	10774
913.318	10881
913.431	10911
913.545	10919
913.659	10949
913.772	10793
913.886	10767
914	10615
914.113	10782
914.226	10919
914.34	10763
914.453	10634
914.566	10786
914.68	10714
914.793	10679
914.906	10577
915.019	10504
915.132	10344
915.245	10382
915.358	10565
915.47	10481
915.583	10500
915.696	10497
915.809	10554
915.921	10622
916.034	10432
916.146	10413
916.259	10284
916.371	10538
916.483	10523
916.595	10265
916.708	10500
916.82	10382
916.932	10375
917.044	10417
917.156	10272
917.268	10230
917.38	10306
917.491	10265
917.603	10276
917.715	10394
917.826	10451
917.938	10139
918.049	10162
918.161	10329
918.272	10424
918.384	10440
918.495	10394
918.606	10207
918.717	10131
918.828	10147
918.939	10173
919.05	10124
919.161	10147
919.272	9926
919.383	10002
919.494	10249
919.604	10360
919.715	10124
919.826	10078
919.936	10150
920.047	10272
920.157	10253
920.267	10379
920.378	10200
920.488	10166
920.598	10356
920.708	10493
920.818	10466
920.928	10421
921.038	10497
921.148	10504
921.258	10181
921.368	10131
921.477	10124
921.587	10021
921.697	9949
921.806	10135
921.916	9899
922.025	9797
922.134	9755
922.244	9755
922.353	9842
922.462	9591
922.571	9542
922.68	9492
922.789	9435
922.898	9469
923.007	9439
923.116	9466
923.224	9469
923.333	9450
923.442	9294
923.55	9306
923.659	9348
923.767	9454
923.876	9302
923.984	9359
924.092	9195
924.201	9332
924.309	9370
924.417	9245
924.525	9275
924.633	9294
924.741	10147
924.849	9074
924.956	9260
925.064	9036
925.172	8979
925.279	9100
925.387	9062
925.494	9131
925.602	9256
925.709	9119
925.816	9017
925.924	9055
926.031	9188
926.138	9005
926.245	9131
926.352	9108
926.459	9157
926.566	9218
926.673	9009
926.779	9005
926.886	8994
926.993	8963
927.099	8819
927.206	8781
927.312	8781
927.419	8899
927.525	8834
927.631	8883
927.737	8754
927.843	8727
927.95	8606
928.056	8682
928.162	8727
928.267	8823
928.373	9340
928.479	8830
928.585	8594
928.69	8697
928.796	8750
928.901	8625
929.007	8518
929.112	8575
929.218	8621
929.323	8507
929.428	8473
929.533	8682
929.638	8549
929.743	8549
929.848	8606
929.953	8495
930.058	8442
930.163	8313
930.267	8339
930.372	8431
930.477	8237
930.581	8583
930.685	8423
930.79	8256
930.894	8290
930.998	8157
931.103	8412
931.207	8077
931.311	8046
931.415	7913
931.519	7795
931.623	7765
