Data from test_V78500241_2371.txt Node
Date: Fri Mar 25 14:50:13 CST 2022
User: usil
Spectrometer: V785-0024
Trigger mode: 0
Integration Time (sec): 4.000000E-1
Scans to average: 1
Nonlinearity correction enabled: false
Boxcar width: 0
Storing dark spectrum: false
XAxis mode: Wavelengths
Number of Pixels in Spectrum: 1024
>>>>>Begin Spectral Data<<<<<
801.071	22131
801.214	21979
801.356	21793
801.499	21663
801.641	21454
801.783	21500
801.926	21519
802.068	21412
802.211	21298
802.353	21241
802.496	21112
802.638	21058
802.78	21005
802.923	20864
803.065	20640
803.208	20785
803.35	20891
803.492	20914
803.635	21131
803.777	20838
803.919	20906
804.061	21138
804.204	20960
804.346	20697
804.488	20689
804.63	20807
804.773	20689
804.915	20796
805.057	20746
805.199	20674
805.341	20769
805.483	20956
805.626	20842
805.768	20921
805.91	20743
806.052	20792
806.194	20693
806.336	20887
806.478	20648
806.62	20674
806.762	20842
806.904	20979
807.046	21184
807.188	21157
807.33	21085
807.472	21096
807.614	20925
807.756	20880
807.898	20861
808.04	20777
808.182	20830
808.324	20868
808.465	20800
808.607	21150
808.749	21169
808.891	21233
809.033	21329
809.174	21268
809.316	21142
809.458	21070
809.6	21138
809.741	21184
809.883	21199
810.025	21233
810.166	21279
810.308	21268
810.45	21313
810.591	21112
810.733	21009
810.875	20902
811.016	20899
811.158	20807
811.299	20910
811.441	20902
811.582	21165
811.724	21013
811.865	20929
812.007	20868
812.148	20979
812.29	20952
812.431	21138
812.573	21188
812.714	21279
812.855	21317
812.997	21500
813.138	21759
813.279	21462
813.421	21466
813.562	21306
813.703	21192
813.845	21066
813.986	20727
814.127	20701
814.268	20434
814.41	20484
814.551	20522
814.692	20503
814.833	20370
814.974	20450
815.115	20442
815.256	20275
815.397	20214
815.539	20408
815.68	20191
815.821	20073
815.962	20267
816.103	20054
816.244	20035
816.385	19974
816.526	19928
816.666	19765
816.807	19639
816.948	19826
817.089	19826
817.23	19704
817.371	19616
817.512	19586
817.653	19544
817.793	19521
817.934	19533
818.075	19708
818.216	19620
818.356	19483
818.497	19441
818.638	19339
818.778	19339
818.919	19194
819.06	19251
819.2	19407
819.341	19441
819.481	19430
819.622	19571
819.762	19803
819.903	19753
820.043	19696
820.184	19559
820.324	19655
820.465	19605
820.605	19613
820.746	19578
820.886	19514
821.026	19605
821.167	19544
821.307	19613
821.447	19525
821.588	19449
821.728	19297
821.868	19057
822.008	18859
822.149	18996
822.289	18882
822.429	18738
822.569	18673
822.709	18673
822.849	18471
822.99	18422
823.13	18357
823.27	18448
823.41	18258
823.55	18247
823.69	18338
823.83	18232
823.97	18076
824.11	18022
824.25	18057
824.389	17992
824.529	18186
824.669	18034
824.809	18163
824.949	18117
825.089	17980
825.228	18011
825.368	17863
825.508	17897
825.648	17805
825.787	17889
825.927	17878
826.067	17764
826.206	17832
826.346	17809
826.485	17893
826.625	17817
826.765	17954
826.904	17893
827.044	17611
827.183	17596
827.323	17516
827.462	17661
827.601	17562
827.741	17528
827.88	17433
828.02	17436
828.159	17425
828.298	17490
828.437	17535
828.577	17452
828.716	17634
828.855	17459
828.994	17284
829.134	17250
829.273	17307
829.412	17330
829.551	17269
829.69	17250
829.829	17318
829.968	17379
830.107	17292
830.246	17311
830.385	17212
830.524	17121
830.663	17151
830.802	17098
830.941	16839
831.08	16797
831.219	16927
831.357	16972
831.496	17086
831.635	16946
831.774	16801
831.913	16774
832.051	16641
832.19	16679
832.329	16729
832.467	16592
832.606	16577
832.744	16535
832.883	16588
833.022	16611
833.16	16554
833.299	16584
833.437	16565
833.576	16599
833.714	16694
833.852	16702
833.991	16702
834.129	16786
834.267	16763
834.406	16630
834.544	16637
834.682	16599
834.821	16599
834.959	16771
835.097	16634
835.235	16733
835.373	16599
835.511	16698
835.65	16481
835.788	16645
835.926	16360
836.064	16367
836.202	16337
836.34	16474
836.478	16698
836.615	16504
836.753	16538
836.891	16580
837.029	16573
837.167	16580
837.305	16432
837.443	16413
837.58	16303
837.718	16424
837.856	16363
837.993	16329
838.131	16421
838.269	16249
838.406	16356
838.544	16375
838.681	16150
838.819	16044
838.956	15956
839.094	15994
839.231	15991
839.369	16158
839.506	16303
839.643	16185
839.781	15911
839.918	15831
840.055	15972
840.193	15975
840.33	15907
840.467	15884
840.604	15907
840.742	16128
840.879	15850
841.016	15907
841.153	15854
841.29	16051
841.427	15983
841.564	15945
841.701	15895
841.838	15930
841.975	15755
842.112	15785
842.249	15736
842.385	15774
842.522	15937
842.659	15698
842.796	15720
842.933	15637
843.069	15644
843.206	15720
843.343	15759
843.479	15648
843.616	15663
843.752	15553
843.889	15534
844.025	15682
844.162	15412
844.298	15637
844.435	15477
844.571	15458
844.708	15564
844.844	15724
844.98	15694
845.117	15663
845.253	15447
845.389	15355
845.525	15412
845.661	15428
845.798	15291
845.934	15283
846.07	15249
846.206	15382
846.342	15408
846.478	15226
846.614	15047
846.75	15074
846.886	15017
847.022	15112
847.158	15207
847.294	15043
847.429	15081
847.565	15081
847.701	15344
847.837	14895
847.972	14731
848.108	14800
848.244	14864
848.379	14758
848.515	14621
848.65	14575
848.786	14613
848.921	14712
849.057	14842
849.192	14651
849.328	14697
849.463	14720
849.598	14583
849.734	14617
849.869	14480
850.004	14408
850.14	14511
850.275	14511
850.41	14374
850.545	14362
850.68	14408
850.815	14400
850.95	14457
851.085	14545
851.22	14583
851.355	14499
851.49	14511
851.625	14427
851.76	14454
851.895	14286
852.03	14286
852.165	14355
852.299	14484
852.434	14488
852.569	14408
852.703	14556
852.838	14583
852.973	14655
853.107	14568
853.242	14396
853.376	14328
853.511	14157
853.645	14263
853.78	14518
853.914	14347
854.048	14187
854.183	14233
854.317	14317
854.451	14507
854.585	14199
854.72	14275
854.854	14389
854.988	14259
855.122	14271
855.256	14119
855.39	14377
855.524	14461
855.658	14446
855.792	14210
855.926	14412
856.06	14385
856.194	14267
856.327	14263
856.461	14267
856.595	14259
856.729	14358
856.862	14374
856.996	14408
857.13	14442
857.263	14465
857.397	14492
857.53	14324
857.664	14339
857.797	14324
857.931	14476
858.064	14324
858.197	14511
858.331	14294
858.464	14229
858.597	14313
858.731	14317
858.864	14290
858.997	14301
859.13	14252
859.263	14328
859.396	14400
859.529	14240
859.662	14214
859.795	14267
859.928	14301
860.061	14404
860.194	14583
860.327	14286
860.46	14267
860.592	14465
860.725	14438
860.858	14400
860.99	14267
861.123	14195
861.256	14240
861.388	14351
861.521	14868
861.653	14180
861.786	14077
861.918	14202
862.05	14191
862.183	14256
862.315	14324
862.447	14309
862.58	14191
862.712	14096
862.844	14073
862.976	14119
863.108	14077
863.24	14396
863.372	14043
863.504	14077
863.636	14039
863.768	14020
863.9	14161
864.032	14005
864.164	14031
864.296	14138
864.428	14237
864.559	14107
864.691	14149
864.823	14115
864.954	14046
865.086	14123
865.217	14046
865.349	14005
865.48	14046
865.612	14016
865.743	14164
865.875	14054
866.006	14123
866.137	13967
866.269	14005
866.4	14031
866.531	14024
866.662	13974
866.793	13955
866.924	13974
867.055	14084
867.186	14012
867.317	13982
867.448	13944
867.579	14016
867.71	14043
867.841	13951
867.972	14077
868.103	14050
868.233	14005
868.364	14012
868.495	14130
868.625	14336
868.756	14446
868.886	14233
869.017	14301
869.147	14503
869.278	14400
869.408	14328
869.539	14313
869.669	14457
869.799	14271
869.929	14488
870.06	14377
870.19	14629
870.32	14571
870.45	14659
870.58	14648
870.71	14785
870.84	14777
870.97	14705
871.1	14667
871.23	14880
871.36	14842
871.489	14800
871.619	14826
871.749	14982
871.879	14982
872.008	15043
872.138	14876
872.267	14868
872.397	14708
872.526	14720
872.656	14689
872.785	14773
872.915	14891
873.044	15036
873.173	14956
873.303	15081
873.432	15001
873.561	15055
873.69	14990
873.819	14960
873.948	15036
874.077	14982
874.206	14876
874.335	15089
874.464	15123
874.593	15222
874.722	15165
874.851	15268
874.979	15241
875.108	15336
875.237	15294
875.365	15184
875.494	15291
875.623	15477
875.751	15169
875.88	15275
876.008	15458
876.136	15526
876.265	15694
876.393	15831
876.521	15774
876.65	15743
876.778	15633
876.906	15568
877.034	15542
877.162	15743
877.29	15652
877.418	15671
877.546	15629
877.674	15660
877.802	15682
877.93	15739
878.058	15759
878.185	15504
878.313	15671
878.441	15625
878.568	15568
878.696	15564
878.824	15671
878.951	15755
879.079	15819
879.206	15998
879.333	15823
879.461	15743
879.588	15854
879.715	15964
879.842	16090
879.97	15709
880.097	15454
880.224	15511
880.351	15469
880.478	15515
880.605	15492
880.732	15424
880.859	15743
880.986	15553
881.112	15686
881.239	15408
881.366	15214
881.493	15252
881.619	15142
881.746	15066
881.872	15150
881.999	15074
882.125	15298
882.252	15214
882.378	15344
882.505	15359
882.631	15169
882.757	15062
882.883	15020
883.01	15017
883.136	14956
883.262	14979
883.388	14853
883.514	14979
883.64	14925
883.766	14929
883.892	14735
884.018	14804
884.143	15089
884.269	15051
884.395	14800
884.52	14781
884.646	14689
884.772	14549
884.897	14739
885.023	14678
885.148	14819
885.274	14819
885.399	14777
885.524	14758
885.65	14712
885.775	14727
885.9	14659
886.025	14804
886.15	14762
886.275	14701
886.4	14610
886.525	14663
886.65	14617
886.775	14617
886.9	14891
887.025	14876
887.149	14792
887.274	14514
887.399	14476
887.523	14533
887.648	14495
887.773	14492
887.897	14625
888.021	14590
888.146	14522
888.27	14648
888.395	14568
888.519	14625
888.643	14610
888.767	14583
888.891	14545
889.015	14328
889.139	14492
889.263	14438
889.387	14522
889.511	14571
889.635	14484
889.759	14415
889.883	14332
890.006	14492
890.13	14423
890.254	14332
890.377	14412
890.501	14183
890.624	14191
890.748	14237
890.871	14138
890.995	14016
891.118	14050
891.241	14035
891.364	14111
891.488	14191
891.611	14043
891.734	14050
891.857	14130
891.98	14111
892.103	14134
892.226	14046
892.349	14100
892.471	13955
892.594	14046
892.717	14130
892.839	14096
892.962	14123
893.085	14058
893.207	14043
893.33	13970
893.452	14027
893.575	14123
893.697	14058
893.819	14286
893.941	14206
894.064	14210
894.186	14069
894.308	14005
894.43	14149
894.552	14286
894.674	14195
894.796	14001
894.918	14054
895.04	14046
895.161	14187
895.283	14206
895.405	14092
895.526	14210
895.648	14176
895.769	14225
895.891	14237
896.012	14358
896.134	14278
896.255	14229
896.376	14278
896.498	14157
896.619	14355
896.74	14339
896.861	14313
896.982	14587
897.103	14834
897.224	14552
897.345	14423
897.466	14412
897.587	14541
897.708	14598
897.828	14632
897.949	14480
898.07	14366
898.19	14484
898.311	14629
898.431	14556
898.552	14689
898.672	14644
898.792	14667
898.913	14670
899.033	14473
899.153	14446
899.273	14465
899.393	14328
899.513	14480
899.633	14492
899.753	14511
899.873	14469
899.993	14530
900.113	14518
900.232	14465
900.352	14431
900.472	14374
900.591	14290
900.711	14240
900.83	14244
900.95	14404
901.069	14446
901.189	14317
901.308	14062
901.427	14081
901.546	14058
901.665	14092
901.784	14058
901.904	13890
902.023	13814
902.141	13670
902.26	13632
902.379	13655
902.498	13594
902.617	13457
902.735	13563
902.854	13563
902.973	13544
903.091	13278
903.21	13236
903.328	13301
903.446	13240
903.565	13137
903.683	13308
903.801	13019
903.919	13114
904.038	13251
904.156	13019
904.274	12993
904.392	12935
904.51	12890
904.627	12966
904.745	13046
904.863	13012
904.981	12764
905.098	12681
905.216	12703
905.334	12604
905.451	12692
905.569	12566
905.686	12707
905.803	12677
905.921	12578
906.038	12673
906.155	12460
906.272	12251
906.389	12388
906.506	12247
906.623	12235
906.74	12239
906.857	12068
906.974	12159
907.091	12304
907.208	12334
907.324	12289
907.441	12072
907.557	12087
907.674	11954
907.79	11969
907.907	11999
908.023	11996
908.139	11984
908.256	11954
908.372	11996
908.488	11859
908.604	11767
908.72	11756
908.836	11745
908.952	11627
909.068	11813
909.184	11779
909.3	11695
909.415	11752
909.531	11710
909.647	11505
909.762	11535
909.878	11463
909.993	11566
910.108	11524
910.224	11486
910.339	11478
910.454	11353
910.57	11299
910.685	11242
910.8	11516
910.915	11509
911.03	11444
911.145	11284
911.259	11258
911.374	11265
911.489	11132
911.604	11102
911.718	10987
911.833	11102
911.947	10904
912.062	10881
912.176	10934
912.291	10953
912.405	10938
912.519	11208
912.633	11155
912.748	10991
912.862	11037
912.976	10866
913.09	10767
913.204	10877
913.318	10843
913.431	11010
913.545	10892
913.659	10999
913.772	10885
913.886	10820
914	10809
914.113	10824
914.226	10786
914.34	10862
914.453	10584
914.566	10805
914.68	10672
914.793	10679
914.906	10554
915.019	10379
915.132	10379
915.245	10409
915.358	10489
915.47	10508
915.583	10554
915.696	10561
915.809	10622
915.921	10641
916.034	10462
916.146	10504
916.259	10443
916.371	10481
916.483	10497
916.595	10390
916.708	10405
916.82	10474
916.932	10337
917.044	10356
917.156	10386
917.268	10280
917.38	10371
917.491	10295
917.603	10421
917.715	10481
917.826	10417
917.938	10310
918.049	10147
918.161	10314
918.272	10462
918.384	10390
918.495	10329
918.606	10249
918.717	10181
918.828	10310
918.939	10325
919.05	10093
919.161	10234
919.272	10040
919.383	10040
919.494	10261
919.604	10447
919.715	10204
919.826	10097
919.936	10215
920.047	10238
920.157	10234
920.267	10421
920.378	10325
920.488	10177
920.598	10394
920.708	10538
920.818	10398
920.928	10413
921.038	10592
921.148	10542
921.258	10173
921.368	10181
921.477	10010
921.587	10055
921.697	9892
921.806	10112
921.916	9987
922.025	9823
922.134	9717
922.244	9728
922.353	9812
922.462	9728
922.571	9618
922.68	9428
922.789	9485
922.898	9492
923.007	9412
923.116	9545
923.224	9447
923.333	9492
923.442	9382
923.55	9344
923.659	9359
923.767	9408
923.876	9344
923.984	9382
924.092	9275
924.201	9355
924.309	9378
924.417	9355
924.525	9275
924.633	9355
924.741	10048
924.849	9108
924.956	9302
925.064	9176
925.172	8986
925.279	9070
925.387	9074
925.494	9154
925.602	9184
925.709	9135
925.816	9135
925.924	9055
926.031	9283
926.138	9184
926.245	9150
926.352	9108
926.459	9199
926.566	9260
926.673	9062
926.779	9017
926.886	8925
926.993	8853
927.099	8834
927.206	8880
927.312	8815
927.419	8826
927.525	8842
927.631	8914
927.737	8773
927.843	8754
927.95	8606
928.056	8682
928.162	8739
928.267	8838
928.373	9378
928.479	8800
928.585	8617
928.69	8750
928.796	8739
928.901	8644
929.007	8533
929.112	8678
929.218	8545
929.323	8564
929.428	8530
929.533	8674
929.638	8499
929.743	8518
929.848	8651
929.953	8552
930.058	8461
930.163	8279
930.267	8332
930.372	8454
930.477	8244
930.581	8564
930.685	8389
930.79	8301
930.894	8309
930.998	8191
931.103	8370
931.207	8073
931.311	8058
931.415	7940
931.519	7704
931.623	7856
