Data from test_V78500241_3560.txt Node
Date: Fri Mar 25 14:58:30 CST 2022
User: usil
Spectrometer: V785-0024
Trigger mode: 0
Integration Time (sec): 4.000000E-1
Scans to average: 1
Nonlinearity correction enabled: false
Boxcar width: 0
Storing dark spectrum: false
XAxis mode: Wavelengths
Number of Pixels in Spectrum: 1024
>>>>>Begin Spectral Data<<<<<
801.071	21918
801.214	21766
801.356	21606
801.499	21477
801.641	21386
801.783	21226
801.926	21306
802.068	21237
802.211	21131
802.353	21142
802.496	20849
802.638	20815
802.78	20769
802.923	20670
803.065	20537
803.208	20587
803.35	20712
803.492	20651
803.635	20701
803.777	20606
803.919	20659
804.061	21001
804.204	20705
804.346	20594
804.488	20537
804.63	20530
804.773	20476
804.915	20469
805.057	20606
805.199	20518
805.341	20598
805.483	20648
805.626	20511
805.768	20454
805.91	20663
806.052	20484
806.194	20423
806.336	20522
806.478	20469
806.62	20480
806.762	20587
806.904	20625
807.046	20944
807.188	20868
807.33	20967
807.472	20720
807.614	20838
807.756	20731
807.898	20594
808.04	20492
808.182	20583
808.324	20568
808.465	20484
808.607	20739
808.749	20815
808.891	20956
809.033	20998
809.174	20883
809.316	20830
809.458	20853
809.6	20815
809.741	20769
809.883	20975
810.025	20975
810.166	21077
810.308	20994
810.45	20944
810.591	20906
810.733	20689
810.875	20674
811.016	20465
811.158	20480
811.299	20667
811.441	20708
811.582	20655
811.724	20689
811.865	20552
812.007	20575
812.148	20568
812.29	20670
812.431	20826
812.573	20887
812.714	21058
812.855	21066
812.997	21218
813.138	21329
813.279	21150
813.421	21157
813.562	20921
813.703	20826
813.845	20800
813.986	20492
814.127	20309
814.268	20122
814.41	20252
814.551	20149
814.692	20054
814.833	20039
814.974	20138
815.115	20016
815.256	19936
815.397	20115
815.539	19947
815.68	19875
815.821	19818
815.962	19849
816.103	19925
816.244	19765
816.385	19651
816.526	19537
816.666	19468
816.807	19339
816.948	19422
817.089	19411
817.23	19377
817.371	19312
817.512	19259
817.653	19187
817.793	19217
817.934	19202
818.075	19320
818.216	19206
818.356	19175
818.497	19103
818.638	18916
818.778	18871
818.919	18996
819.06	18909
819.2	19088
819.341	19285
819.481	19244
819.622	19274
819.762	19373
819.903	19403
820.043	19148
820.184	19187
820.324	19282
820.465	19263
820.605	19293
820.746	19324
820.886	19088
821.026	19221
821.167	19327
821.307	19301
821.447	19228
821.588	19072
821.728	19023
821.868	18749
822.008	18601
822.149	18566
822.289	18574
822.429	18350
822.569	18395
822.709	18418
822.849	18232
822.99	18190
823.13	18209
823.27	18125
823.41	18049
823.55	17927
823.69	18038
823.83	17958
823.97	17893
824.11	17752
824.25	17642
824.389	17813
824.529	17817
824.669	17813
824.809	17901
824.949	17767
825.089	17821
825.228	17733
825.368	17630
825.508	17493
825.648	17627
825.787	17524
825.927	17501
826.067	17493
826.206	17630
826.346	17600
826.485	17604
826.625	17520
826.765	17630
826.904	17596
827.044	17315
827.183	17273
827.323	17269
827.462	17280
827.601	17223
827.741	17231
827.88	17185
828.02	16972
828.159	17200
828.298	17250
828.437	17296
828.577	17124
828.716	17322
828.855	17216
828.994	17006
829.134	16934
829.273	16927
829.412	16908
829.551	16946
829.69	17045
829.829	17132
829.968	17151
830.107	16995
830.246	16976
830.385	16911
830.524	16900
830.663	16725
830.802	16694
830.941	16558
831.08	16630
831.219	16649
831.357	16649
831.496	16850
831.635	16580
831.774	16546
831.913	16428
832.051	16402
832.19	16379
832.329	16428
832.467	16443
832.606	16230
832.744	16291
832.883	16226
833.022	16226
833.16	16303
833.299	16299
833.437	16310
833.576	16325
833.714	16344
833.852	16432
833.991	16451
834.129	16379
834.267	16382
834.406	16466
834.544	16363
834.682	16428
834.821	16291
834.959	16611
835.097	16272
835.235	16558
835.373	16398
835.511	16394
835.65	16314
835.788	16265
835.926	16101
836.064	16078
836.202	16082
836.34	16417
836.478	16246
836.615	16261
836.753	16265
836.891	16257
837.029	16379
837.167	16272
837.305	16147
837.443	16154
837.58	16177
837.718	16242
837.856	16185
837.993	16055
838.131	16162
838.269	16051
838.406	16101
838.544	16029
838.681	15876
838.819	15892
838.956	15682
839.094	15774
839.231	15671
839.369	15953
839.506	16166
839.643	15994
839.781	15831
839.918	15625
840.055	15743
840.193	15717
840.33	15618
840.467	15778
840.604	15743
840.742	16078
840.879	15504
841.016	15606
841.153	15641
841.29	15785
841.427	15724
841.564	15770
841.701	15751
841.838	15698
841.975	15641
842.112	15561
842.249	15469
842.385	15526
842.522	15717
842.659	15553
842.796	15545
842.933	15428
843.069	15492
843.206	15454
843.343	15538
843.479	15447
843.616	15473
843.752	15321
843.889	15268
844.025	15450
844.162	15207
844.298	15397
844.435	15275
844.571	15256
844.708	15397
844.844	15454
844.98	15416
845.117	15435
845.253	15222
845.389	15203
845.525	15279
845.661	15131
845.798	14994
845.934	15157
846.07	14994
846.206	15108
846.342	15321
846.478	15180
846.614	14975
846.75	14921
846.886	14750
847.022	15032
847.158	14899
847.294	14800
847.429	14929
847.565	14777
847.701	15116
847.837	14670
847.972	14549
848.108	14720
848.244	14708
848.379	14499
848.515	14404
848.65	14415
848.786	14503
848.921	14446
849.057	14613
849.192	14511
849.328	14484
849.463	14419
849.598	14465
849.734	14286
849.869	14351
850.004	14180
850.14	14336
850.275	14229
850.41	14172
850.545	14210
850.68	14142
850.815	14317
850.95	14240
851.085	14492
851.22	14415
851.355	14221
851.49	14119
851.625	14176
851.76	14176
851.895	14172
852.03	14081
852.165	14313
852.299	14374
852.434	14271
852.569	14229
852.703	14149
852.838	14309
852.973	14282
853.107	14332
853.242	14183
853.376	14111
853.511	14016
853.645	14100
853.78	14225
853.914	14168
854.048	14035
854.183	14062
854.317	14176
854.451	14225
854.585	14107
854.72	14069
854.854	14248
854.988	14008
855.122	14092
855.256	13932
855.39	14069
855.524	14263
855.658	14187
855.792	14077
855.926	14149
856.06	14183
856.194	14138
856.327	14081
856.461	14039
856.595	13963
856.729	14073
856.862	14145
856.996	14187
857.13	14107
857.263	14259
857.397	14172
857.53	14119
857.664	14126
857.797	14233
857.931	14282
858.064	14149
858.197	14294
858.331	14123
858.464	14134
858.597	14005
858.731	14145
858.864	14054
858.997	14176
859.13	14134
859.263	14103
859.396	14263
859.529	14088
859.662	14035
859.795	14065
859.928	14218
860.061	14290
860.194	14366
860.327	14210
860.46	14016
860.592	14202
860.725	14214
860.858	14278
860.99	14050
861.123	14001
861.256	14008
861.388	14088
861.521	14906
861.653	14016
861.786	13887
861.918	13947
862.05	14027
862.183	14058
862.315	14092
862.447	14081
862.58	14016
862.712	13814
862.844	13811
862.976	13936
863.108	13932
863.24	14248
863.372	13826
863.504	13917
863.636	13883
863.768	13955
863.9	13932
864.032	13795
864.164	13887
864.296	13913
864.428	14062
864.559	13982
864.691	13894
864.823	14043
864.954	13879
865.086	13974
865.217	13818
865.349	13902
865.48	13890
865.612	13917
865.743	13997
865.875	13928
866.006	13890
866.137	13932
866.269	13887
866.4	13883
866.531	13887
866.662	13776
866.793	13887
866.924	13871
867.055	13955
867.186	13791
867.317	13795
867.448	13795
867.579	13788
867.71	13784
867.841	13807
867.972	13989
868.103	13841
868.233	13860
868.364	13951
868.495	13837
868.625	14062
868.756	14172
868.886	13967
869.017	14126
869.147	14286
869.278	14267
869.408	14214
869.539	14084
869.669	14225
869.799	14123
869.929	14240
870.06	14358
870.19	14415
870.32	14412
870.45	14423
870.58	14476
870.71	14590
870.84	14640
870.97	14415
871.1	14518
871.23	14701
871.36	14777
871.489	14594
871.619	14674
871.749	14705
871.879	14796
872.008	14777
872.138	14777
872.267	14762
872.397	14579
872.526	14640
872.656	14564
872.785	14708
872.915	14750
873.044	14921
873.173	14838
873.303	14788
873.432	14750
873.561	14838
873.69	14849
873.819	14705
873.948	14918
874.077	14735
874.206	14693
874.335	14899
874.464	15009
874.593	15157
874.722	15028
874.851	15142
874.979	15100
875.108	15108
875.237	15070
875.365	15097
875.494	15131
875.623	15207
875.751	14990
875.88	15142
876.008	15241
876.136	15321
876.265	15538
876.393	15781
876.521	15648
876.65	15599
876.778	15549
876.906	15401
877.034	15488
877.162	15389
877.29	15496
877.418	15523
877.546	15526
877.674	15492
877.802	15511
877.93	15469
878.058	15428
878.185	15344
878.313	15511
878.441	15507
878.568	15332
878.696	15435
878.824	15538
878.951	15599
879.079	15656
879.206	15819
879.333	15667
879.461	15542
879.588	15538
879.715	15766
879.842	15755
879.97	15675
880.097	15382
880.224	15355
880.351	15332
880.478	15359
880.605	15348
880.732	15405
880.859	15584
880.986	15405
881.112	15431
881.239	15275
881.366	15184
881.493	15123
881.619	15047
881.746	15028
881.872	15043
881.999	14861
882.125	15039
882.252	15058
882.378	15100
882.505	15165
882.631	14994
882.757	14902
882.883	14899
883.01	14952
883.136	14754
883.262	14765
883.388	14678
883.514	14834
883.64	14883
883.766	14731
883.892	14674
884.018	14693
884.143	14857
884.269	14941
884.395	14625
884.52	14598
884.646	14644
884.772	14526
884.897	14530
885.023	14560
885.148	14674
885.274	14720
885.399	14583
885.524	14598
885.65	14594
885.775	14579
885.9	14533
886.025	14651
886.15	14689
886.275	14598
886.4	14450
886.525	14503
886.65	14469
886.775	14454
886.9	14758
887.025	14739
887.149	14640
887.274	14450
887.399	14324
887.523	14286
887.648	14275
887.773	14305
887.897	14488
888.021	14427
888.146	14442
888.27	14396
888.395	14518
888.519	14507
888.643	14457
888.767	14499
888.891	14355
889.015	14237
889.139	14298
889.263	14214
889.387	14317
889.511	14457
889.635	14389
889.759	14195
889.883	14294
890.006	14240
890.13	14339
890.254	14191
890.377	14305
890.501	14016
890.624	14100
890.748	14126
890.871	14050
890.995	13906
891.118	13947
891.241	13875
891.364	13974
891.488	14012
891.611	13951
891.734	14035
891.857	14065
891.98	13936
892.103	14096
892.226	13989
892.349	13883
892.471	13788
892.594	13871
892.717	13963
892.839	13807
892.962	13944
893.085	14027
893.207	13940
893.33	13963
893.452	13940
893.575	14130
893.697	13871
893.819	14062
893.941	14172
894.064	14088
894.186	14020
894.308	13871
894.43	14161
894.552	14244
894.674	14183
894.796	13947
894.918	13989
895.04	13997
895.161	14088
895.283	14126
895.405	14058
895.526	14073
895.648	14050
895.769	14164
895.891	14084
896.012	14259
896.134	14126
896.255	14096
896.376	14058
896.498	14157
896.619	14180
896.74	14115
896.861	14210
896.982	14488
897.103	14598
897.224	14446
897.345	14381
897.466	14374
897.587	14320
897.708	14427
897.828	14461
897.949	14370
898.07	14252
898.19	14415
898.311	14507
898.431	14377
898.552	14438
898.672	14499
898.792	14629
898.913	14533
899.033	14427
899.153	14320
899.273	14366
899.393	14381
899.513	14336
899.633	14286
899.753	14355
899.873	14343
899.993	14343
900.113	14286
900.232	14454
900.352	14256
900.472	14294
900.591	14119
900.711	14123
900.83	14115
900.95	14263
901.069	14286
901.189	14054
901.308	13890
901.427	13780
901.546	13940
901.665	13913
901.784	13879
901.904	13693
902.023	13636
902.141	13582
902.26	13468
902.379	13502
902.498	13411
902.617	13339
902.735	13445
902.854	13438
902.973	13396
903.091	13175
903.21	13160
903.328	13149
903.446	13050
903.565	13042
903.683	13065
903.801	12943
903.919	13008
904.038	12943
904.156	12772
904.274	12837
904.392	12795
904.51	12772
904.627	12837
904.745	12890
904.863	12871
904.981	12703
905.098	12582
905.216	12566
905.334	12589
905.451	12578
905.569	12536
905.686	12612
905.803	12566
905.921	12350
906.038	12483
906.155	12353
906.272	12266
906.389	12281
906.506	12144
906.623	12152
906.74	12133
906.857	11996
906.974	12098
907.091	12220
907.208	12315
907.324	12129
907.441	12034
907.557	11866
907.674	11927
907.79	11847
907.907	11832
908.023	11901
908.139	11904
908.256	11771
908.372	11756
908.488	11779
908.604	11668
908.72	11623
908.836	11649
908.952	11543
909.068	11657
909.184	11726
909.3	11714
909.415	11703
909.531	11596
909.647	11391
909.762	11463
909.878	11368
909.993	11395
910.108	11398
910.224	11372
910.339	11417
910.454	11254
910.57	11193
910.685	11208
910.8	11444
910.915	11414
911.03	11372
911.145	11121
911.259	11060
911.374	11143
911.489	11060
911.604	10976
911.718	10816
911.833	10881
911.947	10759
912.062	10683
912.176	10854
912.291	10972
912.405	10938
912.519	10995
912.633	11098
912.748	11010
912.862	10908
912.976	10729
913.09	10649
913.204	10710
913.318	10698
913.431	10892
913.545	10911
913.659	10824
913.772	10763
913.886	10622
914	10645
914.113	10778
914.226	10786
914.34	10752
914.453	10523
914.566	10672
914.68	10512
914.793	10611
914.906	10402
915.019	10379
915.132	10356
915.245	10413
915.358	10424
915.47	10386
915.583	10394
915.696	10398
915.809	10497
915.921	10470
916.034	10432
916.146	10322
916.259	10341
916.371	10455
916.483	10394
916.595	10242
916.708	10322
916.82	10375
916.932	10207
917.044	10352
917.156	10230
917.268	10181
917.38	10128
917.491	10280
917.603	10219
917.715	10303
917.826	10348
917.938	10204
918.049	10211
918.161	10211
918.272	10322
918.384	10375
918.495	10246
918.606	10135
918.717	9949
918.828	10169
918.939	10150
919.05	10059
919.161	10055
919.272	9857
919.383	10021
919.494	10223
919.604	10318
919.715	10093
919.826	10044
919.936	10055
920.047	10211
920.157	10093
920.267	10337
920.378	10128
920.488	10131
920.598	10276
920.708	10451
920.818	10379
920.928	10371
921.038	10497
921.148	10447
921.258	10185
921.368	10040
921.477	9987
921.587	10006
921.697	9869
921.806	9945
921.916	9850
922.025	9736
922.134	9614
922.244	9713
922.353	9679
922.462	9564
922.571	9507
922.68	9420
922.789	9348
922.898	9431
923.007	9329
923.116	9420
923.224	9397
923.333	9344
923.442	9291
923.55	9138
923.659	9382
923.767	9294
923.876	9230
923.984	9332
924.092	9192
924.201	9253
924.309	9233
924.417	9260
924.525	9188
924.633	9195
924.741	9926
924.849	9074
924.956	9173
925.064	9009
925.172	8967
925.279	8986
925.387	9055
925.494	9055
925.602	9135
925.709	9112
925.816	8990
925.924	9077
926.031	9150
926.138	9039
926.245	9039
926.352	8971
926.459	9062
926.566	9100
926.673	8963
926.779	8918
926.886	8845
926.993	8743
927.099	8769
927.206	8663
927.312	8667
927.419	8708
927.525	8777
927.631	8804
927.737	8689
927.843	8686
927.95	8545
928.056	8613
928.162	8648
928.267	8697
928.373	9359
928.479	8731
928.585	8514
928.69	8686
928.796	8731
928.901	8575
929.007	8473
929.112	8514
929.218	8495
929.323	8484
929.428	8442
929.533	8590
929.638	8393
929.743	8442
929.848	8514
929.953	8400
930.058	8389
930.163	8202
930.267	8259
930.372	8431
930.477	8294
930.581	8434
930.685	8286
930.79	8107
930.894	8256
930.998	8164
931.103	8336
931.207	8005
931.311	7982
931.415	7860
931.519	7727
931.623	7700
