Data from test_V78500241_2582.txt Node
Date: Fri Mar 25 14:51:41 CST 2022
User: usil
Spectrometer: V785-0024
Trigger mode: 0
Integration Time (sec): 4.000000E-1
Scans to average: 1
Nonlinearity correction enabled: false
Boxcar width: 0
Storing dark spectrum: false
XAxis mode: Wavelengths
Number of Pixels in Spectrum: 1024
>>>>>Begin Spectral Data<<<<<
801.071	22105
801.214	21926
801.356	21663
801.499	21595
801.641	21466
801.783	21462
801.926	21386
802.068	21363
802.211	21428
802.353	21192
802.496	20967
802.638	20914
802.78	20902
802.923	20830
803.065	20636
803.208	20705
803.35	20735
803.492	20918
803.635	20792
803.777	20705
803.919	20735
804.061	21058
804.204	20807
804.346	20765
804.488	20594
804.63	20724
804.773	20545
804.915	20629
805.057	20667
805.199	20579
805.341	20754
805.483	20845
805.626	20758
805.768	20609
805.91	20743
806.052	20659
806.194	20606
806.336	20667
806.478	20632
806.62	20571
806.762	20712
806.904	20796
807.046	21077
807.188	20887
807.33	20948
807.472	21096
807.614	20891
807.756	20842
807.898	20785
808.04	20701
808.182	20724
808.324	20663
808.465	20743
808.607	20891
808.749	21017
808.891	21104
809.033	21252
809.174	21116
809.316	21055
809.458	20967
809.6	20986
809.741	21058
809.883	20925
810.025	21188
810.166	21211
810.308	21169
810.45	21070
810.591	21062
810.733	20914
810.875	20792
811.016	20667
811.158	20708
811.299	20899
811.441	20883
811.582	20899
811.724	20800
811.865	20720
812.007	20838
812.148	20735
812.29	20773
812.431	20872
812.573	21089
812.714	21199
812.855	21313
812.997	21317
813.138	21435
813.279	21431
813.421	21294
813.562	21138
813.703	21005
813.845	20937
813.986	20537
814.127	20541
814.268	20339
814.41	20358
814.551	20286
814.692	20339
814.833	20294
814.974	20206
815.115	20244
815.256	20305
815.397	20237
815.539	20237
815.68	20122
815.821	20073
815.962	20176
816.103	19974
816.244	19879
816.385	19784
816.526	19708
816.666	19578
816.807	19552
816.948	19533
817.089	19563
817.23	19396
817.371	19453
817.512	19510
817.653	19419
817.793	19365
817.934	19445
818.075	19403
818.216	19415
818.356	19396
818.497	19259
818.638	19046
818.778	19122
818.919	19152
819.06	19263
819.2	19285
819.341	19293
819.481	19282
819.622	19506
819.762	19693
819.903	19582
820.043	19438
820.184	19525
820.324	19403
820.465	19487
820.605	19495
820.746	19453
820.886	19293
821.026	19434
821.167	19377
821.307	19624
821.447	19381
821.588	19320
821.728	19156
821.868	18966
822.008	18901
822.149	18802
822.289	18757
822.429	18711
822.569	18589
822.709	18437
822.849	18376
822.99	18251
823.13	18346
823.27	18273
823.41	18209
823.55	18136
823.69	18232
823.83	18106
823.97	18102
824.11	17817
824.25	17935
824.389	17984
824.529	17965
824.669	17893
824.809	17969
824.949	18003
825.089	17935
825.228	17923
825.368	17695
825.508	17691
825.648	17783
825.787	17832
825.927	17760
826.067	17684
826.206	17608
826.346	17779
826.485	17710
826.625	17661
826.765	17672
826.904	17608
827.044	17467
827.183	17391
827.323	17414
827.462	17353
827.601	17383
827.741	17402
827.88	17398
828.02	17288
828.159	17417
828.298	17421
828.437	17421
828.577	17318
828.716	17585
828.855	17414
828.994	17014
829.134	17113
829.273	17189
829.412	17151
829.551	17056
829.69	17189
829.829	17231
829.968	17166
830.107	17239
830.246	17140
830.385	17090
830.524	17143
830.663	16946
830.802	16911
830.941	16759
831.08	16584
831.219	16786
831.357	16797
831.496	16938
831.635	16790
831.774	16755
831.913	16622
832.051	16607
832.19	16485
832.329	16611
832.467	16440
832.606	16363
832.744	16436
832.883	16440
833.022	16424
833.16	16382
833.299	16542
833.437	16535
833.576	16531
833.714	16489
833.852	16596
833.991	16538
834.129	16611
834.267	16535
834.406	16558
834.544	16523
834.682	16550
834.821	16485
834.959	16763
835.097	16599
835.235	16607
835.373	16554
835.511	16542
835.65	16531
835.788	16455
835.926	16337
836.064	16253
836.202	16371
836.34	16344
836.478	16379
836.615	16348
836.753	16402
836.891	16497
837.029	16466
837.167	16333
837.305	16409
837.443	16272
837.58	16242
837.718	16413
837.856	16386
837.993	16265
838.131	16382
838.269	16211
838.406	16246
838.544	16257
838.681	16006
838.819	15918
838.956	15831
839.094	15854
839.231	15926
839.369	15934
839.506	16299
839.643	16082
839.781	15892
839.918	15823
840.055	15884
840.193	15808
840.33	15842
840.467	15835
840.604	15903
840.742	16036
840.879	15804
841.016	15755
841.153	15739
841.29	15983
841.427	15816
841.564	15857
841.701	15755
841.838	15846
841.975	15682
842.112	15705
842.249	15656
842.385	15542
842.522	15762
842.659	15629
842.796	15633
842.933	15690
843.069	15599
843.206	15564
843.343	15713
843.479	15637
843.616	15686
843.752	15420
843.889	15420
844.025	15530
844.162	15321
844.298	15511
844.435	15367
844.571	15389
844.708	15504
844.844	15618
844.98	15576
845.117	15496
845.253	15378
845.389	15302
845.525	15393
845.661	15294
845.798	15150
845.934	15294
846.07	15184
846.206	15245
846.342	15306
846.478	15241
846.614	15097
846.75	14971
846.886	15028
847.022	15116
847.158	15001
847.294	15009
847.429	14998
847.565	14994
847.701	15226
847.837	14743
847.972	14651
848.108	14754
848.244	14819
848.379	14644
848.515	14522
848.65	14575
848.786	14511
848.921	14606
849.057	14720
849.192	14743
849.328	14613
849.463	14606
849.598	14663
849.734	14530
849.869	14533
850.004	14381
850.14	14412
850.275	14415
850.41	14362
850.545	14412
850.68	14328
850.815	14450
850.95	14434
851.085	14526
851.22	14476
851.355	14355
851.49	14286
851.625	14404
851.76	14339
851.895	14301
852.03	14263
852.165	14294
852.299	14381
852.434	14469
852.569	14415
852.703	14385
852.838	14454
852.973	14552
853.107	14450
853.242	14366
853.376	14187
853.511	14199
853.645	14210
853.78	14404
853.914	14400
854.048	14233
854.183	14370
854.317	14313
854.451	14488
854.585	14256
854.72	14256
854.854	14347
854.988	14294
855.122	14320
855.256	14096
855.39	14259
855.524	14370
855.658	14301
855.792	14305
855.926	14343
856.06	14385
856.194	14476
856.327	14309
856.461	14176
856.595	14233
856.729	14278
856.862	14381
856.996	14290
857.13	14393
857.263	14336
857.397	14358
857.53	14317
857.664	14324
857.797	14370
857.931	14446
858.064	14278
858.197	14347
858.331	14294
858.464	14229
858.597	14123
858.731	14301
858.864	14263
858.997	14214
859.13	14263
859.263	14309
859.396	14404
859.529	14210
859.662	14157
859.795	14214
859.928	14298
860.061	14362
860.194	14263
860.327	14172
860.46	14218
860.592	14343
860.725	14362
860.858	14438
860.99	14286
861.123	14195
861.256	14183
861.388	14263
861.521	14788
861.653	14172
861.786	14115
861.918	14142
862.05	14123
862.183	14221
862.315	14244
862.447	14313
862.58	14233
862.712	14046
862.844	13944
862.976	14153
863.108	14054
863.24	14427
863.372	13951
863.504	14024
863.636	14008
863.768	14001
863.9	14005
864.032	14008
864.164	13947
864.296	14088
864.428	14161
864.559	14206
864.691	14103
864.823	14100
864.954	14126
865.086	14134
865.217	14077
865.349	13974
865.48	13974
865.612	14001
865.743	14180
865.875	14043
866.006	13963
866.137	14001
866.269	13986
866.4	13993
866.531	14031
866.662	13970
866.793	13986
866.924	14001
867.055	14058
867.186	14054
867.317	13940
867.448	13944
867.579	13947
867.71	14008
867.841	13921
867.972	13967
868.103	14031
868.233	14012
868.364	14058
868.495	14058
868.625	14176
868.756	14358
868.886	14259
869.017	14214
869.147	14389
869.278	14434
869.408	14229
869.539	14286
869.669	14412
869.799	14347
869.929	14469
870.06	14263
870.19	14594
870.32	14636
870.45	14724
870.58	14625
870.71	14800
870.84	14758
870.97	14686
871.1	14670
871.23	14792
871.36	14921
871.489	14693
871.619	14864
871.749	14891
871.879	15005
872.008	15085
872.138	14872
872.267	14872
872.397	14758
872.526	14689
872.656	14758
872.785	14697
872.915	14853
873.044	15047
873.173	14914
873.303	15001
873.432	15020
873.561	15066
873.69	14971
873.819	14921
873.948	15051
874.077	14986
874.206	14906
874.335	14876
874.464	15100
874.593	15230
874.722	15180
874.851	15241
874.979	15283
875.108	15275
875.237	15180
875.365	15142
875.494	15127
875.623	15435
875.751	15218
875.88	15321
876.008	15397
876.136	15397
876.265	15663
876.393	15915
876.521	15728
876.65	15774
876.778	15637
876.906	15629
877.034	15629
877.162	15682
877.29	15511
877.418	15679
877.546	15641
877.674	15682
877.802	15633
877.93	15736
878.058	15739
878.185	15568
878.313	15637
878.441	15709
878.568	15416
878.696	15530
878.824	15637
878.951	15701
879.079	15816
879.206	15998
879.333	15785
879.461	15781
879.588	15732
879.715	15892
879.842	15892
879.97	15789
880.097	15561
880.224	15606
880.351	15564
880.478	15534
880.605	15618
880.732	15481
880.859	15785
880.986	15538
881.112	15526
881.239	15443
881.366	15260
881.493	15119
881.619	15150
881.746	15203
881.872	15074
881.999	15165
882.125	15154
882.252	15310
882.378	15211
882.505	15306
882.631	15097
882.757	14975
882.883	15055
883.01	15047
883.136	14883
883.262	14826
883.388	14868
883.514	15024
883.64	14994
883.766	14895
883.892	14849
884.018	14845
884.143	14937
884.269	15062
884.395	14811
884.52	14648
884.646	14674
884.772	14636
884.897	14613
885.023	14720
885.148	14682
885.274	14788
885.399	14941
885.524	14708
885.65	14708
885.775	14754
885.9	14705
886.025	14746
886.15	14765
886.275	14693
886.4	14617
886.525	14651
886.65	14564
886.775	14602
886.9	14819
887.025	14941
887.149	14735
887.274	14423
887.399	14552
887.523	14366
887.648	14438
887.773	14473
887.897	14590
888.021	14530
888.146	14503
888.27	14575
888.395	14644
888.519	14651
888.643	14575
888.767	14587
888.891	14461
889.015	14381
889.139	14396
889.263	14343
889.387	14556
889.511	14678
889.635	14434
889.759	14355
889.883	14396
890.006	14362
890.13	14469
890.254	14374
890.377	14309
890.501	14248
890.624	14161
890.748	14248
890.871	14096
890.995	14084
891.118	14020
891.241	14138
891.364	14062
891.488	14240
891.611	14046
891.734	14153
891.857	14138
891.98	14191
892.103	14153
892.226	14088
892.349	14107
892.471	13959
892.594	14069
892.717	14240
892.839	14035
892.962	14069
893.085	14100
893.207	14096
893.33	13970
893.452	14012
893.575	14031
893.697	14027
893.819	14221
893.941	14218
894.064	14275
894.186	14130
894.308	14221
894.43	14229
894.552	14191
894.674	14256
894.796	14084
894.918	14092
895.04	14096
895.161	14240
895.283	14237
895.405	14164
895.526	14206
895.648	14206
895.769	14199
895.891	14298
896.012	14294
896.134	14298
896.255	14282
896.376	14290
896.498	14286
896.619	14221
896.74	14256
896.861	14294
896.982	14590
897.103	14705
897.224	14545
897.345	14469
897.466	14454
897.587	14606
897.708	14667
897.828	14651
897.949	14427
898.07	14454
898.19	14404
898.311	14598
898.431	14552
898.552	14587
898.672	14777
898.792	14655
898.913	14606
899.033	14564
899.153	14522
899.273	14351
899.393	14389
899.513	14488
899.633	14514
899.753	14446
899.873	14385
899.993	14473
900.113	14454
900.232	14461
900.352	14473
900.472	14377
900.591	14233
900.711	14434
900.83	14271
900.95	14423
901.069	14294
901.189	14225
901.308	14096
901.427	13967
901.546	13963
901.665	13974
901.784	14035
901.904	13928
902.023	13803
902.141	13529
902.26	13468
902.379	13651
902.498	13578
902.617	13426
902.735	13666
902.854	13506
902.973	13502
903.091	13343
903.21	13358
903.328	13209
903.446	13194
903.565	13099
903.683	13179
903.801	13057
903.919	13187
904.038	13133
904.156	12924
904.274	13053
904.392	12897
904.51	12856
904.627	12962
904.745	12993
904.863	12943
904.981	12741
905.098	12642
905.216	12760
905.334	12722
905.451	12654
905.569	12623
905.686	12658
905.803	12669
905.921	12604
906.038	12623
906.155	12559
906.272	12369
906.389	12395
906.506	12270
906.623	12228
906.74	12224
906.857	12110
906.974	12190
907.091	12334
907.208	12395
907.324	12342
907.441	12201
907.557	12045
907.674	11980
907.79	11939
907.907	11927
908.023	11992
908.139	11980
908.256	11847
908.372	11901
908.488	11866
908.604	11752
908.72	11718
908.836	11790
908.952	11756
909.068	11707
909.184	11832
909.3	11695
909.415	11828
909.531	11832
909.647	11577
909.762	11482
909.878	11436
909.993	11592
910.108	11509
910.224	11516
910.339	11490
910.454	11406
910.57	11368
910.685	11299
910.8	11611
910.915	11425
911.03	11273
911.145	11246
911.259	11166
911.374	11254
911.489	11128
911.604	11090
911.718	10976
911.833	11003
911.947	10911
912.062	10869
912.176	10987
912.291	11064
912.405	10976
912.519	11212
912.633	11136
912.748	11121
912.862	11029
912.976	10908
913.09	10774
913.204	10782
913.318	10896
913.431	10908
913.545	10904
913.659	10877
913.772	10889
913.886	10725
914	10679
914.113	10801
914.226	10953
914.34	10793
914.453	10664
914.566	10911
914.68	10714
914.793	10691
914.906	10485
915.019	10485
915.132	10443
915.245	10538
915.358	10489
915.47	10478
915.583	10493
915.696	10481
915.809	10641
915.921	10626
916.034	10447
916.146	10424
916.259	10428
916.371	10497
916.483	10504
916.595	10363
916.708	10421
916.82	10424
916.932	10428
917.044	10314
917.156	10344
917.268	10284
917.38	10310
917.491	10276
917.603	10337
917.715	10447
917.826	10432
917.938	10318
918.049	10185
918.161	10287
918.272	10363
918.384	10402
918.495	10371
918.606	10204
918.717	10139
918.828	10261
918.939	10242
919.05	10055
919.161	10109
919.272	9937
919.383	10078
919.494	10299
919.604	10432
919.715	10177
919.826	10101
919.936	10196
920.047	10268
920.157	10162
920.267	10413
920.378	10211
920.488	10196
920.598	10371
920.708	10622
920.818	10402
920.928	10379
921.038	10565
921.148	10558
921.258	10181
921.368	10200
921.477	10124
921.587	9994
921.697	9907
921.806	10082
921.916	9975
922.025	9751
922.134	9812
922.244	9675
922.353	9819
922.462	9720
922.571	9561
922.68	9431
922.789	9382
922.898	9462
923.007	9424
923.116	9542
923.224	9477
923.333	9412
923.442	9351
923.55	9298
923.659	9370
923.767	9431
923.876	9298
923.984	9355
924.092	9249
924.201	9340
924.309	9321
924.417	9382
924.525	9260
924.633	9298
924.741	10040
924.849	9089
924.956	9302
925.064	9108
925.172	9024
925.279	9108
925.387	9192
925.494	9100
925.602	9165
925.709	9112
925.816	9070
925.924	9173
926.031	9207
926.138	9127
926.245	9195
926.352	9062
926.459	9211
926.566	9199
926.673	8986
926.779	8998
926.886	9024
926.993	8914
927.099	8887
927.206	8826
927.312	8800
927.419	8933
927.525	8883
927.631	8830
927.737	8766
927.843	8674
927.95	8556
928.056	8754
928.162	8689
928.267	8773
928.373	9408
928.479	8754
928.585	8606
928.69	8743
928.796	8800
928.901	8651
929.007	8427
929.112	8590
929.218	8518
929.323	8552
929.428	8598
929.533	8727
929.638	8503
929.743	8461
929.848	8526
929.953	8522
930.058	8499
930.163	8309
930.267	8282
930.372	8450
930.477	8282
930.581	8541
930.685	8358
930.79	8237
930.894	8298
930.998	8195
931.103	8454
931.207	8126
931.311	7993
931.415	7921
931.519	7738
931.623	7738
