Data from test_V78500241_1831.txt Node
Date: Fri Mar 25 14:46:27 CST 2022
User: usil
Spectrometer: V785-0024
Trigger mode: 0
Integration Time (sec): 4.000000E-1
Scans to average: 1
Nonlinearity correction enabled: false
Boxcar width: 0
Storing dark spectrum: false
XAxis mode: Wavelengths
Number of Pixels in Spectrum: 1024
>>>>>Begin Spectral Data<<<<<
801.071	22116
801.214	22036
801.356	21793
801.499	21739
801.641	21561
801.783	21576
801.926	21519
802.068	21526
802.211	21401
802.353	21272
802.496	21070
802.638	20906
802.78	20906
802.923	20792
803.065	20868
803.208	20785
803.35	20807
803.492	20910
803.635	21009
803.777	20815
803.919	20845
804.061	21245
804.204	20883
804.346	20823
804.488	20853
804.63	20765
804.773	20712
804.915	20807
805.057	20785
805.199	20861
805.341	20902
805.483	20906
805.626	20807
805.768	20678
805.91	20773
806.052	20758
806.194	20739
806.336	20914
806.478	20640
806.62	20686
806.762	20788
806.904	20864
807.046	21249
807.188	21017
807.33	21100
807.472	21085
807.614	20868
807.756	21001
807.898	20792
808.04	20716
808.182	20872
808.324	20857
808.465	20880
808.607	21096
808.749	21131
808.891	21230
809.033	21340
809.174	21192
809.316	21089
809.458	21218
809.6	21127
809.741	21123
809.883	21207
810.025	21249
810.166	21325
810.308	21245
810.45	21279
810.591	21089
810.733	21020
810.875	20845
811.016	20785
811.158	20868
811.299	21039
811.441	20960
811.582	20967
811.724	20933
811.865	20921
812.007	20880
812.148	20853
812.29	20899
812.431	21020
812.573	21184
812.714	21283
812.855	21386
812.997	21549
813.138	21679
813.279	21469
813.421	21317
813.562	21237
813.703	21203
813.845	21123
813.986	20834
814.127	20598
814.268	20530
814.41	20393
814.551	20499
814.692	20427
814.833	20290
814.974	20488
815.115	20526
815.256	20248
815.397	20328
815.539	20320
815.68	20218
815.821	20096
815.962	20161
816.103	20145
816.244	20081
816.385	20016
816.526	19890
816.666	19746
816.807	19521
816.948	19556
817.089	19704
817.23	19696
817.371	19613
817.512	19540
817.653	19544
817.793	19571
817.934	19556
818.075	19552
818.216	19594
818.356	19510
818.497	19453
818.638	19225
818.778	19175
818.919	19206
819.06	19384
819.2	19362
819.341	19544
819.481	19453
819.622	19597
819.762	19803
819.903	19651
820.043	19674
820.184	19552
820.324	19544
820.465	19643
820.605	19651
820.746	19472
820.886	19430
821.026	19548
821.167	19537
821.307	19601
821.447	19460
821.588	19377
821.728	19346
821.868	19137
822.008	18905
822.149	18924
822.289	18863
822.429	18798
822.569	18661
822.709	18570
822.849	18506
822.99	18467
823.13	18391
823.27	18388
823.41	18289
823.55	18190
823.69	18254
823.83	18369
823.97	18224
824.11	18098
824.25	17958
824.389	18045
824.529	18152
824.669	18129
824.809	18216
824.949	18186
825.089	18072
825.228	18087
825.368	17874
825.508	17904
825.648	17817
825.787	17992
825.927	17931
826.067	17779
826.206	17821
826.346	17764
826.485	17977
826.625	17748
826.765	17920
826.904	17901
827.044	17535
827.183	17585
827.323	17577
827.462	17668
827.601	17554
827.741	17539
827.88	17623
828.02	17402
828.159	17490
828.298	17623
828.437	17509
828.577	17410
828.716	17581
828.855	17600
828.994	17383
829.134	17383
829.273	17353
829.412	17349
829.551	17174
829.69	17345
829.829	17326
829.968	17421
830.107	17353
830.246	17318
830.385	17246
830.524	17185
830.663	17147
830.802	16999
830.941	16953
831.08	16911
831.219	17003
831.357	17018
831.496	17132
831.635	16976
831.774	16942
831.913	16771
832.051	16759
832.19	16687
832.329	16721
832.467	16618
832.606	16466
832.744	16611
832.883	16596
833.022	16599
833.16	16565
833.299	16611
833.437	16599
833.576	16668
833.714	16702
833.852	16744
833.991	16683
834.129	16763
834.267	16782
834.406	16675
834.544	16713
834.682	16668
834.821	16744
834.959	16911
835.097	16694
835.235	16854
835.373	16729
835.511	16660
835.65	16622
835.788	16561
835.926	16421
836.064	16352
836.202	16462
836.34	16645
836.478	16725
836.615	16466
836.753	16615
836.891	16630
837.029	16580
837.167	16615
837.305	16497
837.443	16382
837.58	16443
837.718	16512
837.856	16497
837.993	16451
838.131	16398
838.269	16417
838.406	16432
838.544	16215
838.681	16223
838.819	16154
838.956	16032
839.094	15930
839.231	16086
839.369	16143
839.506	16436
839.643	16242
839.781	16093
839.918	15903
840.055	16025
840.193	16055
840.33	15911
840.467	15918
840.604	16017
840.742	16200
840.879	15911
841.016	15895
841.153	15857
841.29	16147
841.427	16055
841.564	16055
841.701	16059
841.838	16017
841.975	15869
842.112	15873
842.249	15873
842.385	15865
842.522	15930
842.659	15751
842.796	15709
842.933	15785
843.069	15850
843.206	15797
843.343	15880
843.479	15854
843.616	15838
843.752	15667
843.889	15549
844.025	15591
844.162	15481
844.298	15709
844.435	15549
844.571	15515
844.708	15644
844.844	15816
844.98	15732
845.117	15652
845.253	15584
845.389	15519
845.525	15618
845.661	15507
845.798	15344
845.934	15443
846.07	15389
846.206	15481
846.342	15568
846.478	15272
846.614	15218
846.75	15108
846.886	15085
847.022	15222
847.158	15081
847.294	15097
847.429	15184
847.565	15074
847.701	15367
847.837	14929
847.972	14804
848.108	14956
848.244	14979
848.379	14762
848.515	14697
848.65	14670
848.786	14739
848.921	14830
849.057	14788
849.192	14994
849.328	14762
849.463	14773
849.598	14781
849.734	14686
849.869	14617
850.004	14522
850.14	14514
850.275	14492
850.41	14396
850.545	14377
850.68	14503
850.815	14480
850.95	14450
851.085	14686
851.22	14617
851.355	14530
851.49	14545
851.625	14469
851.76	14499
851.895	14381
852.03	14362
852.165	14511
852.299	14499
852.434	14632
852.569	14610
852.703	14537
852.838	14583
852.973	14705
853.107	14670
853.242	14602
853.376	14385
853.511	14290
853.645	14328
853.78	14415
853.914	14374
854.048	14370
854.183	14309
854.317	14366
854.451	14514
854.585	14511
854.72	14442
854.854	14434
854.988	14229
855.122	14389
855.256	14195
855.39	14377
855.524	14556
855.658	14476
855.792	14351
855.926	14355
856.06	14404
856.194	14465
856.327	14370
856.461	14370
856.595	14358
856.729	14385
856.862	14526
856.996	14374
857.13	14484
857.263	14533
857.397	14511
857.53	14408
857.664	14446
857.797	14412
857.931	14518
858.064	14503
858.197	14533
858.331	14374
858.464	14400
858.597	14351
858.731	14275
858.864	14404
858.997	14415
859.13	14465
859.263	14408
859.396	14469
859.529	14347
859.662	14404
859.795	14377
859.928	14377
860.061	14575
860.194	14632
860.327	14480
860.46	14282
860.592	14469
860.725	14461
860.858	14499
860.99	14419
861.123	14298
861.256	14317
861.388	14317
861.521	15024
861.653	14263
861.786	14183
861.918	14237
862.05	14317
862.183	14400
862.315	14423
862.447	14351
862.58	14278
862.712	14111
862.844	14145
862.976	14233
863.108	14206
863.24	14450
863.372	14119
863.504	14081
863.636	14153
863.768	14172
863.9	14142
864.032	14077
864.164	14115
864.296	14168
864.428	14221
864.559	14275
864.691	14180
864.823	14206
864.954	14130
865.086	14252
865.217	14123
865.349	14130
865.48	14138
865.612	14153
865.743	14180
865.875	14183
866.006	14050
866.137	14126
866.269	14134
866.4	14214
866.531	14050
866.662	14027
866.793	14092
866.924	14134
867.055	14199
867.186	14138
867.317	14096
867.448	14054
867.579	14058
867.71	14050
867.841	14043
867.972	14107
868.103	14145
868.233	14134
868.364	14123
868.495	14252
868.625	14248
868.756	14419
868.886	14355
869.017	14396
869.147	14476
869.278	14434
869.408	14408
869.539	14377
869.669	14408
869.799	14336
869.929	14594
870.06	14507
870.19	14644
870.32	14693
870.45	14762
870.58	14708
870.71	14864
870.84	14830
870.97	14739
871.1	14815
871.23	15005
871.36	14963
871.489	14895
871.619	14902
871.749	14891
871.879	15005
872.008	15123
872.138	14956
872.267	14933
872.397	14807
872.526	14762
872.656	14743
872.785	14762
872.915	15062
873.044	15089
873.173	15047
873.303	15036
873.432	15020
873.561	15085
873.69	15066
873.819	15036
873.948	15188
874.077	15062
874.206	15024
874.335	15097
874.464	15199
874.593	15275
874.722	15249
874.851	15393
874.979	15401
875.108	15412
875.237	15237
875.365	15279
875.494	15370
875.623	15340
875.751	15222
875.88	15454
876.008	15469
876.136	15523
876.265	15762
876.393	15884
876.521	15785
876.65	15835
876.778	15842
876.906	15804
877.034	15663
877.162	15724
877.29	15736
877.418	15701
877.546	15720
877.674	15774
877.802	15781
877.93	15743
878.058	15808
878.185	15679
878.313	15736
878.441	15789
878.568	15629
878.696	15724
878.824	15876
878.951	15713
879.079	15865
879.206	16048
879.333	15918
879.461	15770
879.588	15880
879.715	15846
879.842	16154
879.97	15899
880.097	15580
880.224	15580
880.351	15667
880.478	15663
880.605	15603
880.732	15481
880.859	15846
880.986	15591
881.112	15667
881.239	15443
881.366	15447
881.493	15378
881.619	15351
881.746	15325
881.872	15237
881.999	15363
882.125	15188
882.252	15355
882.378	15283
882.505	15386
882.631	15279
882.757	15119
882.883	15150
883.01	15146
883.136	15032
883.262	14998
883.388	14971
883.514	15119
883.64	15157
883.766	14998
883.892	14910
884.018	14963
884.143	15028
884.269	15157
884.395	14864
884.52	14804
884.646	14868
884.772	14777
884.897	14716
885.023	14872
885.148	14823
885.274	14902
885.399	14906
885.524	14785
885.65	14807
885.775	14857
885.9	14769
886.025	14902
886.15	14849
886.275	14693
886.4	14716
886.525	14792
886.65	14667
886.775	14769
886.9	14971
887.025	14975
887.149	14800
887.274	14571
887.399	14606
887.523	14579
887.648	14511
887.773	14514
887.897	14705
888.021	14613
888.146	14579
888.27	14739
888.395	14701
888.519	14701
888.643	14613
888.767	14712
888.891	14499
889.015	14457
889.139	14651
889.263	14423
889.387	14571
889.511	14667
889.635	14640
889.759	14465
889.883	14461
890.006	14533
890.13	14583
890.254	14454
890.377	14438
890.501	14298
890.624	14149
890.748	14396
890.871	14263
890.995	14149
891.118	14058
891.241	14157
891.364	14210
891.488	14244
891.611	14168
891.734	14206
891.857	14244
891.98	14191
892.103	14275
892.226	14240
892.349	14130
892.471	14031
892.594	14077
892.717	14229
892.839	14172
892.962	14157
893.085	14301
893.207	14225
893.33	14100
893.452	14100
893.575	14259
893.697	14210
893.819	14278
893.941	14374
894.064	14313
894.186	14092
894.308	14172
894.43	14355
894.552	14374
894.674	14294
894.796	14225
894.918	14168
895.04	14202
895.161	14199
895.283	14267
895.405	14290
895.526	14210
895.648	14259
895.769	14263
895.891	14385
896.012	14396
896.134	14324
896.255	14351
896.376	14313
896.498	14275
896.619	14374
896.74	14339
896.861	14400
896.982	14644
897.103	14823
897.224	14602
897.345	14587
897.466	14480
897.587	14575
897.708	14750
897.828	14613
897.949	14549
898.07	14480
898.19	14522
898.311	14746
898.431	14705
898.552	14651
898.672	14735
898.792	14781
898.913	14819
899.033	14617
899.153	14571
899.273	14499
899.393	14556
899.513	14568
899.633	14442
899.753	14541
899.873	14457
899.993	14587
900.113	14469
900.232	14610
900.352	14537
900.472	14507
900.591	14427
900.711	14355
900.83	14355
900.95	14495
901.069	14514
901.189	14362
901.308	14050
901.427	14046
901.546	14115
901.665	14145
901.784	14142
901.904	13951
902.023	13894
902.141	13666
902.26	13655
902.379	13670
902.498	13662
902.617	13480
902.735	13643
902.854	13742
902.973	13472
903.091	13438
903.21	13384
903.328	13445
903.446	13259
903.565	13228
903.683	13065
903.801	13114
903.919	13190
904.038	13187
904.156	13023
904.274	13129
904.392	13053
904.51	12928
904.627	13050
904.745	12993
904.863	13046
904.981	12795
905.098	12757
905.216	12703
905.334	12726
905.451	12726
905.569	12711
905.686	12833
905.803	12681
905.921	12517
906.038	12684
906.155	12623
906.272	12350
906.389	12475
906.506	12323
906.623	12308
906.74	12296
906.857	12178
906.974	12140
907.091	12407
907.208	12380
907.324	12308
907.441	12235
907.557	12011
907.674	12083
907.79	11984
907.907	11988
908.023	12152
908.139	12060
908.256	12007
908.372	11927
908.488	11961
908.604	11786
908.72	11779
908.836	11790
908.952	11783
909.068	11912
909.184	11920
909.3	11843
909.415	11866
909.531	11870
909.647	11604
909.762	11577
909.878	11611
909.993	11676
910.108	11520
910.224	11528
910.339	11505
910.454	11501
910.57	11528
910.685	11368
910.8	11577
910.915	11566
911.03	11452
911.145	11307
911.259	11303
911.374	11353
911.489	11147
911.604	11140
911.718	11033
911.833	11090
911.947	10873
912.062	10862
912.176	11003
912.291	11121
912.405	10987
912.519	11322
912.633	11269
912.748	11022
912.862	11121
912.976	10942
913.09	10839
913.204	10858
913.318	10999
913.431	10953
913.545	11006
913.659	11052
913.772	10911
913.886	10725
914	10797
914.113	10843
914.226	10930
914.34	10896
914.453	10782
914.566	10774
914.68	10755
914.793	10752
914.906	10611
915.019	10561
915.132	10500
915.245	10523
915.358	10550
915.47	10489
915.583	10554
915.696	10565
915.809	10668
915.921	10645
916.034	10561
916.146	10421
916.259	10455
916.371	10596
916.483	10527
916.595	10481
916.708	10538
916.82	10481
916.932	10455
917.044	10478
917.156	10428
917.268	10295
917.38	10352
917.491	10352
917.603	10398
917.715	10417
917.826	10489
917.938	10341
918.049	10295
918.161	10405
918.272	10451
918.384	10481
918.495	10424
918.606	10181
918.717	10169
918.828	10227
918.939	10280
919.05	10154
919.161	10238
919.272	10006
919.383	10196
919.494	10325
919.604	10459
919.715	10257
919.826	10116
919.936	10257
920.047	10303
920.157	10238
920.267	10462
920.378	10303
920.488	10276
920.598	10493
920.708	10558
920.818	10443
920.928	10485
921.038	10641
921.148	10550
921.258	10337
921.368	10211
921.477	10097
921.587	10082
921.697	10055
921.806	10112
921.916	10002
922.025	9816
922.134	9804
922.244	9762
922.353	9911
922.462	9686
922.571	9580
922.68	9447
922.789	9488
922.898	9568
923.007	9488
923.116	9526
923.224	9523
923.333	9454
923.442	9424
923.55	9378
923.659	9340
923.767	9515
923.876	9367
923.984	9504
924.092	9313
924.201	9363
924.309	9332
924.417	9355
924.525	9359
924.633	9382
924.741	10230
924.849	9245
924.956	9272
925.064	9142
925.172	9058
925.279	9154
925.387	9085
925.494	9150
925.602	9268
925.709	9264
925.816	9119
925.924	9138
926.031	9264
926.138	9245
926.245	9218
926.352	9093
926.459	9146
926.566	9230
926.673	9070
926.779	9017
926.886	8994
926.993	8952
927.099	8933
927.206	8796
927.312	8857
927.419	8986
927.525	8857
927.631	8899
927.737	8804
927.843	8766
927.95	8621
928.056	8705
928.162	8800
928.267	8758
928.373	9302
928.479	8735
928.585	8644
928.69	8766
928.796	8796
928.901	8648
929.007	8579
929.112	8746
929.218	8727
929.323	8651
929.428	8587
929.533	8743
929.638	8556
929.743	8556
929.848	8571
929.953	8655
930.058	8499
930.163	8275
930.267	8336
930.372	8476
930.477	8309
930.581	8541
930.685	8442
930.79	8317
930.894	8286
930.998	8282
931.103	8431
931.207	8164
931.311	8126
931.415	7986
931.519	7849
931.623	7807
