Data from test_V78500241_3204.txt Node
Date: Fri Mar 25 14:56:01 CST 2022
User: usil
Spectrometer: V785-0024
Trigger mode: 0
Integration Time (sec): 4.000000E-1
Scans to average: 1
Nonlinearity correction enabled: false
Boxcar width: 0
Storing dark spectrum: false
XAxis mode: Wavelengths
Number of Pixels in Spectrum: 1024
>>>>>Begin Spectral Data<<<<<
801.071	22010
801.214	21911
801.356	21789
801.499	21618
801.641	21447
801.783	21420
801.926	21416
802.068	21317
802.211	21249
802.353	21218
802.496	20910
802.638	20872
802.78	20834
802.923	20777
803.065	20590
803.208	20731
803.35	20716
803.492	20838
803.635	20921
803.777	20781
803.919	20838
804.061	21062
804.204	20663
804.346	20590
804.488	20613
804.63	20785
804.773	20617
804.915	20621
805.057	20648
805.199	20583
805.341	20655
805.483	20724
805.626	20716
805.768	20564
805.91	20579
806.052	20689
806.194	20530
806.336	20682
806.478	20644
806.62	20450
806.762	20773
806.904	20849
807.046	20979
807.188	20998
807.33	20941
807.472	20929
807.614	20834
807.756	20823
807.898	20708
808.04	20625
808.182	20625
808.324	20689
808.465	20701
808.607	20906
808.749	20944
808.891	21146
809.033	21169
809.174	21043
809.316	20914
809.458	21108
809.6	20861
809.741	21066
809.883	21013
810.025	21051
810.166	21093
810.308	21150
810.45	21093
810.591	20986
810.733	20792
810.875	20739
811.016	20655
811.158	20682
811.299	20727
811.441	20925
811.582	20804
811.724	20792
811.865	20746
812.007	20674
812.148	20796
812.29	20731
812.431	20918
812.573	21055
812.714	21108
812.855	21329
812.997	21317
813.138	21458
813.279	21313
813.421	21226
813.562	21165
813.703	21039
813.845	20902
813.986	20556
814.127	20415
814.268	20370
814.41	20332
814.551	20290
814.692	20298
814.833	20252
814.974	20233
815.115	20275
815.256	20301
815.397	20031
815.539	20176
815.68	19974
815.821	19936
815.962	19993
816.103	19974
816.244	19860
816.385	19795
816.526	19658
816.666	19590
816.807	19464
816.948	19525
817.089	19559
817.23	19411
817.371	19419
817.512	19365
817.653	19331
817.793	19316
817.934	19354
818.075	19434
818.216	19426
818.356	19304
818.497	19331
818.638	19069
818.778	19061
818.919	19061
819.06	19057
819.2	19194
819.341	19331
819.481	19304
819.622	19419
819.762	19586
819.903	19521
820.043	19373
820.184	19415
820.324	19411
820.465	19392
820.605	19358
820.746	19422
820.886	19057
821.026	19244
821.167	19377
821.307	19464
821.447	19400
821.588	19171
821.728	19198
821.868	18867
822.008	18795
822.149	18772
822.289	18825
822.429	18448
822.569	18498
822.709	18429
822.849	18319
822.99	18285
823.13	18213
823.27	18247
823.41	18064
823.55	18049
823.69	18102
823.83	18220
823.97	18079
824.11	17954
824.25	17809
824.389	17836
824.529	17874
824.669	17836
824.809	17904
824.949	17893
825.089	17950
825.228	17882
825.368	17684
825.508	17649
825.648	17627
825.787	17619
825.927	17745
826.067	17570
826.206	17577
826.346	17695
826.485	17600
826.625	17558
826.765	17668
826.904	17676
827.044	17402
827.183	17360
827.323	17326
827.462	17360
827.601	17395
827.741	17284
827.88	17395
828.02	17246
828.159	17303
828.298	17337
828.437	17410
828.577	17239
828.716	17467
828.855	17296
828.994	17170
829.134	17022
829.273	17200
829.412	17037
829.551	17022
829.69	17060
829.829	17060
829.968	17151
830.107	17136
830.246	17041
830.385	16980
830.524	16968
830.663	16885
830.802	16858
830.941	16664
831.08	16664
831.219	16755
831.357	16767
831.496	16946
831.635	16805
831.774	16519
831.913	16588
832.051	16481
832.19	16459
832.329	16538
832.467	16459
832.606	16455
832.744	16329
832.883	16379
833.022	16428
833.16	16421
833.299	16394
833.437	16493
833.576	16512
833.714	16424
833.852	16394
833.991	16516
834.129	16508
834.267	16455
834.406	16367
834.544	16523
834.682	16413
834.821	16523
834.959	16656
835.097	16462
835.235	16485
835.373	16466
835.511	16489
835.65	16352
835.788	16379
835.926	16303
836.064	16150
836.202	16173
836.34	16386
836.478	16462
836.615	16424
836.753	16333
836.891	16295
837.029	16344
837.167	16367
837.305	16215
837.443	16204
837.58	16226
837.718	16200
837.856	16287
837.993	16139
838.131	16253
838.269	16265
838.406	16143
838.544	15998
838.681	15987
838.819	15937
838.956	15842
839.094	15781
839.231	15846
839.369	15949
839.506	16188
839.643	15945
839.781	15835
839.918	15827
840.055	15831
840.193	15861
840.33	15766
840.467	15774
840.604	15747
840.742	15979
840.879	15648
841.016	15759
841.153	15713
841.29	15956
841.427	15785
841.564	15842
841.701	15903
841.838	15694
841.975	15625
842.112	15682
842.249	15698
842.385	15561
842.522	15679
842.659	15542
842.796	15530
842.933	15542
843.069	15485
843.206	15504
843.343	15572
843.479	15603
843.616	15587
843.752	15321
843.889	15363
844.025	15473
844.162	15355
844.298	15477
844.435	15355
844.571	15237
844.708	15382
844.844	15397
844.98	15469
845.117	15454
845.253	15252
845.389	15180
845.525	15283
845.661	15268
845.798	15089
845.934	15226
846.07	14998
846.206	15199
846.342	15344
846.478	15207
846.614	15024
846.75	14868
846.886	14914
847.022	14986
847.158	15005
847.294	14937
847.429	14994
847.565	14887
847.701	15195
847.837	14598
847.972	14610
848.108	14765
848.244	14773
848.379	14621
848.515	14560
848.65	14450
848.786	14503
848.921	14503
849.057	14667
849.192	14617
849.328	14518
849.463	14560
849.598	14465
849.734	14434
849.869	14427
850.004	14434
850.14	14332
850.275	14282
850.41	14263
850.545	14252
850.68	14218
850.815	14328
850.95	14294
851.085	14469
851.22	14278
851.355	14294
851.49	14259
851.625	14202
851.76	14290
851.895	14172
852.03	14153
852.165	14256
852.299	14218
852.434	14366
852.569	14294
852.703	14370
852.838	14488
852.973	14370
853.107	14454
853.242	14347
853.376	14164
853.511	14043
853.645	14195
853.78	14187
853.914	14149
854.048	14130
854.183	14206
854.317	14161
854.451	14263
854.585	14035
854.72	14149
854.854	14119
854.988	14073
855.122	14157
855.256	13940
855.39	14199
855.524	14210
855.658	14256
855.792	14218
855.926	14202
856.06	14229
856.194	14240
856.327	14138
856.461	14039
856.595	14088
856.729	14077
856.862	14278
856.996	14157
857.13	14145
857.263	14271
857.397	14336
857.53	14168
857.664	14248
857.797	14271
857.931	14286
858.064	14157
858.197	14271
858.331	14073
858.464	14126
858.597	14069
858.731	14077
858.864	14130
858.997	14176
859.13	14161
859.263	14256
859.396	14294
859.529	14206
859.662	14126
859.795	14149
859.928	14191
860.061	14267
860.194	14290
860.327	14149
860.46	14191
860.592	14176
860.725	14206
860.858	14237
860.99	14145
861.123	14069
861.256	14084
861.388	14103
861.521	14921
861.653	14138
861.786	13936
861.918	14069
862.05	14065
862.183	14172
862.315	14123
862.447	14278
862.58	14031
862.712	13989
862.844	13871
862.976	14065
863.108	13982
863.24	14317
863.372	13868
863.504	13993
863.636	13871
863.768	13963
863.9	13963
864.032	13871
864.164	13841
864.296	13970
864.428	14008
864.559	14046
864.691	14092
864.823	14001
864.954	13963
865.086	14012
865.217	13849
865.349	13894
865.48	13909
865.612	13928
865.743	14115
865.875	14008
866.006	13909
866.137	13879
866.269	13860
866.4	13860
866.531	13940
866.662	13917
866.793	13902
866.924	13864
867.055	13906
867.186	13868
867.317	13879
867.448	13826
867.579	13879
867.71	13837
867.841	13845
867.972	13917
868.103	13993
868.233	13906
868.364	13917
868.495	14001
868.625	14252
868.756	14248
868.886	14161
869.017	14142
869.147	14290
869.278	14271
869.408	14168
869.539	14225
869.669	14172
869.799	14142
869.929	14282
870.06	14309
870.19	14492
870.32	14499
870.45	14431
870.58	14617
870.71	14644
870.84	14712
870.97	14533
871.1	14461
871.23	14796
871.36	14743
871.489	14689
871.619	14739
871.749	14667
871.879	14815
872.008	14937
872.138	14792
872.267	14781
872.397	14651
872.526	14568
872.656	14537
872.785	14697
872.915	14804
873.044	14895
873.173	14857
873.303	14876
873.432	14899
873.561	14842
873.69	14746
873.819	14796
873.948	14929
874.077	14750
874.206	14864
874.335	14857
874.464	14998
874.593	15100
874.722	15051
874.851	15165
874.979	15199
875.108	15142
875.237	15097
875.365	15047
875.494	15081
875.623	15173
875.751	15165
875.88	15157
876.008	15348
876.136	15393
876.265	15469
876.393	15690
876.521	15667
876.65	15603
876.778	15576
876.906	15481
877.034	15587
877.162	15568
877.29	15584
877.418	15496
877.546	15534
877.674	15542
877.802	15591
877.93	15580
878.058	15397
878.185	15504
878.313	15466
878.441	15526
878.568	15439
878.696	15458
878.824	15603
878.951	15652
879.079	15682
879.206	15869
879.333	15732
879.461	15580
879.588	15652
879.715	15705
879.842	15846
879.97	15618
880.097	15370
880.224	15439
880.351	15473
880.478	15370
880.605	15374
880.732	15374
880.859	15694
880.986	15485
881.112	15431
881.239	15329
881.366	15165
881.493	15085
881.619	15161
881.746	15081
881.872	15085
881.999	15093
882.125	15032
882.252	15028
882.378	15142
882.505	15199
882.631	15058
882.757	14918
882.883	14902
883.01	14895
883.136	14777
883.262	14686
883.388	14701
883.514	14914
883.64	14990
883.766	14883
883.892	14686
884.018	14712
884.143	14887
884.269	14941
884.395	14670
884.52	14659
884.646	14644
884.772	14465
884.897	14442
885.023	14651
885.148	14735
885.274	14743
885.399	14594
885.524	14556
885.65	14735
885.775	14701
885.9	14644
886.025	14724
886.15	14674
886.275	14556
886.4	14545
886.525	14610
886.65	14590
886.775	14465
886.9	14765
887.025	14880
887.149	14571
887.274	14480
887.399	14423
887.523	14389
887.648	14358
887.773	14294
887.897	14488
888.021	14469
888.146	14427
888.27	14495
888.395	14514
888.519	14469
888.643	14427
888.767	14530
888.891	14393
889.015	14275
889.139	14282
889.263	14244
889.387	14404
889.511	14518
889.635	14457
889.759	14275
889.883	14263
890.006	14294
890.13	14415
890.254	14126
890.377	14267
890.501	14111
890.624	14119
890.748	14134
890.871	14123
890.995	13902
891.118	13925
891.241	13955
891.364	14001
891.488	14153
891.611	13913
891.734	13982
891.857	14012
891.98	14046
892.103	14043
892.226	13959
892.349	13852
892.471	13947
892.594	13944
892.717	13944
892.839	13944
892.962	14065
893.085	13989
893.207	13955
893.33	13906
893.452	13967
893.575	14039
893.697	13925
893.819	14218
893.941	14244
894.064	14218
894.186	13967
894.308	13963
894.43	14039
894.552	14126
894.674	14153
894.796	13913
894.918	14046
895.04	13959
895.161	14157
895.283	14035
895.405	13982
895.526	14031
895.648	14149
895.769	14088
895.891	14195
896.012	14218
896.134	14103
896.255	14176
896.376	14202
896.498	14123
896.619	14244
896.74	14138
896.861	14161
896.982	14450
897.103	14594
897.224	14499
897.345	14381
897.466	14336
897.587	14317
897.708	14484
897.828	14503
897.949	14408
898.07	14355
898.19	14396
898.311	14484
898.431	14488
898.552	14522
898.672	14613
898.792	14689
898.913	14610
899.033	14518
899.153	14488
899.273	14271
899.393	14336
899.513	14324
899.633	14336
899.753	14294
899.873	14278
899.993	14457
900.113	14442
900.232	14431
900.352	14400
900.472	14237
900.591	14195
900.711	14252
900.83	14244
900.95	14358
901.069	14313
901.189	14176
901.308	14027
901.427	14016
901.546	13906
901.665	13997
901.784	13940
901.904	13822
902.023	13704
902.141	13514
902.26	13552
902.379	13575
902.498	13480
902.617	13453
902.735	13510
902.854	13525
902.973	13407
903.091	13217
903.21	13183
903.328	13179
903.446	13206
903.565	12996
903.683	13088
903.801	12924
903.919	13000
904.038	13084
904.156	12867
904.274	12970
904.392	12859
904.51	12825
904.627	12783
904.745	12909
904.863	12981
904.981	12684
905.098	12551
905.216	12612
905.334	12582
905.451	12528
905.569	12479
905.686	12612
905.803	12528
905.921	12372
906.038	12494
906.155	12403
906.272	12190
906.389	12372
906.506	12224
906.623	12182
906.74	12117
906.857	12057
906.974	12095
907.091	12228
907.208	12376
907.324	12254
907.441	12045
907.557	11920
907.674	11916
907.79	11931
907.907	11855
908.023	11904
908.139	11870
908.256	11840
908.372	11821
908.488	11824
908.604	11668
908.72	11638
908.836	11703
908.952	11570
909.068	11665
909.184	11764
909.3	11623
909.415	11668
909.531	11688
909.647	11448
909.762	11448
909.878	11440
909.993	11463
910.108	11440
910.224	11414
910.339	11376
910.454	11356
910.57	11303
910.685	11239
910.8	11471
910.915	11486
911.03	11318
911.145	11155
911.259	11189
911.374	11166
911.489	11010
911.604	11086
911.718	10904
911.833	10972
911.947	10679
912.062	10729
912.176	10858
912.291	10927
912.405	10946
912.519	11147
912.633	11048
912.748	10923
912.862	10911
912.976	10843
913.09	10630
913.204	10843
913.318	10858
913.431	10862
913.545	10843
913.659	10942
913.772	10736
913.886	10660
914	10668
914.113	10725
914.226	10774
914.34	10721
914.453	10527
914.566	10767
914.68	10569
914.793	10664
914.906	10436
915.019	10272
915.132	10325
915.245	10409
915.358	10402
915.47	10432
915.583	10451
915.696	10462
915.809	10607
915.921	10558
916.034	10417
916.146	10303
916.259	10379
916.371	10432
916.483	10424
916.595	10325
916.708	10363
916.82	10280
916.932	10379
917.044	10405
917.156	10295
917.268	10215
917.38	10204
917.491	10204
917.603	10268
917.715	10363
917.826	10295
917.938	10280
918.049	10109
918.161	10310
918.272	10398
918.384	10352
918.495	10253
918.606	10067
918.717	10071
918.828	10055
918.939	10131
919.05	10017
919.161	10154
919.272	9987
919.383	10002
919.494	10230
919.604	10280
919.715	10188
919.826	10169
919.936	10063
920.047	10257
920.157	10143
920.267	10394
920.378	10227
920.488	10093
920.598	10363
920.708	10523
920.818	10310
920.928	10394
921.038	10527
921.148	10470
921.258	10238
921.368	10166
921.477	9979
921.587	9975
921.697	9876
921.806	10025
921.916	9861
922.025	9762
922.134	9747
922.244	9633
922.353	9766
922.462	9622
922.571	9515
922.68	9405
922.789	9348
922.898	9367
923.007	9351
923.116	9408
923.224	9378
923.333	9420
923.442	9340
923.55	9287
923.659	9370
923.767	9424
923.876	9279
923.984	9397
924.092	9188
924.201	9245
924.309	9268
924.417	9249
924.525	9222
924.633	9222
924.741	10177
924.849	8990
924.956	9165
925.064	8990
925.172	8971
925.279	9043
925.387	9055
925.494	8982
925.602	9211
925.709	9188
925.816	8979
925.924	9009
926.031	9142
926.138	9081
926.245	9173
926.352	9039
926.459	9085
926.566	9165
926.673	9020
926.779	8910
926.886	8845
926.993	8785
927.099	8739
927.206	8720
927.312	8720
927.419	8800
927.525	8762
927.631	8842
927.737	8716
927.843	8701
927.95	8621
928.056	8648
928.162	8712
928.267	8697
928.373	9233
928.479	8785
928.585	8541
928.69	8640
928.796	8712
928.901	8594
929.007	8469
929.112	8590
929.218	8590
929.323	8526
929.428	8495
929.533	8663
929.638	8465
929.743	8499
929.848	8587
929.953	8507
930.058	8415
930.163	8233
930.267	8336
930.372	8336
930.477	8320
930.581	8412
930.685	8355
930.79	8164
930.894	8290
930.998	8221
931.103	8358
931.207	8020
931.311	7974
931.415	7936
931.519	7715
931.623	7696
