Data from test_V78500241_873.txt Node
Date: Fri Mar 25 14:39:47 CST 2022
User: usil
Spectrometer: V785-0024
Trigger mode: 0
Integration Time (sec): 4.000000E-1
Scans to average: 1
Nonlinearity correction enabled: false
Boxcar width: 0
Storing dark spectrum: false
XAxis mode: Wavelengths
Number of Pixels in Spectrum: 1024
>>>>>Begin Spectral Data<<<<<
801.071	25613
801.214	25616
801.356	25221
801.499	25179
801.641	25034
801.783	25065
801.926	24992
802.068	24875
802.211	24654
802.353	24601
802.496	24521
802.638	24365
802.78	24479
802.923	24350
803.065	24251
803.208	24258
803.35	24251
803.492	24353
803.635	24456
803.777	24285
803.919	24418
804.061	24722
804.204	24559
804.346	24376
804.488	24224
804.63	24330
804.773	24254
804.915	24395
805.057	24471
805.199	24490
805.341	24471
805.483	24494
805.626	24604
805.768	24437
805.91	24441
806.052	24604
806.194	24608
806.336	24894
806.478	24817
806.62	24894
806.762	25122
806.904	25221
807.046	25674
807.188	25635
807.33	25837
807.472	26035
807.614	26202
807.756	26830
807.898	26929
808.04	27485
808.182	28207
808.324	29079
808.465	30213
808.607	31510
808.749	32697
808.891	33271
809.033	33401
809.174	32522
809.316	31518
809.458	30281
809.6	29094
809.741	28147
809.883	27405
810.025	26921
810.166	26514
810.308	26256
810.45	26035
810.591	25852
810.733	25430
810.875	25331
811.016	25164
811.158	25053
811.299	25088
811.441	25076
811.582	25080
811.724	24894
811.865	24768
812.007	24810
812.148	24798
812.29	24867
812.431	24821
812.573	25129
812.714	25160
812.855	25217
812.997	25228
813.138	25441
813.279	25202
813.421	25099
813.562	24985
813.703	24856
813.845	24719
813.986	24407
814.127	24235
814.268	24273
814.41	24338
814.551	24213
814.692	24129
814.833	24041
814.974	24110
815.115	24079
815.256	23821
815.397	23874
815.539	23821
815.68	23828
815.821	23722
815.962	23684
816.103	23764
816.244	23570
816.385	23493
816.526	23467
816.666	23326
816.807	23193
816.948	23246
817.089	23318
817.23	23136
817.371	23250
817.512	23052
817.653	23090
817.793	23037
817.934	23083
818.075	23159
818.216	23117
818.356	22938
818.497	22850
818.638	22694
818.778	22797
818.919	22755
819.06	22755
819.2	22839
819.341	22911
819.481	22934
819.622	23140
819.762	23204
819.903	23193
820.043	22991
820.184	23136
820.324	23067
820.465	22987
820.605	22999
820.746	23025
820.886	22923
821.026	22968
821.167	22866
821.307	23014
821.447	22869
821.588	22843
821.728	22656
821.868	22424
822.008	22303
822.149	22367
822.289	22284
822.429	21911
822.569	21884
822.709	22063
822.849	21743
822.99	21819
823.13	21755
823.27	21679
823.41	21545
823.55	21500
823.69	21637
823.83	21530
823.97	21534
824.11	21332
824.25	21310
824.389	21154
824.529	21378
824.669	21294
824.809	21538
824.949	21370
825.089	21378
825.228	21386
825.368	21237
825.508	21291
825.648	21138
825.787	21089
825.927	21203
826.067	21108
826.206	21146
826.346	21104
826.485	21154
826.625	21058
826.765	21298
826.904	21051
827.044	20914
827.183	20819
827.323	20781
827.462	20781
827.601	20811
827.741	20785
827.88	20765
828.02	20640
828.159	20697
828.298	20815
828.437	20811
828.577	20663
828.716	20887
828.855	20773
828.994	20530
829.134	20454
829.273	20552
829.412	20492
829.551	20423
829.69	20389
829.829	20492
829.968	20533
830.107	20461
830.246	20480
830.385	20358
830.524	20233
830.663	20183
830.802	20210
830.941	20012
831.08	20005
831.219	20088
831.357	20107
831.496	20313
831.635	20043
831.774	19936
831.913	19879
832.051	19803
832.19	19852
832.329	19898
832.467	19799
832.606	19791
832.744	19712
832.883	19765
833.022	19788
833.16	19875
833.299	20012
833.437	19894
833.576	19978
833.714	20058
833.852	20161
833.991	20103
834.129	20259
834.267	20237
834.406	20130
834.544	20275
834.682	20081
834.821	19970
834.959	20191
835.097	19841
835.235	19978
835.373	19947
835.511	19940
835.65	19746
835.788	19723
835.926	19468
836.064	19400
836.202	19506
836.34	19495
836.478	19689
836.615	19567
836.753	19567
836.891	19693
837.029	19647
837.167	19438
837.305	19533
837.443	19445
837.58	19388
837.718	19502
837.856	19464
837.993	19263
838.131	19419
838.269	19297
838.406	19259
838.544	19110
838.681	19187
838.819	19091
838.956	18863
839.094	18852
839.231	18943
839.369	19012
839.506	19289
839.643	19114
839.781	18909
839.918	18779
840.055	18848
840.193	18810
840.33	18734
840.467	18924
840.604	18935
840.742	19122
840.879	18692
841.016	18692
841.153	18753
841.29	18939
841.427	18814
841.564	18935
841.701	18844
841.838	18745
841.975	18665
842.112	18791
842.249	18559
842.385	18513
842.522	18814
842.659	18673
842.796	18547
842.933	18715
843.069	18597
843.206	18467
843.343	18616
843.479	18608
843.616	18620
843.752	18399
843.889	18391
844.025	18585
844.162	18452
844.298	18616
844.435	18456
844.571	18612
844.708	18753
844.844	18962
844.98	19118
845.117	19339
845.253	19586
845.389	19970
845.525	21359
845.661	23181
845.798	25590
845.934	27667
846.07	28417
846.206	28131
846.342	26708
846.478	24205
846.614	21835
846.75	20225
846.886	19499
847.022	19042
847.158	18669
847.294	18490
847.429	18350
847.565	18064
847.701	18350
847.837	17748
847.972	17699
848.108	17828
848.244	17802
848.379	17547
848.515	17570
848.65	17577
848.786	17509
848.921	17512
849.057	17573
849.192	17493
849.328	17566
849.463	17532
849.598	17535
849.734	17337
849.869	17345
850.004	17197
850.14	17265
850.275	17326
850.41	17178
850.545	17105
850.68	17231
850.815	17311
850.95	17075
851.085	17429
851.22	17284
851.355	17261
851.49	17136
851.625	17151
851.76	17102
851.895	17121
852.03	17075
852.165	17033
852.299	17242
852.434	17265
852.569	17216
852.703	17280
852.838	17299
852.973	17414
853.107	17360
853.242	17151
853.376	17102
853.511	17018
853.645	17064
853.78	17299
853.914	17136
854.048	17109
854.183	17212
854.317	17189
854.451	17364
854.585	17223
854.72	17128
854.854	17239
854.988	17132
855.122	17166
855.256	16934
855.39	17075
855.524	17132
855.658	17117
855.792	17075
855.926	17022
856.06	17075
856.194	17143
856.327	17105
856.461	16881
856.595	16930
856.729	16965
856.862	17045
856.996	17022
857.13	17037
857.263	17075
857.397	17052
857.53	16999
857.664	17090
857.797	17124
857.931	17189
858.064	17003
858.197	17003
858.331	16946
858.464	16976
858.597	16858
858.731	16976
858.864	16965
858.997	16881
859.13	16946
859.263	16904
859.396	16999
859.529	16980
859.662	16946
859.795	16938
859.928	17060
860.061	17083
860.194	17045
860.327	16953
860.46	16843
860.592	17022
860.725	17079
860.858	17064
860.99	16927
861.123	16999
861.256	16900
861.388	16968
861.521	17623
861.653	16889
861.786	16790
861.918	16820
862.05	16850
862.183	16873
862.315	16987
862.447	16934
862.58	17003
862.712	16752
862.844	16656
862.976	16843
863.108	16733
863.24	16896
863.372	16637
863.504	16691
863.636	16664
863.768	16622
863.9	16713
864.032	16577
864.164	16672
864.296	16744
864.428	16725
864.559	16691
864.691	16706
864.823	16706
864.954	16691
865.086	16698
865.217	16672
865.349	16603
865.48	16485
865.612	16580
865.743	16793
865.875	16694
866.006	16588
866.137	16516
866.269	16615
866.4	16641
866.531	16546
866.662	16550
866.793	16641
866.924	16542
867.055	16626
867.186	16618
867.317	16527
867.448	16478
867.579	16634
867.71	16405
867.841	16573
867.972	16599
868.103	16592
868.233	16497
868.364	16466
868.495	16721
868.625	16771
868.756	16946
868.886	16740
869.017	16744
869.147	16949
869.278	16930
869.408	16786
869.539	16847
869.669	16946
869.799	16790
869.929	16911
870.06	16934
870.19	17151
870.32	17136
870.45	17140
870.58	17227
870.71	17345
870.84	17414
870.97	17220
871.1	17227
871.23	17474
871.36	17425
871.489	17315
871.619	17425
871.749	17474
871.879	17512
872.008	17691
872.138	17467
872.267	17452
872.397	17296
872.526	17356
872.656	17288
872.785	17288
872.915	17684
873.044	17615
873.173	17600
873.303	17543
873.432	17589
873.561	17680
873.69	17703
873.819	17497
873.948	17672
874.077	17566
874.206	17509
874.335	17611
874.464	17733
874.593	17866
874.722	17863
874.851	18015
874.979	18034
875.108	17942
875.237	17954
875.365	17923
875.494	18060
875.623	18117
875.751	17935
875.88	18060
876.008	18273
876.136	18266
876.265	18566
876.393	18734
876.521	18650
876.65	18635
876.778	18555
876.906	18669
877.034	18540
877.162	18665
877.29	18646
877.418	18707
877.546	18772
877.674	18654
877.802	18791
877.93	18837
878.058	18806
878.185	18787
878.313	18996
878.441	19236
878.568	19217
878.696	19392
878.824	19875
878.951	20248
879.079	20842
879.206	21713
879.333	22447
879.461	23018
879.588	23478
879.715	23440
879.842	23315
879.97	22261
880.097	21530
880.224	20853
880.351	20396
880.478	20111
880.605	19830
880.732	19822
880.859	19913
880.986	19601
881.112	19544
881.239	19472
881.366	19240
881.493	19232
881.619	19107
881.746	19171
881.872	19213
881.999	19091
882.125	19069
882.252	19225
882.378	19255
882.505	19521
882.631	19046
882.757	19031
882.883	19152
883.01	19099
883.136	19000
883.262	18829
883.388	18871
883.514	19046
883.64	19050
883.766	18943
883.892	18783
884.018	18882
884.143	18954
884.269	19171
884.395	18829
884.52	18696
884.646	18844
884.772	18700
884.897	18566
885.023	18711
885.148	18646
885.274	18844
885.399	18703
885.524	18677
885.65	18563
885.775	18574
885.9	18502
886.025	18582
886.15	18418
886.275	18254
886.4	18243
886.525	18197
886.65	18201
886.775	18167
886.9	18281
887.025	18289
887.149	18133
887.274	17863
887.399	17771
887.523	17752
887.648	17623
887.773	17642
887.897	17729
888.021	17809
888.146	17543
888.27	17710
888.395	17718
888.519	17707
888.643	17562
888.767	17600
888.891	17524
889.015	17429
889.139	17330
889.263	17425
889.387	17493
889.511	17478
889.635	17467
889.759	17341
889.883	17246
890.006	17273
890.13	17463
890.254	17178
890.377	17258
890.501	16987
890.624	16995
890.748	17083
890.871	16980
890.995	16862
891.118	16656
891.241	16812
891.364	16763
891.488	16965
891.611	16755
891.734	16793
891.857	16736
891.98	16759
892.103	16824
892.226	16797
892.349	16611
892.471	16466
892.594	16656
892.717	16668
892.839	16752
892.962	16683
893.085	16774
893.207	16630
893.33	16546
893.452	16569
893.575	16653
893.697	16558
893.819	16759
893.941	16740
894.064	16740
894.186	16554
894.308	16440
894.43	16721
894.552	16748
894.674	16596
894.796	16561
894.918	16504
895.04	16668
895.161	16531
895.283	16596
895.405	16478
895.526	16485
895.648	16565
895.769	16653
895.891	16603
896.012	16558
896.134	16584
896.255	16588
896.376	16607
896.498	16603
896.619	16664
896.74	16523
896.861	16641
896.982	16987
897.103	17052
897.224	16961
897.345	16767
897.466	16721
897.587	16889
897.708	16915
897.828	16839
897.949	16786
898.07	16660
898.19	16778
898.311	17018
898.431	16877
898.552	16778
898.672	16854
898.792	16934
898.913	16919
899.033	16847
899.153	16752
899.273	16611
899.393	16694
899.513	16763
899.633	16664
899.753	16725
899.873	16656
899.993	16710
900.113	16672
900.232	16831
900.352	16653
900.472	16554
900.591	16500
900.711	16523
900.83	16493
900.95	16618
901.069	16702
901.189	16489
901.308	16325
901.427	16181
901.546	16234
901.665	16154
901.784	16246
901.904	16090
902.023	15964
902.141	15778
902.26	15694
902.379	15789
902.498	15724
902.617	15606
902.735	15667
902.854	15625
902.973	15534
903.091	15504
903.21	15378
903.328	15370
903.446	15252
903.565	15085
903.683	15157
903.801	15192
903.919	15039
904.038	15184
904.156	14948
904.274	15047
904.392	14891
904.51	14872
904.627	14891
904.745	14929
904.863	14975
904.981	14708
905.098	14590
905.216	14602
905.334	14701
905.451	14469
905.569	14587
905.686	14632
905.803	14522
905.921	14381
906.038	14522
906.155	14434
906.272	14301
906.389	14202
906.506	14164
906.623	14084
906.74	14058
906.857	14039
906.974	14077
907.091	14180
907.208	14328
907.324	14119
907.441	14103
907.557	13845
907.674	13715
907.79	13833
907.907	13818
908.023	13814
908.139	13849
908.256	13795
908.372	13696
908.488	13750
908.604	13605
908.72	13487
908.836	13518
908.952	13540
909.068	13590
909.184	13628
909.3	13506
909.415	13636
909.531	13518
909.647	13316
909.762	13343
909.878	13285
909.993	13312
910.108	13251
910.224	13209
910.339	13335
910.454	13114
910.57	13126
910.685	13095
910.8	13373
910.915	13236
911.03	12996
911.145	12954
911.259	12882
911.374	12954
911.489	12837
911.604	12798
911.718	12669
911.833	12700
911.947	12642
912.062	12551
912.176	12601
912.291	12616
912.405	12623
912.519	12890
912.633	12791
912.748	12681
912.862	12635
912.976	12521
913.09	12456
913.204	12433
913.318	12555
913.431	12711
913.545	12639
913.659	12631
913.772	12445
913.886	12361
914	12391
914.113	12448
914.226	12509
914.34	12460
914.453	12315
914.566	12467
914.68	12319
914.793	12399
914.906	12163
915.019	12057
915.132	12064
915.245	12068
915.358	12129
915.47	12159
915.583	12194
915.696	12091
915.809	12216
915.921	12304
916.034	12144
916.146	12095
916.259	12007
916.371	12114
916.483	12095
916.595	11996
916.708	12041
916.82	12041
916.932	11980
917.044	12026
917.156	11939
917.268	11923
917.38	11904
917.491	11969
917.603	11863
917.715	12038
917.826	11901
917.938	11851
918.049	11764
918.161	11843
918.272	12038
918.384	12003
918.495	11855
918.606	11691
918.717	11649
918.828	11733
918.939	11680
919.05	11592
919.161	11707
919.272	11436
919.383	11539
919.494	11737
919.604	11836
919.715	11695
919.826	11592
919.936	11646
920.047	11726
920.157	11722
920.267	11908
920.378	11764
920.488	11703
920.598	11874
920.708	12049
920.818	11828
920.928	11786
921.038	11965
921.148	11927
921.258	11699
921.368	11589
921.477	11543
921.587	11524
921.697	11334
921.806	11425
921.916	11280
922.025	11239
922.134	11121
922.244	11079
922.353	11201
922.462	11094
922.571	11037
922.68	10885
922.789	10801
922.898	10877
923.007	10812
923.116	10938
923.224	10824
923.333	10896
923.442	10721
923.55	10649
923.659	10660
923.767	10752
923.876	10714
923.984	10721
924.092	10599
924.201	10664
924.309	10573
924.417	10672
924.525	10630
924.633	10592
924.741	11410
924.849	10379
924.956	10558
925.064	10432
925.172	10333
925.279	10379
925.387	10455
925.494	10421
925.602	10542
925.709	10451
925.816	10375
925.924	10394
926.031	10455
926.138	10318
926.245	10497
926.352	10337
926.459	10417
926.566	10440
926.673	10299
926.779	10261
926.886	10230
926.993	10124
927.099	10051
927.206	10074
927.312	10002
927.419	10101
927.525	9983
927.631	10074
927.737	10036
927.843	9960
927.95	9854
928.056	9941
928.162	9949
928.267	10029
928.373	10588
928.479	10063
928.585	9831
928.69	9926
928.796	9991
928.901	9884
929.007	9667
929.112	9797
929.218	9793
929.323	9778
929.428	9755
929.533	9892
929.638	9724
929.743	9713
929.848	9797
929.953	9667
930.058	9618
930.163	9424
930.267	9481
930.372	9648
930.477	9492
930.581	9717
930.685	9496
930.79	9405
930.894	9386
930.998	9294
931.103	9515
931.207	9230
931.311	9093
931.415	8979
931.519	8876
931.623	8819
