Data from test_V78500241_2568.txt Node
Date: Fri Mar 25 14:51:35 CST 2022
User: usil
Spectrometer: V785-0024
Trigger mode: 0
Integration Time (sec): 4.000000E-1
Scans to average: 1
Nonlinearity correction enabled: false
Boxcar width: 0
Storing dark spectrum: false
XAxis mode: Wavelengths
Number of Pixels in Spectrum: 1024
>>>>>Begin Spectral Data<<<<<
801.071	22040
801.214	21968
801.356	21713
801.499	21724
801.641	21469
801.783	21393
801.926	21420
802.068	21420
802.211	21207
802.353	21233
802.496	20895
802.638	20948
802.78	20845
802.923	20792
803.065	20750
803.208	20785
803.35	20796
803.492	20819
803.635	20918
803.777	20606
803.919	20845
804.061	21017
804.204	20743
804.346	20667
804.488	20659
804.63	20724
804.773	20621
804.915	20655
805.057	20754
805.199	20617
805.341	20648
805.483	20880
805.626	20727
805.768	20651
805.91	20735
806.052	20530
806.194	20511
806.336	20796
806.478	20636
806.62	20583
806.762	20697
806.904	20769
807.046	20975
807.188	20982
807.33	20891
807.472	21047
807.614	20823
807.756	20811
807.898	20849
808.04	20655
808.182	20785
808.324	20716
808.465	20769
808.607	20960
808.749	21001
808.891	21077
809.033	21135
809.174	21017
809.316	20929
809.458	20811
809.6	20937
809.741	21093
809.883	21032
810.025	21066
810.166	21157
810.308	21127
810.45	21028
810.591	21039
810.733	20880
810.875	20804
811.016	20674
811.158	20746
811.299	20830
811.441	20876
811.582	20819
811.724	20773
811.865	20864
812.007	20731
812.148	20781
812.29	20861
812.431	20963
812.573	21085
812.714	21142
812.855	21237
812.997	21424
813.138	21542
813.279	21428
813.421	21241
813.562	21100
813.703	21032
813.845	20956
813.986	20594
814.127	20507
814.268	20351
814.41	20290
814.551	20450
814.692	20400
814.833	20168
814.974	20278
815.115	20339
815.256	20210
815.397	20214
815.539	20195
815.68	20016
815.821	20043
815.962	20020
816.103	19887
816.244	19841
816.385	19708
816.526	19647
816.666	19693
816.807	19533
816.948	19521
817.089	19590
817.23	19521
817.371	19259
817.512	19445
817.653	19411
817.793	19358
817.934	19449
818.075	19544
818.216	19403
818.356	19415
818.497	19350
818.638	19129
818.778	19145
818.919	19126
819.06	19217
819.2	19206
819.341	19282
819.481	19354
819.622	19506
819.762	19689
819.903	19556
820.043	19544
820.184	19400
820.324	19403
820.465	19586
820.605	19400
820.746	19419
820.886	19282
821.026	19415
821.167	19324
821.307	19400
821.447	19384
821.588	19297
821.728	19148
821.868	19065
822.008	18745
822.149	18795
822.289	18749
822.429	18509
822.569	18517
822.709	18593
822.849	18369
822.99	18353
823.13	18266
823.27	18315
823.41	18057
823.55	18201
823.69	18171
823.83	18121
823.97	18133
824.11	17939
824.25	17836
824.389	17805
824.529	18060
824.669	18079
824.809	17961
824.949	17931
825.089	17980
825.228	17908
825.368	17630
825.508	17798
825.648	17630
825.787	17813
825.927	17710
826.067	17634
826.206	17668
826.346	17642
826.485	17634
826.625	17676
826.765	17699
826.904	17684
827.044	17429
827.183	17379
827.323	17368
827.462	17577
827.601	17398
827.741	17360
827.88	17440
828.02	17246
828.159	17296
828.298	17379
828.437	17452
828.577	17261
828.716	17471
828.855	17326
828.994	17208
829.134	17227
829.273	17170
829.412	17311
829.551	16976
829.69	17113
829.829	17102
829.968	17269
830.107	17090
830.246	17117
830.385	17014
830.524	17037
830.663	16938
830.802	16854
830.941	16717
831.08	16653
831.219	16812
831.357	16774
831.496	16900
831.635	16771
831.774	16687
831.913	16546
832.051	16519
832.19	16447
832.329	16675
832.467	16497
832.606	16306
832.744	16409
832.883	16443
833.022	16360
833.16	16470
833.299	16493
833.437	16474
833.576	16561
833.714	16436
833.852	16538
833.991	16478
834.129	16558
834.267	16516
834.406	16440
834.544	16432
834.682	16493
834.821	16493
834.959	16717
835.097	16478
835.235	16599
835.373	16531
835.511	16588
835.65	16447
835.788	16352
835.926	16226
836.064	16192
836.202	16188
836.34	16512
836.478	16474
836.615	16337
836.753	16436
836.891	16478
837.029	16390
837.167	16417
837.305	16375
837.443	16242
837.58	16261
837.718	16367
837.856	16291
837.993	16223
838.131	16306
838.269	16211
838.406	16306
838.544	16048
838.681	15945
838.819	15975
838.956	15770
839.094	15827
839.231	15892
839.369	16021
839.506	16219
839.643	16036
839.781	15854
839.918	15800
840.055	15892
840.193	15861
840.33	15766
840.467	15842
840.604	15762
840.742	16131
840.879	15671
841.016	15671
841.153	15770
841.29	15983
841.427	15823
841.564	15766
841.701	15838
841.838	15743
841.975	15686
842.112	15876
842.249	15724
842.385	15507
842.522	15709
842.659	15545
842.796	15629
842.933	15648
843.069	15553
843.206	15515
843.343	15736
843.479	15549
843.616	15675
843.752	15332
843.889	15397
844.025	15504
844.162	15408
844.298	15622
844.435	15473
844.571	15306
844.708	15481
844.844	15599
844.98	15542
845.117	15462
845.253	15408
845.389	15195
845.525	15287
845.661	15260
845.798	15173
845.934	15291
846.07	15184
846.206	15260
846.342	15412
846.478	15142
846.614	15024
846.75	14914
846.886	14880
847.022	15043
847.158	14941
847.294	14960
847.429	15028
847.565	14910
847.701	15192
847.837	14819
847.972	14716
848.108	14815
848.244	14765
848.379	14629
848.515	14522
848.65	14552
848.786	14560
848.921	14518
849.057	14594
849.192	14655
849.328	14678
849.463	14594
849.598	14556
849.734	14469
849.869	14446
850.004	14309
850.14	14404
850.275	14301
850.41	14332
850.545	14358
850.68	14309
850.815	14347
850.95	14324
851.085	14499
851.22	14393
851.355	14366
851.49	14259
851.625	14343
851.76	14347
851.895	14286
852.03	14183
852.165	14358
852.299	14294
852.434	14419
852.569	14393
852.703	14385
852.838	14484
852.973	14537
853.107	14514
853.242	14244
853.376	14062
853.511	14130
853.645	14172
853.78	14248
853.914	14244
854.048	14218
854.183	14252
854.317	14233
854.451	14358
854.585	14202
854.72	14168
854.854	14343
854.988	14054
855.122	14206
855.256	14073
855.39	14278
855.524	14336
855.658	14286
855.792	14328
855.926	14240
856.06	14328
856.194	14263
856.327	14172
856.461	14138
856.595	14126
856.729	14256
856.862	14351
856.996	14240
857.13	14400
857.263	14298
857.397	14229
857.53	14180
857.664	14336
857.797	14396
857.931	14374
858.064	14328
858.197	14298
858.331	14229
858.464	14225
858.597	14123
858.731	14233
858.864	14206
858.997	14191
859.13	14377
859.263	14221
859.396	14252
859.529	14164
859.662	14267
859.795	14176
859.928	14256
860.061	14400
860.194	14332
860.327	14244
860.46	14214
860.592	14450
860.725	14320
860.858	14313
860.99	14229
861.123	14126
861.256	14134
861.388	14259
861.521	14929
861.653	14126
861.786	14027
861.918	14031
862.05	14130
862.183	14096
862.315	14248
862.447	14225
862.58	14161
862.712	13997
862.844	13944
862.976	14050
863.108	14031
863.24	14442
863.372	13951
863.504	14008
863.636	14103
863.768	14024
863.9	14054
864.032	13951
864.164	13978
864.296	14005
864.428	14081
864.559	14134
864.691	14126
864.823	14176
864.954	14100
865.086	14024
865.217	13947
865.349	13940
865.48	13986
865.612	14005
865.743	14161
865.875	14062
866.006	13928
866.137	14035
866.269	13940
866.4	14035
866.531	13978
866.662	13879
866.793	13970
866.924	13936
867.055	13993
867.186	13970
867.317	13944
867.448	13856
867.579	13879
867.71	13936
867.841	13845
867.972	13970
868.103	13917
868.233	14012
868.364	14103
868.495	14050
868.625	14119
868.756	14309
868.886	14107
869.017	14218
869.147	14358
869.278	14393
869.408	14263
869.539	14286
869.669	14393
869.799	14275
869.929	14275
870.06	14339
870.19	14636
870.32	14579
870.45	14541
870.58	14648
870.71	14724
870.84	14765
870.97	14659
871.1	14636
871.23	14830
871.36	14804
871.489	14765
871.619	14792
871.749	14876
871.879	14872
872.008	14914
872.138	14834
872.267	14777
872.397	14686
872.526	14667
872.656	14613
872.785	14651
872.915	14788
873.044	14899
873.173	14925
873.303	14914
873.432	14872
873.561	14883
873.69	14891
873.819	14868
873.948	15051
874.077	14876
874.206	14899
874.335	14842
874.464	15039
874.593	15211
874.722	15150
874.851	15207
874.979	15264
875.108	15268
875.237	15230
875.365	15119
875.494	15157
875.623	15272
875.751	15135
875.88	15279
876.008	15351
876.136	15504
876.265	15618
876.393	15732
876.521	15671
876.65	15698
876.778	15625
876.906	15606
877.034	15587
877.162	15614
877.29	15564
877.418	15663
877.546	15576
877.674	15568
877.802	15610
877.93	15595
878.058	15564
878.185	15492
878.313	15682
878.441	15603
878.568	15336
878.696	15542
878.824	15633
878.951	15713
879.079	15857
879.206	15903
879.333	15747
879.461	15641
879.588	15709
879.715	15827
879.842	15861
879.97	15819
880.097	15507
880.224	15504
880.351	15488
880.478	15534
880.605	15435
880.732	15340
880.859	15701
880.986	15549
881.112	15439
881.239	15386
881.366	15226
881.493	15268
881.619	15077
881.746	15020
881.872	15138
881.999	15089
882.125	15119
882.252	15116
882.378	15180
882.505	15211
882.631	14952
882.757	15036
882.883	14933
883.01	14895
883.136	14952
883.262	14720
883.388	14754
883.514	14986
883.64	14956
883.766	14986
883.892	14762
884.018	14804
884.143	14906
884.269	14986
884.395	14610
884.52	14678
884.646	14640
884.772	14484
884.897	14537
885.023	14739
885.148	14777
885.274	14849
885.399	14762
885.524	14632
885.65	14731
885.775	14621
885.9	14678
886.025	14876
886.15	14697
886.275	14594
886.4	14530
886.525	14545
886.65	14556
886.775	14568
886.9	14842
887.025	14773
887.149	14674
887.274	14419
887.399	14499
887.523	14446
887.648	14473
887.773	14362
887.897	14476
888.021	14549
888.146	14454
888.27	14636
888.395	14613
888.519	14587
888.643	14533
888.767	14621
888.891	14404
889.015	14332
889.139	14347
889.263	14320
889.387	14366
889.511	14530
889.635	14518
889.759	14355
889.883	14301
890.006	14408
890.13	14362
890.254	14286
890.377	14263
890.501	14187
890.624	14172
890.748	14145
890.871	14107
890.995	14031
891.118	14103
891.241	14092
891.364	14031
891.488	14149
891.611	14065
891.734	14142
891.857	14107
891.98	14046
892.103	14142
892.226	14005
892.349	14046
892.471	13856
892.594	13928
892.717	14069
892.839	14008
892.962	13978
893.085	14180
893.207	14043
893.33	13902
893.452	13997
893.575	14058
893.697	14081
893.819	14130
893.941	14240
894.064	14195
894.186	14024
894.308	13974
894.43	14138
894.552	14256
894.674	14115
894.796	14069
894.918	14096
895.04	14126
895.161	14164
895.283	14153
895.405	14054
895.526	14142
895.648	14157
895.769	14202
895.891	14134
896.012	14278
896.134	14187
896.255	14259
896.376	14191
896.498	14282
896.619	14252
896.74	14202
896.861	14278
896.982	14590
897.103	14735
897.224	14613
897.345	14484
897.466	14423
897.587	14522
897.708	14621
897.828	14480
897.949	14328
898.07	14320
898.19	14495
898.311	14571
898.431	14488
898.552	14583
898.672	14667
898.792	14590
898.913	14598
899.033	14507
899.153	14404
899.273	14305
899.393	14465
899.513	14469
899.633	14473
899.753	14434
899.873	14389
899.993	14495
900.113	14431
900.232	14351
900.352	14366
900.472	14366
900.591	14123
900.711	14278
900.83	14275
900.95	14393
901.069	14324
901.189	14244
901.308	14008
901.427	13913
901.546	13947
901.665	14043
901.784	13986
901.904	13830
902.023	13727
902.141	13537
902.26	13537
902.379	13636
902.498	13518
902.617	13388
902.735	13590
902.854	13594
902.973	13468
903.091	13266
903.21	13362
903.328	13221
903.446	13240
903.565	13012
903.683	13187
903.801	13027
903.919	13103
904.038	13084
904.156	12882
904.274	12951
904.392	12920
904.51	12973
904.627	12875
904.745	12973
904.863	12981
904.981	12760
905.098	12665
905.216	12627
905.334	12654
905.451	12631
905.569	12669
905.686	12604
905.803	12623
905.921	12486
906.038	12536
906.155	12414
906.272	12361
906.389	12376
906.506	12270
906.623	12186
906.74	12182
906.857	12079
906.974	12136
907.091	12319
907.208	12372
907.324	12190
907.441	12148
907.557	12030
907.674	12007
907.79	11843
907.907	11851
908.023	11980
908.139	11965
908.256	11870
908.372	11832
908.488	11859
908.604	11748
908.72	11668
908.836	11790
908.952	11642
909.068	11741
909.184	11870
909.3	11707
909.415	11821
909.531	11684
909.647	11478
909.762	11429
909.878	11452
909.993	11463
910.108	11554
910.224	11406
910.339	11497
910.454	11364
910.57	11258
910.685	11197
910.8	11532
910.915	11554
911.03	11444
911.145	11246
911.259	11181
911.374	11181
911.489	11094
911.604	11102
911.718	11048
911.833	10984
911.947	10889
912.062	10797
912.176	10881
912.291	10965
912.405	10949
912.519	11151
912.633	11159
912.748	11067
912.862	10949
912.976	10847
913.09	10714
913.204	10778
913.318	10790
913.431	10896
913.545	10934
913.659	10885
913.772	10885
913.886	10744
914	10771
914.113	10850
914.226	10824
914.34	10805
914.453	10561
914.566	10839
914.68	10721
914.793	10691
914.906	10519
915.019	10394
915.132	10348
915.245	10443
915.358	10470
915.47	10451
915.583	10459
915.696	10474
915.809	10569
915.921	10607
916.034	10451
916.146	10424
916.259	10398
916.371	10474
916.483	10493
916.595	10348
916.708	10314
916.82	10341
916.932	10306
917.044	10322
917.156	10291
917.268	10249
917.38	10261
917.491	10306
917.603	10356
917.715	10402
917.826	10398
917.938	10204
918.049	10139
918.161	10295
918.272	10424
918.384	10375
918.495	10310
918.606	10162
918.717	10181
918.828	10238
918.939	10177
919.05	10051
919.161	10124
919.272	9972
919.383	10059
919.494	10207
919.604	10413
919.715	10124
919.826	10044
919.936	10093
920.047	10200
920.157	10154
920.267	10363
920.378	10215
920.488	10166
920.598	10440
920.708	10527
920.818	10337
920.928	10310
921.038	10519
921.148	10455
921.258	10188
921.368	10139
921.477	10067
921.587	10013
921.697	9964
921.806	10059
921.916	9895
922.025	9816
922.134	9698
922.244	9751
922.353	9785
922.462	9618
922.571	9557
922.68	9428
922.789	9408
922.898	9443
923.007	9431
923.116	9496
923.224	9435
923.333	9363
923.442	9370
923.55	9313
923.659	9306
923.767	9359
923.876	9317
923.984	9382
924.092	9207
924.201	9340
924.309	9306
924.417	9374
924.525	9245
924.633	9245
924.741	9964
924.849	9070
924.956	9218
925.064	9058
925.172	8937
925.279	9081
925.387	9104
925.494	9085
925.602	9222
925.709	9138
925.816	9089
925.924	9062
926.031	9203
926.138	9062
926.245	9150
926.352	8982
926.459	9142
926.566	9161
926.673	9066
926.779	8948
926.886	9017
926.993	8804
927.099	8826
927.206	8792
927.312	8750
927.419	8826
927.525	8830
927.631	8842
927.737	8788
927.843	8720
927.95	8636
928.056	8629
928.162	8731
928.267	8773
928.373	9382
928.479	8804
928.585	8537
928.69	8689
928.796	8777
928.901	8682
929.007	8560
929.112	8667
929.218	8598
929.323	8552
929.428	8564
929.533	8682
929.638	8396
929.743	8499
929.848	8556
929.953	8526
930.058	8446
930.163	8259
930.267	8305
930.372	8518
930.477	8248
930.581	8556
930.685	8442
930.79	8161
930.894	8256
930.998	8256
931.103	8381
931.207	8050
931.311	7989
931.415	7894
931.519	7811
931.623	7772
