Data from test_V78500241_1271.txt Node
Date: Fri Mar 25 14:42:33 CST 2022
User: usil
Spectrometer: V785-0024
Trigger mode: 0
Integration Time (sec): 4.000000E-1
Scans to average: 1
Nonlinearity correction enabled: false
Boxcar width: 0
Storing dark spectrum: false
XAxis mode: Wavelengths
Number of Pixels in Spectrum: 1024
>>>>>Begin Spectral Data<<<<<
801.071	22428
801.214	22268
801.356	21979
801.499	21945
801.641	21838
801.783	21633
801.926	21747
802.068	21671
802.211	21625
802.353	21587
802.496	21348
802.638	21218
802.78	21123
802.923	21138
803.065	21104
803.208	21047
803.35	21096
803.492	21116
803.635	21272
803.777	21020
803.919	21089
804.061	21576
804.204	21203
804.346	21032
804.488	21017
804.63	20921
804.773	20868
804.915	20990
805.057	21077
805.199	21017
805.341	21081
805.483	21275
805.626	21066
805.768	20944
805.91	20994
806.052	20929
806.194	20956
806.336	21116
806.478	20971
806.62	21036
806.762	21024
806.904	21252
807.046	21477
807.188	21306
807.33	21321
807.472	21507
807.614	21291
807.756	21294
807.898	21348
808.04	21142
808.182	21116
808.324	21188
808.465	21264
808.607	21431
808.749	21515
808.891	21526
809.033	21667
809.174	21583
809.316	21435
809.458	21443
809.6	21351
809.741	21576
809.883	21473
810.025	21606
810.166	21656
810.308	21580
810.45	21435
810.591	21382
810.733	21302
810.875	21161
811.016	21268
811.158	21116
811.299	21176
811.441	21237
811.582	21203
811.724	21241
811.865	21226
812.007	21275
812.148	21233
812.29	21233
812.431	21279
812.573	21401
812.714	21629
812.855	21580
812.997	21705
813.138	21808
813.279	21759
813.421	21629
813.562	21599
813.703	21412
813.845	21408
813.986	21138
814.127	20796
814.268	20838
814.41	20796
814.551	20739
814.692	20834
814.833	20655
814.974	20651
815.115	20670
815.256	20530
815.397	20499
815.539	20533
815.68	20454
815.821	20259
815.962	20469
816.103	20442
816.244	20309
816.385	20218
816.526	20199
816.666	20077
816.807	20008
816.948	19974
817.089	20058
817.23	20016
817.371	19970
817.512	19947
817.653	19875
817.793	19906
817.934	19856
818.075	19868
818.216	19879
818.356	19795
818.497	19643
818.638	19483
818.778	19563
818.919	19658
819.06	19647
819.2	19795
819.341	19731
819.481	19769
819.622	19830
819.762	20145
819.903	20096
820.043	20024
820.184	19856
820.324	19970
820.465	19978
820.605	19898
820.746	19784
820.886	19776
821.026	19860
821.167	19849
821.307	19818
821.447	19772
821.588	19639
821.728	19476
821.868	19407
822.008	19266
822.149	19308
822.289	19221
822.429	18996
822.569	18928
822.709	18916
822.849	18749
822.99	18707
823.13	18821
823.27	18745
823.41	18631
823.55	18566
823.69	18635
823.83	18593
823.97	18540
824.11	18308
824.25	18369
824.389	18357
824.529	18448
824.669	18467
824.809	18399
824.949	18441
825.089	18403
825.228	18243
825.368	18262
825.508	18182
825.648	18060
825.787	18258
825.927	18049
826.067	18083
826.206	18064
826.346	18163
826.485	18133
826.625	18083
826.765	18228
826.904	18152
827.044	17843
827.183	17946
827.323	17840
827.462	17824
827.601	17866
827.741	17813
827.88	17847
828.02	17745
828.159	17722
828.298	17832
828.437	17870
828.577	17798
828.716	17885
828.855	17817
828.994	17528
829.134	17535
829.273	17630
829.412	17547
829.551	17459
829.69	17604
829.829	17558
829.968	17570
830.107	17672
830.246	17573
830.385	17512
830.524	17512
830.663	17433
830.802	17345
830.941	17223
831.08	17136
831.219	17261
831.357	17379
831.496	17433
831.635	17181
831.774	17140
831.913	17128
832.051	17022
832.19	16953
832.329	17022
832.467	16889
832.606	16877
832.744	16904
832.883	16877
833.022	16946
833.16	16896
833.299	17022
833.437	16976
833.576	16923
833.714	16930
833.852	16889
833.991	16927
834.129	17003
834.267	16938
834.406	16908
834.544	17014
834.682	17006
834.821	16877
834.959	17121
835.097	16892
835.235	16999
835.373	16850
835.511	16991
835.65	16790
835.788	16877
835.926	16729
836.064	16611
836.202	16778
836.34	16923
836.478	16934
836.615	16812
836.753	16809
836.891	16965
837.029	16927
837.167	16904
837.305	16763
837.443	16656
837.58	16710
837.718	16946
837.856	16763
837.993	16698
838.131	16839
838.269	16626
838.406	16645
838.544	16436
838.681	16390
838.819	16337
838.956	16363
839.094	16356
839.231	16402
839.369	16466
839.506	16694
839.643	16485
839.781	16325
839.918	16325
840.055	16325
840.193	16322
840.33	16306
840.467	16268
840.604	16295
840.742	16462
840.879	16173
841.016	16173
841.153	16253
841.29	16455
841.427	16303
841.564	16356
841.701	16318
841.838	16211
841.975	16147
842.112	16177
842.249	16032
842.385	16040
842.522	16287
842.659	16230
842.796	16097
842.933	16188
843.069	16112
843.206	16063
843.343	16226
843.479	16097
843.616	16150
843.752	15861
843.889	15808
844.025	15945
844.162	15934
844.298	16051
844.435	15808
844.571	15823
844.708	15857
844.844	16029
844.98	16067
845.117	15956
845.253	15778
845.389	15823
845.525	15873
845.661	15865
845.798	15808
845.934	15930
846.07	15884
846.206	15816
846.342	15953
846.478	15762
846.614	15568
846.75	15519
846.886	15504
847.022	15519
847.158	15553
847.294	15584
847.429	15492
847.565	15488
847.701	15663
847.837	15207
847.972	15203
848.108	15287
848.244	15264
848.379	15097
848.515	15066
848.65	15089
848.786	15119
848.921	15081
849.057	15138
849.192	15131
849.328	15214
849.463	15089
849.598	15005
849.734	14895
849.869	14929
850.004	14883
850.14	14807
850.275	14887
850.41	14792
850.545	14777
850.68	14648
850.815	14899
850.95	14804
851.085	14990
851.22	14853
851.355	14899
851.49	14788
851.625	14815
851.76	14746
851.895	14648
852.03	14785
852.165	14785
852.299	14861
852.434	14914
852.569	14750
852.703	14887
852.838	14849
852.973	14921
853.107	14975
853.242	14765
853.376	14716
853.511	14602
853.645	14651
853.78	14788
853.914	14594
854.048	14716
854.183	14731
854.317	14777
854.451	14773
854.585	14587
854.72	14727
854.854	14750
854.988	14511
855.122	14613
855.256	14613
855.39	14594
855.524	14796
855.658	14735
855.792	14705
855.926	14773
856.06	14705
856.194	14689
856.327	14682
856.461	14621
856.595	14632
856.729	14640
856.862	14754
856.996	14773
857.13	14701
857.263	14765
857.397	14731
857.53	14674
857.664	14765
857.797	14796
857.931	14868
858.064	14697
858.197	14811
858.331	14720
858.464	14663
858.597	14648
858.731	14712
858.864	14712
858.997	14705
859.13	14735
859.263	14735
859.396	14777
859.529	14670
859.662	14644
859.795	14575
859.928	14670
860.061	14796
860.194	14857
860.327	14731
860.46	14754
860.592	14830
860.725	14762
860.858	14823
860.99	14617
861.123	14670
861.256	14644
861.388	14754
861.521	15374
861.653	14545
861.786	14560
861.918	14552
862.05	14564
862.183	14602
862.315	14617
862.447	14667
862.58	14587
862.712	14427
862.844	14343
862.976	14484
863.108	14454
863.24	14857
863.372	14267
863.504	14438
863.636	14393
863.768	14480
863.9	14465
864.032	14347
864.164	14427
864.296	14495
864.428	14552
864.559	14583
864.691	14533
864.823	14419
864.954	14461
865.086	14480
865.217	14419
865.349	14438
865.48	14503
865.612	14423
865.743	14590
865.875	14442
866.006	14400
866.137	14404
866.269	14461
866.4	14415
866.531	14351
866.662	14415
866.793	14370
866.924	14495
867.055	14351
867.186	14511
867.317	14412
867.448	14389
867.579	14465
867.71	14355
867.841	14259
867.972	14434
868.103	14446
868.233	14427
868.364	14465
868.495	14552
868.625	14625
868.756	14750
868.886	14644
869.017	14724
869.147	14861
869.278	14716
869.408	14655
869.539	14686
869.669	14777
869.799	14739
869.929	14796
870.06	14758
870.19	14979
870.32	15005
870.45	15036
870.58	15180
870.71	15112
870.84	15184
870.97	15142
871.1	15051
871.23	15222
871.36	15317
871.489	15161
871.619	15317
871.749	15336
871.879	15344
872.008	15401
872.138	15237
872.267	15230
872.397	15108
872.526	15154
872.656	14986
872.785	15066
872.915	15264
873.044	15374
873.173	15233
873.303	15351
873.432	15321
873.561	15458
873.69	15302
873.819	15313
873.948	15287
874.077	15382
874.206	15325
874.335	15294
874.464	15485
874.593	15576
874.722	15595
874.851	15682
874.979	15656
875.108	15682
875.237	15610
875.365	15553
875.494	15622
875.623	15648
875.751	15618
875.88	15701
876.008	15831
876.136	15823
876.265	16029
876.393	16131
876.521	16112
876.65	16147
876.778	16032
876.906	16055
877.034	15983
877.162	16032
877.29	16025
877.418	16169
877.546	16002
877.674	16097
877.802	16032
877.93	16002
878.058	16048
878.185	15915
878.313	16017
878.441	16105
878.568	15907
878.696	16017
878.824	16067
878.951	16032
879.079	16257
879.206	16428
879.333	16268
879.461	16200
879.588	16204
879.715	16234
879.842	16462
879.97	16215
880.097	16013
880.224	15937
880.351	15934
880.478	15934
880.605	15873
880.732	15861
880.859	16143
880.986	15888
881.112	15918
881.239	15804
881.366	15671
881.493	15492
881.619	15553
881.746	15660
881.872	15599
881.999	15549
882.125	15420
882.252	15580
882.378	15648
882.505	15648
882.631	15526
882.757	15355
882.883	15416
883.01	15477
883.136	15351
883.262	15268
883.388	15275
883.514	15488
883.64	15450
883.766	15344
883.892	15188
884.018	15176
884.143	15355
884.269	15481
884.395	15157
884.52	14963
884.646	15119
884.772	14914
884.897	14944
885.023	15047
885.148	15161
885.274	15173
885.399	15237
885.524	15097
885.65	15028
885.775	15157
885.9	15066
886.025	15192
886.15	15214
886.275	15081
886.4	14895
886.525	15013
886.65	14948
886.775	15028
886.9	15222
887.025	15294
887.149	15108
887.274	14899
887.399	14937
887.523	14868
887.648	14842
887.773	14823
887.897	14982
888.021	14941
888.146	14887
888.27	15017
888.395	15017
888.519	15032
888.643	14944
888.767	15013
888.891	14785
889.015	14758
889.139	14842
889.263	14739
889.387	14804
889.511	14944
889.635	14868
889.759	14750
889.883	14754
890.006	14765
890.13	14769
890.254	14587
890.377	14727
890.501	14480
890.624	14552
890.748	14632
890.871	14568
890.995	14503
891.118	14393
891.241	14476
891.364	14442
891.488	14427
891.611	14415
891.734	14461
891.857	14469
891.98	14400
892.103	14480
892.226	14556
892.349	14404
892.471	14336
892.594	14438
892.717	14423
892.839	14465
892.962	14404
893.085	14374
893.207	14450
893.33	14351
893.452	14370
893.575	14454
893.697	14377
893.819	14575
893.941	14667
894.064	14621
894.186	14427
894.308	14347
894.43	14503
894.552	14689
894.674	14530
894.796	14434
894.918	14492
895.04	14522
895.161	14629
895.283	14583
895.405	14469
895.526	14454
895.648	14442
895.769	14632
895.891	14530
896.012	14621
896.134	14594
896.255	14564
896.376	14564
896.498	14568
896.619	14560
896.74	14568
896.861	14682
896.982	14853
897.103	15020
897.224	14952
897.345	14701
897.466	14720
897.587	14845
897.708	15001
897.828	14891
897.949	14823
898.07	14746
898.19	14826
898.311	15001
898.431	14804
898.552	14963
898.672	15062
898.792	15020
898.913	14979
899.033	14845
899.153	14777
899.273	14720
899.393	14705
899.513	14853
899.633	14811
899.753	14857
899.873	14788
899.993	14857
900.113	14792
900.232	14731
900.352	14731
900.472	14762
900.591	14621
900.711	14697
900.83	14613
900.95	14689
901.069	14758
901.189	14564
901.308	14313
901.427	14294
901.546	14332
901.665	14305
901.784	14358
901.904	14176
902.023	14077
902.141	13955
902.26	13890
902.379	13986
902.498	13890
902.617	13795
902.735	13906
902.854	13856
902.973	13845
903.091	13712
903.21	13594
903.328	13590
903.446	13491
903.565	13422
903.683	13438
903.801	13396
903.919	13407
904.038	13487
904.156	13217
904.274	13236
904.392	13320
904.51	13259
904.627	13175
904.745	13282
904.863	13293
904.981	13061
905.098	12932
905.216	12905
905.334	12951
905.451	12954
905.569	12966
905.686	13053
905.803	12939
905.921	12757
906.038	12802
906.155	12688
906.272	12612
906.389	12707
906.506	12517
906.623	12555
906.74	12471
906.857	12338
906.974	12433
907.091	12616
907.208	12555
907.324	12540
907.441	12467
907.557	12327
907.674	12285
907.79	12239
907.907	12216
908.023	12334
908.139	12262
908.256	12224
908.372	12175
908.488	12159
908.604	12106
908.72	11939
908.836	11980
908.952	12053
909.068	12030
909.184	12117
909.3	11950
909.415	12098
909.531	12083
909.647	11950
909.762	11760
909.878	11805
909.993	11824
910.108	11824
910.224	11840
910.339	11828
910.454	11718
910.57	11767
910.685	11653
910.8	11840
910.915	11771
911.03	11619
911.145	11455
911.259	11455
911.374	11611
911.489	11444
911.604	11395
911.718	11227
911.833	11311
911.947	11155
912.062	11048
912.176	11326
912.291	11216
912.405	11231
912.519	11433
912.633	11436
912.748	11315
912.862	11288
912.976	11124
913.09	11029
913.204	11037
913.318	11029
913.431	11178
913.545	11174
913.659	11277
913.772	11151
913.886	11022
914	10991
914.113	11056
914.226	11170
914.34	11071
914.453	10991
914.566	11071
914.68	10965
914.793	10961
914.906	10706
915.019	10660
915.132	10691
915.245	10687
915.358	10790
915.47	10774
915.583	10679
915.696	10831
915.809	10831
915.921	10923
916.034	10763
916.146	10694
916.259	10706
916.371	10797
916.483	10721
916.595	10675
916.708	10660
916.82	10660
916.932	10660
917.044	10668
917.156	10649
917.268	10504
917.38	10577
917.491	10516
917.603	10580
917.715	10733
917.826	10702
917.938	10523
918.049	10554
918.161	10546
918.272	10679
918.384	10706
918.495	10618
918.606	10474
918.717	10314
918.828	10470
918.939	10573
919.05	10367
919.161	10459
919.272	10284
919.383	10299
919.494	10493
919.604	10706
919.715	10531
919.826	10440
919.936	10485
920.047	10565
920.157	10516
920.267	10664
920.378	10527
920.488	10500
920.598	10660
920.708	10835
920.818	10618
920.928	10584
921.038	10835
921.148	10904
921.258	10580
921.368	10409
921.477	10314
921.587	10295
921.697	10207
921.806	10333
921.916	10188
922.025	10040
922.134	9998
922.244	10032
922.353	10048
922.462	9873
922.571	9808
922.68	9713
922.789	9732
922.898	9797
923.007	9698
923.116	9751
923.224	9694
923.333	9675
923.442	9523
923.55	9648
923.659	9690
923.767	9644
923.876	9542
923.984	9614
924.092	9568
924.201	9504
924.309	9641
924.417	9633
924.525	9534
924.633	9568
924.741	10253
924.849	9313
924.956	9507
925.064	9397
925.172	9287
925.279	9329
925.387	9435
925.494	9370
925.602	9477
925.709	9488
925.816	9344
925.924	9386
926.031	9447
926.138	9416
926.245	9428
926.352	9279
926.459	9382
926.566	9412
926.673	9275
926.779	9211
926.886	9226
926.993	9207
927.099	9097
927.206	9005
927.312	9024
927.419	9131
927.525	9116
927.631	9055
927.737	9047
927.843	8826
927.95	8853
928.056	8891
928.162	8967
928.267	9032
928.373	9614
928.479	9043
928.585	8815
928.69	8963
928.796	8975
928.901	8887
929.007	8804
929.112	8876
929.218	8868
929.323	8792
929.428	8834
929.533	8956
929.638	8701
929.743	8724
929.848	8804
929.953	8708
930.058	8659
930.163	8507
930.267	8575
930.372	8655
930.477	8465
930.581	8731
930.685	8682
930.79	8514
930.894	8476
930.998	8476
931.103	8560
931.207	8248
931.311	8157
931.415	8153
931.519	7940
931.623	8016
