Data from test_V78500241_2188.txt Node
Date: Fri Mar 25 14:48:56 CST 2022
User: usil
Spectrometer: V785-0024
Trigger mode: 0
Integration Time (sec): 4.000000E-1
Scans to average: 1
Nonlinearity correction enabled: false
Boxcar width: 0
Storing dark spectrum: false
XAxis mode: Wavelengths
Number of Pixels in Spectrum: 1024
>>>>>Begin Spectral Data<<<<<
801.071	22200
801.214	22055
801.356	21861
801.499	21800
801.641	21583
801.783	21462
801.926	21519
802.068	21591
802.211	21382
802.353	21207
802.496	21108
802.638	20998
802.78	20933
802.923	20906
803.065	20857
803.208	20861
803.35	20731
803.492	20937
803.635	21051
803.777	20960
803.919	20845
804.061	21348
804.204	20956
804.346	20800
804.488	20769
804.63	20861
804.773	20777
804.915	20842
805.057	20990
805.199	20712
805.341	20811
805.483	20830
805.626	20880
805.768	20617
805.91	20785
806.052	20804
806.194	20686
806.336	20804
806.478	20712
806.62	20819
806.762	20891
806.904	20967
807.046	21237
807.188	21055
807.33	21214
807.472	21142
807.614	21009
807.756	21005
807.898	20982
808.04	20849
808.182	20914
808.324	20765
808.465	20952
808.607	21081
808.749	21173
808.891	21226
809.033	21237
809.174	21268
809.316	21074
809.458	21237
809.6	21089
809.741	21173
809.883	21176
810.025	21272
810.166	21351
810.308	21264
810.45	21313
810.591	21127
810.733	20960
810.875	21024
811.016	20796
811.158	20769
811.299	20941
811.441	21062
811.582	21020
811.724	20963
811.865	20929
812.007	20937
812.148	20937
812.29	21009
812.431	21036
812.573	21211
812.714	21283
812.855	21439
812.997	21458
813.138	21663
813.279	21603
813.421	21252
813.562	21370
813.703	21127
813.845	21066
813.986	20849
814.127	20594
814.268	20465
814.41	20465
814.551	20556
814.692	20579
814.833	20396
814.974	20339
815.115	20332
815.256	20336
815.397	20294
815.539	20248
815.68	20240
815.821	20103
815.962	20191
816.103	20278
816.244	20122
816.385	19955
816.526	19868
816.666	19841
816.807	19586
816.948	19635
817.089	19841
817.23	19666
817.371	19578
817.512	19556
817.653	19499
817.793	19708
817.934	19605
818.075	19620
818.216	19571
818.356	19457
818.497	19293
818.638	19202
818.778	19297
818.919	19346
819.06	19308
819.2	19575
819.341	19441
819.481	19316
819.622	19594
819.762	19837
819.903	19734
820.043	19639
820.184	19590
820.324	19582
820.465	19685
820.605	19567
820.746	19616
820.886	19445
821.026	19540
821.167	19563
821.307	19643
821.447	19525
821.588	19388
821.728	19331
821.868	19247
822.008	19012
822.149	18970
822.289	18989
822.429	18817
822.569	18665
822.709	18688
822.849	18585
822.99	18433
823.13	18445
823.27	18429
823.41	18426
823.55	18190
823.69	18292
823.83	18376
823.97	18216
824.11	18079
824.25	17996
824.389	18049
824.529	17999
824.669	18045
824.809	18186
824.949	18064
825.089	18125
825.228	18057
825.368	17874
825.508	17828
825.648	17824
825.787	17832
825.927	17946
826.067	17790
826.206	17809
826.346	17843
826.485	17832
826.625	17805
826.765	17901
826.904	17821
827.044	17596
827.183	17649
827.323	17512
827.462	17627
827.601	17516
827.741	17482
827.88	17497
828.02	17337
828.159	17414
828.298	17444
828.437	17672
828.577	17402
828.716	17718
828.855	17395
828.994	17303
829.134	17303
829.273	17277
829.412	17197
829.551	17189
829.69	17223
829.829	17334
829.968	17261
830.107	17273
830.246	17277
830.385	17128
830.524	17181
830.663	17018
830.802	17010
830.941	16892
831.08	16854
831.219	17006
831.357	16957
831.496	17159
831.635	16984
831.774	16850
831.913	16778
832.051	16622
832.19	16660
832.329	16691
832.467	16679
832.606	16542
832.744	16721
832.883	16603
833.022	16527
833.16	16481
833.299	16691
833.437	16634
833.576	16580
833.714	16691
833.852	16653
833.991	16679
834.129	16687
834.267	16668
834.406	16641
834.544	16542
834.682	16698
834.821	16615
834.959	16793
835.097	16580
835.235	16637
835.373	16618
835.511	16733
835.65	16584
835.788	16432
835.926	16352
836.064	16246
836.202	16402
836.34	16641
836.478	16634
836.615	16565
836.753	16542
836.891	16504
837.029	16550
837.167	16462
837.305	16436
837.443	16417
837.58	16375
837.718	16428
837.856	16424
837.993	16386
838.131	16367
838.269	16280
838.406	16348
838.544	16299
838.681	16219
838.819	16082
838.956	15934
839.094	15922
839.231	15979
839.369	16063
839.506	16344
839.643	16215
839.781	15850
839.918	15869
840.055	16017
840.193	15987
840.33	15778
840.467	16002
840.604	15983
840.742	16246
840.879	15789
841.016	15922
841.153	15884
841.29	16063
841.427	15953
841.564	15907
841.701	15899
841.838	15800
841.975	15808
842.112	15789
842.249	15713
842.385	15671
842.522	15918
842.659	15701
842.796	15709
842.933	15625
843.069	15641
843.206	15747
843.343	15762
843.479	15793
843.616	15770
843.752	15507
843.889	15496
844.025	15766
844.162	15473
844.298	15641
844.435	15591
844.571	15408
844.708	15526
844.844	15720
844.98	15572
845.117	15656
845.253	15469
845.389	15412
845.525	15553
845.661	15458
845.798	15367
845.934	15275
846.07	15260
846.206	15386
846.342	15382
846.478	15264
846.614	15161
846.75	14982
846.886	15039
847.022	15116
847.158	15032
847.294	14986
847.429	15070
847.565	15009
847.701	15313
847.837	14842
847.972	14758
848.108	14967
848.244	14929
848.379	14712
848.515	14678
848.65	14590
848.786	14701
848.921	14800
849.057	14758
849.192	14864
849.328	14792
849.463	14727
849.598	14655
849.734	14552
849.869	14598
850.004	14476
850.14	14514
850.275	14362
850.41	14423
850.545	14393
850.68	14396
850.815	14408
850.95	14434
851.085	14610
851.22	14556
851.355	14442
851.49	14465
851.625	14396
851.76	14389
851.895	14358
852.03	14305
852.165	14415
852.299	14446
852.434	14549
852.569	14587
852.703	14427
852.838	14514
852.973	14621
853.107	14613
853.242	14438
853.376	14355
853.511	14263
853.645	14259
853.78	14423
853.914	14370
854.048	14301
854.183	14180
854.317	14290
854.451	14442
854.585	14290
854.72	14218
854.854	14362
854.988	14183
855.122	14244
855.256	14256
855.39	14233
855.524	14313
855.658	14366
855.792	14358
855.926	14431
856.06	14419
856.194	14473
856.327	14218
856.461	14271
856.595	14195
856.729	14240
856.862	14457
856.996	14446
857.13	14374
857.263	14408
857.397	14381
857.53	14328
857.664	14339
857.797	14434
857.931	14575
858.064	14431
858.197	14427
858.331	14214
858.464	14210
858.597	14168
858.731	14290
858.864	14366
858.997	14343
859.13	14343
859.263	14355
859.396	14385
859.529	14301
859.662	14278
859.795	14328
859.928	14191
860.061	14450
860.194	14389
860.327	14366
860.46	14278
860.592	14343
860.725	14408
860.858	14427
860.99	14294
861.123	14195
861.256	14271
861.388	14309
861.521	14880
861.653	14142
861.786	14202
861.918	14237
862.05	14256
862.183	14221
862.315	14229
862.447	14271
862.58	14229
862.712	14149
862.844	14035
862.976	14157
863.108	14107
863.24	14438
863.372	14035
863.504	14062
863.636	14180
863.768	14043
863.9	14126
864.032	14035
864.164	13993
864.296	14123
864.428	14149
864.559	14130
864.691	14176
864.823	14176
864.954	14149
865.086	14084
865.217	14088
865.349	13925
865.48	14065
865.612	14138
865.743	14214
865.875	14096
866.006	14005
866.137	14088
866.269	14100
866.4	14065
866.531	14054
866.662	14035
866.793	14046
866.924	14130
867.055	14111
867.186	14092
867.317	14069
867.448	13925
867.579	14020
867.71	13947
867.841	13970
867.972	14039
868.103	14077
868.233	14081
868.364	13993
868.495	14096
868.625	14328
868.756	14336
868.886	14191
869.017	14370
869.147	14381
869.278	14438
869.408	14404
869.539	14286
869.669	14389
869.799	14347
869.929	14415
870.06	14480
870.19	14587
870.32	14606
870.45	14743
870.58	14667
870.71	14792
870.84	14804
870.97	14693
871.1	14636
871.23	14857
871.36	14929
871.489	14857
871.619	14788
871.749	14861
871.879	14990
872.008	15058
872.138	14861
872.267	14895
872.397	14743
872.526	14701
872.656	14686
872.785	14693
872.915	14967
873.044	15032
873.173	14998
873.303	15058
873.432	15013
873.561	15127
873.69	15062
873.819	14963
873.948	15097
874.077	14982
874.206	14952
874.335	14963
874.464	15146
874.593	15249
874.722	15207
874.851	15351
874.979	15283
875.108	15348
875.237	15260
875.365	15165
875.494	15165
875.623	15382
875.751	15275
875.88	15317
876.008	15420
876.136	15515
876.265	15816
876.393	15865
876.521	15804
876.65	15720
876.778	15736
876.906	15671
877.034	15713
877.162	15781
877.29	15625
877.418	15671
877.546	15705
877.674	15625
877.802	15720
877.93	15690
878.058	15709
878.185	15591
878.313	15633
878.441	15671
878.568	15526
878.696	15610
878.824	15675
878.951	15785
879.079	15876
879.206	15918
879.333	15907
879.461	15759
879.588	15766
879.715	15888
879.842	15994
879.97	15797
880.097	15564
880.224	15523
880.351	15633
880.478	15648
880.605	15538
880.732	15515
880.859	15804
880.986	15504
881.112	15534
881.239	15469
881.366	15359
881.493	15264
881.619	15199
881.746	15222
881.872	15176
881.999	15226
882.125	15150
882.252	15214
882.378	15310
882.505	15408
882.631	15207
882.757	14975
882.883	15116
883.01	14998
883.136	15070
883.262	14811
883.388	14845
883.514	15089
883.64	15066
883.766	14933
883.892	14872
884.018	14872
884.143	15005
884.269	15123
884.395	14773
884.52	14724
884.646	14720
884.772	14644
884.897	14765
885.023	14727
885.148	14792
885.274	14933
885.399	14796
885.524	14659
885.65	14777
885.775	14750
885.9	14765
886.025	14807
886.15	14796
886.275	14644
886.4	14644
886.525	14674
886.65	14621
886.775	14613
886.9	14891
887.025	14941
887.149	14735
887.274	14640
887.399	14499
887.523	14480
887.648	14575
887.773	14469
887.897	14583
888.021	14670
888.146	14476
888.27	14697
888.395	14636
888.519	14640
888.643	14579
888.767	14590
888.891	14522
889.015	14343
889.139	14419
889.263	14366
889.387	14537
889.511	14587
889.635	14488
889.759	14499
889.883	14347
890.006	14393
890.13	14632
890.254	14301
890.377	14374
890.501	14180
890.624	14187
890.748	14358
890.871	14244
890.995	14065
891.118	14107
891.241	14058
891.364	14096
891.488	14237
891.611	14134
891.734	14142
891.857	14218
891.98	14138
892.103	14202
892.226	14214
892.349	14119
892.471	13909
892.594	14062
892.717	14210
892.839	14119
892.962	14005
893.085	14248
893.207	14130
893.33	13997
893.452	14024
893.575	14149
893.697	14046
893.819	14275
893.941	14309
894.064	14225
894.186	14123
894.308	14077
894.43	14176
894.552	14305
894.674	14301
894.796	14096
894.918	14138
895.04	14142
895.161	14221
895.283	14221
895.405	14142
895.526	14214
895.648	14309
895.769	14298
895.891	14355
896.012	14332
896.134	14434
896.255	14271
896.376	14252
896.498	14183
896.619	14298
896.74	14252
896.861	14252
896.982	14724
897.103	14746
897.224	14667
897.345	14434
897.466	14438
897.587	14648
897.708	14659
897.828	14537
897.949	14438
898.07	14393
898.19	14526
898.311	14708
898.431	14598
898.552	14511
898.672	14777
898.792	14731
898.913	14655
899.033	14629
899.153	14488
899.273	14431
899.393	14442
899.513	14514
899.633	14579
899.753	14511
899.873	14522
899.993	14564
900.113	14514
900.232	14457
900.352	14374
900.472	14446
900.591	14294
900.711	14351
900.83	14282
900.95	14560
901.069	14473
901.189	14290
901.308	14088
901.427	14039
901.546	14092
901.665	14119
901.784	14119
901.904	13906
902.023	13871
902.141	13753
902.26	13681
902.379	13708
902.498	13601
902.617	13582
902.735	13609
902.854	13548
902.973	13514
903.091	13312
903.21	13304
903.328	13343
903.446	13171
903.565	13122
903.683	13122
903.801	13072
903.919	13122
904.038	13141
904.156	12939
904.274	13084
904.392	12970
904.51	12954
904.627	13099
904.745	13069
904.863	12947
904.981	12848
905.098	12715
905.216	12673
905.334	12749
905.451	12749
905.569	12646
905.686	12681
905.803	12627
905.921	12582
906.038	12597
906.155	12551
906.272	12433
906.389	12334
906.506	12224
906.623	12315
906.74	12273
906.857	12136
906.974	12117
907.091	12300
907.208	12388
907.324	12369
907.441	12182
907.557	11954
907.674	12095
907.79	11935
907.907	11935
908.023	12041
908.139	11927
908.256	11920
908.372	11859
908.488	11870
908.604	11855
908.72	11783
908.836	11798
908.952	11745
909.068	11817
909.184	11889
909.3	11756
909.415	11855
909.531	11764
909.647	11619
909.762	11585
909.878	11543
909.993	11604
910.108	11509
910.224	11509
910.339	11581
910.454	11425
910.57	11376
910.685	11349
910.8	11684
910.915	11653
911.03	11421
911.145	11349
911.259	11235
911.374	11254
911.489	11140
911.604	11143
911.718	11056
911.833	11018
911.947	10911
912.062	10881
912.176	10946
912.291	11037
912.405	10908
912.519	11185
912.633	11242
912.748	11098
912.862	10904
912.976	10831
913.09	10744
913.204	10858
913.318	10904
913.431	10980
913.545	10965
913.659	10946
913.772	10904
913.886	10820
914	10782
914.113	10904
914.226	10896
914.34	10923
914.453	10668
914.566	10820
914.68	10812
914.793	10660
914.906	10527
915.019	10516
915.132	10489
915.245	10512
915.358	10485
915.47	10569
915.583	10550
915.696	10538
915.809	10656
915.921	10698
916.034	10497
916.146	10386
916.259	10417
916.371	10577
916.483	10481
916.595	10417
916.708	10493
916.82	10447
916.932	10424
917.044	10451
917.156	10398
917.268	10325
917.38	10318
917.491	10276
917.603	10398
917.715	10405
917.826	10440
917.938	10303
918.049	10223
918.161	10402
918.272	10443
918.384	10531
918.495	10386
918.606	10234
918.717	10173
918.828	10181
918.939	10257
919.05	10204
919.161	10166
919.272	9979
919.383	10036
919.494	10348
919.604	10363
919.715	10272
919.826	10181
919.936	10162
920.047	10280
920.157	10192
920.267	10440
920.378	10303
920.488	10303
920.598	10409
920.708	10573
920.818	10363
920.928	10474
921.038	10607
921.148	10538
921.258	10246
921.368	10238
921.477	10063
921.587	10082
921.697	9941
921.806	10082
921.916	10032
922.025	9740
922.134	9785
922.244	9812
922.353	9800
922.462	9671
922.571	9682
922.68	9534
922.789	9458
922.898	9447
923.007	9431
923.116	9564
923.224	9496
923.333	9435
923.442	9428
923.55	9321
923.659	9363
923.767	9496
923.876	9401
923.984	9424
924.092	9287
924.201	9332
924.309	9382
924.417	9329
924.525	9253
924.633	9374
924.741	10059
924.849	9112
924.956	9355
925.064	9093
925.172	9036
925.279	9119
925.387	9165
925.494	9146
925.602	9264
925.709	9230
925.816	9150
925.924	9085
926.031	9192
926.138	9173
926.245	9161
926.352	9074
926.459	9207
926.566	9218
926.673	9013
926.779	9005
926.886	9062
926.993	8838
927.099	8895
927.206	8758
927.312	8697
927.419	8876
927.525	8864
927.631	8937
927.737	8849
927.843	8766
927.95	8651
928.056	8777
928.162	8766
928.267	8716
928.373	9420
928.479	8838
928.585	8621
928.69	8750
928.796	8743
928.901	8712
929.007	8511
929.112	8655
929.218	8720
929.323	8678
929.428	8583
929.533	8720
929.638	8526
929.743	8526
929.848	8610
929.953	8583
930.058	8507
930.163	8320
930.267	8396
930.372	8537
930.477	8351
930.581	8537
930.685	8434
930.79	8237
930.894	8256
930.998	8305
931.103	8423
931.207	8111
931.311	8050
931.415	7951
931.519	7811
931.623	7811
