Data from test_V78500241_530.txt Node
Date: Fri Mar 25 14:37:24 CST 2022
User: usil
Spectrometer: V785-0024
Trigger mode: 0
Integration Time (sec): 4.000000E-1
Scans to average: 1
Nonlinearity correction enabled: false
Boxcar width: 0
Storing dark spectrum: false
XAxis mode: Wavelengths
Number of Pixels in Spectrum: 1024
>>>>>Begin Spectral Data<<<<<
801.071	27237
801.214	27233
801.356	27100
801.499	26914
801.641	26712
801.783	26705
801.926	26739
802.068	26648
802.211	26545
802.353	26450
802.496	26233
802.638	26218
802.78	26225
802.923	26199
803.065	26119
803.208	26088
803.35	26157
803.492	26313
803.635	26355
803.777	26164
803.919	26431
804.061	26514
804.204	26244
804.346	26214
804.488	26138
804.63	26115
804.773	26039
804.915	26347
805.057	26415
805.199	26278
805.341	26427
805.483	26389
805.626	26225
805.768	26419
805.91	26461
806.052	26404
806.194	26370
806.336	26564
806.478	26606
806.62	26484
806.762	26674
806.904	27093
807.046	27405
807.188	27310
807.33	27492
807.472	27694
807.614	27538
807.756	27911
807.898	28207
808.04	28493
808.182	29166
808.324	29760
808.465	30646
808.607	31742
808.749	32476
808.891	32960
809.033	33036
809.174	32442
809.316	31575
809.458	30654
809.6	29775
809.741	29132
809.883	28611
810.025	28246
810.166	28158
810.308	27880
810.45	27511
810.591	27447
810.733	27188
810.875	27157
811.016	26948
811.158	26842
811.299	27039
811.441	26948
811.582	26944
811.724	26773
811.865	26746
812.007	26560
812.148	26640
812.29	26716
812.431	26834
812.573	26914
812.714	26880
812.855	26918
812.997	27085
813.138	27355
813.279	27203
813.421	27028
813.562	26887
813.703	26838
813.845	26674
813.986	26590
814.127	26096
814.268	26164
814.41	26065
814.551	26050
814.692	26111
814.833	25986
814.974	25890
815.115	25940
815.256	25879
815.397	25906
815.539	25944
815.68	25837
815.821	25761
815.962	25750
816.103	25784
816.244	25502
816.385	25419
816.526	25403
816.666	25042
816.807	25091
816.948	25057
817.089	25156
817.23	25183
817.371	25012
817.512	25072
817.653	25091
817.793	25061
817.934	25103
818.075	25012
818.216	25057
818.356	24939
818.497	24856
818.638	24627
818.778	24768
818.919	24749
819.06	24875
819.2	24882
819.341	24962
819.481	24932
819.622	25103
819.762	25316
819.903	25198
820.043	25091
820.184	24989
820.324	25042
820.465	25046
820.605	24897
820.746	24951
820.886	24753
821.026	24996
821.167	24939
821.307	24932
821.447	24844
821.588	24627
821.728	24642
821.868	24410
822.008	24327
822.149	24262
822.289	24155
822.429	24060
822.569	23958
822.709	23851
822.849	23843
822.99	23745
823.13	23878
823.27	23608
823.41	23566
823.55	23551
823.69	23501
823.83	23539
823.97	23433
824.11	23307
824.25	23166
824.389	23235
824.529	23364
824.669	23242
824.809	23379
824.949	23345
825.089	23402
825.228	23140
825.368	23014
825.508	23044
825.648	23094
825.787	23121
825.927	23193
826.067	22965
826.206	23025
826.346	23094
826.485	23056
826.625	23212
826.765	23178
826.904	23140
827.044	22805
827.183	22816
827.323	22641
827.462	22774
827.601	22835
827.741	22710
827.88	22736
828.02	22561
828.159	22774
828.298	22729
828.437	22687
828.577	22664
828.716	22771
828.855	22672
828.994	22398
829.134	22413
829.273	22367
829.412	22363
829.551	22272
829.69	22348
829.829	22417
829.968	22409
830.107	22542
830.246	22348
830.385	22386
830.524	22322
830.663	22246
830.802	22067
830.941	21979
831.08	21983
831.219	22166
831.357	22010
831.496	22211
831.635	21998
831.774	22006
831.913	21968
832.051	21903
832.19	21789
832.329	21903
832.467	21728
832.606	21496
832.744	21629
832.883	21743
833.022	21743
833.16	21633
833.299	21705
833.437	21816
833.576	21812
833.714	21911
833.852	21930
833.991	21956
834.129	22032
834.267	21876
834.406	21975
834.544	21975
834.682	21949
834.821	21861
834.959	21888
835.097	21759
835.235	21850
835.373	21728
835.511	21523
835.65	21515
835.788	21393
835.926	21386
836.064	21351
836.202	21454
836.34	21488
836.478	21553
836.615	21450
836.753	21466
836.891	21534
837.029	21515
837.167	21405
837.305	21344
837.443	21283
837.58	21291
837.718	21401
837.856	21344
837.993	21310
838.131	21237
838.269	21283
838.406	21146
838.544	21131
838.681	20982
838.819	20933
838.956	20712
839.094	20769
839.231	20956
839.369	20982
839.506	21165
839.643	21036
839.781	20735
839.918	20716
840.055	20682
840.193	20773
840.33	20697
840.467	20682
840.604	20636
840.742	20891
840.879	20556
841.016	20621
841.153	20476
841.29	20712
841.427	20632
841.564	20579
841.701	20541
841.838	20511
841.975	20507
842.112	20556
842.249	20358
842.385	20282
842.522	20621
842.659	20336
842.796	20187
842.933	20385
843.069	20328
843.206	20370
843.343	20290
843.479	20503
843.616	20275
843.752	20290
843.889	20252
844.025	20374
844.162	20221
844.298	20404
844.435	20294
844.571	20339
844.708	20385
844.844	20602
844.98	20800
845.117	20773
845.253	21043
845.389	21428
845.525	22295
845.661	23771
845.798	25483
845.934	26967
846.07	27622
846.206	27294
846.342	26294
846.478	24498
846.614	22736
846.75	21561
846.886	20762
847.022	20465
847.158	20157
847.294	20058
847.429	19947
847.565	19830
847.701	19959
847.837	19548
847.972	19544
848.108	19537
848.244	19499
848.379	19278
848.515	19308
848.65	19247
848.786	19228
848.921	19103
849.057	19255
849.192	19320
849.328	19236
849.463	19202
849.598	19152
849.734	19145
849.869	19053
850.004	18966
850.14	18932
850.275	18875
850.41	18806
850.545	18958
850.68	18913
850.815	18776
850.95	18886
851.085	19088
851.22	18913
851.355	18935
851.49	18859
851.625	18837
851.76	18882
851.895	18802
852.03	18802
852.165	18776
852.299	18905
852.434	18939
852.569	18928
852.703	18829
852.838	18973
852.973	18913
853.107	19065
853.242	18920
853.376	18745
853.511	18707
853.645	18875
853.78	18871
853.914	18829
854.048	18825
854.183	18810
854.317	18901
854.451	18928
854.585	18798
854.72	18844
854.854	18852
854.988	18650
855.122	18726
855.256	18696
855.39	18745
855.524	18814
855.658	18738
855.792	18760
855.926	18833
856.06	18852
856.194	18722
856.327	18681
856.461	18700
856.595	18635
856.729	18730
856.862	18798
856.996	18681
857.13	18692
857.263	18795
857.397	18901
857.53	18673
857.664	18661
857.797	18726
857.931	18783
858.064	18654
858.197	18802
858.331	18681
858.464	18620
858.597	18536
858.731	18532
858.864	18627
858.997	18506
859.13	18566
859.263	18722
859.396	18837
859.529	18528
859.662	18566
859.795	18532
859.928	18700
860.061	18715
860.194	18669
860.327	18646
860.46	18612
860.592	18703
860.725	18745
860.858	18665
860.99	18574
861.123	18422
861.256	18490
861.388	18601
861.521	19460
861.653	18547
861.786	18441
861.918	18555
862.05	18582
862.183	18623
862.315	18555
862.447	18532
862.58	18525
862.712	18399
862.844	18380
862.976	18475
863.108	18410
863.24	18817
863.372	18232
863.504	18334
863.636	18292
863.768	18407
863.9	18407
864.032	18277
864.164	18281
864.296	18346
864.428	18448
864.559	18464
864.691	18433
864.823	18346
864.954	18323
865.086	18300
865.217	18224
865.349	18266
865.48	18270
865.612	18251
865.743	18361
865.875	18243
866.006	18106
866.137	18239
866.269	18220
866.4	18285
866.531	18133
866.662	18167
866.793	18133
866.924	18098
867.055	18304
867.186	18144
867.317	18098
867.448	18174
867.579	18201
867.71	18186
867.841	18121
867.972	18209
868.103	18277
868.233	18129
868.364	18235
868.495	18289
868.625	18437
868.756	18456
868.886	18441
869.017	18407
869.147	18574
869.278	18521
869.408	18536
869.539	18311
869.669	18490
869.799	18486
869.929	18639
870.06	18623
870.19	18783
870.32	18627
870.45	18833
870.58	18905
870.71	18985
870.84	18882
870.97	18825
871.1	18859
871.23	19114
871.36	19061
871.489	18894
871.619	19015
871.749	19122
871.879	19099
872.008	19171
872.138	19084
872.267	19065
872.397	18985
872.526	18878
872.656	18981
872.785	18829
872.915	19171
873.044	19069
873.173	19122
873.303	19259
873.432	19156
873.561	19126
873.69	19126
873.819	19088
873.948	19270
874.077	19247
874.206	19217
874.335	19335
874.464	19415
874.593	19464
874.722	19362
874.851	19582
874.979	19548
875.108	19590
875.237	19483
875.365	19434
875.494	19441
875.623	19571
875.751	19575
875.88	19635
876.008	19784
876.136	19734
876.265	20107
876.393	20142
876.521	20214
876.65	20039
876.778	20126
876.906	20073
877.034	20012
877.162	20088
877.29	20069
877.418	20046
877.546	20130
877.674	20149
877.802	20142
877.93	20305
878.058	20210
878.185	20259
878.313	20309
878.441	20457
878.568	20419
878.696	20629
878.824	20925
878.951	21355
879.079	21705
879.206	22519
879.333	22835
879.461	23223
879.588	23718
879.715	23912
879.842	23493
879.97	22858
880.097	22067
880.224	21629
880.351	21405
880.478	21093
880.605	20967
880.732	20880
880.859	20990
880.986	20792
881.112	20823
881.239	20579
881.366	20556
881.493	20381
881.619	20286
881.746	20317
881.872	20412
881.999	20358
882.125	20393
882.252	20332
882.378	20476
882.505	20495
882.631	20377
882.757	20046
882.883	20294
883.01	20073
883.136	20084
883.262	19986
883.388	20096
883.514	20145
883.64	20252
883.766	20031
883.892	19959
884.018	19951
884.143	20111
884.269	20339
884.395	19951
884.52	19795
884.646	19921
884.772	19887
884.897	19719
885.023	19841
885.148	19932
885.274	19959
885.399	19883
885.524	19776
885.65	19719
885.775	19830
885.9	19540
886.025	19708
886.15	19662
886.275	19529
886.4	19381
886.525	19457
886.65	19316
886.775	19259
886.9	19483
887.025	19620
887.149	19320
887.274	19129
887.399	19133
887.523	19027
887.648	18951
887.773	18856
887.897	19095
888.021	18966
888.146	18848
888.27	18943
888.395	18951
888.519	18916
888.643	18932
888.767	18932
888.891	18764
889.015	18764
889.139	18791
889.263	18620
889.387	18848
889.511	18806
889.635	18738
889.759	18525
889.883	18604
890.006	18707
890.13	18749
890.254	18502
890.377	18513
890.501	18277
890.624	18251
890.748	18452
890.871	18148
890.995	18190
891.118	18095
891.241	18152
891.364	18053
891.488	18346
891.611	18190
891.734	18102
891.857	18243
891.98	18197
892.103	18174
892.226	18182
892.349	18136
892.471	17973
892.594	18068
892.717	18041
892.839	17954
892.962	17977
893.085	18152
893.207	18026
893.33	17775
893.452	17840
893.575	17961
893.697	18011
893.819	18022
893.941	18117
894.064	18045
894.186	18007
894.308	17741
894.43	17965
894.552	18190
894.674	17908
894.796	17794
894.918	17840
895.04	17874
895.161	17923
895.283	17961
895.405	17889
895.526	17935
895.648	17904
895.769	17889
895.891	17980
896.012	18060
896.134	17878
896.255	17904
896.376	17931
896.498	17927
896.619	17992
896.74	17912
896.861	18038
896.982	18277
897.103	18498
897.224	18258
897.345	18140
897.466	18194
897.587	18190
897.708	18232
897.828	18178
897.949	18136
898.07	18034
898.19	18015
898.311	18243
898.431	18095
898.552	18243
898.672	18266
898.792	18292
898.913	18129
899.033	18144
899.153	17969
899.273	17866
899.393	18034
899.513	17961
899.633	17912
899.753	17916
899.873	18034
899.993	17836
900.113	17939
900.232	18110
900.352	17916
900.472	17771
900.591	17760
900.711	17817
900.83	17684
900.95	17927
901.069	17824
901.189	17665
901.308	17478
901.427	17364
901.546	17467
901.665	17372
901.784	17360
901.904	17208
902.023	17128
902.141	16953
902.26	16930
902.379	17045
902.498	16949
902.617	16828
902.735	16991
902.854	16801
902.973	16740
903.091	16599
903.21	16531
903.328	16592
903.446	16375
903.565	16432
903.683	16268
903.801	16284
903.919	16398
904.038	16211
904.156	16101
904.274	16249
904.392	16059
904.51	16097
904.627	16044
904.745	16211
904.863	16219
904.981	15842
905.098	15755
905.216	15701
905.334	15884
905.451	15838
905.569	15709
905.686	15739
905.803	15717
905.921	15473
906.038	15656
906.155	15526
906.272	15401
906.389	15568
906.506	15241
906.623	15336
906.74	15351
906.857	15157
906.974	15093
907.091	15329
907.208	15511
907.324	15245
907.441	15146
907.557	15066
907.674	14967
907.79	14902
907.907	14899
908.023	15062
908.139	14979
908.256	14895
908.372	14872
908.488	14800
908.604	14785
908.72	14670
908.836	14739
908.952	14655
909.068	14648
909.184	14845
909.3	14659
909.415	14648
909.531	14629
909.647	14549
909.762	14469
909.878	14339
909.993	14499
910.108	14313
910.224	14381
910.339	14275
910.454	14324
910.57	14225
910.685	14153
910.8	14412
910.915	14355
911.03	14248
911.145	14008
911.259	14096
911.374	13963
911.489	13963
911.604	13902
911.718	13811
911.833	13811
911.947	13662
912.062	13609
912.176	13765
912.291	13818
912.405	13727
912.519	13947
912.633	13902
912.748	13841
912.862	13750
912.976	13700
913.09	13495
913.204	13571
913.318	13586
913.431	13799
913.545	13639
913.659	13700
913.772	13613
913.886	13552
914	13381
914.113	13506
914.226	13571
914.34	13582
914.453	13381
914.566	13563
914.68	13358
914.793	13388
914.906	13213
915.019	13149
915.132	13171
915.245	13213
915.358	13168
915.47	13213
915.583	13160
915.696	13240
915.809	13282
915.921	13278
916.034	13099
916.146	13050
916.259	13099
916.371	13175
916.483	13149
916.595	12943
916.708	12958
916.82	13053
916.932	12947
917.044	12993
917.156	12970
917.268	12901
917.38	12924
917.491	12844
917.603	12795
917.715	12920
917.826	12909
917.938	12829
918.049	12700
918.161	12787
918.272	12897
918.384	12954
918.495	12757
918.606	12692
918.717	12620
918.828	12703
918.939	12692
919.05	12536
919.161	12563
919.272	12471
919.383	12521
919.494	12623
919.604	12745
919.715	12448
919.826	12601
919.936	12616
920.047	12707
920.157	12650
920.267	12738
920.378	12559
920.488	12566
920.598	12749
920.708	12886
920.818	12734
920.928	12741
921.038	12897
921.148	12897
921.258	12574
921.368	12460
921.477	12384
921.587	12422
921.697	12213
921.806	12395
921.916	12247
922.025	12060
922.134	12060
922.244	12022
922.353	12114
922.462	11893
922.571	11920
922.68	11733
922.789	11676
922.898	11718
923.007	11684
923.116	11726
923.224	11703
923.333	11695
923.442	11554
923.55	11501
923.659	11577
923.767	11611
923.876	11490
923.984	11619
924.092	11520
924.201	11520
924.309	11474
924.417	11490
924.525	11414
924.633	11444
924.741	12152
924.849	11231
924.956	11414
925.064	11212
925.172	11204
925.279	11239
925.387	11280
925.494	11212
925.602	11364
925.709	11349
925.816	11136
925.924	11277
926.031	11227
926.138	11250
926.245	11174
926.352	11128
926.459	11269
926.566	11299
926.673	11159
926.779	11033
926.886	10923
926.993	10946
927.099	10797
927.206	10828
927.312	10790
927.419	10904
927.525	10839
927.631	10889
927.737	10809
927.843	10660
927.95	10615
928.056	10698
928.162	10717
928.267	10805
928.373	11265
928.479	10771
928.585	10561
928.69	10706
928.796	10672
928.901	10554
929.007	10447
929.112	10558
929.218	10554
929.323	10516
929.428	10466
929.533	10607
929.638	10402
929.743	10360
929.848	10497
929.953	10474
930.058	10265
930.163	10158
930.267	10173
930.372	10337
930.477	10169
930.581	10428
930.685	10284
930.79	10128
930.894	10090
930.998	10082
931.103	10249
931.207	9876
931.311	9827
931.415	9671
931.519	9576
931.623	9458
