Data from test_V78500241_134.txt Node
Date: Fri Mar 25 14:34:39 CST 2022
User: usil
Spectrometer: V785-0024
Trigger mode: 0
Integration Time (sec): 4.000000E-1
Scans to average: 1
Nonlinearity correction enabled: false
Boxcar width: 0
Storing dark spectrum: false
XAxis mode: Wavelengths
Number of Pixels in Spectrum: 1024
>>>>>Begin Spectral Data<<<<<
801.071	30003
801.214	29961
801.356	29821
801.499	29608
801.641	29608
801.783	29402
801.926	29436
802.068	29235
802.211	29315
802.353	29250
802.496	29083
802.638	29090
802.78	29098
802.923	28896
803.065	28934
803.208	28961
803.35	28968
803.492	29204
803.635	29174
803.777	29204
803.919	29269
804.061	29524
804.204	29318
804.346	29242
804.488	29155
804.63	29178
804.773	29204
804.915	29364
805.057	29474
805.199	29490
805.341	29615
805.483	29581
805.626	29817
805.768	29642
805.91	29748
806.052	29882
806.194	29824
806.336	30209
806.478	30194
806.62	30327
806.762	30525
806.904	30848
807.046	31285
807.188	31476
807.33	31803
807.472	32145
807.614	32693
807.756	33271
807.898	33899
808.04	34854
808.182	36167
808.324	38119
808.465	40070
808.607	42517
808.749	44404
808.891	45378
809.033	45458
809.174	44195
809.316	42220
809.458	39857
809.6	37784
809.741	35843
809.883	34542
810.025	33732
810.166	32940
810.308	32297
810.45	32024
810.591	31548
810.733	31232
810.875	30844
811.016	30528
811.158	30528
811.299	30547
811.441	30509
811.582	30490
811.724	30262
811.865	30171
812.007	30064
812.148	30022
812.29	30003
812.431	29992
812.573	30254
812.714	30171
812.855	30300
812.997	30209
813.138	30460
813.279	30273
813.421	30182
813.562	30030
813.703	29836
813.845	29802
813.986	29531
814.127	29337
814.268	29162
814.41	29197
814.551	29109
814.692	29296
814.833	29067
814.974	28904
815.115	28934
815.256	28850
815.397	28790
815.539	28725
815.68	28687
815.821	28847
815.962	28713
816.103	28809
816.244	28470
816.385	28344
816.526	28276
816.666	28051
816.807	28070
816.948	28105
817.089	28090
817.23	28082
817.371	27922
817.512	27968
817.653	27827
817.793	28025
817.934	27922
818.075	27972
818.216	27926
818.356	27804
818.497	27770
818.638	27644
818.778	27652
818.919	27667
819.06	27724
819.2	27648
819.341	27808
819.481	27880
819.622	27987
819.762	28181
819.903	28029
820.043	28013
820.184	28021
820.324	27945
820.465	27846
820.605	27880
820.746	27736
820.886	27698
821.026	27789
821.167	27641
821.307	27686
821.447	27785
821.588	27644
821.728	27466
821.868	27157
822.008	27192
822.149	26979
822.289	26963
822.429	26845
822.569	26644
822.709	26750
822.849	26590
822.99	26533
823.13	26480
823.27	26484
823.41	26180
823.55	26103
823.69	26263
823.83	26275
823.97	26161
824.11	25970
824.25	25936
824.389	25997
824.529	26073
824.669	26088
824.809	26046
824.949	25989
825.089	26069
825.228	26119
825.368	25822
825.508	25799
825.648	25803
825.787	25921
825.927	25830
826.067	25921
826.206	25772
826.346	25913
826.485	25803
826.625	25761
826.765	25898
826.904	25947
827.044	25556
827.183	25575
827.323	25476
827.462	25457
827.601	25540
827.741	25384
827.88	25495
828.02	25365
828.159	25479
828.298	25533
828.437	25403
828.577	25476
828.716	25499
828.855	25422
828.994	25213
829.134	25179
829.273	25228
829.412	25126
829.551	25008
829.69	25091
829.829	25160
829.968	25110
830.107	25171
830.246	25213
830.385	25088
830.524	24985
830.663	24932
830.802	24905
830.941	24711
831.08	24654
831.219	24665
831.357	24760
831.496	24875
831.635	24734
831.774	24593
831.913	24601
832.051	24551
832.19	24483
832.329	24494
832.467	24433
832.606	24422
832.744	24464
832.883	24604
833.022	24532
833.16	24631
833.299	24688
833.437	24749
833.576	24901
833.714	24977
833.852	25065
833.991	25198
834.129	25198
834.267	25213
834.406	25114
834.544	25023
834.682	25076
834.821	25065
834.959	24954
835.097	24696
835.235	24726
835.373	24483
835.511	24517
835.65	24334
835.788	24300
835.926	24190
836.064	24049
836.202	24064
836.34	24125
836.478	24155
836.615	24110
836.753	24251
836.891	24239
837.029	24091
837.167	24087
837.305	24007
837.443	24045
837.58	24007
837.718	24045
837.856	23980
837.993	23828
838.131	23973
838.269	23794
838.406	23805
838.544	23691
838.681	23558
838.819	23493
838.956	23349
839.094	23345
839.231	23258
839.369	23455
839.506	23630
839.643	23455
839.781	23349
839.918	23349
840.055	23235
840.193	23280
840.33	23105
840.467	23143
840.604	23178
840.742	23493
840.879	23166
841.016	23185
841.153	23159
841.29	23258
841.427	23185
841.564	23052
841.701	23265
841.838	23143
841.975	22972
842.112	23098
842.249	22881
842.385	23014
842.522	23052
842.659	23029
842.796	23003
842.933	22911
843.069	22908
843.206	22972
843.343	23094
843.479	23105
843.616	23010
843.752	22930
843.889	22946
844.025	23117
844.162	22911
844.298	23231
844.435	23121
844.571	23193
844.708	23391
844.844	23741
844.98	24155
845.117	24391
845.253	24996
845.389	26115
845.525	28535
845.661	32297
845.798	36700
845.934	40398
846.07	41866
846.206	40896
846.342	38016
846.478	33382
846.614	29258
846.75	26629
846.886	25194
847.022	24296
847.158	23490
847.294	23318
847.429	22850
847.565	22679
847.701	22968
847.837	22238
847.972	22173
848.108	22169
848.244	22116
848.379	22029
848.515	21880
848.65	21895
848.786	21789
848.921	21808
849.057	21884
849.192	21846
849.328	21766
849.463	21656
849.598	21728
849.734	21595
849.869	21709
850.004	21534
850.14	21481
850.275	21443
850.41	21344
850.545	21405
850.68	21416
850.815	21473
850.95	21511
851.085	21583
851.22	21454
851.355	21477
851.49	21515
851.625	21408
851.76	21526
851.895	21332
852.03	21340
852.165	21378
852.299	21519
852.434	21507
852.569	21583
852.703	21511
852.838	21534
852.973	21458
853.107	21595
853.242	21519
853.376	21488
853.511	21435
853.645	21340
853.78	21530
853.914	21591
854.048	21393
854.183	21435
854.317	21496
854.451	21690
854.585	21580
854.72	21458
854.854	21660
854.988	21370
855.122	21382
855.256	21180
855.39	21355
855.524	21397
855.658	21313
855.792	21443
855.926	21317
856.06	21306
856.194	21233
856.327	21237
856.461	21241
856.595	21093
856.729	21184
856.862	21382
856.996	21294
857.13	21192
857.263	21291
857.397	21237
857.53	21127
857.664	21127
857.797	21287
857.931	21351
858.064	21062
858.197	21252
858.331	21085
858.464	21119
858.597	21058
858.731	21176
858.864	21077
858.997	21093
859.13	21207
859.263	21138
859.396	21180
859.529	21093
859.662	21036
859.795	20967
859.928	21028
860.061	21161
860.194	21264
860.327	21161
860.46	21081
860.592	21112
860.725	21119
860.858	21176
860.99	21142
861.123	20902
861.256	20979
861.388	20902
861.521	21739
861.653	20830
861.786	20925
861.918	20864
862.05	20948
862.183	21085
862.315	21138
862.447	21169
862.58	21138
862.712	20785
862.844	20796
862.976	20819
863.108	20781
863.24	21150
863.372	20727
863.504	20781
863.636	20872
863.768	20785
863.9	20792
864.032	20552
864.164	20621
864.296	20571
864.428	20727
864.559	20758
864.691	20777
864.823	20663
864.954	20667
865.086	20781
865.217	20579
865.349	20511
865.48	20568
865.612	20480
865.743	20727
865.875	20674
866.006	20556
866.137	20587
866.269	20503
866.4	20670
866.531	20560
866.662	20556
866.793	20568
866.924	20484
867.055	20625
867.186	20564
867.317	20621
867.448	20530
867.579	20457
867.71	20389
867.841	20522
867.972	20568
868.103	20537
868.233	20568
868.364	20571
868.495	20655
868.625	20826
868.756	20845
868.886	20701
869.017	20826
869.147	20914
869.278	20876
869.408	20834
869.539	20705
869.669	20963
869.799	20887
869.929	20933
870.06	21066
870.19	21032
870.32	21131
870.45	21184
870.58	21260
870.71	21458
870.84	21291
870.97	21351
871.1	21260
871.23	21408
871.36	21485
871.489	21416
871.619	21530
871.749	21572
871.879	21504
872.008	21549
872.138	21553
872.267	21530
872.397	21424
872.526	21428
872.656	21420
872.785	21447
872.915	21561
873.044	21679
873.173	21511
873.303	21663
873.432	21561
873.561	21888
873.69	21705
873.819	21720
873.948	21679
874.077	21762
874.206	21622
874.335	21789
874.464	21884
874.593	21998
874.722	21972
874.851	22048
874.979	22048
875.108	22188
875.237	22086
875.365	22055
875.494	22154
875.623	22261
875.751	22166
875.88	22303
876.008	22489
876.136	22531
876.265	22702
876.393	22793
876.521	23006
876.65	22885
876.778	22930
876.906	22782
877.034	22797
877.162	22999
877.29	23003
877.418	23048
877.546	23113
877.674	23174
877.802	23326
877.93	23322
878.058	23554
878.185	23501
878.313	23813
878.441	23920
878.568	24186
878.696	24407
878.824	25316
878.951	26001
879.079	26914
879.206	28394
879.333	29832
879.461	30916
879.588	31616
879.715	31677
879.842	31255
879.97	29866
880.097	28394
880.224	27176
880.351	26438
880.478	25833
880.605	25358
880.732	25168
880.859	25141
880.986	24882
881.112	24829
881.239	24829
881.366	24471
881.493	24342
881.619	24456
881.746	24376
881.872	24536
881.999	24372
882.125	24555
882.252	24574
882.378	24574
882.505	24532
882.631	24498
882.757	24342
882.883	24357
883.01	24292
883.136	24308
883.262	24182
883.388	24125
883.514	24190
883.64	24232
883.766	24076
883.892	23946
884.018	24144
884.143	24201
884.269	24350
884.395	24087
884.52	23923
884.646	23961
884.772	23908
884.897	23874
885.023	23977
885.148	24011
885.274	24133
885.399	23961
885.524	23676
885.65	23668
885.775	23600
885.9	23284
886.025	23429
886.15	23292
886.275	23181
886.4	22987
886.525	22999
886.65	22843
886.775	22717
886.9	23025
887.025	22881
887.149	22691
887.274	22459
887.399	22242
887.523	22299
887.648	22093
887.773	22055
887.897	22207
888.021	22059
888.146	21960
888.27	22070
888.395	22105
888.519	21998
888.643	21949
888.767	21888
888.891	21797
889.015	21682
889.139	21606
889.263	21625
889.387	21660
889.511	21751
889.635	21618
889.759	21477
889.883	21408
890.006	21424
890.13	21564
890.254	21416
890.377	21230
890.501	21077
890.624	21074
890.748	21180
890.871	21058
890.995	20921
891.118	20762
891.241	20804
891.364	20705
891.488	20887
891.611	20773
891.734	20830
891.857	20735
891.98	20705
892.103	20667
892.226	20697
892.349	20594
892.471	20499
892.594	20499
892.717	20484
892.839	20461
892.962	20465
893.085	20545
893.207	20488
893.33	20202
893.452	20389
893.575	20408
893.697	20427
893.819	20530
893.941	20499
894.064	20465
894.186	20183
894.308	20142
894.43	20294
894.552	20446
894.674	20446
894.796	20187
894.918	20180
895.04	20149
895.161	20237
895.283	20324
895.405	20065
895.526	20164
895.648	20081
895.769	20210
895.891	20100
896.012	20278
896.134	20084
896.255	20199
896.376	20161
896.498	20073
896.619	20096
896.74	19955
896.861	20202
896.982	20355
897.103	20606
897.224	20385
897.345	20278
897.466	20202
897.587	20294
897.708	20347
897.828	20221
897.949	20240
898.07	20142
898.19	20157
898.311	20309
898.431	20214
898.552	20191
898.672	20324
898.792	20317
898.913	20183
899.033	20062
899.153	19993
899.273	19845
899.393	19963
899.513	20092
899.633	19959
899.753	19974
899.873	19868
899.993	20046
900.113	20001
900.232	19921
900.352	19795
900.472	19928
900.591	19803
900.711	19807
900.83	19651
900.95	19837
901.069	19746
901.189	19689
901.308	19464
901.427	19225
901.546	19312
901.665	19282
901.784	19312
901.904	19168
902.023	18993
902.141	18886
902.26	18890
902.379	18821
902.498	18722
902.617	18726
902.735	18798
902.854	18760
902.973	18642
903.091	18471
903.21	18433
903.328	18330
903.446	18205
903.565	18182
903.683	18289
903.801	17988
903.919	18038
904.038	18171
904.156	17912
904.274	17939
904.392	17870
904.51	17824
904.627	17866
904.745	17958
904.863	17961
904.981	17646
905.098	17505
905.216	17562
905.334	17604
905.451	17524
905.569	17509
905.686	17505
905.803	17600
905.921	17231
906.038	17410
906.155	17284
906.272	17239
906.389	17159
906.506	17075
906.623	17102
906.74	16911
906.857	16889
906.974	16927
907.091	17060
907.208	17147
907.324	17064
907.441	16885
907.557	16634
907.674	16694
907.79	16607
907.907	16596
908.023	16615
908.139	16664
908.256	16615
908.372	16512
908.488	16546
908.604	16516
908.72	16447
908.836	16352
908.952	16443
909.068	16310
909.184	16527
909.3	16390
909.415	16402
909.531	16367
909.647	16177
909.762	16162
909.878	16044
909.993	16101
910.108	16048
910.224	15991
910.339	16044
910.454	15911
910.57	15827
910.685	15850
910.8	16128
910.915	15987
911.03	15895
911.145	15736
911.259	15698
911.374	15717
911.489	15637
911.604	15641
911.718	15469
911.833	15454
911.947	15325
912.062	15150
912.176	15279
912.291	15420
912.405	15393
912.519	15614
912.633	15667
912.748	15507
912.862	15310
912.976	15230
913.09	15199
913.204	15138
913.318	15222
913.431	15230
913.545	15188
913.659	15317
913.772	15188
913.886	15005
914	14975
914.113	15077
914.226	15192
914.34	15192
914.453	14933
914.566	15093
914.68	14902
914.793	14960
914.906	14731
915.019	14629
915.132	14583
915.245	14701
915.358	14651
915.47	14686
915.583	14667
915.696	14625
915.809	14826
915.921	14807
916.034	14530
916.146	14617
916.259	14602
916.371	14701
916.483	14648
916.595	14480
916.708	14583
916.82	14530
916.932	14621
917.044	14438
917.156	14526
917.268	14313
917.38	14434
917.491	14328
917.603	14320
917.715	14495
917.826	14476
917.938	14244
918.049	14183
918.161	14332
918.272	14412
918.384	14374
918.495	14271
918.606	14134
918.717	14130
918.828	14142
918.939	14077
919.05	14050
919.161	14035
919.272	13864
919.383	13925
919.494	14130
919.604	14210
919.715	14024
919.826	13856
919.936	14062
920.047	14092
920.157	13993
920.267	14168
920.378	14084
920.488	14001
920.598	14199
920.708	14313
920.818	14050
920.928	14046
921.038	14313
921.148	14225
921.258	13841
921.368	13852
921.477	13776
921.587	13750
921.697	13559
921.806	13723
921.916	13586
922.025	13499
922.134	13396
922.244	13331
922.353	13388
922.462	13255
922.571	13270
922.68	13050
922.789	13042
922.898	13046
923.007	12935
923.116	13023
923.224	13027
923.333	12901
923.442	12821
923.55	12802
923.659	12779
923.767	12837
923.876	12730
923.984	12875
924.092	12726
924.201	12806
924.309	12719
924.417	12726
924.525	12707
924.633	12700
924.741	13628
924.849	12566
924.956	12608
925.064	12471
925.172	12353
925.279	12391
925.387	12502
925.494	12445
925.602	12551
925.709	12460
925.816	12418
925.924	12391
926.031	12528
926.138	12388
926.245	12483
926.352	12254
926.459	12456
926.566	12536
926.673	12311
926.779	12201
926.886	12087
926.993	12110
927.099	12076
927.206	12045
927.312	11942
927.419	12095
927.525	11999
927.631	12022
927.737	11901
927.843	11916
927.95	11794
928.056	11824
928.162	11843
928.267	11901
928.373	12395
928.479	11961
928.585	11707
928.69	11798
928.796	11908
928.901	11745
929.007	11539
929.112	11707
929.218	11653
929.323	11585
929.428	11532
929.533	11684
929.638	11551
929.743	11627
929.848	11573
929.953	11634
930.058	11398
930.163	11223
930.267	11318
930.372	11368
930.477	11235
930.581	11417
930.685	11364
930.79	11113
930.894	11151
930.998	11132
931.103	11220
931.207	10923
931.311	10949
931.415	10752
931.519	10542
931.623	10558
