Data from test_V78500241_3337.txt Node
Date: Fri Mar 25 14:56:57 CST 2022
User: usil
Spectrometer: V785-0024
Trigger mode: 0
Integration Time (sec): 4.000000E-1
Scans to average: 1
Nonlinearity correction enabled: false
Boxcar width: 0
Storing dark spectrum: false
XAxis mode: Wavelengths
Number of Pixels in Spectrum: 1024
>>>>>Begin Spectral Data<<<<<
801.071	21937
801.214	21812
801.356	21618
801.499	21473
801.641	21310
801.783	21252
801.926	21416
802.068	21230
802.211	21195
802.353	21119
802.496	20925
802.638	20834
802.78	20804
802.923	20804
803.065	20613
803.208	20575
803.35	20765
803.492	20857
803.635	20727
803.777	20625
803.919	20727
804.061	21058
804.204	20636
804.346	20522
804.488	20533
804.63	20613
804.773	20495
804.915	20598
805.057	20731
805.199	20476
805.341	20663
805.483	20606
805.626	20594
805.768	20556
805.91	20571
806.052	20526
806.194	20530
806.336	20724
806.478	20442
806.62	20518
806.762	20568
806.904	20667
807.046	20895
807.188	20773
807.33	20842
807.472	20823
807.614	20838
807.756	20792
807.898	20678
808.04	20537
808.182	20606
808.324	20663
808.465	20708
808.607	20769
808.749	20914
808.891	21039
809.033	21142
809.174	20944
809.316	20777
809.458	20933
809.6	20876
809.741	21062
809.883	20960
810.025	21131
810.166	21024
810.308	20971
810.45	21119
810.591	20880
810.733	20682
810.875	20708
811.016	20564
811.158	20522
811.299	20674
811.441	20743
811.582	20693
811.724	20568
811.865	20625
812.007	20708
812.148	20651
812.29	20720
812.431	20781
812.573	20944
812.714	21043
812.855	21161
812.997	21218
813.138	21344
813.279	21245
813.421	21146
813.562	21150
813.703	20819
813.845	20743
813.986	20476
814.127	20343
814.268	20221
814.41	20301
814.551	20233
814.692	20396
814.833	20084
814.974	20145
815.115	20115
815.256	20077
815.397	20065
815.539	20031
815.68	19940
815.821	19955
815.962	20039
816.103	19841
816.244	19776
816.385	19693
816.526	19628
816.666	19537
816.807	19327
816.948	19430
817.089	19460
817.23	19434
817.371	19373
817.512	19285
817.653	19343
817.793	19202
817.934	19282
818.075	19346
818.216	19232
818.356	19331
818.497	19080
818.638	19061
818.778	19103
818.919	19008
819.06	19023
819.2	19240
819.341	19133
819.481	19240
819.622	19407
819.762	19537
819.903	19396
820.043	19308
820.184	19297
820.324	19365
820.465	19308
820.605	19324
820.746	19194
820.886	19076
821.026	19365
821.167	19183
821.307	19369
821.447	19289
821.588	19084
821.728	18958
821.868	18905
822.008	18684
822.149	18787
822.289	18582
822.429	18513
822.569	18410
822.709	18452
822.849	18182
822.99	18117
823.13	18224
823.27	18174
823.41	18049
823.55	17999
823.69	18102
823.83	18045
823.97	17859
824.11	17802
824.25	17779
824.389	17779
824.529	17840
824.669	17824
824.809	17931
824.949	17916
825.089	17935
825.228	17790
825.368	17623
825.508	17577
825.648	17573
825.787	17535
825.927	17581
826.067	17429
826.206	17539
826.346	17592
826.485	17646
826.625	17539
826.765	17600
826.904	17634
827.044	17360
827.183	17364
827.323	17216
827.462	17410
827.601	17223
827.741	17200
827.88	17353
828.02	17239
828.159	17254
828.298	17360
828.437	17220
828.577	17330
828.716	17356
828.855	17216
828.994	16961
829.134	16999
829.273	17086
829.412	16991
829.551	17029
829.69	17010
829.829	17071
829.968	17105
830.107	17147
830.246	17025
830.385	16991
830.524	17029
830.663	16953
830.802	16767
830.941	16630
831.08	16694
831.219	16656
831.357	16767
831.496	16854
831.635	16664
831.774	16512
831.913	16596
832.051	16538
832.19	16485
832.329	16455
832.467	16363
832.606	16280
832.744	16306
832.883	16367
833.022	16249
833.16	16386
833.299	16405
833.437	16318
833.576	16386
833.714	16371
833.852	16508
833.991	16375
834.129	16489
834.267	16527
834.406	16432
834.544	16371
834.682	16386
834.821	16402
834.959	16504
835.097	16379
835.235	16512
835.373	16436
835.511	16478
835.65	16360
835.788	16295
835.926	16234
836.064	16109
836.202	16188
836.34	16249
836.478	16382
836.615	16306
836.753	16322
836.891	16512
837.029	16348
837.167	16303
837.305	16303
837.443	16249
837.58	16173
837.718	16363
837.856	16348
837.993	16150
838.131	16196
838.269	16177
838.406	16051
838.544	16131
838.681	15915
838.819	15873
838.956	15663
839.094	15679
839.231	15732
839.369	15903
839.506	16071
839.643	15865
839.781	15759
839.918	15732
840.055	15766
840.193	15808
840.33	15690
840.467	15701
840.604	15713
840.742	15972
840.879	15663
841.016	15599
841.153	15629
841.29	15918
841.427	15755
841.564	15831
841.701	15713
841.838	15641
841.975	15675
842.112	15584
842.249	15576
842.385	15584
842.522	15793
842.659	15553
842.796	15561
842.933	15561
843.069	15488
843.206	15454
843.343	15637
843.479	15538
843.616	15523
843.752	15340
843.889	15294
844.025	15538
844.162	15249
844.298	15439
844.435	15367
844.571	15294
844.708	15344
844.844	15519
844.98	15568
845.117	15500
845.253	15336
845.389	15252
845.525	15344
845.661	15241
845.798	15116
845.934	15077
846.07	15119
846.206	15230
846.342	15188
846.478	15127
846.614	14944
846.75	14929
846.886	14895
847.022	15020
847.158	14876
847.294	14944
847.429	14895
847.565	14842
847.701	15146
847.837	14617
847.972	14769
848.108	14785
848.244	14720
848.379	14610
848.515	14492
848.65	14488
848.786	14590
848.921	14560
849.057	14663
849.192	14651
849.328	14549
849.463	14602
849.598	14514
849.734	14434
849.869	14396
850.004	14309
850.14	14396
850.275	14271
850.41	14275
850.545	14275
850.68	14328
850.815	14286
850.95	14317
851.085	14488
851.22	14332
851.355	14370
851.49	14252
851.625	14309
851.76	14252
851.895	14252
852.03	14225
852.165	14286
852.299	14381
852.434	14396
852.569	14408
852.703	14320
852.838	14434
852.973	14469
853.107	14465
853.242	14229
853.376	14244
853.511	14103
853.645	14081
853.78	14309
853.914	14172
854.048	14187
854.183	14084
854.317	14123
854.451	14278
854.585	14206
854.72	14142
854.854	14313
854.988	14157
855.122	14233
855.256	14046
855.39	14172
855.524	14119
855.658	14244
855.792	14275
855.926	14282
856.06	14259
856.194	14244
856.327	14142
856.461	14062
856.595	14111
856.729	14149
856.862	14256
856.996	14221
857.13	14298
857.263	14259
857.397	14305
857.53	14218
857.664	14119
857.797	14248
857.931	14248
858.064	14263
858.197	14298
858.331	14149
858.464	14084
858.597	13963
858.731	14199
858.864	14077
858.997	14195
859.13	14229
859.263	14317
859.396	14214
859.529	14134
859.662	14145
859.795	14126
859.928	14138
860.061	14282
860.194	14396
860.327	14290
860.46	14229
860.592	14256
860.725	14324
860.858	14210
860.99	14153
861.123	14096
861.256	14149
861.388	14183
861.521	15005
861.653	14077
861.786	14039
861.918	14081
862.05	14100
862.183	14005
862.315	14233
862.447	14180
862.58	14050
862.712	13856
862.844	13871
862.976	14005
863.108	13974
863.24	14164
863.372	13898
863.504	13959
863.636	13936
863.768	13997
863.9	13852
864.032	13852
864.164	13887
864.296	14062
864.428	14134
864.559	13982
864.691	14039
864.823	13978
864.954	13936
865.086	13928
865.217	13967
865.349	13837
865.48	13909
865.612	14008
865.743	14027
865.875	13936
866.006	13906
866.137	13833
866.269	13963
866.4	13917
866.531	13921
866.662	13860
866.793	13925
866.924	13940
867.055	13963
867.186	13974
867.317	13921
867.448	13807
867.579	13860
867.71	13925
867.841	13868
867.972	13928
868.103	13814
868.233	14020
868.364	13925
868.495	13932
868.625	14153
868.756	14332
868.886	14073
869.017	14157
869.147	14214
869.278	14263
869.408	14176
869.539	14271
869.669	14267
869.799	14275
869.929	14301
870.06	14298
870.19	14427
870.32	14488
870.45	14492
870.58	14651
870.71	14838
870.84	14629
870.97	14507
871.1	14537
871.23	14705
871.36	14762
871.489	14693
871.619	14845
871.749	14861
871.879	14796
872.008	14845
872.138	14830
872.267	14815
872.397	14765
872.526	14693
872.656	14632
872.785	14594
872.915	14891
873.044	14868
873.173	14792
873.303	14975
873.432	14918
873.561	14861
873.69	14880
873.819	14880
873.948	14929
874.077	14899
874.206	14883
874.335	14872
874.464	15020
874.593	15123
874.722	15032
874.851	15184
874.979	15150
875.108	15199
875.237	15081
875.365	15009
875.494	15093
875.623	15332
875.751	15055
875.88	15161
876.008	15222
876.136	15359
876.265	15545
876.393	15755
876.521	15728
876.65	15648
876.778	15667
876.906	15595
877.034	15629
877.162	15568
877.29	15511
877.418	15717
877.546	15663
877.674	15625
877.802	15599
877.93	15553
878.058	15530
878.185	15382
878.313	15591
878.441	15542
878.568	15370
878.696	15412
878.824	15530
878.951	15561
879.079	15778
879.206	15876
879.333	15774
879.461	15542
879.588	15656
879.715	15599
879.842	15762
879.97	15698
880.097	15454
880.224	15408
880.351	15603
880.478	15367
880.605	15416
880.732	15435
880.859	15606
880.986	15443
881.112	15549
881.239	15325
881.366	15173
881.493	15135
881.619	15039
881.746	15032
881.872	14998
881.999	15070
882.125	15039
882.252	15192
882.378	15146
882.505	15180
882.631	15020
882.757	14921
882.883	14990
883.01	14967
883.136	14777
883.262	14815
883.388	14727
883.514	14883
883.64	14902
883.766	14857
883.892	14701
884.018	14670
884.143	14861
884.269	15028
884.395	14632
884.52	14598
884.646	14629
884.772	14552
884.897	14537
885.023	14530
885.148	14739
885.274	14765
885.399	14796
885.524	14644
885.65	14678
885.775	14682
885.9	14697
886.025	14762
886.15	14678
886.275	14651
886.4	14492
886.525	14564
886.65	14533
886.775	14560
886.9	14617
887.025	14750
887.149	14625
887.274	14423
887.399	14423
887.523	14290
887.648	14446
887.773	14320
887.897	14526
888.021	14571
888.146	14358
888.27	14427
888.395	14583
888.519	14522
888.643	14564
888.767	14514
888.891	14393
889.015	14366
889.139	14381
889.263	14355
889.387	14427
889.511	14579
889.635	14393
889.759	14259
889.883	14263
890.006	14355
890.13	14412
890.254	14202
890.377	14183
890.501	14005
890.624	14130
890.748	14138
890.871	14176
890.995	14020
891.118	13967
891.241	13978
891.364	14024
891.488	14123
891.611	14016
891.734	14039
891.857	14088
891.98	14035
892.103	14126
892.226	14031
892.349	14046
892.471	13928
892.594	13879
892.717	14031
892.839	13959
892.962	14005
893.085	14016
893.207	13978
893.33	13860
893.452	13856
893.575	14115
893.697	13963
893.819	14145
893.941	14214
894.064	14126
894.186	13932
894.308	13967
894.43	14161
894.552	14221
894.674	14164
894.796	14062
894.918	14069
895.04	14058
895.161	14153
895.283	14138
895.405	14012
895.526	14008
895.648	14069
895.769	14164
895.891	14206
896.012	14244
896.134	14164
896.255	14183
896.376	14153
896.498	14202
896.619	14195
896.74	14218
896.861	14252
896.982	14507
897.103	14689
897.224	14370
897.345	14370
897.466	14415
897.587	14438
897.708	14583
897.828	14518
897.949	14423
898.07	14298
898.19	14412
898.311	14625
898.431	14473
898.552	14518
898.672	14651
898.792	14648
898.913	14598
899.033	14446
899.153	14419
899.273	14305
899.393	14374
899.513	14412
899.633	14328
899.753	14415
899.873	14278
899.993	14412
900.113	14366
900.232	14370
900.352	14396
900.472	14183
900.591	14225
900.711	14267
900.83	14210
900.95	14370
901.069	14313
901.189	14138
901.308	14084
901.427	13906
901.546	13944
901.665	13890
901.784	13906
901.904	13772
902.023	13700
902.141	13518
902.26	13499
902.379	13510
902.498	13487
902.617	13419
902.735	13556
902.854	13506
902.973	13362
903.091	13194
903.21	13187
903.328	13247
903.446	13145
903.565	13114
903.683	13175
903.801	13000
903.919	13069
904.038	13023
904.156	12943
904.274	12928
904.392	12882
904.51	12817
904.627	12806
904.745	12951
904.863	12890
904.981	12749
905.098	12540
905.216	12578
905.334	12642
905.451	12654
905.569	12471
905.686	12544
905.803	12597
905.921	12407
906.038	12445
906.155	12422
906.272	12216
906.389	12300
906.506	12140
906.623	12197
906.74	12190
906.857	12076
906.974	12064
907.091	12254
907.208	12308
907.324	12216
907.441	12114
907.557	11874
907.674	11942
907.79	11805
907.907	11931
908.023	11916
908.139	11977
908.256	11805
908.372	11855
908.488	11840
908.604	11756
908.72	11577
908.836	11691
908.952	11653
909.068	11707
909.184	11752
909.3	11726
909.415	11741
909.531	11691
909.647	11501
909.762	11474
909.878	11414
909.993	11509
910.108	11539
910.224	11376
910.339	11425
910.454	11299
910.57	11372
910.685	11250
910.8	11501
910.915	11478
911.03	11216
911.145	11174
911.259	11121
911.374	11151
911.489	11025
911.604	10946
911.718	10919
911.833	10942
911.947	10771
912.062	10763
912.176	10869
912.291	10930
912.405	10904
912.519	11086
912.633	11151
912.748	10972
912.862	10854
912.976	10835
913.09	10759
913.204	10740
913.318	10831
913.431	10885
913.545	10889
913.659	10957
913.772	10740
913.886	10694
914	10714
914.113	10736
914.226	10896
914.34	10733
914.453	10584
914.566	10786
914.68	10752
914.793	10634
914.906	10459
915.019	10440
915.132	10306
915.245	10413
915.358	10432
915.47	10527
915.583	10478
915.696	10428
915.809	10584
915.921	10573
916.034	10455
916.146	10394
916.259	10371
916.371	10497
916.483	10436
916.595	10322
916.708	10424
916.82	10363
916.932	10398
917.044	10291
917.156	10398
917.268	10242
917.38	10280
917.491	10287
917.603	10261
917.715	10348
917.826	10291
917.938	10242
918.049	10204
918.161	10246
918.272	10432
918.384	10409
918.495	10287
918.606	10169
918.717	10135
918.828	10204
918.939	10238
919.05	10067
919.161	10219
919.272	9895
919.383	9983
919.494	10234
919.604	10375
919.715	10211
919.826	10120
919.936	10116
920.047	10295
920.157	10173
920.267	10413
920.378	10249
920.488	10105
920.598	10371
920.708	10538
920.818	10398
920.928	10405
921.038	10554
921.148	10459
921.258	10230
921.368	10177
921.477	10071
921.587	10025
921.697	9865
921.806	10090
921.916	9865
922.025	9823
922.134	9759
922.244	9701
922.353	9793
922.462	9606
922.571	9644
922.68	9382
922.789	9439
922.898	9447
923.007	9355
923.116	9450
923.224	9439
923.333	9420
923.442	9325
923.55	9264
923.659	9321
923.767	9397
923.876	9302
923.984	9382
924.092	9279
924.201	9310
924.309	9291
924.417	9332
924.525	9272
924.633	9226
924.741	10204
924.849	9058
924.956	9222
925.064	9028
925.172	9005
925.279	8990
925.387	9135
925.494	9039
925.602	9211
925.709	9188
925.816	9112
925.924	9024
926.031	9192
926.138	9131
926.245	9112
926.352	9017
926.459	9214
926.566	9192
926.673	8982
926.779	8910
926.886	8986
926.993	8864
927.099	8826
927.206	8769
927.312	8777
927.419	8883
927.525	8807
927.631	8937
927.737	8750
927.843	8743
927.95	8579
928.056	8682
928.162	8720
928.267	8727
928.373	9363
928.479	8826
928.585	8590
928.69	8678
928.796	8731
928.901	8663
929.007	8446
929.112	8587
929.218	8594
929.323	8564
929.428	8507
929.533	8648
929.638	8419
929.743	8571
929.848	8556
929.953	8560
930.058	8370
930.163	8244
930.267	8286
930.372	8507
930.477	8252
930.581	8488
930.685	8408
930.79	8214
930.894	8259
930.998	8233
931.103	8400
931.207	8016
931.311	7944
931.415	7906
931.519	7780
931.623	7738
