Data from test_V78500241_1127.txt Node
Date: Fri Mar 25 14:41:33 CST 2022
User: usil
Spectrometer: V785-0024
Trigger mode: 0
Integration Time (sec): 4.000000E-1
Scans to average: 1
Nonlinearity correction enabled: false
Boxcar width: 0
Storing dark spectrum: false
XAxis mode: Wavelengths
Number of Pixels in Spectrum: 1024
>>>>>Begin Spectral Data<<<<<
801.071	22656
801.214	22523
801.356	22276
801.499	22230
801.641	21922
801.783	21884
801.926	21972
802.068	21888
802.211	21800
802.353	21778
802.496	21549
802.638	21405
802.78	21401
802.923	21313
803.065	21260
803.208	21256
803.35	21348
803.492	21428
803.635	21447
803.777	21279
803.919	21450
804.061	21644
804.204	21488
804.346	21268
804.488	21291
804.63	21241
804.773	21207
804.915	21237
805.057	21279
805.199	21138
805.341	21256
805.483	21401
805.626	21291
805.768	21218
805.91	21173
806.052	21245
806.194	21176
806.336	21431
806.478	21291
806.62	21252
806.762	21382
806.904	21378
807.046	21667
807.188	21713
807.33	21576
807.472	21724
807.614	21561
807.756	21644
807.898	21682
808.04	21405
808.182	21519
808.324	21572
808.465	21606
808.607	21667
808.749	21873
808.891	22074
809.033	22086
809.174	22010
809.316	21823
809.458	21835
809.6	21728
809.741	21846
809.883	21823
810.025	21903
810.166	21949
810.308	21903
810.45	21907
810.591	21732
810.733	21671
810.875	21534
811.016	21386
811.158	21397
811.299	21538
811.441	21568
811.582	21542
811.724	21458
811.865	21477
812.007	21496
812.148	21507
812.29	21485
812.431	21591
812.573	21800
812.714	21842
812.855	21964
812.997	22017
813.138	22166
813.279	22093
813.421	22063
813.562	21835
813.703	21766
813.845	21545
813.986	21146
814.127	21081
814.268	21028
814.41	21013
814.551	21032
814.692	21024
814.833	21005
814.974	20895
815.115	20899
815.256	20876
815.397	20826
815.539	21043
815.68	20762
815.821	20705
815.962	20682
816.103	20670
816.244	20606
816.385	20564
816.526	20434
816.666	20248
816.807	20187
816.948	20180
817.089	20355
817.23	20256
817.371	20218
817.512	20115
817.653	20016
817.793	20043
817.934	20294
818.075	20172
818.216	20187
818.356	20016
818.497	19989
818.638	19925
818.778	19837
818.919	19902
819.06	19944
819.2	19951
819.341	20084
819.481	19951
819.622	20058
819.762	20332
819.903	20256
820.043	20221
820.184	20039
820.324	20092
820.465	20092
820.605	20134
820.746	20115
820.886	19932
821.026	20168
821.167	20031
821.307	20164
821.447	20024
821.588	19906
821.728	19951
821.868	19765
822.008	19430
822.149	19529
822.289	19419
822.429	19304
822.569	19225
822.709	19225
822.849	19027
822.99	19076
823.13	18867
823.27	18905
823.41	18798
823.55	18757
823.69	18787
823.83	18886
823.97	18738
824.11	18669
824.25	18673
824.389	18582
824.529	18677
824.669	18646
824.809	18722
824.949	18681
825.089	18692
825.228	18506
825.368	18388
825.508	18414
825.648	18323
825.787	18403
825.927	18551
826.067	18228
826.206	18251
826.346	18330
826.485	18365
826.625	18296
826.765	18475
826.904	18399
827.044	18007
827.183	18091
827.323	18045
827.462	18194
827.601	18072
827.741	18079
827.88	17973
828.02	17874
828.159	18041
828.298	18171
828.437	18186
828.577	18171
828.716	18262
828.855	18064
828.994	17828
829.134	17771
829.273	17821
829.412	17866
829.551	17783
829.69	17771
829.829	17809
829.968	17828
830.107	17878
830.246	17805
830.385	17790
830.524	17752
830.663	17630
830.802	17505
830.941	17417
831.08	17353
831.219	17467
831.357	17539
831.496	17581
831.635	17379
831.774	17463
831.913	17334
832.051	17220
832.19	17227
832.329	17250
832.467	17124
832.606	17056
832.744	17124
832.883	17204
833.022	17014
833.16	17204
833.299	17151
833.437	17102
833.576	17261
833.714	17193
833.852	17212
833.991	17204
834.129	17353
834.267	17280
834.406	17200
834.544	17181
834.682	17261
834.821	17162
834.959	17436
835.097	17143
835.235	17250
835.373	17189
835.511	17250
835.65	17075
835.788	17170
835.926	16896
836.064	16900
836.202	16843
836.34	17143
836.478	17258
836.615	16999
836.753	17132
836.891	17185
837.029	17170
837.167	17086
837.305	17102
837.443	16999
837.58	16923
837.718	17029
837.856	17048
837.993	16790
838.131	16984
838.269	16965
838.406	16839
838.544	16904
838.681	16668
838.819	16649
838.956	16504
839.094	16599
839.231	16436
839.369	16641
839.506	16889
839.643	16809
839.781	16432
839.918	16443
840.055	16451
840.193	16451
840.33	16451
840.467	16440
840.604	16569
840.742	16736
840.879	16356
841.016	16402
841.153	16333
841.29	16554
841.427	16596
841.564	16489
841.701	16546
841.838	16527
841.975	16428
842.112	16428
842.249	16318
842.385	16192
842.522	16478
842.659	16382
842.796	16295
842.933	16287
843.069	16192
843.206	16173
843.343	16363
843.479	16249
843.616	16207
843.752	15941
843.889	16010
844.025	16211
844.162	16097
844.298	16166
844.435	16044
844.571	15975
844.708	16109
844.844	16272
844.98	16204
845.117	16154
845.253	16105
845.389	15937
845.525	16082
845.661	16112
845.798	16154
845.934	16093
846.07	16284
846.206	16253
846.342	16261
846.478	16074
846.614	15778
846.75	15755
846.886	15595
847.022	15797
847.158	15671
847.294	15682
847.429	15717
847.565	15656
847.701	15941
847.837	15370
847.972	15275
848.108	15443
848.244	15412
848.379	15359
848.515	15176
848.65	15157
848.786	15214
848.921	15207
849.057	15344
849.192	15332
849.328	15268
849.463	15218
849.598	15100
849.734	15195
849.869	15043
850.004	14937
850.14	15062
850.275	15005
850.41	14899
850.545	14948
850.68	14944
850.815	15020
850.95	14956
851.085	15222
851.22	15047
851.355	15039
851.49	14952
851.625	14910
851.76	14998
851.895	14857
852.03	14933
852.165	14960
852.299	15070
852.434	15036
852.569	15043
852.703	15062
852.838	15009
852.973	15104
853.107	15089
853.242	15009
853.376	14899
853.511	14765
853.645	14705
853.78	14910
853.914	14826
854.048	14758
854.183	14864
854.317	14891
854.451	14982
854.585	14857
854.72	14834
854.854	14967
854.988	14834
855.122	14876
855.256	14746
855.39	14899
855.524	14929
855.658	14861
855.792	14857
855.926	14986
856.06	14868
856.194	14933
856.327	14842
856.461	14830
856.595	14785
856.729	14861
856.862	14864
856.996	14838
857.13	14933
857.263	14948
857.397	14918
857.53	14807
857.664	14891
857.797	14868
857.931	14994
858.064	14899
858.197	14963
858.331	14838
858.464	14785
858.597	14670
858.731	14800
858.864	14807
858.997	14823
859.13	14948
859.263	14815
859.396	14941
859.529	14864
859.662	14815
859.795	14796
859.928	14834
860.061	15001
860.194	15013
860.327	14918
860.46	14861
860.592	15020
860.725	14941
860.858	14937
860.99	14845
861.123	14762
861.256	14697
861.388	14823
861.521	15538
861.653	14724
861.786	14678
861.918	14716
862.05	14712
862.183	14830
862.315	14811
862.447	14868
862.58	14826
862.712	14644
862.844	14571
862.976	14629
863.108	14689
863.24	15013
863.372	14507
863.504	14651
863.636	14594
863.768	14632
863.9	14625
864.032	14518
864.164	14579
864.296	14670
864.428	14765
864.559	14682
864.691	14659
864.823	14720
864.954	14610
865.086	14686
865.217	14659
865.349	14571
865.48	14579
865.612	14636
865.743	14750
865.875	14610
866.006	14541
866.137	14613
866.269	14587
866.4	14514
866.531	14552
866.662	14469
866.793	14495
866.924	14579
867.055	14579
867.186	14613
867.317	14537
867.448	14503
867.579	14629
867.71	14545
867.841	14469
867.972	14537
868.103	14560
868.233	14495
868.364	14594
868.495	14636
868.625	14796
868.756	14929
868.886	14769
869.017	14796
869.147	14925
869.278	14891
869.408	14876
869.539	14781
869.669	14857
869.799	14880
869.929	14956
870.06	14944
870.19	15249
870.32	15104
870.45	15233
870.58	15340
870.71	15302
870.84	15374
870.97	15256
871.1	15351
871.23	15500
871.36	15389
871.489	15344
871.619	15416
871.749	15370
871.879	15542
872.008	15515
872.138	15447
872.267	15435
872.397	15378
872.526	15283
872.656	15302
872.785	15264
872.915	15287
873.044	15447
873.173	15507
873.303	15447
873.432	15496
873.561	15591
873.69	15447
873.819	15530
873.948	15557
874.077	15454
874.206	15378
874.335	15469
874.464	15542
874.593	15762
874.722	15728
874.851	15759
874.979	15785
875.108	15835
875.237	15705
875.365	15774
875.494	15606
875.623	15835
875.751	15747
875.88	15827
876.008	15941
876.136	15960
876.265	16246
876.393	16322
876.521	16253
876.65	16382
876.778	16299
876.906	16131
877.034	16067
877.162	16169
877.29	16086
877.418	16177
877.546	16196
877.674	16082
877.802	16162
877.93	16215
878.058	16226
878.185	16021
878.313	16287
878.441	16109
878.568	15964
878.696	16185
878.824	16249
878.951	16265
879.079	16554
879.206	16588
879.333	16462
879.461	16440
879.588	16489
879.715	16618
879.842	16645
879.97	16413
880.097	16166
880.224	16101
880.351	16169
880.478	16181
880.605	16006
880.732	16200
880.859	16287
880.986	16116
881.112	16215
881.239	15861
881.366	15766
881.493	15816
881.619	15720
881.746	15762
881.872	15736
881.999	15724
882.125	15644
882.252	15766
882.378	15766
882.505	15964
882.631	15622
882.757	15591
882.883	15644
883.01	15599
883.136	15473
883.262	15408
883.388	15447
883.514	15587
883.64	15652
883.766	15549
883.892	15363
884.018	15431
884.143	15549
884.269	15641
884.395	15340
884.52	15237
884.646	15317
884.772	15135
884.897	15252
885.023	15363
885.148	15291
885.274	15450
885.399	15302
885.524	15283
885.65	15397
885.775	15195
885.9	15264
886.025	15420
886.15	15321
886.275	15214
886.4	15214
886.525	15180
886.65	15188
886.775	15192
886.9	15348
887.025	15401
887.149	15268
887.274	15127
887.399	15112
887.523	14998
887.648	14975
887.773	15028
887.897	15055
888.021	15020
888.146	15093
888.27	15176
888.395	15173
888.519	15047
888.643	15017
888.767	15112
888.891	15055
889.015	14857
889.139	14899
889.263	14872
889.387	15100
889.511	15077
889.635	15066
889.759	14868
889.883	14941
890.006	14967
890.13	15032
890.254	14796
890.377	14796
890.501	14678
890.624	14758
890.748	14648
890.871	14621
890.995	14537
891.118	14514
891.241	14533
891.364	14590
891.488	14743
891.611	14598
891.734	14575
891.857	14724
891.98	14575
892.103	14587
892.226	14689
892.349	14598
892.471	14583
892.594	14560
892.717	14648
892.839	14530
892.962	14644
893.085	14727
893.207	14621
893.33	14415
893.452	14507
893.575	14651
893.697	14492
893.819	14773
893.941	14769
894.064	14720
894.186	14571
894.308	14522
894.43	14648
894.552	14785
894.674	14705
894.796	14571
894.918	14670
895.04	14689
895.161	14621
895.283	14621
895.405	14560
895.526	14583
895.648	14621
895.769	14785
895.891	14705
896.012	14830
896.134	14785
896.255	14792
896.376	14667
896.498	14762
896.619	14804
896.74	14625
896.861	14864
896.982	15070
897.103	15275
897.224	15085
897.345	15009
897.466	14948
897.587	14937
897.708	15058
897.828	15062
897.949	14963
898.07	14891
898.19	14990
898.311	15097
898.431	15055
898.552	15055
898.672	15077
898.792	15108
898.913	15150
899.033	14937
899.153	14842
899.273	14849
899.393	14815
899.513	14967
899.633	14895
899.753	14899
899.873	14956
899.993	14933
900.113	14906
900.232	15043
900.352	14914
900.472	14910
900.591	14830
900.711	14705
900.83	14724
900.95	14925
901.069	14975
901.189	14807
901.308	14590
901.427	14431
901.546	14469
901.665	14415
901.784	14431
901.904	14332
902.023	14240
902.141	14210
902.26	14065
902.379	14103
902.498	13970
902.617	13951
902.735	13944
902.854	13890
902.973	13898
903.091	13814
903.21	13700
903.328	13765
903.446	13590
903.565	13544
903.683	13529
903.801	13556
903.919	13487
904.038	13506
904.156	13384
904.274	13502
904.392	13324
904.51	13308
904.627	13304
904.745	13434
904.863	13426
904.981	13183
905.098	13118
905.216	13088
905.334	13091
905.451	12993
905.569	13012
905.686	13057
905.803	13038
905.921	12821
906.038	13072
906.155	12935
906.272	12829
906.389	12779
906.506	12692
906.623	12711
906.74	12760
906.857	12494
906.974	12578
907.091	12642
907.208	12757
907.324	12665
907.441	12601
907.557	12353
907.674	12422
907.79	12372
907.907	12422
908.023	12429
908.139	12346
908.256	12311
908.372	12273
908.488	12323
908.604	12216
908.72	12049
908.836	12216
908.952	12114
909.068	12129
909.184	12224
909.3	12155
909.415	12216
909.531	12129
909.647	11916
909.762	11904
909.878	11893
909.993	11931
910.108	11889
910.224	11843
910.339	11916
910.454	11878
910.57	11756
910.685	11737
910.8	11984
910.915	11958
911.03	11821
911.145	11543
911.259	11570
911.374	11604
911.489	11558
911.604	11452
911.718	11444
911.833	11345
911.947	11261
912.062	11162
912.176	11353
912.291	11337
912.405	11364
912.519	11547
912.633	11501
912.748	11368
912.862	11345
912.976	11223
913.09	11090
913.204	11128
913.318	11235
913.431	11239
913.545	11284
913.659	11284
913.772	11208
913.886	11181
914	11064
914.113	11151
914.226	11235
914.34	11204
914.453	11014
914.566	11246
914.68	11067
914.793	10995
914.906	10908
915.019	10759
915.132	10755
915.245	10831
915.358	10843
915.47	10889
915.583	10843
915.696	10930
915.809	10980
915.921	11029
916.034	10881
916.146	10790
916.259	10725
916.371	10892
916.483	10885
916.595	10877
916.708	10801
916.82	10892
916.932	10721
917.044	10759
917.156	10626
917.268	10618
917.38	10687
917.491	10706
917.603	10710
917.715	10774
917.826	10782
917.938	10660
918.049	10561
918.161	10641
918.272	10774
918.384	10714
918.495	10634
918.606	10527
918.717	10493
918.828	10478
918.939	10584
919.05	10424
919.161	10497
919.272	10303
919.383	10360
919.494	10508
919.604	10744
919.715	10630
919.826	10432
919.936	10428
920.047	10630
920.157	10516
920.267	10778
920.378	10573
920.488	10554
920.598	10767
920.708	10927
920.818	10641
920.928	10755
921.038	10904
921.148	10957
921.258	10569
921.368	10478
921.477	10451
921.587	10318
921.697	10268
921.806	10459
921.916	10337
922.025	10013
922.134	10086
922.244	10051
922.353	10154
922.462	9983
922.571	9930
922.68	9797
922.789	9751
922.898	9713
923.007	9682
923.116	9804
923.224	9842
923.333	9774
923.442	9713
923.55	9652
923.659	9584
923.767	9694
923.876	9660
923.984	9774
924.092	9545
924.201	9637
924.309	9614
924.417	9633
924.525	9591
924.633	9584
924.741	10325
924.849	9397
924.956	9564
925.064	9435
925.172	9382
925.279	9428
925.387	9477
925.494	9370
925.602	9564
925.709	9545
925.816	9344
925.924	9351
926.031	9481
926.138	9454
926.245	9477
926.352	9294
926.459	9511
926.566	9492
926.673	9313
926.779	9241
926.886	9245
926.993	9188
927.099	9104
927.206	9043
927.312	9100
927.419	9081
927.525	9169
927.631	9146
927.737	9013
927.843	9017
927.95	8868
928.056	9005
928.162	9058
928.267	9062
928.373	9629
928.479	9085
928.585	8819
928.69	8963
928.796	9009
928.901	8937
929.007	8902
929.112	8948
929.218	8921
929.323	8830
929.428	8804
929.533	8994
929.638	8826
929.743	8804
929.848	8792
929.953	8762
930.058	8743
930.163	8602
930.267	8651
930.372	8712
930.477	8545
930.581	8826
930.685	8644
930.79	8492
930.894	8606
930.998	8507
931.103	8697
931.207	8305
931.311	8271
931.415	8240
931.519	8020
931.623	7974
