Data from test_V78500241_1824.txt Node
Date: Fri Mar 25 14:46:24 CST 2022
User: usil
Spectrometer: V785-0024
Trigger mode: 0
Integration Time (sec): 4.000000E-1
Scans to average: 1
Nonlinearity correction enabled: false
Boxcar width: 0
Storing dark spectrum: false
XAxis mode: Wavelengths
Number of Pixels in Spectrum: 1024
>>>>>Begin Spectral Data<<<<<
801.071	22082
801.214	22010
801.356	21816
801.499	21656
801.641	21466
801.783	21443
801.926	21454
802.068	21264
802.211	21386
802.353	21367
802.496	21176
802.638	21017
802.78	20982
802.923	20845
803.065	20804
803.208	20796
803.35	20971
803.492	21062
803.635	21017
803.777	20868
803.919	20902
804.061	21237
804.204	20902
804.346	20876
804.488	20590
804.63	20727
804.773	20762
804.915	20682
805.057	20929
805.199	20720
805.341	20830
805.483	20887
805.626	21020
805.768	20804
805.91	20788
806.052	20792
806.194	20697
806.336	20842
806.478	20762
806.62	20716
806.762	20807
806.904	21020
807.046	21268
807.188	21142
807.33	21119
807.472	21214
807.614	21039
807.756	21039
807.898	20861
808.04	20731
808.182	20743
808.324	20883
808.465	20796
808.607	21108
808.749	21222
808.891	21287
809.033	21370
809.174	21161
809.316	21150
809.458	21173
809.6	21112
809.741	21230
809.883	21302
810.025	21321
810.166	21447
810.308	21264
810.45	21199
810.591	21256
810.733	21055
810.875	20933
811.016	20769
811.158	20735
811.299	21043
811.441	21100
811.582	21017
811.724	20914
811.865	20750
812.007	20914
812.148	21036
812.29	21020
812.431	21142
812.573	21241
812.714	21252
812.855	21443
812.997	21625
813.138	21637
813.279	21507
813.421	21450
813.562	21336
813.703	21024
813.845	21074
813.986	20914
814.127	20670
814.268	20609
814.41	20480
814.551	20423
814.692	20495
814.833	20434
814.974	20518
815.115	20362
815.256	20374
815.397	20309
815.539	20465
815.68	20374
815.821	20168
815.962	20191
816.103	20271
816.244	19986
816.385	20016
816.526	19978
816.666	19803
816.807	19628
816.948	19738
817.089	19723
817.23	19647
817.371	19658
817.512	19628
817.653	19601
817.793	19559
817.934	19727
818.075	19719
818.216	19685
818.356	19537
818.497	19426
818.638	19270
818.778	19381
818.919	19301
819.06	19388
819.2	19468
819.341	19392
819.481	19472
819.622	19586
819.762	19799
819.903	19788
820.043	19639
820.184	19613
820.324	19635
820.465	19605
820.605	19556
820.746	19590
820.886	19426
821.026	19590
821.167	19529
821.307	19594
821.447	19521
821.588	19308
821.728	19255
821.868	19107
822.008	18989
822.149	19042
822.289	18951
822.429	18711
822.569	18707
822.709	18669
822.849	18585
822.99	18513
823.13	18540
823.27	18536
823.41	18304
823.55	18292
823.69	18270
823.83	18319
823.97	18327
824.11	18083
824.25	18098
824.389	18182
824.529	18205
824.669	17999
824.809	18220
824.949	18251
825.089	18186
825.228	18083
825.368	17893
825.508	17901
825.648	17901
825.787	17874
825.927	17897
826.067	17828
826.206	17847
826.346	17874
826.485	17920
826.625	17783
826.765	17908
826.904	17885
827.044	17589
827.183	17600
827.323	17592
827.462	17535
827.601	17657
827.741	17452
827.88	17512
828.02	17387
828.159	17467
828.298	17611
828.437	17532
828.577	17516
828.716	17661
828.855	17528
828.994	17322
829.134	17372
829.273	17250
829.412	17178
829.551	17090
829.69	17178
829.829	17372
829.968	17474
830.107	17341
830.246	17311
830.385	17227
830.524	17155
830.663	16991
830.802	16965
830.941	16881
831.08	16961
831.219	17014
831.357	16999
831.496	17147
831.635	16968
831.774	16839
831.913	16736
832.051	16702
832.19	16759
832.329	16710
832.467	16641
832.606	16592
832.744	16626
832.883	16596
833.022	16462
833.16	16615
833.299	16729
833.437	16664
833.576	16565
833.714	16710
833.852	16683
833.991	16645
834.129	16729
834.267	16752
834.406	16637
834.544	16717
834.682	16687
834.821	16607
834.959	16885
835.097	16577
835.235	16759
835.373	16698
835.511	16691
835.65	16615
835.788	16527
835.926	16478
836.064	16424
836.202	16424
836.34	16561
836.478	16558
836.615	16516
836.753	16478
836.891	16729
837.029	16637
837.167	16649
837.305	16500
837.443	16478
837.58	16459
837.718	16489
837.856	16432
837.993	16363
838.131	16485
838.269	16352
838.406	16265
838.544	16428
838.681	16177
838.819	16131
838.956	15994
839.094	16082
839.231	16032
839.369	16143
839.506	16413
839.643	16230
839.781	16059
839.918	15998
840.055	16025
840.193	16013
840.33	15903
840.467	15964
840.604	16029
840.742	16265
840.879	15846
841.016	15972
841.153	15956
841.29	16048
841.427	16010
841.564	16173
841.701	16116
841.838	15945
841.975	15941
842.112	15949
842.249	15892
842.385	15713
842.522	15934
842.659	15774
842.796	15759
842.933	15766
843.069	15743
843.206	15717
843.343	15793
843.479	15789
843.616	15816
843.752	15599
843.889	15644
844.025	15732
844.162	15511
844.298	15736
844.435	15572
844.571	15542
844.708	15584
844.844	15652
844.98	15739
845.117	15675
845.253	15534
845.389	15378
845.525	15477
845.661	15424
845.798	15363
845.934	15481
846.07	15363
846.206	15424
846.342	15496
846.478	15359
846.614	15150
846.75	15123
846.886	15173
847.022	15252
847.158	15184
847.294	15154
847.429	15211
847.565	15077
847.701	15348
847.837	14948
847.972	14826
848.108	14948
848.244	14899
848.379	14720
848.515	14670
848.65	14724
848.786	14701
848.921	14701
849.057	14861
849.192	14815
849.328	14826
849.463	14743
849.598	14629
849.734	14610
849.869	14602
850.004	14518
850.14	14568
850.275	14533
850.41	14476
850.545	14476
850.68	14347
850.815	14564
850.95	14473
851.085	14693
851.22	14575
851.355	14507
851.49	14454
851.625	14442
851.76	14389
851.895	14343
852.03	14381
852.165	14511
852.299	14564
852.434	14541
852.569	14495
852.703	14526
852.838	14560
852.973	14663
853.107	14564
853.242	14530
853.376	14396
853.511	14290
853.645	14358
853.78	14552
853.914	14366
854.048	14362
854.183	14324
854.317	14423
854.451	14522
854.585	14377
854.72	14305
854.854	14412
854.988	14328
855.122	14366
855.256	14191
855.39	14320
855.524	14476
855.658	14465
855.792	14374
855.926	14332
856.06	14514
856.194	14617
856.327	14442
856.461	14263
856.595	14286
856.729	14351
856.862	14476
856.996	14488
857.13	14389
857.263	14507
857.397	14511
857.53	14358
857.664	14343
857.797	14484
857.931	14522
858.064	14366
858.197	14461
858.331	14385
858.464	14313
858.597	14278
858.731	14347
858.864	14389
858.997	14370
859.13	14351
859.263	14415
859.396	14355
859.529	14408
859.662	14351
859.795	14290
859.928	14317
860.061	14488
860.194	14545
860.327	14404
860.46	14339
860.592	14492
860.725	14507
860.858	14419
860.99	14301
861.123	14355
861.256	14317
861.388	14400
861.521	15047
861.653	14290
861.786	14176
861.918	14286
862.05	14206
862.183	14294
862.315	14309
862.447	14366
862.58	14381
862.712	14069
862.844	14027
862.976	14168
863.108	14183
863.24	14427
863.372	14069
863.504	14210
863.636	14214
863.768	14195
863.9	14225
864.032	14062
864.164	14039
864.296	14168
864.428	14320
864.559	14248
864.691	14282
864.823	14176
864.954	14157
865.086	14221
865.217	14286
865.349	14046
865.48	14153
865.612	14058
865.743	14286
865.875	14168
866.006	14069
866.137	14149
866.269	14134
866.4	14096
866.531	14115
866.662	14092
866.793	14096
866.924	14145
867.055	14210
867.186	14275
867.317	14100
867.448	14001
867.579	13982
867.71	14031
867.841	13978
867.972	14081
868.103	14161
868.233	14218
868.364	14092
868.495	14244
868.625	14282
868.756	14568
868.886	14282
869.017	14343
869.147	14465
869.278	14533
869.408	14343
869.539	14427
869.669	14434
869.799	14438
869.929	14522
870.06	14476
870.19	14613
870.32	14651
870.45	14731
870.58	14826
870.71	14963
870.84	14880
870.97	14777
871.1	14800
871.23	14914
871.36	15020
871.489	14956
871.619	14960
871.749	14979
871.879	15066
872.008	15066
872.138	15009
872.267	14990
872.397	14819
872.526	14727
872.656	14777
872.785	14769
872.915	15013
873.044	15051
873.173	14975
873.303	15123
873.432	15005
873.561	15180
873.69	15142
873.819	15043
873.948	15066
874.077	15013
874.206	14982
874.335	15001
874.464	15127
874.593	15340
874.722	15237
874.851	15325
874.979	15428
875.108	15405
875.237	15249
875.365	15317
875.494	15249
875.623	15401
875.751	15279
875.88	15408
876.008	15507
876.136	15538
876.265	15812
876.393	15903
876.521	15827
876.65	15842
876.778	15854
876.906	15561
877.034	15785
877.162	15663
877.29	15709
877.418	15774
877.546	15701
877.674	15679
877.802	15603
877.93	15663
878.058	15709
878.185	15648
878.313	15618
878.441	15690
878.568	15618
878.696	15660
878.824	15724
878.951	15793
879.079	15880
879.206	16086
879.333	15941
879.461	15857
879.588	15922
879.715	15987
879.842	16086
879.97	15835
880.097	15652
880.224	15584
880.351	15720
880.478	15660
880.605	15534
880.732	15584
880.859	15869
880.986	15637
881.112	15644
881.239	15515
881.366	15370
881.493	15310
881.619	15222
881.746	15287
881.872	15192
881.999	15233
882.125	15233
882.252	15245
882.378	15351
882.505	15382
882.631	15256
882.757	15146
882.883	15100
883.01	15024
883.136	15062
883.262	15005
883.388	14864
883.514	15058
883.64	15169
883.766	15093
883.892	14872
884.018	14963
884.143	15017
884.269	15116
884.395	14883
884.52	14678
884.646	14845
884.772	14762
884.897	14644
885.023	14834
885.148	14918
885.274	14891
885.399	14914
885.524	14883
885.65	14788
885.775	14708
885.9	14765
886.025	14857
886.15	14785
886.275	14705
886.4	14629
886.525	14686
886.65	14727
886.775	14712
886.9	14861
887.025	14994
887.149	14746
887.274	14674
887.399	14644
887.523	14568
887.648	14594
887.773	14530
887.897	14606
888.021	14640
888.146	14484
888.27	14606
888.395	14746
888.519	14815
888.643	14731
888.767	14701
888.891	14556
889.015	14484
889.139	14526
889.263	14419
889.387	14636
889.511	14674
889.635	14556
889.759	14393
889.883	14396
890.006	14503
890.13	14560
890.254	14423
890.377	14404
890.501	14278
890.624	14240
890.748	14362
890.871	14259
890.995	14123
891.118	14050
891.241	14202
891.364	14267
891.488	14332
891.611	14176
891.734	14214
891.857	14282
891.98	14195
892.103	14294
892.226	14210
892.349	14130
892.471	14062
892.594	14130
892.717	14252
892.839	14157
892.962	14107
893.085	14256
893.207	14195
893.33	14024
893.452	14130
893.575	14244
893.697	14187
893.819	14336
893.941	14400
894.064	14305
894.186	14157
894.308	14077
894.43	14233
894.552	14465
894.674	14396
894.796	14103
894.918	14225
895.04	14210
895.161	14301
895.283	14324
895.405	14168
895.526	14244
895.648	14351
895.769	14259
895.891	14370
896.012	14476
896.134	14301
896.255	14278
896.376	14225
896.498	14419
896.619	14393
896.74	14362
896.861	14400
896.982	14689
897.103	14868
897.224	14610
897.345	14606
897.466	14598
897.587	14590
897.708	14811
897.828	14667
897.949	14579
898.07	14484
898.19	14571
898.311	14769
898.431	14651
898.552	14625
898.672	14743
898.792	14769
898.913	14686
899.033	14590
899.153	14575
899.273	14511
899.393	14492
899.513	14511
899.633	14533
899.753	14549
899.873	14442
899.993	14457
900.113	14503
900.232	14689
900.352	14427
900.472	14511
900.591	14362
900.711	14412
900.83	14259
900.95	14549
901.069	14533
901.189	14317
901.308	14149
901.427	14058
901.546	14065
901.665	14092
901.784	14092
901.904	14043
902.023	13864
902.141	13696
902.26	13639
902.379	13731
902.498	13670
902.617	13594
902.735	13674
902.854	13601
902.973	13571
903.091	13365
903.21	13362
903.328	13324
903.446	13335
903.565	13129
903.683	13137
903.801	13168
903.919	13187
904.038	13160
904.156	12993
904.274	13050
904.392	13061
904.51	13015
904.627	13000
904.745	13110
904.863	13091
904.981	12787
905.098	12700
905.216	12707
905.334	12844
905.451	12738
905.569	12696
905.686	12726
905.803	12700
905.921	12502
906.038	12635
906.155	12563
906.272	12361
906.389	12410
906.506	12319
906.623	12304
906.74	12213
906.857	12175
906.974	12235
907.091	12289
907.208	12388
907.324	12304
907.441	12213
907.557	12098
907.674	12068
907.79	11923
907.907	12038
908.023	12026
908.139	12060
908.256	11946
908.372	11973
908.488	11973
908.604	11817
908.72	11836
908.836	11809
908.952	11699
909.068	11859
909.184	11904
909.3	11840
909.415	11931
909.531	11897
909.647	11653
909.762	11589
909.878	11509
909.993	11608
910.108	11611
910.224	11539
910.339	11482
910.454	11474
910.57	11421
910.685	11421
910.8	11668
910.915	11577
911.03	11410
911.145	11334
911.259	11288
911.374	11246
911.489	11246
911.604	11109
911.718	11060
911.833	11140
911.947	10949
912.062	10858
912.176	11079
912.291	11086
912.405	11003
912.519	11269
912.633	11231
912.748	11060
912.862	11075
912.976	10923
913.09	10778
913.204	10911
913.318	10892
913.431	10991
913.545	11003
913.659	11048
913.772	10957
913.886	10782
914	10759
914.113	10858
914.226	11067
914.34	10938
914.453	10679
914.566	10946
914.68	10729
914.793	10835
914.906	10607
915.019	10577
915.132	10470
915.245	10538
915.358	10599
915.47	10653
915.583	10675
915.696	10607
915.809	10721
915.921	10744
916.034	10546
916.146	10516
916.259	10500
916.371	10679
916.483	10580
916.595	10519
916.708	10508
916.82	10538
916.932	10504
917.044	10489
917.156	10485
917.268	10402
917.38	10512
917.491	10485
917.603	10421
917.715	10512
917.826	10519
917.938	10291
918.049	10284
918.161	10424
918.272	10478
918.384	10569
918.495	10417
918.606	10314
918.717	10230
918.828	10303
918.939	10280
919.05	10181
919.161	10246
919.272	10071
919.383	10143
919.494	10325
919.604	10466
919.715	10299
919.826	10287
919.936	10246
920.047	10348
920.157	10322
920.267	10561
920.378	10314
920.488	10318
920.598	10470
920.708	10634
920.818	10512
920.928	10466
921.038	10679
921.148	10645
921.258	10306
921.368	10291
921.477	10230
921.587	10097
921.697	10112
921.806	10177
921.916	10006
922.025	9880
922.134	9934
922.244	9888
922.353	9816
922.462	9778
922.571	9709
922.68	9576
922.789	9500
922.898	9568
923.007	9477
923.116	9663
923.224	9572
923.333	9549
923.442	9420
923.55	9382
923.659	9439
923.767	9439
923.876	9412
923.984	9523
924.092	9408
924.201	9428
924.309	9458
924.417	9397
924.525	9393
924.633	9367
924.741	10253
924.849	9233
924.956	9272
925.064	9157
925.172	9104
925.279	9207
925.387	9253
925.494	9207
925.602	9310
925.709	9332
925.816	9161
925.924	9249
926.031	9253
926.138	9127
926.245	9306
926.352	9127
926.459	9306
926.566	9291
926.673	9161
926.779	9097
926.886	9024
926.993	8960
927.099	8883
927.206	8914
927.312	8910
927.419	8979
927.525	8941
927.631	8986
927.737	8830
927.843	8857
927.95	8682
928.056	8868
928.162	8769
928.267	8883
928.373	9481
928.479	8941
928.585	8663
928.69	8785
928.796	8804
928.901	8773
929.007	8583
929.112	8670
929.218	8739
929.323	8625
929.428	8602
929.533	8735
929.638	8602
929.743	8621
929.848	8655
929.953	8617
930.058	8526
930.163	8374
930.267	8408
930.372	8571
930.477	8366
930.581	8590
930.685	8541
930.79	8309
930.894	8393
930.998	8404
931.103	8450
931.207	8145
931.311	8161
931.415	8024
931.519	7944
931.623	7898
