Data from test_V78500241_1352.txt Node
Date: Fri Mar 25 14:43:07 CST 2022
User: usil
Spectrometer: V785-0024
Trigger mode: 0
Integration Time (sec): 4.000000E-1
Scans to average: 1
Nonlinearity correction enabled: false
Boxcar width: 0
Storing dark spectrum: false
XAxis mode: Wavelengths
Number of Pixels in Spectrum: 1024
>>>>>Begin Spectral Data<<<<<
801.071	22470
801.214	22314
801.356	22010
801.499	21998
801.641	21717
801.783	21717
801.926	21800
802.068	21762
802.211	21614
802.353	21542
802.496	21287
802.638	21233
802.78	21260
802.923	21138
803.065	21024
803.208	21135
803.35	21070
803.492	21302
803.635	21226
803.777	21081
803.919	21161
804.061	21428
804.204	21123
804.346	21009
804.488	21017
804.63	21154
804.773	20937
804.915	21070
805.057	21157
805.199	21070
805.341	21070
805.483	21093
805.626	21146
805.768	20986
805.91	21093
806.052	20937
806.194	21089
806.336	21077
806.478	21055
806.62	21009
806.762	21020
806.904	21241
807.046	21507
807.188	21412
807.33	21348
807.472	21454
807.614	21389
807.756	21526
807.898	21272
808.04	21184
808.182	21195
808.324	21450
808.465	21386
808.607	21515
808.749	21614
808.891	21762
809.033	21789
809.174	21770
809.316	21492
809.458	21599
809.6	21545
809.741	21538
809.883	21561
810.025	21603
810.166	21656
810.308	21618
810.45	21564
810.591	21549
810.733	21268
810.875	21199
811.016	21252
811.158	21085
811.299	21195
811.441	21351
811.582	21294
811.724	21207
811.865	21093
812.007	21108
812.148	21192
812.29	21218
812.431	21420
812.573	21462
812.714	21644
812.855	21701
812.997	21713
813.138	21869
813.279	21713
813.421	21682
813.562	21507
813.703	21393
813.845	21367
813.986	21013
814.127	20899
814.268	20948
814.41	20826
814.551	20743
814.692	20876
814.833	20682
814.974	20663
815.115	20739
815.256	20621
815.397	20571
815.539	20648
815.68	20480
815.821	20457
815.962	20495
816.103	20423
816.244	20393
816.385	20233
816.526	20256
816.666	20016
816.807	20088
816.948	19925
817.089	19951
817.23	19917
817.371	19898
817.512	19822
817.653	19860
817.793	19670
817.934	19837
818.075	20016
818.216	19871
818.356	19982
818.497	19780
818.638	19655
818.778	19586
818.919	19571
819.06	19685
819.2	19704
819.341	19811
819.481	19742
819.622	19868
819.762	20092
819.903	20012
820.043	19944
820.184	19814
820.324	19906
820.465	19986
820.605	19925
820.746	19894
820.886	19738
821.026	19837
821.167	19879
821.307	19879
821.447	19898
821.588	19799
821.728	19643
821.868	19499
822.008	19377
822.149	19263
822.289	19346
822.429	19065
822.569	18954
822.709	18894
822.849	18829
822.99	18776
823.13	18745
823.27	18642
823.41	18528
823.55	18654
823.69	18490
823.83	18654
823.97	18414
824.11	18437
824.25	18334
824.389	18357
824.529	18429
824.669	18327
824.809	18414
824.949	18536
825.089	18319
825.228	18353
825.368	18159
825.508	18159
825.648	18178
825.787	18285
825.927	18220
826.067	18060
826.206	17999
826.346	18224
826.485	18216
826.625	18167
826.765	18129
826.904	18087
827.044	17851
827.183	17961
827.323	17779
827.462	18015
827.601	17882
827.741	17855
827.88	17809
828.02	17745
828.159	17714
828.298	17832
828.437	17817
828.577	17870
828.716	17961
828.855	17802
828.994	17627
829.134	17600
829.273	17699
829.412	17539
829.551	17501
829.69	17562
829.829	17570
829.968	17661
830.107	17585
830.246	17714
830.385	17368
830.524	17474
830.663	17486
830.802	17254
830.941	17250
831.08	17132
831.219	17318
831.357	17284
831.496	17406
831.635	17170
831.774	17029
831.913	17090
832.051	16908
832.19	16980
832.329	16976
832.467	16953
832.606	16904
832.744	16873
832.883	16858
833.022	16908
833.16	16915
833.299	16980
833.437	16877
833.576	16995
833.714	17071
833.852	16911
833.991	16999
834.129	17033
834.267	17052
834.406	17003
834.544	16980
834.682	16968
834.821	16965
834.959	17083
835.097	16892
835.235	17071
835.373	17045
835.511	16953
835.65	16896
835.788	16930
835.926	16774
836.064	16664
836.202	16752
836.34	16847
836.478	17052
836.615	16782
836.753	16919
836.891	16965
837.029	16911
837.167	16900
837.305	16839
837.443	16660
837.58	16672
837.718	16816
837.856	16793
837.993	16668
838.131	16687
838.269	16687
838.406	16725
838.544	16630
838.681	16447
838.819	16386
838.956	16348
839.094	16238
839.231	16329
839.369	16402
839.506	16683
839.643	16599
839.781	16287
839.918	16265
840.055	16325
840.193	16398
840.33	16344
840.467	16341
840.604	16299
840.742	16508
840.879	16173
841.016	16196
841.153	16249
841.29	16348
841.427	16253
841.564	16299
841.701	16402
841.838	16230
841.975	16177
842.112	16249
842.249	15964
842.385	15960
842.522	16211
842.659	16074
842.796	16139
842.933	16101
843.069	15945
843.206	16021
843.343	16185
843.479	16032
843.616	16097
843.752	15964
843.889	15911
844.025	15994
844.162	15835
844.298	15983
844.435	15793
844.571	15880
844.708	15918
844.844	15964
844.98	16105
845.117	15922
845.253	15876
845.389	15793
845.525	15846
845.661	15926
845.798	15922
845.934	16032
846.07	15808
846.206	15895
846.342	16044
846.478	15694
846.614	15648
846.75	15401
846.886	15336
847.022	15477
847.158	15477
847.294	15355
847.429	15420
847.565	15275
847.701	15557
847.837	15241
847.972	15195
848.108	15249
848.244	15169
848.379	15062
848.515	15131
848.65	15047
848.786	15100
848.921	15077
849.057	15119
849.192	15154
849.328	15055
849.463	15051
849.598	14994
849.734	14883
849.869	14929
850.004	14792
850.14	14872
850.275	14800
850.41	14632
850.545	14678
850.68	14678
850.815	14731
850.95	14648
851.085	14933
851.22	14872
851.355	14830
851.49	14788
851.625	14727
851.76	14746
851.895	14735
852.03	14606
852.165	14686
852.299	14758
852.434	14838
852.569	14921
852.703	14826
852.838	14792
852.973	14906
853.107	14842
853.242	14739
853.376	14674
853.511	14541
853.645	14541
853.78	14686
853.914	14712
854.048	14640
854.183	14667
854.317	14629
854.451	14815
854.585	14556
854.72	14621
854.854	14708
854.988	14594
855.122	14613
855.256	14507
855.39	14575
855.524	14651
855.658	14659
855.792	14750
855.926	14663
856.06	14743
856.194	14697
856.327	14590
856.461	14621
856.595	14564
856.729	14625
856.862	14697
856.996	14663
857.13	14655
857.263	14701
857.397	14830
857.53	14648
857.664	14625
857.797	14708
857.931	14788
858.064	14625
858.197	14697
858.331	14526
858.464	14518
858.597	14469
858.731	14598
858.864	14648
858.997	14602
859.13	14651
859.263	14678
859.396	14743
859.529	14644
859.662	14541
859.795	14495
859.928	14727
860.061	14731
860.194	14765
860.327	14663
860.46	14648
860.592	14754
860.725	14727
860.858	14739
860.99	14560
861.123	14610
861.256	14587
861.388	14640
861.521	15397
861.653	14492
861.786	14503
861.918	14480
862.05	14587
862.183	14613
862.315	14678
862.447	14621
862.58	14575
862.712	14457
862.844	14320
862.976	14488
863.108	14457
863.24	14804
863.372	14336
863.504	14408
863.636	14324
863.768	14408
863.9	14488
864.032	14362
864.164	14366
864.296	14389
864.428	14473
864.559	14518
864.691	14469
864.823	14560
864.954	14370
865.086	14473
865.217	14396
865.349	14389
865.48	14374
865.612	14419
865.743	14632
865.875	14377
866.006	14450
866.137	14427
866.269	14480
866.4	14404
866.531	14267
866.662	14385
866.793	14423
866.924	14412
867.055	14389
867.186	14415
867.317	14298
867.448	14305
867.579	14317
867.71	14282
867.841	14263
867.972	14374
868.103	14370
868.233	14301
868.364	14339
868.495	14446
868.625	14545
868.756	14663
868.886	14549
869.017	14568
869.147	14720
869.278	14708
869.408	14602
869.539	14617
869.669	14731
869.799	14644
869.929	14727
870.06	14781
870.19	14902
870.32	14952
870.45	14906
870.58	14929
870.71	15032
870.84	15081
870.97	14952
871.1	14986
871.23	15237
871.36	15214
871.489	15211
871.619	15150
871.749	15192
871.879	15268
872.008	15252
872.138	15218
872.267	15233
872.397	15089
872.526	15013
872.656	15032
872.785	15032
872.915	15192
873.044	15260
873.173	15214
873.303	15272
873.432	15275
873.561	15283
873.69	15252
873.819	15325
873.948	15332
874.077	15298
874.206	15325
874.335	15367
874.464	15401
874.593	15519
874.722	15485
874.851	15656
874.979	15496
875.108	15701
875.237	15504
875.365	15405
875.494	15507
875.623	15633
875.751	15504
875.88	15610
876.008	15720
876.136	15846
876.265	15994
876.393	16230
876.521	16067
876.65	16071
876.778	16006
876.906	16017
877.034	15903
877.162	16017
877.29	15956
877.418	16097
877.546	16002
877.674	16029
877.802	16002
877.93	15930
878.058	16021
878.185	15873
878.313	16067
878.441	16101
878.568	15835
878.696	16032
878.824	16074
878.951	16147
879.079	16219
879.206	16337
879.333	16333
879.461	16261
879.588	16253
879.715	16367
879.842	16443
879.97	16135
880.097	15945
880.224	15926
880.351	15869
880.478	15892
880.605	15789
880.732	15880
880.859	16173
880.986	15873
881.112	15880
881.239	15831
881.366	15652
881.493	15618
881.619	15629
881.746	15534
881.872	15561
881.999	15595
882.125	15542
882.252	15572
882.378	15603
882.505	15709
882.631	15500
882.757	15359
882.883	15416
883.01	15332
883.136	15393
883.262	15192
883.388	15370
883.514	15439
883.64	15454
883.766	15226
883.892	15176
884.018	15260
884.143	15428
884.269	15443
884.395	15112
884.52	15009
884.646	15093
884.772	14956
884.897	14948
885.023	15062
885.148	15112
885.274	15104
885.399	15184
885.524	15032
885.65	15119
885.775	15017
885.9	14975
886.025	15237
886.15	15074
886.275	15017
886.4	14956
886.525	15043
886.65	15036
886.775	15070
886.9	15146
887.025	15252
887.149	15089
887.274	14807
887.399	14796
887.523	14762
887.648	14883
887.773	14705
887.897	14963
888.021	14891
888.146	14834
888.27	14982
888.395	15009
888.519	14864
888.643	14899
888.767	14891
888.891	14788
889.015	14724
889.139	14682
889.263	14670
889.387	14785
889.511	14914
889.635	14872
889.759	14769
889.883	14754
890.006	14693
890.13	14823
890.254	14629
890.377	14610
890.501	14499
890.624	14503
890.748	14579
890.871	14408
890.995	14313
891.118	14271
891.241	14434
891.364	14317
891.488	14469
891.611	14355
891.734	14461
891.857	14446
891.98	14385
892.103	14476
892.226	14442
892.349	14381
892.471	14263
892.594	14358
892.717	14438
892.839	14328
892.962	14362
893.085	14450
893.207	14374
893.33	14275
893.452	14282
893.575	14434
893.697	14492
893.819	14431
893.941	14556
894.064	14594
894.186	14267
894.308	14298
894.43	14552
894.552	14568
894.674	14442
894.796	14408
894.918	14396
895.04	14454
895.161	14438
895.283	14530
895.405	14351
895.526	14560
895.648	14469
895.769	14606
895.891	14636
896.012	14556
896.134	14598
896.255	14442
896.376	14579
896.498	14511
896.619	14514
896.74	14629
896.861	14549
896.982	14910
897.103	15108
897.224	14800
897.345	14746
897.466	14701
897.587	14750
897.708	14849
897.828	14899
897.949	14705
898.07	14625
898.19	14785
898.311	14921
898.431	14712
898.552	14921
898.672	14929
898.792	14952
898.913	14944
899.033	14796
899.153	14834
899.273	14651
899.393	14743
899.513	14773
899.633	14731
899.753	14739
899.873	14686
899.993	14735
900.113	14644
900.232	14731
900.352	14632
900.472	14773
900.591	14579
900.711	14674
900.83	14522
900.95	14667
901.069	14720
901.189	14560
901.308	14336
901.427	14199
901.546	14278
901.665	14275
901.784	14282
901.904	14149
902.023	14050
902.141	13967
902.26	13814
902.379	13875
902.498	13833
902.617	13795
902.735	13871
902.854	13856
902.973	13727
903.091	13575
903.21	13548
903.328	13514
903.446	13670
903.565	13335
903.683	13506
903.801	13308
903.919	13422
904.038	13377
904.156	13278
904.274	13297
904.392	13202
904.51	13149
904.627	13221
904.745	13282
904.863	13312
904.981	13084
905.098	12962
905.216	12882
905.334	12943
905.451	12977
905.569	12852
905.686	12981
905.803	13015
905.921	12711
906.038	12875
906.155	12749
906.272	12654
906.389	12753
906.506	12506
906.623	12559
906.74	12601
906.857	12483
906.974	12388
907.091	12536
907.208	12635
907.324	12555
907.441	12422
907.557	12346
907.674	12361
907.79	12254
907.907	12209
908.023	12273
908.139	12311
908.256	12213
908.372	12220
908.488	12136
908.604	12117
908.72	12034
908.836	12041
908.952	12022
909.068	12041
909.184	11980
909.3	12076
909.415	12049
909.531	12045
909.647	11851
909.762	11824
909.878	11809
909.993	11832
910.108	11771
910.224	11809
910.339	11764
910.454	11741
910.57	11638
910.685	11570
910.8	11931
910.915	11771
911.03	11600
911.145	11554
911.259	11429
911.374	11490
911.489	11474
911.604	11376
911.718	11212
911.833	11246
911.947	11151
912.062	11086
912.176	11318
912.291	11330
912.405	11246
912.519	11482
912.633	11417
912.748	11284
912.862	11162
912.976	11086
913.09	10972
913.204	11083
913.318	11151
913.431	11193
913.545	11227
913.659	11254
913.772	11208
913.886	11071
914	11033
914.113	11083
914.226	11094
914.34	11048
914.453	10885
914.566	11003
914.68	10965
914.793	10938
914.906	10809
915.019	10774
915.132	10687
915.245	10824
915.358	10831
915.47	10778
915.583	10725
915.696	10820
915.809	10831
915.921	10809
916.034	10752
916.146	10733
916.259	10675
916.371	10778
916.483	10752
916.595	10656
916.708	10653
916.82	10706
916.932	10698
917.044	10702
917.156	10611
917.268	10531
917.38	10558
917.491	10599
917.603	10569
917.715	10592
917.826	10637
917.938	10512
918.049	10481
918.161	10550
918.272	10637
918.384	10683
918.495	10615
918.606	10512
918.717	10405
918.828	10516
918.939	10440
919.05	10360
919.161	10413
919.272	10204
919.383	10318
919.494	10493
919.604	10683
919.715	10504
919.826	10363
919.936	10394
920.047	10527
920.157	10436
920.267	10687
920.378	10519
920.488	10447
920.598	10565
920.708	10801
920.818	10577
920.928	10675
921.038	10824
921.148	10763
921.258	10447
921.368	10428
921.477	10295
921.587	10333
921.697	10124
921.806	10344
921.916	10128
922.025	10040
922.134	9979
922.244	9968
922.353	10074
922.462	9873
922.571	9804
922.68	9732
922.789	9724
922.898	9705
923.007	9713
923.116	9713
923.224	9686
923.333	9732
923.442	9542
923.55	9622
923.659	9656
923.767	9606
923.876	9530
923.984	9580
924.092	9523
924.201	9500
924.309	9580
924.417	9526
924.525	9473
924.633	9542
924.741	10424
924.849	9291
924.956	9424
925.064	9348
925.172	9268
925.279	9329
925.387	9374
925.494	9351
925.602	9477
925.709	9405
925.816	9207
925.924	9340
926.031	9416
926.138	9378
926.245	9321
926.352	9237
926.459	9367
926.566	9454
926.673	9226
926.779	9150
926.886	9218
926.993	9085
927.099	9047
927.206	8986
927.312	8986
927.419	9146
927.525	9039
927.631	9062
927.737	8967
927.843	8906
927.95	8864
928.056	8887
928.162	8948
928.267	9013
928.373	9557
928.479	9039
928.585	8766
928.69	8921
928.796	8937
928.901	8823
929.007	8701
929.112	8842
929.218	8754
929.323	8800
929.428	8758
929.533	8910
929.638	8720
929.743	8800
929.848	8807
929.953	8754
930.058	8636
930.163	8579
930.267	8579
930.372	8712
930.477	8503
930.581	8701
930.685	8560
930.79	8427
930.894	8469
930.998	8446
931.103	8625
931.207	8233
931.311	8240
931.415	8164
931.519	7947
931.623	7940
