Data from test_V78500241_633.txt Node
Date: Fri Mar 25 14:38:07 CST 2022
User: usil
Spectrometer: V785-0024
Trigger mode: 0
Integration Time (sec): 4.000000E-1
Scans to average: 1
Nonlinearity correction enabled: false
Boxcar width: 0
Storing dark spectrum: false
XAxis mode: Wavelengths
Number of Pixels in Spectrum: 1024
>>>>>Begin Spectral Data<<<<<
801.071	27892
801.214	27819
801.356	27667
801.499	27492
801.641	27462
801.783	27306
801.926	27363
802.068	27226
802.211	27291
802.353	26842
802.496	26963
802.638	26887
802.78	26693
802.923	26868
803.065	26644
803.208	26952
803.35	26724
803.492	26906
803.635	26963
803.777	26887
803.919	27017
804.061	27214
804.204	27047
804.346	26990
804.488	26948
804.63	26906
804.773	26960
804.915	27089
805.057	27157
805.199	27249
805.341	27275
805.483	27530
805.626	27332
805.768	27435
805.91	27435
806.052	27606
806.194	27724
806.336	28010
806.478	27876
806.62	28051
806.762	28436
806.904	28820
807.046	29246
807.188	29490
807.33	29821
807.472	30266
807.614	30658
807.756	31525
807.898	32355
808.04	33660
808.182	35296
808.324	37335
808.465	39694
808.607	42270
808.749	44743
808.891	46051
809.033	46238
809.174	44792
809.316	42376
809.458	39720
809.6	36928
809.741	34892
809.883	33062
810.025	32149
810.166	31187
810.308	30433
810.45	29855
810.591	29566
810.733	29124
810.875	28748
811.016	28451
811.158	28291
811.299	28356
811.441	28234
811.582	28135
811.724	27888
811.865	27842
812.007	27622
812.148	27648
812.29	27713
812.431	27709
812.573	27918
812.714	27808
812.855	27892
812.997	27770
813.138	27941
813.279	27918
813.421	27759
813.562	27622
813.703	27583
813.845	27313
813.986	26971
814.127	26895
814.268	26644
814.41	26739
814.551	26743
814.692	26549
814.833	26453
814.974	26453
815.115	26374
815.256	26446
815.397	26313
815.539	26423
815.68	26187
815.821	26115
815.962	26142
816.103	26142
816.244	25997
816.385	25902
816.526	25788
816.666	25643
816.807	25582
816.948	25715
817.089	25453
817.23	25571
817.371	25392
817.512	25411
817.653	25327
817.793	25407
817.934	25400
818.075	25441
818.216	25327
818.356	25449
818.497	25221
818.638	25152
818.778	25175
818.919	25061
819.06	25282
819.2	25278
819.341	25312
819.481	25213
819.622	25552
819.762	25578
819.903	25464
820.043	25411
820.184	25312
820.324	25335
820.465	25415
820.605	25259
820.746	25293
820.886	25202
821.026	25282
821.167	25232
821.307	25164
821.447	25301
821.588	25118
821.728	24954
821.868	24669
822.008	24494
822.149	24555
822.289	24574
822.429	24285
822.569	24262
822.709	24125
822.849	23901
822.99	23992
823.13	23969
823.27	23870
823.41	23779
823.55	23634
823.69	23798
823.83	23889
823.97	23714
824.11	23558
824.25	23509
824.389	23486
824.529	23581
824.669	23452
824.809	23623
824.949	23600
825.089	23596
825.228	23474
825.368	23330
825.508	23372
825.648	23425
825.787	23250
825.927	23520
826.067	23280
826.206	23162
826.346	23269
826.485	23410
826.625	23250
826.765	23337
826.904	23322
827.044	23075
827.183	22942
827.323	23044
827.462	23105
827.601	22854
827.741	22995
827.88	22858
828.02	22797
828.159	23067
828.298	22862
828.437	22930
828.577	22885
828.716	22942
828.855	22889
828.994	22645
829.134	22721
829.273	22698
829.412	22557
829.551	22512
829.69	22622
829.829	22531
829.968	22649
830.107	22660
830.246	22637
830.385	22599
830.524	22382
830.663	22405
830.802	22455
830.941	22246
831.08	22128
831.219	22284
831.357	22344
831.496	22390
831.635	22230
831.774	22093
831.913	22120
832.051	22063
832.19	22090
832.329	22093
832.467	21975
832.606	21987
832.744	22002
832.883	22044
833.022	22059
833.16	22139
833.299	22238
833.437	22470
833.576	22497
833.714	22584
833.852	22626
833.991	22828
834.129	22930
834.267	22843
834.406	22843
834.544	22858
834.682	22694
834.821	22626
834.959	22660
835.097	22375
835.235	22249
835.373	22367
835.511	22188
835.65	21968
835.788	22013
835.926	21671
836.064	21679
836.202	21629
836.34	21865
836.478	21975
836.615	21774
836.753	21781
836.891	21717
837.029	21793
837.167	21542
837.305	21568
837.443	21549
837.58	21534
837.718	21656
837.856	21572
837.993	21557
838.131	21614
838.269	21382
838.406	21477
838.544	21325
838.681	21169
838.819	21085
838.956	20967
839.094	20941
839.231	21001
839.369	21176
839.506	21256
839.643	21230
839.781	20933
839.918	20857
840.055	20906
840.193	20887
840.33	20876
840.467	20876
840.604	20998
840.742	21142
840.879	20773
841.016	20861
841.153	20811
841.29	20975
841.427	20918
841.564	20788
841.701	20804
841.838	20914
841.975	20773
842.112	20777
842.249	20705
842.385	20697
842.522	20842
842.659	20849
842.796	20762
842.933	20663
843.069	20689
843.206	20682
843.343	20880
843.479	20781
843.616	20853
843.752	20724
843.889	20667
844.025	20834
844.162	20758
844.298	20941
844.435	20963
844.571	21058
844.708	21340
844.844	21766
844.98	21998
845.117	22516
845.253	23212
845.389	24623
845.525	27325
845.661	32005
845.798	37438
845.934	41509
846.07	43438
846.206	42216
846.342	38678
846.478	33165
846.614	28352
846.75	25270
846.886	23433
847.022	22390
847.158	21629
847.294	21055
847.429	20807
847.565	20537
847.701	20644
847.837	20202
847.972	19944
848.108	20069
848.244	19967
848.379	19715
848.515	19727
848.65	19594
848.786	19624
848.921	19712
849.057	19696
849.192	19753
849.328	19601
849.463	19521
849.598	19445
849.734	19476
849.869	19537
850.004	19346
850.14	19263
850.275	19350
850.41	19217
850.545	19308
850.68	19274
850.815	19206
850.95	19251
851.085	19445
851.22	19457
851.355	19240
851.49	19156
851.625	19335
851.76	19225
851.895	19232
852.03	19194
852.165	19339
852.299	19350
852.434	19369
852.569	19346
852.703	19308
852.838	19255
852.973	19312
853.107	19460
853.242	19312
853.376	19202
853.511	19270
853.645	19285
853.78	19445
853.914	19411
854.048	19396
854.183	19255
854.317	19502
854.451	19563
854.585	19354
854.72	19362
854.854	19521
854.988	19171
855.122	19331
855.256	19129
855.39	19168
855.524	19396
855.658	19209
855.792	19206
855.926	19118
856.06	19225
856.194	19133
856.327	19069
856.461	19099
856.595	19057
856.729	18993
856.862	19217
856.996	19004
857.13	19084
857.263	19091
857.397	19206
857.53	18935
857.664	19168
857.797	19061
857.931	19084
858.064	19080
858.197	19221
858.331	19065
858.464	18924
858.597	18852
858.731	18905
858.864	18920
858.997	18920
859.13	18916
859.263	19050
859.396	19004
859.529	18878
859.662	18871
859.795	18909
859.928	18970
860.061	19122
860.194	19156
860.327	18871
860.46	18928
860.592	19091
860.725	19046
860.858	19004
860.99	18882
861.123	18837
861.256	18749
861.388	18859
861.521	19670
861.653	18738
861.786	18760
861.918	18806
862.05	18817
862.183	18916
862.315	18928
862.447	18966
862.58	18932
862.712	18707
862.844	18555
862.976	18757
863.108	18730
863.24	19046
863.372	18513
863.504	18608
863.636	18631
863.768	18730
863.9	18601
864.032	18540
864.164	18635
864.296	18608
864.428	18642
864.559	18597
864.691	18578
864.823	18635
864.954	18642
865.086	18528
865.217	18536
865.349	18528
865.48	18525
865.612	18566
865.743	18525
865.875	18475
866.006	18471
866.137	18627
866.269	18433
866.4	18441
866.531	18357
866.662	18323
866.793	18410
866.924	18410
867.055	18460
867.186	18540
867.317	18483
867.448	18338
867.579	18464
867.71	18467
867.841	18467
867.972	18471
868.103	18467
868.233	18426
868.364	18471
868.495	18555
868.625	18684
868.756	18806
868.886	18673
869.017	18673
869.147	18897
869.278	18814
869.408	18722
869.539	18707
869.669	18859
869.799	18825
869.929	18753
870.06	18878
870.19	19190
870.32	18977
870.45	19103
870.58	19179
870.71	19244
870.84	19278
870.97	19107
871.1	19141
871.23	19297
871.36	19297
871.489	19232
871.619	19392
871.749	19457
871.879	19441
872.008	19464
872.138	19438
872.267	19540
872.397	19285
872.526	19228
872.656	19324
872.785	19388
872.915	19639
873.044	19491
873.173	19457
873.303	19655
873.432	19586
873.561	19757
873.69	19757
873.819	19590
873.948	19909
874.077	19655
874.206	19670
874.335	19830
874.464	19936
874.593	19959
874.722	19997
874.851	20115
874.979	19951
875.108	20130
875.237	20088
875.365	20077
875.494	20107
875.623	20237
875.751	20202
875.88	20366
876.008	20465
876.136	20613
876.265	20792
876.393	20998
876.521	20967
876.65	21062
876.778	20956
876.906	21036
877.034	21009
877.162	21116
877.29	21192
877.418	21287
877.546	21382
877.674	21408
877.802	21504
877.93	21637
878.058	21663
878.185	21869
878.313	22044
878.441	22489
878.568	22554
878.696	23044
878.824	23745
878.951	24612
879.079	25811
879.206	27564
879.333	29162
879.461	30589
879.588	31514
879.715	31510
879.842	30700
879.97	29261
880.097	27485
880.224	26233
880.351	25244
880.478	24525
880.605	24045
880.732	23718
880.859	23783
880.986	23505
881.112	23296
881.239	23303
881.366	23121
881.493	23014
881.619	22946
881.746	22980
881.872	22923
881.999	22885
882.125	22984
882.252	23140
882.378	23052
882.505	23185
882.631	23041
882.757	22968
882.883	23048
883.01	22968
883.136	22923
883.262	22835
883.388	22675
883.514	23052
883.64	22915
883.766	22702
883.892	22641
884.018	22542
884.143	22675
884.269	22805
884.395	22584
884.52	22455
884.646	22664
884.772	22466
884.897	22596
885.023	22668
885.148	22736
885.274	22675
885.399	22660
885.524	22329
885.65	22211
885.775	22268
885.9	22173
886.025	22093
886.15	21869
886.275	21804
886.4	21443
886.525	21351
886.65	21317
886.775	21188
886.9	21435
887.025	21355
887.149	21150
887.274	20883
887.399	20762
887.523	20716
887.648	20469
887.773	20663
887.897	20526
888.021	20465
888.146	20328
888.27	20339
888.395	20537
888.519	20240
888.643	20149
888.767	20301
888.891	20039
889.015	19940
889.139	19970
889.263	19894
889.387	19970
889.511	20176
889.635	19887
889.759	19731
889.883	19830
890.006	19860
890.13	19811
890.254	19506
890.377	19540
890.501	19453
890.624	19343
890.748	19457
890.871	19362
890.995	19129
891.118	19053
891.241	19190
891.364	19084
891.488	19228
891.611	19053
891.734	19015
891.857	19050
891.98	19012
892.103	18981
892.226	18894
892.349	18875
892.471	18707
892.594	18909
892.717	18833
892.839	18681
892.962	18844
893.085	18859
893.207	18677
893.33	18627
893.452	18574
893.575	18806
893.697	18578
893.819	18707
893.941	18787
894.064	18783
894.186	18604
894.308	18483
894.43	18601
894.552	18661
894.674	18448
894.796	18281
894.918	18395
895.04	18490
895.161	18410
895.283	18513
895.405	18334
895.526	18357
895.648	18365
895.769	18403
895.891	18517
896.012	18464
896.134	18418
896.255	18353
896.376	18270
896.498	18471
896.619	18429
896.74	18330
896.861	18433
896.982	18726
897.103	18749
897.224	18722
897.345	18574
897.466	18490
897.587	18464
897.708	18673
897.828	18517
897.949	18528
898.07	18376
898.19	18483
898.311	18711
898.431	18517
898.552	18642
898.672	18642
898.792	18498
898.913	18498
899.033	18467
899.153	18296
899.273	18334
899.393	18178
899.513	18304
899.633	18247
899.753	18334
899.873	18292
899.993	18426
900.113	18247
900.232	18289
900.352	18171
900.472	18232
900.591	18087
900.711	18072
900.83	18026
900.95	18197
901.069	18129
901.189	17931
901.308	17668
901.427	17737
901.546	17672
901.665	17676
901.784	17786
901.904	17512
902.023	17349
902.141	17299
902.26	17254
902.379	17265
902.498	17143
902.617	17090
902.735	17200
902.854	17143
902.973	17075
903.091	16843
903.21	16710
903.328	16877
903.446	16656
903.565	16649
903.683	16607
903.801	16390
903.919	16592
904.038	16462
904.156	16329
904.274	16436
904.392	16352
904.51	16257
904.627	16447
904.745	16402
904.863	16310
904.981	16055
905.098	15911
905.216	15926
905.334	15945
905.451	15934
905.569	15979
905.686	16032
905.803	15911
905.921	15785
906.038	15755
906.155	15869
906.272	15656
906.389	15736
906.506	15511
906.623	15534
906.74	15523
906.857	15428
906.974	15431
907.091	15553
907.208	15610
907.324	15481
907.441	15416
907.557	15222
907.674	15226
907.79	15192
907.907	15138
908.023	15161
908.139	15218
908.256	15062
908.372	15173
908.488	15093
908.604	14952
908.72	14838
908.836	14876
908.952	14849
909.068	14891
909.184	14921
909.3	14868
909.415	14872
909.531	14842
909.647	14712
909.762	14545
909.878	14590
909.993	14549
910.108	14602
910.224	14556
910.339	14541
910.454	14393
910.57	14450
910.685	14336
910.8	14617
910.915	14621
911.03	14438
911.145	14252
911.259	14248
911.374	14214
911.489	14221
911.604	14157
911.718	14039
911.833	14035
911.947	13852
912.062	13890
912.176	13894
912.291	13997
912.405	13917
912.519	14145
912.633	14176
912.748	14012
912.862	13913
912.976	13917
913.09	13731
913.204	13807
913.318	13822
913.431	13807
913.545	13780
913.659	13944
913.772	13791
913.886	13666
914	13636
914.113	13712
914.226	13769
914.34	13799
914.453	13533
914.566	13719
914.68	13582
914.793	13537
914.906	13487
915.019	13365
915.132	13232
915.245	13270
915.358	13297
915.47	13324
915.583	13377
915.696	13354
915.809	13495
915.921	13472
916.034	13426
916.146	13316
916.259	13308
916.371	13358
916.483	13320
916.595	13244
916.708	13232
916.82	13266
916.932	13282
917.044	13187
917.156	13122
917.268	13057
917.38	13088
917.491	13069
917.603	13091
917.715	13160
917.826	13156
917.938	12947
918.049	13053
918.161	12932
918.272	13149
918.384	13171
918.495	12947
918.606	12848
918.717	12802
918.828	12829
918.939	12863
919.05	12715
919.161	12787
919.272	12620
919.383	12665
919.494	12886
919.604	12993
919.715	12837
919.826	12787
919.936	12821
920.047	12802
920.157	12757
920.267	12962
920.378	12738
920.488	12707
920.598	13008
920.708	13133
920.818	12909
920.928	12905
921.038	13103
921.148	12970
921.258	12764
921.368	12681
921.477	12536
921.587	12578
921.697	12483
921.806	12589
921.916	12433
922.025	12330
922.134	12235
922.244	12076
922.353	12209
922.462	12178
922.571	12011
922.68	11863
922.789	11859
922.898	11893
923.007	11904
923.116	11893
923.224	11794
923.333	11817
923.442	11688
923.55	11703
923.659	11798
923.767	11813
923.876	11756
923.984	11657
924.092	11562
924.201	11680
924.309	11649
924.417	11714
924.525	11596
924.633	11558
924.741	12414
924.849	11436
924.956	11535
925.064	11353
925.172	11322
925.279	11326
925.387	11368
925.494	11448
925.602	11467
925.709	11364
925.816	11235
925.924	11242
926.031	11436
926.138	11318
926.245	11387
926.352	11204
926.459	11402
926.566	11406
926.673	11273
926.779	11201
926.886	11197
926.993	10980
927.099	10987
927.206	11014
927.312	10934
927.419	10972
927.525	11029
927.631	11006
927.737	10923
927.843	10889
927.95	10797
928.056	10797
928.162	10889
928.267	10968
928.373	11433
928.479	10949
928.585	10725
928.69	10900
928.796	10930
928.901	10721
929.007	10656
929.112	10702
929.218	10736
929.323	10641
929.428	10645
929.533	10759
929.638	10527
929.743	10565
929.848	10626
929.953	10558
930.058	10447
930.163	10360
930.267	10432
930.372	10379
930.477	10333
930.581	10599
930.685	10379
930.79	10154
930.894	10188
930.998	10131
931.103	10382
931.207	10074
931.311	9865
931.415	9850
931.519	9690
931.623	9622
