Data from test_V78500241_1853.txt Node
Date: Fri Mar 25 14:46:36 CST 2022
User: usil
Spectrometer: V785-0024
Trigger mode: 0
Integration Time (sec): 4.000000E-1
Scans to average: 1
Nonlinearity correction enabled: false
Boxcar width: 0
Storing dark spectrum: false
XAxis mode: Wavelengths
Number of Pixels in Spectrum: 1024
>>>>>Begin Spectral Data<<<<<
801.071	22025
801.214	22013
801.356	21732
801.499	21728
801.641	21496
801.783	21481
801.926	21599
802.068	21374
802.211	21424
802.353	21176
802.496	20998
802.638	20990
802.78	20994
802.923	20849
803.065	20781
803.208	20743
803.35	20902
803.492	20864
803.635	20982
803.777	20804
803.919	20883
804.061	21192
804.204	20975
804.346	20804
804.488	20708
804.63	20823
804.773	20727
804.915	20727
805.057	20895
805.199	20765
805.341	20868
805.483	20811
805.626	20891
805.768	20735
805.91	20758
806.052	20804
806.194	20834
806.336	20834
806.478	20739
806.62	20674
806.762	20906
806.904	21005
807.046	21157
807.188	20971
807.33	21112
807.472	21138
807.614	20963
807.756	20918
807.898	20773
808.04	20804
808.182	20762
808.324	20956
808.465	20823
808.607	21093
808.749	21180
808.891	21298
809.033	21348
809.174	21294
809.316	21184
809.458	21138
809.6	21100
809.741	21116
809.883	21089
810.025	21306
810.166	21279
810.308	21291
810.45	21260
810.591	21192
810.733	21020
810.875	20891
811.016	20773
811.158	20739
811.299	20933
811.441	21043
811.582	20872
811.724	20971
811.865	20937
812.007	20941
812.148	20979
812.29	20883
812.431	20925
812.573	21268
812.714	21233
812.855	21355
812.997	21420
813.138	21488
813.279	21424
813.421	21321
813.562	21268
813.703	21135
813.845	21066
813.986	20868
814.127	20552
814.268	20446
814.41	20370
814.551	20518
814.692	20564
814.833	20332
814.974	20427
815.115	20446
815.256	20282
815.397	20229
815.539	20286
815.68	20138
815.821	20134
815.962	20153
816.103	20069
816.244	19970
816.385	19928
816.526	19902
816.666	19647
816.807	19662
816.948	19624
817.089	19685
817.23	19696
817.371	19476
817.512	19544
817.653	19499
817.793	19548
817.934	19575
818.075	19605
818.216	19483
818.356	19449
818.497	19438
818.638	19213
818.778	19331
818.919	19278
819.06	19339
819.2	19362
819.341	19392
819.481	19480
819.622	19613
819.762	19799
819.903	19632
820.043	19594
820.184	19586
820.324	19506
820.465	19635
820.605	19506
820.746	19578
820.886	19403
821.026	19582
821.167	19411
821.307	19571
821.447	19499
821.588	19301
821.728	19350
821.868	19099
822.008	19031
822.149	18916
822.289	18981
822.429	18734
822.569	18722
822.709	18741
822.849	18486
822.99	18460
823.13	18486
823.27	18395
823.41	18308
823.55	18235
823.69	18228
823.83	18308
823.97	18159
824.11	17992
824.25	17920
824.389	18133
824.529	18117
824.669	18064
824.809	18087
824.949	18159
825.089	18098
825.228	18026
825.368	17802
825.508	17790
825.648	17870
825.787	17912
825.927	17866
826.067	17726
826.206	17741
826.346	17779
826.485	17726
826.625	17722
826.765	17904
826.904	17828
827.044	17687
827.183	17745
827.323	17452
827.462	17490
827.601	17512
827.741	17421
827.88	17627
828.02	17360
828.159	17501
828.298	17486
828.437	17638
828.577	17551
828.716	17512
828.855	17471
828.994	17277
829.134	17299
829.273	17356
829.412	17140
829.551	17258
829.69	17261
829.829	17345
829.968	17311
830.107	17368
830.246	17242
830.385	17265
830.524	17128
830.663	17162
830.802	17029
830.941	16896
831.08	16824
831.219	16892
831.357	16999
831.496	17098
831.635	16911
831.774	16831
831.913	16816
832.051	16668
832.19	16698
832.329	16675
832.467	16634
832.606	16546
832.744	16611
832.883	16599
833.022	16691
833.16	16516
833.299	16691
833.437	16565
833.576	16706
833.714	16710
833.852	16733
833.991	16740
834.129	16706
834.267	16679
834.406	16588
834.544	16774
834.682	16698
834.821	16634
834.959	16744
835.097	16569
835.235	16710
835.373	16717
835.511	16706
835.65	16527
835.788	16462
835.926	16455
836.064	16356
836.202	16379
836.34	16599
836.478	16702
836.615	16466
836.753	16668
836.891	16660
837.029	16611
837.167	16508
837.305	16432
837.443	16405
837.58	16421
837.718	16481
837.856	16470
837.993	16344
838.131	16398
838.269	16432
838.406	16344
838.544	16257
838.681	16071
838.819	16010
838.956	16021
839.094	16017
839.231	16063
839.369	16090
839.506	16379
839.643	16268
839.781	15998
839.918	15937
840.055	15964
840.193	15922
840.33	15869
840.467	16071
840.604	16013
840.742	16196
840.879	15892
841.016	15857
841.153	15812
841.29	16093
841.427	15975
841.564	15972
841.701	15972
841.838	15846
841.975	15926
842.112	15903
842.249	15774
842.385	15720
842.522	15903
842.659	15701
842.796	15679
842.933	15667
843.069	15762
843.206	15770
843.343	15842
843.479	15861
843.616	15823
843.752	15671
843.889	15545
844.025	15709
844.162	15557
844.298	15637
844.435	15523
844.571	15507
844.708	15500
844.844	15675
844.98	15667
845.117	15591
845.253	15500
845.389	15363
845.525	15488
845.661	15378
845.798	15283
845.934	15412
846.07	15408
846.206	15435
846.342	15462
846.478	15321
846.614	15192
846.75	15180
846.886	15131
847.022	15252
847.158	15097
847.294	15131
847.429	15116
847.565	15081
847.701	15454
847.837	14830
847.972	14826
848.108	14975
848.244	14887
848.379	14777
848.515	14750
848.65	14667
848.786	14682
848.921	14731
849.057	14758
849.192	14765
849.328	14823
849.463	14663
849.598	14746
849.734	14556
849.869	14503
850.004	14480
850.14	14617
850.275	14522
850.41	14442
850.545	14438
850.68	14438
850.815	14503
850.95	14492
851.085	14655
851.22	14575
851.355	14495
851.49	14351
851.625	14415
851.76	14442
851.895	14366
852.03	14389
852.165	14488
852.299	14507
852.434	14610
852.569	14454
852.703	14484
852.838	14522
852.973	14720
853.107	14648
853.242	14480
853.376	14408
853.511	14324
853.645	14221
853.78	14507
853.914	14298
854.048	14339
854.183	14282
854.317	14343
854.451	14503
854.585	14309
854.72	14374
854.854	14400
854.988	14278
855.122	14294
855.256	14176
855.39	14259
855.524	14374
855.658	14381
855.792	14374
855.926	14370
856.06	14415
856.194	14492
856.327	14355
856.461	14275
856.595	14267
856.729	14328
856.862	14461
856.996	14518
857.13	14476
857.263	14454
857.397	14465
857.53	14431
857.664	14389
857.797	14495
857.931	14488
858.064	14396
858.197	14488
858.331	14301
858.464	14343
858.597	14313
858.731	14332
858.864	14317
858.997	14396
859.13	14339
859.263	14362
859.396	14355
859.529	14332
859.662	14290
859.795	14218
859.928	14393
860.061	14488
860.194	14579
860.327	14370
860.46	14358
860.592	14480
860.725	14499
860.858	14476
860.99	14415
861.123	14320
861.256	14259
861.388	14393
861.521	14986
861.653	14259
861.786	14145
861.918	14202
862.05	14252
862.183	14278
862.315	14294
862.447	14408
862.58	14294
862.712	14142
862.844	14088
862.976	14221
863.108	14164
863.24	14454
863.372	14058
863.504	14164
863.636	14119
863.768	14176
863.9	14195
864.032	14024
864.164	14119
864.296	14210
864.428	14229
864.559	14183
864.691	14229
864.823	14191
864.954	14180
865.086	14176
865.217	14107
865.349	14016
865.48	14214
865.612	14050
865.743	14278
865.875	14096
866.006	14103
866.137	14161
866.269	14062
866.4	14103
866.531	14111
866.662	14077
866.793	14058
866.924	14027
867.055	14153
867.186	14142
867.317	14031
867.448	13986
867.579	14050
867.71	14164
867.841	14054
867.972	14107
868.103	14058
868.233	14145
868.364	14187
868.495	14183
868.625	14309
868.756	14473
868.886	14256
869.017	14328
869.147	14499
869.278	14358
869.408	14355
869.539	14412
869.669	14503
869.799	14374
869.929	14503
870.06	14507
870.19	14773
870.32	14568
870.45	14667
870.58	14735
870.71	14830
870.84	14857
870.97	14686
871.1	14754
871.23	14944
871.36	14948
871.489	14921
871.619	14933
871.749	14902
871.879	14891
872.008	15165
872.138	14929
872.267	14933
872.397	14849
872.526	14765
872.656	14667
872.785	14781
872.915	15032
873.044	15039
873.173	15028
873.303	15074
873.432	15081
873.561	15089
873.69	15013
873.819	14952
873.948	15119
874.077	14967
874.206	15017
874.335	15043
874.464	15154
874.593	15264
874.722	15291
874.851	15351
874.979	15310
875.108	15351
875.237	15233
875.365	15184
875.494	15355
875.623	15313
875.751	15340
875.88	15424
876.008	15523
876.136	15549
876.265	15755
876.393	15876
876.521	15827
876.65	15797
876.778	15720
876.906	15766
877.034	15732
877.162	15728
877.29	15694
877.418	15789
877.546	15770
877.674	15656
877.802	15778
877.93	15701
878.058	15637
878.185	15644
878.313	15770
878.441	15686
878.568	15568
878.696	15641
878.824	15679
878.951	15724
879.079	15854
879.206	16044
879.333	15865
879.461	15789
879.588	15880
879.715	15873
879.842	16010
879.97	15747
880.097	15545
880.224	15549
880.351	15660
880.478	15610
880.605	15538
880.732	15564
880.859	15865
880.986	15675
881.112	15603
881.239	15545
881.366	15317
881.493	15310
881.619	15272
881.746	15260
881.872	15275
881.999	15230
882.125	15135
882.252	15233
882.378	15268
882.505	15329
882.631	15188
882.757	15058
882.883	15123
883.01	14998
883.136	15097
883.262	14986
883.388	14990
883.514	15146
883.64	15157
883.766	15020
883.892	14925
884.018	14891
884.143	15077
884.269	15146
884.395	14777
884.52	14686
884.646	14804
884.772	14708
884.897	14712
885.023	14781
885.148	14929
885.274	14960
885.399	14788
885.524	14693
885.65	14743
885.775	14724
885.9	14769
886.025	14956
886.15	14883
886.275	14746
886.4	14754
886.525	14762
886.65	14659
886.775	14651
886.9	14845
887.025	14941
887.149	14823
887.274	14655
887.399	14530
887.523	14583
887.648	14488
887.773	14602
887.897	14765
888.021	14621
888.146	14621
888.27	14621
888.395	14629
888.519	14545
888.643	14663
888.767	14708
888.891	14450
889.015	14545
889.139	14571
889.263	14507
889.387	14594
889.511	14632
889.635	14632
889.759	14446
889.883	14412
890.006	14480
890.13	14575
890.254	14419
890.377	14476
890.501	14282
890.624	14237
890.748	14244
890.871	14176
890.995	14130
891.118	14092
891.241	14119
891.364	14115
891.488	14362
891.611	14092
891.734	14199
891.857	14263
891.98	14183
892.103	14252
892.226	14161
892.349	14126
892.471	14012
892.594	14191
892.717	14176
892.839	14195
892.962	14164
893.085	14202
893.207	14191
893.33	14058
893.452	14142
893.575	14126
893.697	14149
893.819	14263
893.941	14339
894.064	14328
894.186	14145
894.308	14039
894.43	14176
894.552	14495
894.674	14320
894.796	14073
894.918	14233
895.04	14062
895.161	14324
895.283	14187
895.405	14221
895.526	14294
895.648	14267
895.769	14278
895.891	14275
896.012	14317
896.134	14450
896.255	14396
896.376	14320
896.498	14396
896.619	14389
896.74	14355
896.861	14294
896.982	14716
897.103	14868
897.224	14640
897.345	14560
897.466	14454
897.587	14495
897.708	14746
897.828	14571
897.949	14503
898.07	14423
898.19	14492
898.311	14689
898.431	14606
898.552	14678
898.672	14731
898.792	14773
898.913	14750
899.033	14602
899.153	14621
899.273	14423
899.393	14492
899.513	14571
899.633	14526
899.753	14571
899.873	14476
899.993	14507
900.113	14507
900.232	14526
900.352	14423
900.472	14488
900.591	14381
900.711	14423
900.83	14332
900.95	14419
901.069	14484
901.189	14286
901.308	14103
901.427	14149
901.546	14142
901.665	14119
901.784	13997
901.904	13868
902.023	13940
902.141	13693
902.26	13727
902.379	13750
902.498	13620
902.617	13552
902.735	13639
902.854	13742
902.973	13537
903.091	13392
903.21	13327
903.328	13350
903.446	13213
903.565	13183
903.683	13168
903.801	13183
903.919	13076
904.038	13099
904.156	13019
904.274	13031
904.392	13000
904.51	13000
904.627	12966
904.745	13084
904.863	13008
904.981	12840
905.098	12639
905.216	12726
905.334	12635
905.451	12673
905.569	12776
905.686	12703
905.803	12719
905.921	12559
906.038	12654
906.155	12540
906.272	12475
906.389	12540
906.506	12369
906.623	12388
906.74	12380
906.857	12140
906.974	12285
907.091	12380
907.208	12422
907.324	12350
907.441	12136
907.557	12007
907.674	11999
907.79	12011
907.907	12076
908.023	12098
908.139	12049
908.256	11996
908.372	12034
908.488	11958
908.604	11832
908.72	11790
908.836	11790
908.952	11821
909.068	11733
909.184	11889
909.3	11840
909.415	11920
909.531	11828
909.647	11634
909.762	11600
909.878	11535
909.993	11566
910.108	11566
910.224	11524
910.339	11608
910.454	11547
910.57	11372
910.685	11410
910.8	11638
910.915	11570
911.03	11478
911.145	11326
911.259	11235
911.374	11296
911.489	11197
911.604	11121
911.718	10980
911.833	11018
911.947	10831
912.062	10892
912.176	10995
912.291	11010
912.405	10976
912.519	11159
912.633	11265
912.748	11060
912.862	11041
912.976	10995
913.09	10797
913.204	10774
913.318	10923
913.431	10991
913.545	10968
913.659	11086
913.772	10908
913.886	10805
914	10763
914.113	10873
914.226	10995
914.34	10915
914.453	10809
914.566	10965
914.68	10752
914.793	10744
914.906	10523
915.019	10542
915.132	10478
915.245	10474
915.358	10546
915.47	10504
915.583	10550
915.696	10603
915.809	10721
915.921	10694
916.034	10554
916.146	10462
916.259	10432
916.371	10550
916.483	10542
916.595	10424
916.708	10462
916.82	10527
916.932	10421
917.044	10447
917.156	10436
917.268	10390
917.38	10363
917.491	10341
917.603	10325
917.715	10341
917.826	10512
917.938	10322
918.049	10265
918.161	10352
918.272	10519
918.384	10470
918.495	10409
918.606	10200
918.717	10173
918.828	10253
918.939	10287
919.05	10105
919.161	10173
919.272	10013
919.383	10074
919.494	10325
919.604	10504
919.715	10253
919.826	10162
919.936	10287
920.047	10318
920.157	10310
920.267	10371
920.378	10379
920.488	10261
920.598	10341
920.708	10603
920.818	10398
920.928	10470
921.038	10542
921.148	10542
921.258	10272
921.368	10196
921.477	10158
921.587	10109
921.697	9941
921.806	10207
921.916	10021
922.025	9850
922.134	9827
922.244	9709
922.353	9827
922.462	9747
922.571	9622
922.68	9511
922.789	9572
922.898	9515
923.007	9439
923.116	9572
923.224	9534
923.333	9466
923.442	9374
923.55	9367
923.659	9397
923.767	9450
923.876	9348
923.984	9500
924.092	9340
924.201	9450
924.309	9329
924.417	9367
924.525	9351
924.633	9321
924.741	10261
924.849	9119
924.956	9272
925.064	9169
925.172	9119
925.279	9085
925.387	9211
925.494	9157
925.602	9272
925.709	9241
925.816	9085
925.924	9184
926.031	9226
926.138	9214
926.245	9184
926.352	9062
926.459	9256
926.566	9188
926.673	9146
926.779	8979
926.886	8998
926.993	8914
927.099	8842
927.206	8834
927.312	8800
927.419	8918
927.525	8914
927.631	8876
927.737	8769
927.843	8788
927.95	8731
928.056	8686
928.162	8777
928.267	8804
928.373	9332
928.479	8849
928.585	8655
928.69	8769
928.796	8811
928.901	8701
929.007	8522
929.112	8712
929.218	8663
929.323	8648
929.428	8541
929.533	8724
929.638	8514
929.743	8526
929.848	8598
929.953	8583
930.058	8412
930.163	8282
930.267	8400
930.372	8495
930.477	8298
930.581	8587
930.685	8431
930.79	8282
930.894	8320
930.998	8290
931.103	8366
931.207	8092
931.311	8073
931.415	7970
931.519	7811
931.623	7811
