Data from test_V78500241_798.txt Node
Date: Fri Mar 25 14:39:16 CST 2022
User: usil
Spectrometer: V785-0024
Trigger mode: 0
Integration Time (sec): 4.000000E-1
Scans to average: 1
Nonlinearity correction enabled: false
Boxcar width: 0
Storing dark spectrum: false
XAxis mode: Wavelengths
Number of Pixels in Spectrum: 1024
>>>>>Begin Spectral Data<<<<<
801.071	26453
801.214	26393
801.356	26153
801.499	26031
801.641	25906
801.783	25845
801.926	25776
802.068	25620
802.211	25594
802.353	25540
802.496	25438
802.638	25316
802.78	25324
802.923	25221
803.065	25301
803.208	25293
803.35	25251
803.492	25316
803.635	25479
803.777	25312
803.919	25441
804.061	25738
804.204	25400
804.346	25525
804.488	25384
804.63	25400
804.773	25415
804.915	25628
805.057	25791
805.199	25849
805.341	25696
805.483	25925
805.626	25928
805.768	25955
805.91	26077
806.052	26164
806.194	26180
806.336	26575
806.478	26571
806.62	26678
806.762	27047
806.904	27237
807.046	27736
807.188	27819
807.33	28322
807.472	28672
807.614	29292
807.756	30152
807.898	30905
808.04	32191
808.182	33774
808.324	35897
808.465	38229
808.607	41219
808.749	43384
808.891	45024
809.033	44967
809.174	43601
809.316	41277
809.458	38370
809.6	35752
809.741	33629
809.883	31719
810.025	30547
810.166	29687
810.308	29098
810.45	28421
810.591	28158
810.733	27549
810.875	27218
811.016	26876
811.158	26811
811.299	26731
811.441	26800
811.582	26480
811.724	26317
811.865	26195
812.007	26081
812.148	26069
812.29	26081
812.431	26088
812.573	26172
812.714	26191
812.855	26339
812.997	26423
813.138	26484
813.279	26530
813.421	26259
813.562	26237
813.703	25955
813.845	25837
813.986	25457
814.127	25213
814.268	25053
814.41	25152
814.551	25057
814.692	25168
814.833	25004
814.974	24970
815.115	24939
815.256	24760
815.397	24779
815.539	24730
815.68	24650
815.821	24646
815.962	24574
816.103	24517
816.244	24460
816.385	24285
816.526	24273
816.666	24140
816.807	24057
816.948	24079
817.089	24026
817.23	24011
817.371	24045
817.512	24011
817.653	23866
817.793	23817
817.934	23946
818.075	23809
818.216	23851
818.356	23821
818.497	23646
818.638	23634
818.778	23596
818.919	23531
819.06	23581
819.2	23649
819.341	23764
819.481	23684
819.622	23866
819.762	23980
819.903	24057
820.043	23764
820.184	23771
820.324	23786
820.465	23745
820.605	23684
820.746	23794
820.886	23531
821.026	23726
821.167	23710
821.307	23764
821.447	23596
821.588	23448
821.728	23372
821.868	23189
822.008	23166
822.149	22957
822.289	23048
822.429	22816
822.569	22725
822.709	22721
822.849	22329
822.99	22314
823.13	22523
823.27	22443
823.41	22306
823.55	22207
823.69	22303
823.83	22166
823.97	22150
824.11	22082
824.25	21998
824.389	21865
824.529	22097
824.669	21956
824.809	22166
824.949	22200
825.089	22135
825.228	22010
825.368	21850
825.508	21717
825.648	21838
825.787	21778
825.927	21945
826.067	21705
826.206	21766
826.346	21941
826.485	21823
826.625	21759
826.765	21979
826.904	21759
827.044	21458
827.183	21454
827.323	21424
827.462	21492
827.601	21466
827.741	21519
827.88	21462
828.02	21310
828.159	21317
828.298	21416
828.437	21526
828.577	21393
828.716	21587
828.855	21367
828.994	21237
829.134	21127
829.273	21184
829.412	21104
829.551	21100
829.69	21154
829.829	21203
829.968	21161
830.107	21283
830.246	21142
830.385	21108
830.524	20967
830.663	20921
830.802	20895
830.941	20762
831.08	20739
831.219	20746
831.357	20792
831.496	20998
831.635	20777
831.774	20708
831.913	20686
832.051	20636
832.19	20533
832.329	20720
832.467	20442
832.606	20514
832.744	20617
832.883	20552
833.022	20697
833.16	20750
833.299	20842
833.437	20933
833.576	21104
833.714	21157
833.852	21233
833.991	21420
834.129	21507
834.267	21587
834.406	21359
834.544	21530
834.682	21340
834.821	21157
834.959	21260
835.097	20941
835.235	20899
835.373	20944
835.511	20644
835.65	20400
835.788	20541
835.926	20275
836.064	20221
836.202	20214
836.34	20427
836.478	20381
836.615	20332
836.753	20320
836.891	20404
837.029	20366
837.167	20301
837.305	20191
837.443	20138
837.58	20119
837.718	20381
837.856	20168
837.993	20142
838.131	20073
838.269	20088
838.406	20126
838.544	19963
838.681	19795
838.819	19772
838.956	19521
839.094	19575
839.231	19674
839.369	19765
839.506	19909
839.643	19761
839.781	19548
839.918	19491
840.055	19700
840.193	19464
840.33	19529
840.467	19571
840.604	19537
840.742	19723
840.879	19426
841.016	19422
841.153	19468
841.29	19567
841.427	19506
841.564	19643
841.701	19453
841.838	19624
841.975	19472
842.112	19403
842.249	19266
842.385	19331
842.522	19552
842.659	19335
842.796	19293
842.933	19415
843.069	19251
843.206	19407
843.343	19567
843.479	19605
843.616	19407
843.752	19209
843.889	19460
844.025	19388
844.162	19297
844.298	19658
844.435	19643
844.571	19689
844.708	20145
844.844	20393
844.98	20746
845.117	21165
845.253	22055
845.389	23349
845.525	26237
845.661	30897
845.798	36456
845.934	40854
846.07	42353
846.206	41292
846.342	37594
846.478	32081
846.614	27199
846.75	24060
846.886	22090
847.022	21074
847.158	20358
847.294	19791
847.429	19605
847.565	19187
847.701	19324
847.837	18825
847.972	18688
848.108	18741
848.244	18681
848.379	18437
848.515	18410
848.65	18353
848.786	18380
848.921	18437
849.057	18372
849.192	18464
849.328	18350
849.463	18296
849.598	18171
849.734	18140
849.869	18034
850.004	17969
850.14	18102
850.275	18007
850.41	17927
850.545	17950
850.68	17996
850.815	17999
850.95	17992
851.085	18144
851.22	18159
851.355	18045
851.49	17935
851.625	17961
851.76	17958
851.895	17904
852.03	17855
852.165	17942
852.299	18026
852.434	17999
852.569	18117
852.703	18095
852.838	18098
852.973	18174
853.107	18213
853.242	18030
853.376	17851
853.511	17836
853.645	17904
853.78	18194
853.914	18155
854.048	18163
854.183	18140
854.317	18220
854.451	18342
854.585	18079
854.72	18186
854.854	18216
854.988	17885
855.122	18057
855.256	17882
855.39	18022
855.524	17939
855.658	17946
855.792	17866
855.926	17882
856.06	17920
856.194	17958
856.327	17817
856.461	17790
856.595	17790
856.729	17729
856.862	17961
856.996	17817
857.13	17920
857.263	17828
857.397	17878
857.53	17752
857.664	17882
857.797	17843
857.931	17897
858.064	17813
858.197	17889
858.331	17665
858.464	17668
858.597	17623
858.731	17733
858.864	17661
858.997	17539
859.13	17608
859.263	17729
859.396	17726
859.529	17627
859.662	17630
859.795	17661
859.928	17604
860.061	17836
860.194	17832
860.327	17665
860.46	17615
860.592	17623
860.725	17649
860.858	17775
860.99	17668
861.123	17589
861.256	17520
861.388	17646
861.521	18144
861.653	17486
861.786	17398
861.918	17452
862.05	17501
862.183	17516
862.315	17585
862.447	17745
862.58	17509
862.712	17417
862.844	17299
862.976	17425
863.108	17455
863.24	17756
863.372	17334
863.504	17326
863.636	17303
863.768	17341
863.9	17265
864.032	17277
864.164	17105
864.296	17349
864.428	17269
864.559	17433
864.691	17421
864.823	17398
864.954	17318
865.086	17383
865.217	17269
865.349	17147
865.48	17250
865.612	17318
865.743	17349
865.875	17326
866.006	17254
866.137	17303
866.269	17277
866.4	17235
866.531	17315
866.662	17360
866.793	17193
866.924	17181
867.055	17223
867.186	17220
867.317	17197
867.448	17223
867.579	17181
867.71	17075
867.841	17109
867.972	17223
868.103	17250
868.233	17242
868.364	17261
868.495	17383
868.625	17520
868.756	17573
868.886	17425
869.017	17474
869.147	17528
869.278	17596
869.408	17520
869.539	17501
869.669	17573
869.799	17604
869.929	17592
870.06	17592
870.19	17775
870.32	17790
870.45	17855
870.58	17999
870.71	18045
870.84	18083
870.97	17916
871.1	17958
871.23	18102
871.36	18174
871.489	18053
871.619	18076
871.749	18251
871.879	18186
872.008	18327
872.138	18224
872.267	18163
872.397	18095
872.526	18087
872.656	18053
872.785	18125
872.915	18273
873.044	18361
873.173	18357
873.303	18418
873.432	18353
873.561	18528
873.69	18292
873.819	18479
873.948	18437
874.077	18494
874.206	18460
874.335	18608
874.464	18661
874.593	18875
874.722	18795
874.851	18821
874.979	18932
875.108	19057
875.237	18924
875.365	18909
875.494	18973
875.623	19057
875.751	18996
875.88	19129
876.008	19171
876.136	19403
876.265	19491
876.393	19704
876.521	19788
876.65	19868
876.778	19864
876.906	19780
877.034	19856
877.162	19967
877.29	19883
877.418	19951
877.546	20054
877.674	20271
877.802	20366
877.93	20351
878.058	20552
878.185	20602
878.313	20853
878.441	21173
878.568	21386
878.696	21907
878.824	22660
878.951	23570
879.079	24894
879.206	26659
879.333	28249
879.461	29577
879.588	30719
879.715	30547
879.842	29912
879.97	28280
880.097	26476
880.224	25084
880.351	24018
880.478	23356
880.605	22972
880.732	22660
880.859	22615
880.986	22344
881.112	22276
881.239	22055
881.366	21831
881.493	21846
881.619	21774
881.746	21842
881.872	21762
881.999	21880
882.125	21873
882.252	22013
882.378	21895
882.505	22143
882.631	21922
882.757	21728
882.883	21827
883.01	21850
883.136	21835
883.262	21656
883.388	21667
883.514	21797
883.64	21717
883.766	21633
883.892	21507
884.018	21557
884.143	21724
884.269	21903
884.395	21564
884.52	21485
884.646	21523
884.772	21389
884.897	21450
885.023	21583
885.148	21492
885.274	21625
885.399	21454
885.524	21363
885.65	21252
885.775	21138
885.9	20933
886.025	20967
886.15	20895
886.275	20465
886.4	20412
886.525	20385
886.65	20248
886.775	20122
886.9	20199
887.025	20332
887.149	19849
887.274	19696
887.399	19605
887.523	19544
887.648	19521
887.773	19407
887.897	19407
888.021	19381
888.146	19168
888.27	19350
888.395	19320
888.519	19289
888.643	19293
888.767	19118
888.891	18928
889.015	18821
889.139	18829
889.263	18886
889.387	18821
889.511	18863
889.635	18875
889.759	18525
889.883	18654
890.006	18623
890.13	18681
890.254	18429
890.377	18536
890.501	18353
890.624	18209
890.748	18323
890.871	18159
890.995	18076
891.118	17961
891.241	18030
891.364	18011
891.488	18095
891.611	17977
891.734	17809
891.857	17942
891.98	17927
892.103	17874
892.226	17893
892.349	17771
892.471	17581
892.594	17767
892.717	17733
892.839	17699
892.962	17554
893.085	17668
893.207	17592
893.33	17463
893.452	17471
893.575	17623
893.697	17490
893.819	17592
893.941	17638
894.064	17653
894.186	17478
894.308	17353
894.43	17433
894.552	17634
894.674	17554
894.796	17402
894.918	17471
895.04	17360
895.161	17425
895.283	17368
895.405	17197
895.526	17322
895.648	17326
895.769	17311
895.891	17349
896.012	17330
896.134	17337
896.255	17208
896.376	17303
896.498	17250
896.619	17387
896.74	17261
896.861	17337
896.982	17653
897.103	17714
897.224	17486
897.345	17463
897.466	17372
897.587	17410
897.708	17646
897.828	17573
897.949	17421
898.07	17277
898.19	17315
898.311	17402
898.431	17395
898.552	17486
898.672	17516
898.792	17535
898.913	17528
899.033	17364
899.153	17376
899.273	17204
899.393	17322
899.513	17250
899.633	17330
899.753	17356
899.873	17280
899.993	17174
900.113	17296
900.232	17166
900.352	17147
900.472	17162
900.591	16938
900.711	17102
900.83	17090
900.95	17132
901.069	17128
901.189	17003
901.308	16702
901.427	16782
901.546	16729
901.665	16748
901.784	16660
901.904	16577
902.023	16443
902.141	16226
902.26	16112
902.379	16249
902.498	16109
902.617	16154
902.735	16223
902.854	16013
902.973	16021
903.091	15869
903.21	15800
903.328	15846
903.446	15656
903.565	15701
903.683	15568
903.801	15511
903.919	15603
904.038	15515
904.156	15367
904.274	15431
904.392	15313
904.51	15336
904.627	15332
904.745	15363
904.863	15428
904.981	15199
905.098	14994
905.216	14979
905.334	15112
905.451	15039
905.569	15043
905.686	15138
905.803	14990
905.921	14792
906.038	14876
906.155	14925
906.272	14640
906.389	14724
906.506	14625
906.623	14598
906.74	14579
906.857	14374
906.974	14374
907.091	14598
907.208	14610
907.324	14621
907.441	14412
907.557	14267
907.674	14267
907.79	14218
907.907	14138
908.023	14176
908.139	14199
908.256	14161
908.372	14225
908.488	14100
908.604	14001
908.72	14020
908.836	13947
908.952	13989
909.068	14008
909.184	14138
909.3	14107
909.415	14039
909.531	14005
909.647	13780
909.762	13795
909.878	13658
909.993	13727
910.108	13765
910.224	13655
910.339	13750
910.454	13632
910.57	13639
910.685	13434
910.8	13772
910.915	13689
911.03	13578
911.145	13441
911.259	13369
911.374	13320
911.489	13316
911.604	13259
911.718	13145
911.833	13156
911.947	13000
912.062	12920
912.176	13019
912.291	13190
912.405	13050
912.519	13365
912.633	13304
912.748	13122
912.862	13141
912.976	12996
913.09	12886
913.204	12932
913.318	12951
913.431	13034
913.545	13114
913.659	13065
913.772	12909
913.886	12817
914	12798
914.113	12901
914.226	12878
914.34	12951
914.453	12772
914.566	12924
914.68	12757
914.793	12684
914.906	12601
915.019	12566
915.132	12369
915.245	12483
915.358	12513
915.47	12547
915.583	12506
915.696	12650
915.809	12650
915.921	12700
916.034	12525
916.146	12494
916.259	12566
916.371	12662
916.483	12585
916.595	12460
916.708	12555
916.82	12494
916.932	12490
917.044	12528
917.156	12475
917.268	12315
917.38	12426
917.491	12330
917.603	12357
917.715	12391
917.826	12441
917.938	12216
918.049	12235
918.161	12201
918.272	12486
918.384	12422
918.495	12350
918.606	12228
918.717	12019
918.828	12121
918.939	12148
919.05	11920
919.161	12053
919.272	11878
919.383	11863
919.494	12114
919.604	12289
919.715	12125
919.826	11996
919.936	11973
920.047	12030
920.157	12064
920.267	12327
920.378	12133
920.488	12053
920.598	12254
920.708	12460
920.818	12235
920.928	12220
921.038	12270
921.148	12311
921.258	12079
921.368	11859
921.477	11946
921.587	11821
921.697	11745
921.806	11920
921.916	11688
922.025	11573
922.134	11558
922.244	11493
922.353	11497
922.462	11417
922.571	11360
922.68	11292
922.789	11159
922.898	11155
923.007	11174
923.116	11155
923.224	11212
923.333	11136
923.442	11174
923.55	10968
923.659	11045
923.767	11079
923.876	11029
923.984	11094
924.092	10938
924.201	10984
924.309	10949
924.417	10987
924.525	10961
924.633	10942
924.741	11828
924.849	10759
924.956	10892
925.064	10759
925.172	10645
925.279	10717
925.387	10824
925.494	10774
925.602	10873
925.709	10850
925.816	10607
925.924	10675
926.031	10771
926.138	10698
926.245	10744
926.352	10565
926.459	10809
926.566	10714
926.673	10573
926.779	10535
926.886	10538
926.993	10459
927.099	10295
927.206	10360
927.312	10325
927.419	10474
927.525	10382
927.631	10405
927.737	10291
927.843	10223
927.95	10093
928.056	10257
928.162	10276
928.267	10341
928.373	10942
928.479	10341
928.585	10090
928.69	10207
928.796	10234
928.901	10135
929.007	10036
929.112	10192
929.218	10074
929.323	10150
929.428	10025
929.533	10105
929.638	9945
929.743	9991
929.848	10044
929.953	9937
930.058	9964
930.163	9705
930.267	9812
930.372	9960
930.477	9778
930.581	9895
930.685	9747
930.79	9580
930.894	9717
930.998	9644
931.103	9766
931.207	9454
931.311	9363
931.415	9291
931.519	9043
931.623	9222
