Data from test_V78500241_3338.txt Node
Date: Fri Mar 25 14:56:57 CST 2022
User: usil
Spectrometer: V785-0024
Trigger mode: 0
Integration Time (sec): 4.000000E-1
Scans to average: 1
Nonlinearity correction enabled: false
Boxcar width: 0
Storing dark spectrum: false
XAxis mode: Wavelengths
Number of Pixels in Spectrum: 1024
>>>>>Begin Spectral Data<<<<<
801.071	21964
801.214	21873
801.356	21629
801.499	21439
801.641	21435
801.783	21241
801.926	21329
802.068	21176
802.211	21249
802.353	21150
802.496	20864
802.638	20861
802.78	20739
802.923	20800
803.065	20674
803.208	20598
803.35	20716
803.492	20644
803.635	20815
803.777	20674
803.919	20720
804.061	21001
804.204	20693
804.346	20587
804.488	20602
804.63	20648
804.773	20408
804.915	20473
805.057	20701
805.199	20545
805.341	20629
805.483	20678
805.626	20678
805.768	20488
805.91	20549
806.052	20568
806.194	20537
806.336	20644
806.478	20442
806.62	20423
806.762	20682
806.904	20689
807.046	21013
807.188	20830
807.33	20826
807.472	20967
807.614	20743
807.756	20773
807.898	20651
808.04	20484
808.182	20556
808.324	20686
808.465	20556
808.607	20769
808.749	20925
808.891	21074
809.033	21036
809.174	20963
809.316	20880
809.458	20800
809.6	20830
809.741	20845
809.883	20986
810.025	21005
810.166	21024
810.308	21043
810.45	20982
810.591	21024
810.733	20689
810.875	20834
811.016	20594
811.158	20507
811.299	20621
811.441	20743
811.582	20773
811.724	20602
811.865	20842
812.007	20583
812.148	20552
812.29	20712
812.431	20769
812.573	20902
812.714	21058
812.855	21138
812.997	21226
813.138	21237
813.279	21272
813.421	21176
813.562	21150
813.703	20883
813.845	20849
813.986	20533
814.127	20431
814.268	20317
814.41	20332
814.551	20309
814.692	20187
814.833	20039
814.974	20024
815.115	20202
815.256	19989
815.397	19963
815.539	20005
815.68	19894
815.821	19841
815.962	20005
816.103	19864
816.244	19799
816.385	19662
816.526	19670
816.666	19632
816.807	19255
816.948	19396
817.089	19499
817.23	19403
817.371	19278
817.512	19434
817.653	19217
817.793	19301
817.934	19240
818.075	19324
818.216	19434
818.356	19293
818.497	19190
818.638	19012
818.778	18981
818.919	19057
819.06	19042
819.2	19171
819.341	19179
819.481	19187
819.622	19381
819.762	19601
819.903	19343
820.043	19225
820.184	19346
820.324	19297
820.465	19369
820.605	19331
820.746	19343
820.886	19217
821.026	19206
821.167	19217
821.307	19304
821.447	19194
821.588	19236
821.728	19080
821.868	18894
822.008	18772
822.149	18658
822.289	18627
822.429	18426
822.569	18372
822.709	18452
822.849	18251
822.99	18136
823.13	18201
823.27	18254
823.41	18087
823.55	18076
823.69	18015
823.83	18011
823.97	17942
824.11	17821
824.25	17748
824.389	17843
824.529	17863
824.669	17798
824.809	17802
824.949	17847
825.089	17901
825.228	17760
825.368	17638
825.508	17497
825.648	17604
825.787	17695
825.927	17592
826.067	17520
826.206	17421
826.346	17604
826.485	17630
826.625	17646
826.765	17680
826.904	17672
827.044	17307
827.183	17341
827.323	17269
827.462	17334
827.601	17379
827.741	17341
827.88	17258
828.02	17200
828.159	17132
828.298	17231
828.437	17337
828.577	17246
828.716	17433
828.855	17189
828.994	17121
829.134	17014
829.273	17128
829.412	16953
829.551	16892
829.69	16976
829.829	17029
829.968	17048
830.107	17094
830.246	17045
830.385	17014
830.524	16904
830.663	16873
830.802	16828
830.941	16675
831.08	16550
831.219	16698
831.357	16774
831.496	16805
831.635	16618
831.774	16554
831.913	16565
832.051	16455
832.19	16466
832.329	16508
832.467	16413
832.606	16207
832.744	16375
832.883	16443
833.022	16402
833.16	16402
833.299	16413
833.437	16356
833.576	16436
833.714	16531
833.852	16542
833.991	16417
834.129	16497
834.267	16299
834.406	16413
834.544	16348
834.682	16478
834.821	16402
834.959	16489
835.097	16409
835.235	16485
835.373	16421
835.511	16443
835.65	16363
835.788	16276
835.926	16150
836.064	16135
836.202	16223
836.34	16371
836.478	16489
836.615	16291
836.753	16280
836.891	16382
837.029	16344
837.167	16299
837.305	16299
837.443	16295
837.58	16139
837.718	16291
837.856	16223
837.993	16177
838.131	16249
838.269	16120
838.406	16169
838.544	16074
838.681	15953
838.819	15854
838.956	15709
839.094	15827
839.231	15785
839.369	15956
839.506	16188
839.643	15911
839.781	15816
839.918	15728
840.055	15785
840.193	15838
840.33	15724
840.467	15743
840.604	15701
840.742	16017
840.879	15629
841.016	15656
841.153	15595
841.29	15797
841.427	15846
841.564	15800
841.701	15892
841.838	15728
841.975	15675
842.112	15720
842.249	15561
842.385	15587
842.522	15667
842.659	15549
842.796	15458
842.933	15564
843.069	15515
843.206	15488
843.343	15629
843.479	15720
843.616	15553
843.752	15428
843.889	15321
844.025	15450
844.162	15336
844.298	15450
844.435	15393
844.571	15268
844.708	15332
844.844	15523
844.98	15458
845.117	15447
845.253	15192
845.389	15294
845.525	15272
845.661	15207
845.798	15112
845.934	15150
846.07	15089
846.206	15199
846.342	15218
846.478	15237
846.614	14910
846.75	14826
846.886	14921
847.022	14994
847.158	14937
847.294	14876
847.429	14929
847.565	14872
847.701	15112
847.837	14667
847.972	14636
848.108	14792
848.244	14819
848.379	14621
848.515	14514
848.65	14507
848.786	14571
848.921	14431
849.057	14617
849.192	14583
849.328	14533
849.463	14434
849.598	14522
849.734	14434
849.869	14328
850.004	14362
850.14	14309
850.275	14275
850.41	14210
850.545	14191
850.68	14164
850.815	14233
850.95	14244
851.085	14480
851.22	14309
851.355	14309
851.49	14187
851.625	14286
851.76	14183
851.895	14199
852.03	14096
852.165	14233
852.299	14343
852.434	14267
852.569	14240
852.703	14244
852.838	14240
852.973	14393
853.107	14347
853.242	14183
853.376	14157
853.511	14020
853.645	14119
853.78	14244
853.914	14058
854.048	14092
854.183	14206
854.317	14161
854.451	14248
854.585	14161
854.72	14187
854.854	14168
854.988	14081
855.122	14084
855.256	14058
855.39	14065
855.524	14153
855.658	14115
855.792	14138
855.926	14195
856.06	14187
856.194	14324
856.327	14103
856.461	14100
856.595	14084
856.729	14088
856.862	14237
856.996	14176
857.13	14214
857.263	14225
857.397	14256
857.53	14096
857.664	14278
857.797	14157
857.931	14199
858.064	14202
858.197	14240
858.331	14153
858.464	14142
858.597	14001
858.731	14130
858.864	14119
858.997	14043
859.13	14187
859.263	14168
859.396	14164
859.529	14172
859.662	14119
859.795	14081
859.928	14161
860.061	14328
860.194	14362
860.327	14153
860.46	14149
860.592	14221
860.725	14267
860.858	14313
860.99	14069
861.123	14046
861.256	14062
861.388	14123
861.521	14979
861.653	13986
861.786	14035
861.918	14065
862.05	14084
862.183	14054
862.315	14107
862.447	14218
862.58	14077
862.712	13993
862.844	13951
862.976	14084
863.108	13982
863.24	14343
863.372	13830
863.504	13928
863.636	13883
863.768	14020
863.9	13959
864.032	13917
864.164	13799
864.296	14062
864.428	13993
864.559	14001
864.691	13959
864.823	13932
864.954	13928
865.086	13944
865.217	13917
865.349	13940
865.48	13883
865.612	13955
865.743	14008
865.875	13875
866.006	13925
866.137	13967
866.269	13894
866.4	13795
866.531	13894
866.662	13856
866.793	13833
866.924	13826
867.055	13864
867.186	13841
867.317	13890
867.448	13807
867.579	13883
867.71	13818
867.841	13875
867.972	13928
868.103	13837
868.233	13909
868.364	13925
868.495	13959
868.625	14107
868.756	14355
868.886	14096
869.017	14138
869.147	14298
869.278	14263
869.408	14145
869.539	14202
869.669	14332
869.799	14282
869.929	14351
870.06	14298
870.19	14488
870.32	14469
870.45	14571
870.58	14667
870.71	14644
870.84	14621
870.97	14610
871.1	14530
871.23	14743
871.36	14800
871.489	14720
871.619	14663
871.749	14708
871.879	14918
872.008	14834
872.138	14743
872.267	14663
872.397	14625
872.526	14606
872.656	14587
872.785	14617
872.915	14762
873.044	14883
873.173	14781
873.303	14895
873.432	14804
873.561	14838
873.69	14781
873.819	14849
873.948	14918
874.077	14811
874.206	14830
874.335	14773
874.464	14979
874.593	15161
874.722	15108
874.851	15127
874.979	15108
875.108	15119
875.237	15013
875.365	15074
875.494	15135
875.623	15119
875.751	15112
875.88	15184
876.008	15237
876.136	15363
876.265	15690
876.393	15770
876.521	15663
876.65	15701
876.778	15591
876.906	15523
877.034	15500
877.162	15485
877.29	15515
877.418	15488
877.546	15610
877.674	15523
877.802	15553
877.93	15557
878.058	15534
878.185	15500
878.313	15534
878.441	15530
878.568	15408
878.696	15416
878.824	15606
878.951	15656
879.079	15778
879.206	15846
879.333	15747
879.461	15644
879.588	15667
879.715	15770
879.842	15831
879.97	15530
880.097	15412
880.224	15378
880.351	15466
880.478	15447
880.605	15252
880.732	15386
880.859	15652
880.986	15462
881.112	15431
881.239	15348
881.366	15089
881.493	15104
881.619	15055
881.746	15123
881.872	15089
881.999	14933
882.125	15135
882.252	15005
882.378	15108
882.505	15207
882.631	15074
882.757	14914
882.883	14960
883.01	14864
883.136	14880
883.262	14743
883.388	14750
883.514	14842
883.64	14876
883.766	14929
883.892	14632
884.018	14777
884.143	14834
884.269	14994
884.395	14560
884.52	14476
884.646	14583
884.772	14549
884.897	14507
885.023	14632
885.148	14708
885.274	14724
885.399	14758
885.524	14575
885.65	14629
885.775	14617
885.9	14590
886.025	14670
886.15	14629
886.275	14522
886.4	14473
886.525	14552
886.65	14507
886.775	14492
886.9	14754
887.025	14857
887.149	14583
887.274	14423
887.399	14408
887.523	14423
887.648	14332
887.773	14332
887.897	14431
888.021	14396
888.146	14339
888.27	14484
888.395	14507
888.519	14438
888.643	14507
888.767	14492
888.891	14309
889.015	14218
889.139	14259
889.263	14221
889.387	14324
889.511	14408
889.635	14324
889.759	14187
889.883	14271
890.006	14332
890.13	14431
890.254	14111
890.377	14206
890.501	14100
890.624	14020
890.748	14126
890.871	13932
890.995	13887
891.118	13841
891.241	14024
891.364	14031
891.488	14054
891.611	13963
891.734	14016
891.857	14077
891.98	14054
892.103	14107
892.226	14008
892.349	14046
892.471	13738
892.594	13947
892.717	13894
892.839	13974
892.962	13936
893.085	14001
893.207	13967
893.33	13890
893.452	13921
893.575	14062
893.697	14027
893.819	14153
893.941	14195
894.064	14161
894.186	14050
894.308	14035
894.43	14103
894.552	14237
894.674	14191
894.796	13993
894.918	13982
895.04	14020
895.161	14237
895.283	14107
895.405	14062
895.526	14027
895.648	14069
895.769	14046
895.891	14176
896.012	14229
896.134	14210
896.255	14126
896.376	14077
896.498	14176
896.619	14202
896.74	14320
896.861	14225
896.982	14454
897.103	14625
897.224	14518
897.345	14450
897.466	14343
897.587	14469
897.708	14533
897.828	14469
897.949	14347
898.07	14305
898.19	14404
898.311	14682
898.431	14446
898.552	14511
898.672	14659
898.792	14648
898.913	14434
899.033	14412
899.153	14484
899.273	14309
899.393	14343
899.513	14427
899.633	14518
899.753	14343
899.873	14377
899.993	14446
900.113	14351
900.232	14351
900.352	14351
900.472	14176
900.591	14202
900.711	14282
900.83	14248
900.95	14385
901.069	14351
901.189	14168
901.308	14001
901.427	13917
901.546	13902
901.665	14058
901.784	13940
901.904	13868
902.023	13799
902.141	13540
902.26	13441
902.379	13620
902.498	13540
902.617	13457
902.735	13544
902.854	13537
902.973	13502
903.091	13255
903.21	13247
903.328	13297
903.446	13107
903.565	13038
903.683	13129
903.801	12985
903.919	12977
904.038	13118
904.156	12886
904.274	12966
904.392	12859
904.51	12844
904.627	12920
904.745	13004
904.863	12970
904.981	12722
905.098	12544
905.216	12608
905.334	12635
905.451	12563
905.569	12574
905.686	12631
905.803	12604
905.921	12399
906.038	12536
906.155	12353
906.272	12300
906.389	12372
906.506	12159
906.623	12197
906.74	12235
906.857	12095
906.974	12091
907.091	12220
907.208	12327
907.324	12239
907.441	12121
907.557	11996
907.674	11942
907.79	12011
907.907	11874
908.023	11965
908.139	11904
908.256	11885
908.372	11889
908.488	11840
908.604	11748
908.72	11684
908.836	11710
908.952	11653
909.068	11726
909.184	11779
909.3	11661
909.415	11764
909.531	11676
909.647	11486
909.762	11532
909.878	11455
909.993	11543
910.108	11459
910.224	11493
910.339	11433
910.454	11425
910.57	11315
910.685	11265
910.8	11543
910.915	11478
911.03	11326
911.145	11159
911.259	11090
911.374	11151
911.489	11113
911.604	11025
911.718	10923
911.833	10999
911.947	10809
912.062	10698
912.176	10862
912.291	10949
912.405	10995
912.519	11117
912.633	11105
912.748	11022
912.862	10976
912.976	10774
913.09	10706
913.204	10831
913.318	10892
913.431	10877
913.545	10904
913.659	10942
913.772	10717
913.886	10675
914	10611
914.113	10763
914.226	10767
914.34	10774
914.453	10607
914.566	10717
914.68	10683
914.793	10694
914.906	10421
915.019	10447
915.132	10367
915.245	10462
915.358	10398
915.47	10402
915.583	10428
915.696	10512
915.809	10573
915.921	10672
916.034	10413
916.146	10504
916.259	10398
916.371	10375
916.483	10413
916.595	10329
916.708	10341
916.82	10333
916.932	10329
917.044	10348
917.156	10329
917.268	10204
917.38	10299
917.491	10310
917.603	10242
917.715	10421
917.826	10413
917.938	10234
918.049	10086
918.161	10284
918.272	10493
918.384	10421
918.495	10356
918.606	10128
918.717	10029
918.828	10131
918.939	10135
919.05	10059
919.161	10101
919.272	9915
919.383	9994
919.494	10177
919.604	10356
919.715	10227
919.826	10082
919.936	10185
920.047	10284
920.157	10101
920.267	10325
920.378	10310
920.488	10162
920.598	10379
920.708	10508
920.818	10367
920.928	10333
921.038	10538
921.148	10516
921.258	10219
921.368	10147
921.477	10067
921.587	9899
921.697	9926
921.806	10078
921.916	9979
922.025	9793
922.134	9774
922.244	9675
922.353	9740
922.462	9637
922.571	9576
922.68	9523
922.789	9428
922.898	9435
923.007	9401
923.116	9504
923.224	9408
923.333	9389
923.442	9405
923.55	9256
923.659	9340
923.767	9355
923.876	9359
923.984	9370
924.092	9260
924.201	9298
924.309	9279
924.417	9310
924.525	9150
924.633	9230
924.741	10188
924.849	9066
924.956	9184
925.064	9058
925.172	8925
925.279	8986
925.387	9089
925.494	9093
925.602	9119
925.709	9142
925.816	8994
925.924	9077
926.031	9116
926.138	9077
926.245	9085
926.352	9066
926.459	9138
926.566	9157
926.673	9013
926.779	8944
926.886	8902
926.993	8758
927.099	8819
927.206	8769
927.312	8746
927.419	8823
927.525	8804
927.631	8914
927.737	8720
927.843	8720
927.95	8556
928.056	8705
928.162	8659
928.267	8716
928.373	9370
928.479	8792
928.585	8522
928.69	8731
928.796	8804
928.901	8575
929.007	8476
929.112	8670
929.218	8568
929.323	8514
929.428	8465
929.533	8629
929.638	8446
929.743	8469
929.848	8556
929.953	8503
930.058	8389
930.163	8225
930.267	8298
930.372	8442
930.477	8298
930.581	8488
930.685	8370
930.79	8233
930.894	8309
930.998	8172
931.103	8362
931.207	8054
931.311	7967
931.415	7883
931.519	7700
931.623	7700
