Data from test_V78500241_262.txt Node
Date: Fri Mar 25 14:35:32 CST 2022
User: usil
Spectrometer: V785-0024
Trigger mode: 0
Integration Time (sec): 4.000000E-1
Scans to average: 1
Nonlinearity correction enabled: false
Boxcar width: 0
Storing dark spectrum: false
XAxis mode: Wavelengths
Number of Pixels in Spectrum: 1024
>>>>>Begin Spectral Data<<<<<
801.071	27488
801.214	27310
801.356	27116
801.499	26956
801.641	26918
801.783	26975
801.926	26952
802.068	26906
802.211	26701
802.353	26701
802.496	26526
802.638	26465
802.78	26465
802.923	26309
803.065	26218
803.208	26450
803.35	26263
803.492	26404
803.635	26556
803.777	26324
803.919	26526
804.061	26769
804.204	26381
804.346	26396
804.488	26370
804.63	26191
804.773	26122
804.915	26355
805.057	26560
805.199	26358
805.341	26419
805.483	26659
805.626	26438
805.768	26271
805.91	26526
806.052	26450
806.194	26476
806.336	26811
806.478	26499
806.62	26358
806.762	26453
806.904	26644
807.046	26811
807.188	26868
807.33	26906
807.472	26868
807.614	26670
807.756	26804
807.898	26640
808.04	26530
808.182	26735
808.324	26640
808.465	26712
808.607	26868
808.749	27077
808.891	27165
809.033	27241
809.174	27142
809.316	27062
809.458	26895
809.6	26918
809.741	26971
809.883	27051
810.025	27135
810.166	27275
810.308	27180
810.45	27032
810.591	27138
810.733	26899
810.875	26823
811.016	26636
811.158	26651
811.299	26762
811.441	26773
811.582	26960
811.724	26804
811.865	26743
812.007	26792
812.148	26750
812.29	26785
812.431	26864
812.573	27100
812.714	27096
812.855	27260
812.997	27382
813.138	27492
813.279	27367
813.421	27287
813.562	27344
813.703	27066
813.845	26994
813.986	26655
814.127	26457
814.268	26290
814.41	26290
814.551	26396
814.692	26282
814.833	26343
814.974	26218
815.115	26294
815.256	26103
815.397	26256
815.539	26233
815.68	26183
815.821	26149
815.962	26065
816.103	26081
816.244	25830
816.385	25811
816.526	25738
816.666	25620
816.807	25472
816.948	25472
817.089	25571
817.23	25537
817.371	25411
817.512	25464
817.653	25495
817.793	25400
817.934	25403
818.075	25487
818.216	25419
818.356	25453
818.497	25320
818.638	25179
818.778	25107
818.919	25152
819.06	25308
819.2	25343
819.341	25225
819.481	25324
819.622	25472
819.762	25601
819.903	25609
820.043	25457
820.184	25350
820.324	25407
820.465	25464
820.605	25506
820.746	25388
820.886	25255
821.026	25388
821.167	25400
821.307	25400
821.447	25297
821.588	25179
821.728	25080
821.868	24992
822.008	24806
822.149	24753
822.289	24833
822.429	24578
822.569	24445
822.709	24437
822.849	24258
822.99	24300
823.13	24338
823.27	24197
823.41	24049
823.55	24114
823.69	23870
823.83	23999
823.97	23882
824.11	23821
824.25	23722
824.389	23802
824.529	23786
824.669	23889
824.809	23939
824.949	23912
825.089	23965
825.228	23885
825.368	23695
825.508	23642
825.648	23722
825.787	23589
825.927	23649
826.067	23646
826.206	23539
826.346	23707
826.485	23638
826.625	23581
826.765	23760
826.904	23623
827.044	23372
827.183	23296
827.323	23239
827.462	23337
827.601	23303
827.741	23265
827.88	23269
828.02	23075
828.159	23322
828.298	23220
828.437	23284
828.577	23162
828.716	23296
828.855	23105
828.994	22885
829.134	22946
829.273	23136
829.412	22957
829.551	22824
829.69	22820
829.829	23098
829.968	22892
830.107	23010
830.246	23006
830.385	22881
830.524	22866
830.663	22923
830.802	22508
830.941	22588
831.08	22554
831.219	22542
831.357	22504
831.496	22653
831.635	22447
831.774	22481
831.913	22440
832.051	22322
832.19	22261
832.329	22306
832.467	22105
832.606	22135
832.744	22109
832.883	22070
833.022	22044
833.16	22124
833.299	22166
833.437	22131
833.576	22257
833.714	22188
833.852	22223
833.991	22207
834.129	22211
834.267	22124
834.406	22246
834.544	22230
834.682	22242
834.821	22162
834.959	22284
835.097	22063
835.235	22181
835.373	22215
835.511	22032
835.65	21941
835.788	21892
835.926	21895
836.064	21644
836.202	21892
836.34	21926
836.478	21949
836.615	22021
836.753	21926
836.891	22078
837.029	22105
837.167	21789
837.305	21846
837.443	21960
837.58	21831
837.718	21907
837.856	21793
837.993	21759
838.131	21873
838.269	21785
838.406	21583
838.544	21656
838.681	21401
838.819	21443
838.956	21226
839.094	21264
839.231	21188
839.369	21416
839.506	21720
839.643	21450
839.781	21279
839.918	21291
840.055	21237
840.193	21256
840.33	21173
840.467	21154
840.604	21226
840.742	21363
840.879	21013
841.016	21096
841.153	21157
841.29	21245
841.427	21093
841.564	21211
841.701	21112
841.838	21093
841.975	21116
842.112	20948
842.249	21024
842.385	20941
842.522	21001
842.659	20883
842.796	20948
842.933	20986
843.069	20762
843.206	20876
843.343	20944
843.479	20861
843.616	20921
843.752	20655
843.889	20594
844.025	20781
844.162	20617
844.298	20727
844.435	20556
844.571	20587
844.708	20731
844.844	20750
844.98	20750
845.117	20724
845.253	20670
845.389	20522
845.525	20587
845.661	20625
845.798	20473
845.934	20648
846.07	20667
846.206	20640
846.342	20731
846.478	20495
846.614	20328
846.75	20153
846.886	20046
847.022	20172
847.158	20027
847.294	20195
847.429	20119
847.565	20126
847.701	20282
847.837	19799
847.972	19750
848.108	19883
848.244	19849
848.379	19674
848.515	19647
848.65	19639
848.786	19582
848.921	19689
849.057	19734
849.192	19780
849.328	19734
849.463	19693
849.598	19620
849.734	19571
849.869	19537
850.004	19343
850.14	19365
850.275	19373
850.41	19384
850.545	19339
850.68	19384
850.815	19464
850.95	19324
851.085	19571
851.22	19468
851.355	19369
851.49	19346
851.625	19377
851.76	19331
851.895	19251
852.03	19251
852.165	19343
852.299	19350
852.434	19381
852.569	19365
852.703	19369
852.838	19495
852.973	19502
853.107	19438
853.242	19259
853.376	19194
853.511	19145
853.645	19187
853.78	19308
853.914	19187
854.048	19251
854.183	19194
854.317	19251
854.451	19206
854.585	19274
854.72	19228
854.854	19126
854.988	19145
855.122	19164
855.256	19061
855.39	19152
855.524	19213
855.658	19293
855.792	19190
855.926	19190
856.06	19213
856.194	19350
856.327	19080
856.461	19095
856.595	19148
856.729	19129
856.862	19358
856.996	19129
857.13	19225
857.263	19293
857.397	19209
857.53	19099
857.664	19221
857.797	19225
857.931	19206
858.064	19152
858.197	19282
858.331	19164
858.464	19091
858.597	19053
858.731	19046
858.864	19050
858.997	19110
859.13	19152
859.263	19015
859.396	19160
859.529	19023
859.662	19065
859.795	19019
859.928	19164
860.061	19080
860.194	19259
860.327	19088
860.46	19034
860.592	19255
860.725	19297
860.858	19240
860.99	19084
861.123	19042
861.256	19015
861.388	19042
861.521	19632
861.653	18981
861.786	18897
861.918	18962
862.05	19088
862.183	19088
862.315	19171
862.447	19110
862.58	19061
862.712	18897
862.844	18871
862.976	18890
863.108	18878
863.24	19160
863.372	18753
863.504	18863
863.636	18802
863.768	18932
863.9	18764
864.032	18703
864.164	18810
864.296	18814
864.428	18871
864.559	18806
864.691	18962
864.823	18779
864.954	18920
865.086	18806
865.217	18787
865.349	18677
865.48	18715
865.612	18745
865.743	18768
865.875	18707
866.006	18772
866.137	18700
866.269	18817
866.4	18719
866.531	18677
866.662	18673
866.793	18745
866.924	18703
867.055	18616
867.186	18677
867.317	18776
867.448	18574
867.579	18597
867.71	18566
867.841	18601
867.972	18604
868.103	18654
868.233	18795
868.364	18616
868.495	18772
868.625	19046
868.756	18924
868.886	18867
869.017	18993
869.147	18951
869.278	18996
869.408	18924
869.539	18859
869.669	18962
869.799	18970
869.929	18943
870.06	18905
870.19	19232
870.32	19145
870.45	19247
870.58	19346
870.71	19384
870.84	19373
870.97	19289
871.1	19198
871.23	19506
871.36	19441
871.489	19388
871.619	19483
871.749	19537
871.879	19518
872.008	19605
872.138	19540
872.267	19483
872.397	19221
872.526	19327
872.656	19396
872.785	19247
872.915	19529
873.044	19594
873.173	19605
873.303	19384
873.432	19548
873.561	19616
873.69	19491
873.819	19624
873.948	19578
874.077	19464
874.206	19533
874.335	19483
874.464	19658
874.593	19757
874.722	19845
874.851	19772
874.979	19921
875.108	19921
875.237	19769
875.365	19715
875.494	19712
875.623	19856
875.751	19700
875.88	19769
876.008	19997
876.136	20073
876.265	20229
876.393	20362
876.521	20328
876.65	20320
876.778	20233
876.906	20153
877.034	20073
877.162	20225
877.29	20252
877.418	20195
877.546	20043
877.674	20134
877.802	20126
877.93	20199
878.058	20138
878.185	20157
878.313	20180
878.441	20176
878.568	19967
878.696	20065
878.824	20244
878.951	20320
879.079	20317
879.206	20590
879.333	20400
879.461	20256
879.588	20518
879.715	20431
879.842	20492
879.97	20320
880.097	20081
880.224	20046
880.351	20031
880.478	20035
880.605	19974
880.732	19978
880.859	20278
880.986	20035
881.112	20103
881.239	19982
881.366	19772
881.493	19605
881.619	19715
881.746	19719
881.872	19643
881.999	19616
882.125	19635
882.252	19559
882.378	19655
882.505	19822
882.631	19563
882.757	19567
882.883	19655
883.01	19529
883.136	19388
883.262	19236
883.388	19293
883.514	19381
883.64	19556
883.766	19304
883.892	19282
884.018	19221
884.143	19430
884.269	19495
884.395	19148
884.52	19000
884.646	19053
884.772	19015
884.897	19050
885.023	19175
885.148	19171
885.274	19251
885.399	19240
885.524	19122
885.65	18962
885.775	19027
885.9	19133
886.025	19198
886.15	19183
886.275	19038
886.4	18840
886.525	18970
886.65	18958
886.775	18966
886.9	19088
887.025	19202
887.149	18985
887.274	18821
887.399	18810
887.523	18787
887.648	18734
887.773	18852
887.897	18825
888.021	18856
888.146	18688
888.27	18829
888.395	18890
888.519	18844
888.643	18951
888.767	18783
888.891	18757
889.015	18631
889.139	18620
889.263	18574
889.387	18745
889.511	18673
889.635	18741
889.759	18650
889.883	18486
890.006	18707
890.13	18719
890.254	18601
890.377	18498
890.501	18342
890.624	18407
890.748	18361
890.871	18304
890.995	18178
891.118	18148
891.241	18182
891.364	18155
891.488	18251
891.611	18167
891.734	18277
891.857	18235
891.98	18155
892.103	18292
892.226	18117
892.349	18129
892.471	18110
892.594	18148
892.717	18190
892.839	18167
892.962	18129
893.085	18155
893.207	18155
893.33	18019
893.452	18057
893.575	18148
893.697	18167
893.819	18232
893.941	18350
894.064	18254
894.186	18098
894.308	18064
894.43	18311
894.552	18338
894.674	18136
894.796	18083
894.918	18148
895.04	18057
895.161	18163
895.283	18155
895.405	18159
895.526	18182
895.648	18205
895.769	18102
895.891	18216
896.012	18311
896.134	18171
896.255	18182
896.376	18152
896.498	18330
896.619	18361
896.74	18262
896.861	18323
896.982	18635
897.103	18768
897.224	18494
897.345	18570
897.466	18194
897.587	18483
897.708	18551
897.828	18498
897.949	18437
898.07	18289
898.19	18365
898.311	18559
898.431	18441
898.552	18498
898.672	18467
898.792	18490
898.913	18369
899.033	18251
899.153	18220
899.273	18148
899.393	18190
899.513	18190
899.633	18144
899.753	18350
899.873	18174
899.993	18247
900.113	18197
900.232	18277
900.352	18190
900.472	18034
900.591	17996
900.711	18083
900.83	17904
900.95	18224
901.069	18140
901.189	17992
901.308	17703
901.427	17649
901.546	17646
901.665	17604
901.784	17630
901.904	17463
902.023	17299
902.141	17208
902.26	17292
902.379	17299
902.498	17197
902.617	17140
902.735	17231
902.854	17064
902.973	17159
903.091	16866
903.21	16923
903.328	16881
903.446	16744
903.565	16554
903.683	16660
903.801	16656
903.919	16683
904.038	16683
904.156	16386
904.274	16478
904.392	16447
904.51	16451
904.627	16390
904.745	16554
904.863	16432
904.981	16211
905.098	16131
905.216	16177
905.334	16105
905.451	16044
905.569	16021
905.686	16097
905.803	16055
905.921	15854
906.038	15991
906.155	15934
906.272	15679
906.389	15736
906.506	15637
906.623	15648
906.74	15606
906.857	15526
906.974	15526
907.091	15663
907.208	15648
907.324	15686
907.441	15568
907.557	15401
907.674	15389
907.79	15359
907.907	15340
908.023	15340
908.139	15321
908.256	15317
908.372	15222
908.488	15188
908.604	15104
908.72	15009
908.836	15066
908.952	14986
909.068	15074
909.184	15097
909.3	14982
909.415	14975
909.531	14906
909.647	14785
909.762	14705
909.878	14716
909.993	14769
910.108	14629
910.224	14705
910.339	14796
910.454	14632
910.57	14587
910.685	14480
910.8	14785
910.915	14777
911.03	14606
911.145	14465
911.259	14343
911.374	14301
911.489	14366
911.604	14206
911.718	14077
911.833	14077
911.947	14008
912.062	13928
912.176	14062
912.291	14035
912.405	14001
912.519	14237
912.633	14233
912.748	14081
912.862	14005
912.976	13913
913.09	13860
913.204	13921
913.318	13875
913.431	14020
913.545	14035
913.659	13989
913.772	13849
913.886	13822
914	13723
914.113	13898
914.226	13883
914.34	13818
914.453	13674
914.566	13734
914.68	13685
914.793	13662
914.906	13438
915.019	13400
915.132	13457
915.245	13415
915.358	13403
915.47	13449
915.583	13415
915.696	13419
915.809	13487
915.921	13582
916.034	13327
916.146	13441
916.259	13346
916.371	13483
916.483	13392
916.595	13312
916.708	13266
916.82	13304
916.932	13266
917.044	13274
917.156	13194
917.268	13187
917.38	13126
917.491	13076
917.603	13122
917.715	13171
917.826	13213
917.938	13091
918.049	13015
918.161	13099
918.272	13175
918.384	13274
918.495	13061
918.606	12943
918.717	12913
918.828	12928
918.939	12909
919.05	12875
919.161	12882
919.272	12741
919.383	12791
919.494	12901
919.604	13069
919.715	12916
919.826	12814
919.936	12878
920.047	12985
920.157	12871
920.267	13034
920.378	13012
920.488	12875
920.598	13110
920.708	13236
920.818	13061
920.928	12985
921.038	13160
921.148	13137
921.258	12829
921.368	12844
921.477	12719
921.587	12715
921.697	12547
921.806	12665
921.916	12544
922.025	12369
922.134	12388
922.244	12391
922.353	12350
922.462	12175
922.571	12129
922.68	12030
922.789	11954
922.898	11935
923.007	11992
923.116	12015
923.224	11946
923.333	11965
923.442	11786
923.55	11805
923.659	11809
923.767	11908
923.876	11790
923.984	11790
924.092	11794
924.201	11794
924.309	11775
924.417	11771
924.525	11737
924.633	11737
924.741	12612
924.849	11474
924.956	11608
925.064	11528
925.172	11429
925.279	11501
925.387	11459
925.494	11452
925.602	11646
925.709	11493
925.816	11417
925.924	11493
926.031	11592
926.138	11490
926.245	11505
926.352	11410
926.459	11436
926.566	11528
926.673	11337
926.779	11235
926.886	11280
926.993	11220
927.099	11159
927.206	11037
927.312	11022
927.419	11181
927.525	11132
927.631	11117
927.737	11006
927.843	10923
927.95	10812
928.056	10927
928.162	10908
928.267	11045
928.373	11585
928.479	10972
928.585	10793
928.69	10923
928.796	10995
928.901	10850
929.007	10714
929.112	10843
929.218	10850
929.323	10752
929.428	10721
929.533	10839
929.638	10656
929.743	10774
929.848	10748
929.953	10702
930.058	10615
930.163	10451
930.267	10375
930.372	10550
930.477	10375
930.581	10637
930.685	10386
930.79	10318
930.894	10337
930.998	10268
931.103	10447
931.207	10120
931.311	10055
931.415	9934
931.519	9751
931.623	9709
