Data from test_V78500241_3447.txt Node
Date: Fri Mar 25 14:57:43 CST 2022
User: usil
Spectrometer: V785-0024
Trigger mode: 0
Integration Time (sec): 4.000000E-1
Scans to average: 1
Nonlinearity correction enabled: false
Boxcar width: 0
Storing dark spectrum: false
XAxis mode: Wavelengths
Number of Pixels in Spectrum: 1024
>>>>>Begin Spectral Data<<<<<
801.071	21975
801.214	21953
801.356	21736
801.499	21568
801.641	21275
801.783	21298
801.926	21298
802.068	21218
802.211	21275
802.353	21195
802.496	20910
802.638	20815
802.78	20705
802.923	20708
803.065	20686
803.208	20686
803.35	20568
803.492	20727
803.635	20686
803.777	20621
803.919	20781
804.061	20941
804.204	20804
804.346	20613
804.488	20514
804.63	20587
804.773	20454
804.915	20404
805.057	20606
805.199	20492
805.341	20590
805.483	20659
805.626	20708
805.768	20454
805.91	20568
806.052	20670
806.194	20499
806.336	20667
806.478	20450
806.62	20476
806.762	20587
806.904	20689
807.046	20975
807.188	20891
807.33	20720
807.472	20914
807.614	20800
807.756	20769
807.898	20697
808.04	20636
808.182	20594
808.324	20564
808.465	20499
808.607	20788
808.749	20804
808.891	20952
809.033	21142
809.174	21074
809.316	20861
809.458	20876
809.6	20876
809.741	20952
809.883	20880
810.025	21096
810.166	20956
810.308	21036
810.45	20994
810.591	20899
810.733	20834
810.875	20697
811.016	20533
811.158	20530
811.299	20609
811.441	20720
811.582	20845
811.724	20781
811.865	20587
812.007	20587
812.148	20674
812.29	20670
812.431	20830
812.573	21024
812.714	21119
812.855	21020
812.997	21287
813.138	21370
813.279	21169
813.421	21085
813.562	21096
813.703	20861
813.845	20777
813.986	20537
814.127	20301
814.268	20358
814.41	20149
814.551	20092
814.692	20221
814.833	20107
814.974	20206
815.115	20240
815.256	20134
815.397	20008
815.539	19993
815.68	20062
815.821	19890
815.962	19925
816.103	19864
816.244	19780
816.385	19635
816.526	19723
816.666	19400
816.807	19247
816.948	19468
817.089	19525
817.23	19304
817.371	19266
817.512	19400
817.653	19259
817.793	19274
817.934	19312
818.075	19343
818.216	19320
818.356	19285
818.497	19164
818.638	19050
818.778	19000
818.919	19019
819.06	19050
819.2	19110
819.341	19285
819.481	19244
819.622	19422
819.762	19529
819.903	19388
820.043	19365
820.184	19331
820.324	19270
820.465	19415
820.605	19266
820.746	19312
820.886	19080
821.026	19126
821.167	19255
821.307	19320
821.447	19209
821.588	19141
821.728	18954
821.868	18768
822.008	18684
822.149	18692
822.289	18650
822.429	18403
822.569	18448
822.709	18395
822.849	18163
822.99	18133
823.13	18110
823.27	18034
823.41	18064
823.55	17889
823.69	18079
823.83	17942
823.97	17847
824.11	17794
824.25	17832
824.389	17786
824.529	17767
824.669	17748
824.809	17726
824.949	17813
825.089	17767
825.228	17851
825.368	17573
825.508	17539
825.648	17551
825.787	17653
825.927	17627
826.067	17539
826.206	17528
826.346	17448
826.485	17573
826.625	17436
826.765	17699
826.904	17592
827.044	17246
827.183	17345
827.323	17136
827.462	17345
827.601	17296
827.741	17265
827.88	17334
828.02	17075
828.159	17246
828.298	17414
828.437	17277
828.577	17189
828.716	17372
828.855	17242
828.994	17029
829.134	17090
829.273	16919
829.412	16949
829.551	16934
829.69	16968
829.829	16961
829.968	17067
830.107	17113
830.246	16961
830.385	16942
830.524	16938
830.663	16771
830.802	16694
830.941	16698
831.08	16569
831.219	16752
831.357	16672
831.496	16809
831.635	16607
831.774	16531
831.913	16440
832.051	16386
832.19	16500
832.329	16451
832.467	16421
832.606	16360
832.744	16249
832.883	16303
833.022	16265
833.16	16299
833.299	16394
833.437	16432
833.576	16382
833.714	16322
833.852	16440
833.991	16390
834.129	16531
834.267	16390
834.406	16371
834.544	16462
834.682	16436
834.821	16379
834.959	16523
835.097	16443
835.235	16497
835.373	16405
835.511	16367
835.65	16280
835.788	16303
835.926	16173
836.064	16169
836.202	16192
836.34	16405
836.478	16356
836.615	16272
836.753	16356
836.891	16360
837.029	16337
837.167	16341
837.305	16329
837.443	16265
837.58	16230
837.718	16306
837.856	16200
837.993	16124
838.131	16249
838.269	16128
838.406	16109
838.544	16181
838.681	15915
838.819	15789
838.956	15831
839.094	15606
839.231	15861
839.369	15838
839.506	16093
839.643	16044
839.781	15705
839.918	15759
840.055	15759
840.193	15842
840.33	15694
840.467	15724
840.604	15762
840.742	16013
840.879	15606
841.016	15766
841.153	15667
841.29	15865
841.427	15759
841.564	15812
841.701	15766
841.838	15709
841.975	15500
842.112	15648
842.249	15530
842.385	15485
842.522	15675
842.659	15504
842.796	15515
842.933	15591
843.069	15568
843.206	15515
843.343	15652
843.479	15576
843.616	15523
843.752	15329
843.889	15287
844.025	15511
844.162	15325
844.298	15401
844.435	15230
844.571	15283
844.708	15317
844.844	15439
844.98	15469
845.117	15382
845.253	15249
845.389	15176
845.525	15275
845.661	15146
845.798	15142
845.934	15135
846.07	15108
846.206	15161
846.342	15283
846.478	15222
846.614	14921
846.75	14842
846.886	14918
847.022	15009
847.158	14872
847.294	14872
847.429	15001
847.565	14891
847.701	15108
847.837	14629
847.972	14590
848.108	14678
848.244	14701
848.379	14583
848.515	14514
848.65	14476
848.786	14450
848.921	14442
849.057	14518
849.192	14465
849.328	14587
849.463	14564
849.598	14408
849.734	14332
849.869	14351
850.004	14271
850.14	14263
850.275	14233
850.41	14168
850.545	14218
850.68	14320
850.815	14233
850.95	14248
851.085	14393
851.22	14347
851.355	14286
851.49	14206
851.625	14244
851.76	14176
851.895	14221
852.03	14172
852.165	14278
852.299	14210
852.434	14313
852.569	14332
852.703	14191
852.838	14351
852.973	14355
853.107	14450
853.242	14172
853.376	14142
853.511	14046
853.645	14107
853.78	14298
853.914	14195
854.048	14096
854.183	14153
854.317	14138
854.451	14305
854.585	14142
854.72	14119
854.854	14149
854.988	14077
855.122	14020
855.256	13974
855.39	14088
855.524	14259
855.658	14164
855.792	14119
855.926	14210
856.06	14202
856.194	14275
856.327	14096
856.461	14138
856.595	14084
856.729	14081
856.862	14210
856.996	14180
857.13	14164
857.263	14248
857.397	14202
857.53	14092
857.664	14240
857.797	14221
857.931	14183
858.064	14187
858.197	14221
858.331	14180
858.464	14100
858.597	14027
858.731	14119
858.864	14081
858.997	14039
859.13	14210
859.263	14278
859.396	14183
859.529	14157
859.662	14031
859.795	14100
859.928	14149
860.061	14320
860.194	14343
860.327	14180
860.46	14115
860.592	14221
860.725	14355
860.858	14218
860.99	14145
861.123	14050
861.256	14111
861.388	14103
861.521	14891
861.653	14031
861.786	13909
861.918	13982
862.05	14008
862.183	14088
862.315	14202
862.447	14183
862.58	13970
862.712	13864
862.844	13776
862.976	13970
863.108	13967
863.24	14298
863.372	13731
863.504	14005
863.636	13917
863.768	13970
863.9	13936
864.032	13852
864.164	13871
864.296	13921
864.428	14035
864.559	14039
864.691	14065
864.823	13974
864.954	13963
865.086	13818
865.217	13913
865.349	13788
865.48	13940
865.612	13906
865.743	14088
865.875	13875
866.006	13909
866.137	13868
866.269	13811
866.4	13936
866.531	13807
866.662	13818
866.793	13871
866.924	13784
867.055	13947
867.186	13856
867.317	13776
867.448	13807
867.579	13868
867.71	13811
867.841	13788
867.972	13860
868.103	13906
868.233	13837
868.364	13898
868.495	13928
868.625	14130
868.756	14176
868.886	14081
869.017	14218
869.147	14233
869.278	14199
869.408	14164
869.539	14100
869.669	14256
869.799	14301
869.929	14362
870.06	14206
870.19	14575
870.32	14320
870.45	14484
870.58	14575
870.71	14731
870.84	14640
870.97	14575
871.1	14454
871.23	14697
871.36	14750
871.489	14659
871.619	14617
871.749	14746
871.879	14746
872.008	14902
872.138	14807
872.267	14773
872.397	14617
872.526	14625
872.656	14522
872.785	14667
872.915	14819
873.044	14941
873.173	14826
873.303	14788
873.432	14765
873.561	14868
873.69	14781
873.819	14758
873.948	14895
874.077	14792
874.206	14811
874.335	14785
874.464	14937
874.593	15001
874.722	15032
874.851	15150
874.979	15074
875.108	15249
875.237	15116
875.365	15066
875.494	15081
875.623	15116
875.751	15074
875.88	15131
876.008	15329
876.136	15260
876.265	15584
876.393	15743
876.521	15542
876.65	15629
876.778	15580
876.906	15542
877.034	15523
877.162	15504
877.29	15386
877.418	15481
877.546	15545
877.674	15450
877.802	15534
877.93	15614
878.058	15439
878.185	15393
878.313	15507
878.441	15481
878.568	15443
878.696	15568
878.824	15511
878.951	15576
879.079	15766
879.206	15846
879.333	15751
879.461	15530
879.588	15660
879.715	15759
879.842	15770
879.97	15648
880.097	15473
880.224	15329
880.351	15462
880.478	15462
880.605	15416
880.732	15348
880.859	15606
880.986	15428
881.112	15435
881.239	15355
881.366	15157
881.493	15104
881.619	15032
881.746	15135
881.872	15001
881.999	14967
882.125	15005
882.252	15051
882.378	14982
882.505	15241
882.631	14963
882.757	14937
882.883	14880
883.01	14918
883.136	14788
883.262	14762
883.388	14648
883.514	14925
883.64	14864
883.766	14845
883.892	14640
884.018	14693
884.143	14800
884.269	14906
884.395	14632
884.52	14568
884.646	14606
884.772	14564
884.897	14480
885.023	14621
885.148	14678
885.274	14663
885.399	14598
885.524	14556
885.65	14613
885.775	14541
885.9	14518
886.025	14689
886.15	14575
886.275	14583
886.4	14469
886.525	14526
886.65	14522
886.775	14495
886.9	14678
887.025	14746
887.149	14552
887.274	14347
887.399	14370
887.523	14385
887.648	14309
887.773	14317
887.897	14431
888.021	14381
888.146	14495
888.27	14530
888.395	14590
888.519	14457
888.643	14454
888.767	14400
888.891	14362
889.015	14199
889.139	14282
889.263	14248
889.387	14294
889.511	14526
889.635	14301
889.759	14298
889.883	14107
890.006	14237
890.13	14320
890.254	14172
890.377	14210
890.501	14081
890.624	13982
890.748	14142
890.871	13963
890.995	13841
891.118	13906
891.241	14001
891.364	14001
891.488	14039
891.611	14069
891.734	13951
891.857	14065
891.98	13963
892.103	14043
892.226	13978
892.349	13951
892.471	13795
892.594	13902
892.717	13974
892.839	14020
892.962	13909
893.085	14035
893.207	13989
893.33	13875
893.452	13959
893.575	13989
893.697	14062
893.819	14123
893.941	14081
894.064	14134
894.186	14012
894.308	13932
894.43	14081
894.552	14164
894.674	14176
894.796	13906
894.918	13997
895.04	14008
895.161	14062
895.283	14054
895.405	14103
895.526	14153
895.648	14073
895.769	14164
895.891	14199
896.012	14233
896.134	14195
896.255	14134
896.376	14153
896.498	14180
896.619	14153
896.74	14096
896.861	14233
896.982	14480
897.103	14640
897.224	14377
897.345	14336
897.466	14294
897.587	14446
897.708	14503
897.828	14454
897.949	14442
898.07	14244
898.19	14393
898.311	14579
898.431	14396
898.552	14507
898.672	14556
898.792	14587
898.913	14610
899.033	14408
899.153	14415
899.273	14317
899.393	14412
899.513	14473
899.633	14275
899.753	14275
899.873	14309
899.993	14423
900.113	14396
900.232	14347
900.352	14298
900.472	14256
900.591	14195
900.711	14237
900.83	14206
900.95	14419
901.069	14248
901.189	14123
901.308	13902
901.427	13784
901.546	13753
901.665	13818
901.784	13776
901.904	13769
902.023	13761
902.141	13578
902.26	13426
902.379	13628
902.498	13457
902.617	13400
902.735	13533
902.854	13377
902.973	13388
903.091	13164
903.21	13160
903.328	13228
903.446	13031
903.565	13046
903.683	13023
903.801	13084
903.919	12954
904.038	13004
904.156	12852
904.274	12894
904.392	12875
904.51	12856
904.627	12886
904.745	12909
904.863	12878
904.981	12635
905.098	12532
905.216	12513
905.334	12521
905.451	12563
905.569	12540
905.686	12570
905.803	12612
905.921	12262
906.038	12429
906.155	12410
906.272	12228
906.389	12239
906.506	12197
906.623	12079
906.74	12201
906.857	12034
906.974	12110
907.091	12220
907.208	12292
907.324	12125
907.441	12121
907.557	11916
907.674	11870
907.79	11840
907.907	11802
908.023	11958
908.139	11802
908.256	11840
908.372	11805
908.488	11870
908.604	11657
908.72	11642
908.836	11619
908.952	11611
909.068	11680
909.184	11729
909.3	11665
909.415	11718
909.531	11630
909.647	11497
909.762	11455
909.878	11360
909.993	11436
910.108	11372
910.224	11376
910.339	11425
910.454	11360
910.57	11311
910.685	11242
910.8	11471
910.915	11425
911.03	11326
911.145	11143
911.259	11083
911.374	11128
911.489	11052
911.604	10995
911.718	10934
911.833	10896
911.947	10797
912.062	10714
912.176	10858
912.291	10892
912.405	10908
912.519	11098
912.633	11136
912.748	10869
912.862	10862
912.976	10755
913.09	10660
913.204	10702
913.318	10759
913.431	10828
913.545	10934
913.659	10877
913.772	10744
913.886	10637
914	10588
914.113	10721
914.226	10828
914.34	10733
914.453	10542
914.566	10714
914.68	10550
914.793	10565
914.906	10367
915.019	10375
915.132	10215
915.245	10341
915.358	10379
915.47	10394
915.583	10443
915.696	10474
915.809	10421
915.921	10516
916.034	10299
916.146	10291
916.259	10356
916.371	10436
916.483	10417
916.595	10356
916.708	10322
916.82	10310
916.932	10238
917.044	10280
917.156	10280
917.268	10177
917.38	10257
917.491	10139
917.603	10162
917.715	10310
917.826	10325
917.938	10272
918.049	10086
918.161	10246
918.272	10291
918.384	10379
918.495	10310
918.606	10150
918.717	10040
918.828	10204
918.939	10162
919.05	10063
919.161	10032
919.272	9880
919.383	10002
919.494	10166
919.604	10299
919.715	10105
919.826	10002
919.936	10131
920.047	10196
920.157	10150
920.267	10325
920.378	10135
920.488	10040
920.598	10310
920.708	10489
920.818	10348
920.928	10287
921.038	10497
921.148	10523
921.258	10200
921.368	10131
921.477	9975
921.587	10002
921.697	9968
921.806	9949
921.916	9876
922.025	9759
922.134	9644
922.244	9584
922.353	9679
922.462	9549
922.571	9515
922.68	9355
922.789	9332
922.898	9412
923.007	9405
923.116	9378
923.224	9408
923.333	9351
923.442	9355
923.55	9237
923.659	9306
923.767	9378
923.876	9264
923.984	9329
924.092	9230
924.201	9199
924.309	9279
924.417	9260
924.525	9230
924.633	9260
924.741	10082
924.849	9032
924.956	9173
925.064	9047
925.172	8975
925.279	8963
925.387	8994
925.494	9074
925.602	9131
925.709	9066
925.816	8941
925.924	9066
926.031	9180
926.138	9108
926.245	9112
926.352	8982
926.459	9131
926.566	9161
926.673	9009
926.779	8868
926.886	8933
926.993	8769
927.099	8697
927.206	8697
927.312	8727
927.419	8750
927.525	8750
927.631	8834
927.737	8693
927.843	8716
927.95	8533
928.056	8678
928.162	8636
928.267	8667
928.373	9306
928.479	8777
928.585	8575
928.69	8659
928.796	8670
928.901	8575
929.007	8503
929.112	8613
929.218	8575
929.323	8518
929.428	8457
929.533	8610
929.638	8495
929.743	8507
929.848	8571
929.953	8427
930.058	8339
930.163	8240
930.267	8202
930.372	8385
930.477	8244
930.581	8484
930.685	8393
930.79	8195
930.894	8256
930.998	8180
931.103	8313
931.207	8084
931.311	7947
931.415	7841
931.519	7696
931.623	7738
