Data from test_V78500241_147.txt Node
Date: Fri Mar 25 14:34:44 CST 2022
User: usil
Spectrometer: V785-0024
Trigger mode: 0
Integration Time (sec): 4.000000E-1
Scans to average: 1
Nonlinearity correction enabled: false
Boxcar width: 0
Storing dark spectrum: false
XAxis mode: Wavelengths
Number of Pixels in Spectrum: 1024
>>>>>Begin Spectral Data<<<<<
801.071	29337
801.214	29296
801.356	29143
801.499	28923
801.641	28892
801.783	28885
801.926	28869
802.068	28835
802.211	28824
802.353	28828
802.496	28706
802.638	28497
802.78	28516
802.923	28557
803.065	28272
803.208	28459
803.35	28516
803.492	28546
803.635	28862
803.777	28535
803.919	28691
804.061	28927
804.204	28763
804.346	28512
804.488	28535
804.63	28725
804.773	28611
804.915	28687
805.057	28942
805.199	28771
805.341	28816
805.483	28949
805.626	28953
805.768	28881
805.91	29067
806.052	29235
806.194	29216
806.336	29474
806.478	29326
806.62	29258
806.762	29490
806.904	29615
807.046	30102
807.188	30281
807.33	30327
807.472	30741
807.614	30867
807.756	31198
807.898	31529
808.04	31868
808.182	32769
808.324	33888
808.465	35014
808.607	36323
808.749	37457
808.891	37986
809.033	38027
809.174	37381
809.316	36190
809.458	35105
809.6	33622
809.741	32617
809.883	31951
810.025	31525
810.166	31091
810.308	30772
810.45	30547
810.591	30311
810.733	29927
810.875	29954
811.016	29752
811.158	29463
811.299	29486
811.441	29684
811.582	29623
811.724	29429
811.865	29349
812.007	29341
812.148	29334
812.29	29334
812.431	29410
812.573	29627
812.714	29539
812.855	29558
812.997	29931
813.138	29954
813.279	29726
813.421	29699
813.562	29459
813.703	29372
813.845	29334
813.986	28934
814.127	28805
814.268	28752
814.41	28653
814.551	28546
814.692	28710
814.833	28653
814.974	28577
815.115	28767
815.256	28390
815.397	28538
815.539	28379
815.68	28284
815.821	28291
815.962	28257
816.103	28322
816.244	28086
816.385	27975
816.526	27934
816.666	27724
816.807	27576
816.948	27663
817.089	27614
817.23	27785
817.371	27591
817.512	27675
817.653	27606
817.793	27572
817.934	27652
818.075	27576
818.216	27663
818.356	27603
818.497	27458
818.638	27264
818.778	27279
818.919	27237
819.06	27332
819.2	27485
819.341	27564
819.481	27591
819.622	27622
819.762	27835
819.903	27819
820.043	27641
820.184	27606
820.324	27542
820.465	27793
820.605	27785
820.746	27557
820.886	27340
821.026	27583
821.167	27504
821.307	27568
821.447	27466
821.588	27268
821.728	27096
821.868	26872
822.008	26952
822.149	26788
822.289	26689
822.429	26594
822.569	26400
822.709	26609
822.849	26305
822.99	26259
823.13	26221
823.27	26164
823.41	26065
823.55	25830
823.69	26119
823.83	26005
823.97	25966
824.11	25833
824.25	25845
824.389	25822
824.529	25753
824.669	25784
824.809	25879
824.949	25951
825.089	26027
825.228	25753
825.368	25590
825.508	25795
825.648	25708
825.787	25681
825.927	25723
826.067	25586
826.206	25616
826.346	25495
826.485	25731
826.625	25723
826.765	25746
826.904	25563
827.044	25407
827.183	25331
827.323	25282
827.462	25320
827.601	25327
827.741	25346
827.88	25236
828.02	25202
828.159	25209
828.298	25301
828.437	25297
828.577	25145
828.716	25411
828.855	25171
828.994	25000
829.134	25126
829.273	25053
829.412	24882
829.551	25031
829.69	25091
829.829	24916
829.968	25076
830.107	24901
830.246	24973
830.385	24932
830.524	24859
830.663	24722
830.802	24738
830.941	24578
831.08	24555
831.219	24726
831.357	24711
831.496	24844
831.635	24601
831.774	24505
831.913	24441
832.051	24410
832.19	24494
832.329	24308
832.467	24232
832.606	24251
832.744	24205
832.883	24315
833.022	24148
833.16	24308
833.299	24445
833.437	24369
833.576	24513
833.714	24547
833.852	24635
833.991	24760
834.129	24684
834.267	24635
834.406	24604
834.544	24604
834.682	24578
834.821	24369
834.959	24631
835.097	24346
835.235	24494
835.373	24384
835.511	24277
835.65	24102
835.788	24163
835.926	24030
836.064	23882
836.202	23931
836.34	24018
836.478	24102
836.615	24136
836.753	24022
836.891	24045
837.029	24038
837.167	23996
837.305	23954
837.443	23893
837.58	23828
837.718	23946
837.856	23882
837.993	23756
838.131	23809
838.269	23596
838.406	23828
838.544	23573
838.681	23471
838.819	23455
838.956	23273
839.094	23128
839.231	23269
839.369	23577
839.506	23585
839.643	23425
839.781	23174
839.918	23159
840.055	23174
840.193	23162
840.33	23220
840.467	23109
840.604	23136
840.742	23341
840.879	22972
841.016	23044
841.153	22938
841.29	23235
841.427	23048
841.564	23162
841.701	23124
841.838	22968
841.975	22953
842.112	22991
842.249	22892
842.385	22877
842.522	23041
842.659	22995
842.796	22873
842.933	22797
843.069	22812
843.206	22805
843.343	22934
843.479	22881
843.616	22877
843.752	22782
843.889	22759
844.025	22908
844.162	22797
844.298	22759
844.435	22790
844.571	22824
844.708	22965
844.844	23208
844.98	23421
845.117	23531
845.253	23874
845.389	24399
845.525	25635
845.661	27709
845.798	30395
845.934	32431
846.07	33264
846.206	32883
846.342	31236
846.478	28531
846.614	26100
846.75	24563
846.886	23767
847.022	23204
847.158	22824
847.294	22615
847.429	22474
847.565	22405
847.701	22516
847.837	22006
847.972	21850
848.108	22048
848.244	21926
848.379	21759
848.515	21774
848.65	21663
848.786	21663
848.921	21660
849.057	21652
849.192	21610
849.328	21701
849.463	21701
849.598	21545
849.734	21439
849.869	21378
850.004	21367
850.14	21553
850.275	21443
850.41	21264
850.545	21260
850.68	21272
850.815	21344
850.95	21340
851.085	21473
851.22	21370
851.355	21203
851.49	21294
851.625	21207
851.76	21214
851.895	21222
852.03	21203
852.165	21313
852.299	21340
852.434	21477
852.569	21351
852.703	21256
852.838	21325
852.973	21401
853.107	21363
853.242	21207
853.376	21211
853.511	21043
853.645	21180
853.78	21279
853.914	21138
854.048	21188
854.183	21252
854.317	21161
854.451	21397
854.585	21313
854.72	21245
854.854	21317
854.988	21150
855.122	21211
855.256	21013
855.39	21203
855.524	21245
855.658	21230
855.792	21275
855.926	21169
856.06	21169
856.194	21161
856.327	21123
856.461	21062
856.595	21081
856.729	21173
856.862	21142
856.996	21093
857.13	21203
857.263	21138
857.397	21264
857.53	21070
857.664	21051
857.797	21150
857.931	21119
858.064	21135
858.197	21176
858.331	20990
858.464	21047
858.597	20918
858.731	21085
858.864	20979
858.997	20948
859.13	20883
859.263	20960
859.396	20952
859.529	21062
859.662	20880
859.795	21039
859.928	21001
860.061	21058
860.194	21142
860.327	21077
860.46	20986
860.592	20925
860.725	21036
860.858	21154
860.99	20986
861.123	20800
861.256	20758
861.388	20899
861.521	21523
861.653	20815
861.786	20788
861.918	20807
862.05	20883
862.183	21009
862.315	21028
862.447	21020
862.58	20967
862.712	20716
862.844	20743
862.976	20724
863.108	20686
863.24	20925
863.372	20480
863.504	20632
863.636	20689
863.768	20678
863.9	20682
864.032	20549
864.164	20530
864.296	20583
864.428	20765
864.559	20739
864.691	20720
864.823	20667
864.954	20518
865.086	20625
865.217	20537
865.349	20469
865.48	20541
865.612	20533
865.743	20697
865.875	20488
866.006	20511
866.137	20446
866.269	20526
866.4	20564
866.531	20495
866.662	20336
866.793	20465
866.924	20507
867.055	20492
867.186	20438
867.317	20476
867.448	20309
867.579	20469
867.71	20374
867.841	20275
867.972	20545
868.103	20438
868.233	20590
868.364	20454
868.495	20587
868.625	20720
868.756	20758
868.886	20511
869.017	20663
869.147	20777
869.278	20716
869.408	20788
869.539	20701
869.669	20773
869.799	20670
869.929	20796
870.06	20746
870.19	21055
870.32	20899
870.45	21077
870.58	21070
870.71	21199
870.84	21291
870.97	21020
871.1	21214
871.23	21226
871.36	21389
871.489	21131
871.619	21214
871.749	21260
871.879	21317
872.008	21564
872.138	21454
872.267	21393
872.397	21207
872.526	21230
872.656	21252
872.785	21195
872.915	21408
873.044	21454
873.173	21454
873.303	21469
873.432	21458
873.561	21492
873.69	21469
873.819	21450
873.948	21603
874.077	21466
874.206	21374
874.335	21492
874.464	21663
874.593	21804
874.722	21713
874.851	21846
874.979	21739
875.108	21808
875.237	21736
875.365	21671
875.494	21785
875.623	21873
875.751	21781
875.88	22036
876.008	22150
876.136	22002
876.265	22398
876.393	22493
876.521	22500
876.65	22424
876.778	22500
876.906	22382
877.034	22478
877.162	22413
877.29	22459
877.418	22542
877.546	22573
877.674	22516
877.802	22584
877.93	22691
878.058	22733
878.185	22668
878.313	22930
878.441	23052
878.568	22927
878.696	23318
878.824	23649
878.951	24110
879.079	24787
879.206	25571
879.333	26434
879.461	27024
879.588	27367
879.715	27443
879.842	27207
879.97	26492
880.097	25396
880.224	24779
880.351	24448
880.478	23996
880.605	23748
880.732	23630
880.859	23657
880.986	23596
881.112	23436
881.239	23242
881.366	23284
881.493	23022
881.619	23010
881.746	23143
881.872	23044
881.999	22987
882.125	22793
882.252	23227
882.378	23109
882.505	23121
882.631	22889
882.757	22843
882.883	22961
883.01	22854
883.136	22820
883.262	22634
883.388	22653
883.514	22835
883.64	22854
883.766	22672
883.892	22588
884.018	22641
884.143	22717
884.269	22858
884.395	22569
884.52	22535
884.646	22542
884.772	22523
884.897	22371
885.023	22493
885.148	22474
885.274	22535
885.399	22516
885.524	22318
885.65	22421
885.775	22268
885.9	22166
886.025	22352
886.15	22181
886.275	21972
886.4	22063
886.525	21964
886.65	21793
886.775	21865
886.9	21972
887.025	21991
887.149	21728
887.274	21629
887.399	21424
887.523	21340
887.648	21329
887.773	21184
887.897	21370
888.021	21329
888.146	21161
888.27	21405
888.395	21302
888.519	21188
888.643	21397
888.767	21325
888.891	21070
889.015	20918
889.139	21051
889.263	20960
889.387	21062
889.511	21138
889.635	21074
889.759	20842
889.883	20804
890.006	20842
890.13	20880
890.254	20804
890.377	20765
890.501	20579
890.624	20522
890.748	20613
890.871	20480
890.995	20404
891.118	20202
891.241	20343
891.364	20244
891.488	20427
891.611	20210
891.734	20305
891.857	20286
891.98	20233
892.103	20332
892.226	20218
892.349	20111
892.471	20031
892.594	20107
892.717	20111
892.839	20039
892.962	20161
893.085	20218
893.207	19978
893.33	19951
893.452	19902
893.575	20073
893.697	19947
893.819	20153
893.941	20180
894.064	20077
894.186	19944
894.308	19826
894.43	20107
894.552	20043
894.674	20050
894.796	19822
894.918	20081
895.04	19837
895.161	20008
895.283	19982
895.405	19708
895.526	19845
895.648	19814
895.769	19928
895.891	19887
896.012	20027
896.134	19947
896.255	19871
896.376	19761
896.498	19921
896.619	19917
896.74	19967
896.861	19944
896.982	20183
897.103	20324
897.224	20149
897.345	20016
897.466	20092
897.587	19963
897.708	20214
897.828	20062
897.949	19970
898.07	19925
898.19	20058
898.311	20107
898.431	20050
898.552	19963
898.672	20077
898.792	20138
898.913	20005
899.033	19955
899.153	19833
899.273	19723
899.393	19677
899.513	19734
899.633	19708
899.753	19677
899.873	19609
899.993	19746
900.113	19708
900.232	19658
900.352	19647
900.472	19635
900.591	19464
900.711	19506
900.83	19487
900.95	19594
901.069	19647
901.189	19487
901.308	19270
901.427	19175
901.546	19228
901.665	19168
901.784	19133
901.904	18837
902.023	18802
902.141	18726
902.26	18525
902.379	18700
902.498	18528
902.617	18490
902.735	18623
902.854	18456
902.973	18448
903.091	18277
903.21	18247
903.328	18308
903.446	18152
903.565	18022
903.683	18007
903.801	17996
903.919	18041
904.038	18072
904.156	17889
904.274	17813
904.392	17649
904.51	17600
904.627	17786
904.745	17821
904.863	17840
904.981	17554
905.098	17414
905.216	17353
905.334	17440
905.451	17368
905.569	17376
905.686	17402
905.803	17356
905.921	17098
906.038	17318
906.155	17212
906.272	17071
906.389	17140
906.506	17048
906.623	16984
906.74	16915
906.857	16797
906.974	16835
907.091	17003
907.208	17079
907.324	16999
907.441	16866
907.557	16698
907.674	16713
907.79	16485
907.907	16626
908.023	16622
908.139	16535
908.256	16645
908.372	16550
908.488	16527
908.604	16485
908.72	16341
908.836	16261
908.952	16341
909.068	16314
909.184	16306
909.3	16280
909.415	16268
909.531	16181
909.647	16006
909.762	16082
909.878	16055
909.993	15934
910.108	15953
910.224	15945
910.339	15998
910.454	15987
910.57	15766
910.685	15743
910.8	15987
910.915	15991
911.03	15823
911.145	15675
911.259	15564
911.374	15492
911.489	15515
911.604	15504
911.718	15252
911.833	15374
911.947	15252
912.062	15146
912.176	15313
912.291	15329
912.405	15264
912.519	15386
912.633	15534
912.748	15424
912.862	15336
912.976	15131
913.09	14963
913.204	15036
913.318	15104
913.431	15252
913.545	15203
913.659	15291
913.772	15222
913.886	15039
914	14895
914.113	15039
914.226	15081
914.34	15043
914.453	14925
914.566	15051
914.68	14971
914.793	14868
914.906	14655
915.019	14632
915.132	14446
915.245	14663
915.358	14629
915.47	14667
915.583	14701
915.696	14689
915.809	14800
915.921	14716
916.034	14613
916.146	14530
916.259	14590
916.371	14579
916.483	14659
916.595	14530
916.708	14549
916.82	14495
916.932	14461
917.044	14396
917.156	14415
917.268	14324
917.38	14317
917.491	14271
917.603	14278
917.715	14347
917.826	14317
917.938	14153
918.049	14096
918.161	14225
918.272	14332
918.384	14336
918.495	14248
918.606	14103
918.717	14031
918.828	14161
918.939	14065
919.05	13989
919.161	14008
919.272	13799
919.383	13830
919.494	14069
919.604	14172
919.715	13982
919.826	13917
919.936	13970
920.047	14001
920.157	13868
920.267	14176
920.378	14046
920.488	13837
920.598	14058
920.708	14218
920.818	14081
920.928	14149
921.038	14267
921.148	14149
921.258	13906
921.368	13753
921.477	13677
921.587	13693
921.697	13578
921.806	13723
921.916	13510
922.025	13377
922.134	13289
922.244	13335
922.353	13434
922.462	13141
922.571	13114
922.68	13031
922.789	13012
922.898	12947
923.007	12882
923.116	12951
923.224	12779
923.333	12947
923.442	12825
923.55	12802
923.659	12825
923.767	12837
923.876	12764
923.984	12844
924.092	12677
924.201	12681
924.309	12696
924.417	12703
924.525	12730
924.633	12646
924.741	13552
924.849	12433
924.956	12585
925.064	12528
925.172	12395
925.279	12448
925.387	12414
925.494	12429
925.602	12544
925.709	12506
925.816	12308
925.924	12357
926.031	12506
926.138	12437
926.245	12388
926.352	12334
926.459	12357
926.566	12502
926.673	12323
926.779	12251
926.886	12205
926.993	12030
927.099	11996
927.206	11927
927.312	11946
927.419	12015
927.525	11935
927.631	12003
927.737	11832
927.843	11874
927.95	11611
928.056	11836
928.162	11760
928.267	11882
928.373	12323
928.479	11992
928.585	11726
928.69	11752
928.796	11824
928.901	11729
929.007	11573
929.112	11676
929.218	11608
929.323	11558
929.428	11558
929.533	11646
929.638	11493
929.743	11512
929.848	11528
929.953	11520
930.058	11562
930.163	11242
930.267	11246
930.372	11376
930.477	11193
930.581	11501
930.685	11311
930.79	11121
930.894	11113
930.998	11025
931.103	11322
931.207	10843
931.311	10843
931.415	10725
931.519	10451
931.623	10478
