Data from test_V78500241_403.txt Node
Date: Fri Mar 25 14:36:31 CST 2022
User: usil
Spectrometer: V785-0024
Trigger mode: 0
Integration Time (sec): 4.000000E-1
Scans to average: 1
Nonlinearity correction enabled: false
Boxcar width: 0
Storing dark spectrum: false
XAxis mode: Wavelengths
Number of Pixels in Spectrum: 1024
>>>>>Begin Spectral Data<<<<<
801.071	26800
801.214	26503
801.356	26393
801.499	26225
801.641	26210
801.783	26005
801.926	26180
802.068	26126
802.211	25974
802.353	25890
802.496	25791
802.638	25761
802.78	25811
802.923	25731
803.065	25696
803.208	25518
803.35	25731
803.492	25689
803.635	25738
803.777	25715
803.919	25742
804.061	25978
804.204	25742
804.346	25658
804.488	25525
804.63	25666
804.773	25556
804.915	25613
805.057	25700
805.199	25590
805.341	25723
805.483	25696
805.626	25647
805.768	25571
805.91	25727
806.052	25738
806.194	25575
806.336	25837
806.478	25791
806.62	25658
806.762	25655
806.904	25959
807.046	26206
807.188	26111
807.33	26024
807.472	26065
807.614	25944
807.756	26031
807.898	25708
808.04	25731
808.182	25837
808.324	25814
808.465	25822
808.607	25932
808.749	26081
808.891	26271
809.033	26381
809.174	26377
809.316	26142
809.458	26259
809.6	26062
809.741	26149
809.883	26237
810.025	26358
810.166	26358
810.308	26389
810.45	26244
810.591	26267
810.733	26088
810.875	25978
811.016	25913
811.158	25928
811.299	26210
811.441	26050
811.582	26202
811.724	26062
811.865	25978
812.007	25974
812.148	25947
812.29	26039
812.431	26092
812.573	26256
812.714	26396
812.855	26503
812.997	26655
813.138	26743
813.279	26598
813.421	26511
813.562	26537
813.703	26290
813.845	26069
813.986	25784
814.127	25677
814.268	25563
814.41	25510
814.551	25559
814.692	25616
814.833	25556
814.974	25529
815.115	25552
815.256	25293
815.397	25365
815.539	25384
815.68	25255
815.821	25141
815.962	25354
816.103	25263
816.244	25038
816.385	25042
816.526	25129
816.666	24844
816.807	24658
816.948	24798
817.089	24753
817.23	24681
817.371	24669
817.512	24612
817.653	24582
817.793	24559
817.934	24635
818.075	24604
818.216	24738
818.356	24532
818.497	24414
818.638	24327
818.778	24292
818.919	24426
819.06	24464
819.2	24460
819.341	24525
819.481	24528
819.622	24627
819.762	24958
819.903	24734
820.043	24814
820.184	24745
820.324	24757
820.465	24726
820.605	24711
820.746	24703
820.886	24426
821.026	24612
821.167	24551
821.307	24601
821.447	24479
821.588	24509
821.728	24292
821.868	24190
822.008	23939
822.149	23950
822.289	24007
822.429	23741
822.569	23737
822.709	23649
822.849	23585
822.99	23414
823.13	23372
823.27	23284
823.41	23277
823.55	23197
823.69	23269
823.83	23223
823.97	23147
824.11	22930
824.25	23003
824.389	23029
824.529	23079
824.669	23060
824.809	23060
824.949	23083
825.089	23094
825.228	23048
825.368	22995
825.508	22873
825.648	22843
825.787	22847
825.927	22767
826.067	22748
826.206	22748
826.346	22889
826.485	22816
826.625	22847
826.765	23033
826.904	22904
827.044	22660
827.183	22500
827.323	22409
827.462	22596
827.601	22379
827.741	22599
827.88	22645
828.02	22398
828.159	22409
828.298	22500
828.437	22424
828.577	22462
828.716	22626
828.855	22341
828.994	22086
829.134	22147
829.273	22257
829.412	22101
829.551	22044
829.69	22101
829.829	22177
829.968	22265
830.107	22078
830.246	22211
830.385	22196
830.524	22135
830.663	21899
830.802	21972
830.941	21751
831.08	21713
831.219	21823
831.357	21888
831.496	21869
831.635	21770
831.774	21663
831.913	21629
832.051	21523
832.19	21610
832.329	21568
832.467	21466
832.606	21348
832.744	21431
832.883	21317
833.022	21374
833.16	21428
833.299	21504
833.437	21401
833.576	21321
833.714	21488
833.852	21420
833.991	21481
834.129	21477
834.267	21542
834.406	21382
834.544	21564
834.682	21462
834.821	21412
834.959	21553
835.097	21431
835.235	21393
835.373	21443
835.511	21492
835.65	21249
835.788	21291
835.926	21028
836.064	21119
836.202	21089
836.34	21344
836.478	21393
836.615	21272
836.753	21287
836.891	21302
837.029	21348
837.167	21233
837.305	21154
837.443	21169
837.58	21017
837.718	21157
837.856	21131
837.993	21001
838.131	21154
838.269	20948
838.406	21138
838.544	21017
838.681	20727
838.819	20796
838.956	20659
839.094	20537
839.231	20533
839.369	20689
839.506	20906
839.643	20792
839.781	20492
839.918	20480
840.055	20533
840.193	20446
840.33	20518
840.467	20556
840.604	20507
840.742	20819
840.879	20343
841.016	20408
841.153	20404
841.29	20598
841.427	20385
841.564	20362
841.701	20442
841.838	20400
841.975	20415
842.112	20355
842.249	20305
842.385	20191
842.522	20431
842.659	20294
842.796	20092
842.933	20210
843.069	20130
843.206	20134
843.343	20187
843.479	20332
843.616	20275
843.752	19944
843.889	19947
844.025	20069
844.162	19795
844.298	20122
844.435	19967
844.571	19906
844.708	19936
844.844	20058
844.98	19967
845.117	19967
845.253	19959
845.389	19852
845.525	19909
845.661	19830
845.798	19696
845.934	19772
846.07	19696
846.206	19704
846.342	19860
846.478	19704
846.614	19419
846.75	19426
846.886	19396
847.022	19430
847.158	19369
847.294	19506
847.429	19441
847.565	19312
847.701	19597
847.837	19164
847.972	19084
848.108	19278
848.244	19255
848.379	18913
848.515	18924
848.65	18932
848.786	19023
848.921	18916
849.057	19076
849.192	19042
849.328	19004
849.463	19019
849.598	18966
849.734	18867
849.869	18882
850.004	18753
850.14	18821
850.275	18582
850.41	18593
850.545	18681
850.68	18623
850.815	18764
850.95	18791
851.085	18867
851.22	18867
851.355	18646
851.49	18760
851.625	18574
851.76	18681
851.895	18612
852.03	18608
852.165	18616
852.299	18738
852.434	18810
852.569	18749
852.703	18787
852.838	18741
852.973	18719
853.107	18642
853.242	18665
853.376	18627
853.511	18410
853.645	18350
853.78	18566
853.914	18528
854.048	18593
854.183	18452
854.317	18555
854.451	18661
854.585	18597
854.72	18525
854.854	18578
854.988	18418
855.122	18513
855.256	18308
855.39	18582
855.524	18528
855.658	18612
855.792	18471
855.926	18494
856.06	18479
856.194	18661
856.327	18506
856.461	18585
856.595	18437
856.729	18479
856.862	18585
856.996	18509
857.13	18597
857.263	18768
857.397	18620
857.53	18532
857.664	18494
857.797	18494
857.931	18612
858.064	18654
858.197	18498
858.331	18528
858.464	18410
858.597	18342
858.731	18498
858.864	18509
858.997	18254
859.13	18445
859.263	18513
859.396	18528
859.529	18429
859.662	18388
859.795	18380
859.928	18490
860.061	18582
860.194	18601
860.327	18452
860.46	18441
860.592	18517
860.725	18566
860.858	18578
860.99	18319
861.123	18483
861.256	18296
861.388	18525
861.521	19145
861.653	18285
861.786	18311
861.918	18369
862.05	18407
862.183	18433
862.315	18452
862.447	18589
862.58	18486
862.712	18270
862.844	18209
862.976	18300
863.108	18296
863.24	18601
863.372	18102
863.504	18254
863.636	18125
863.768	18258
863.9	18239
864.032	18133
864.164	18079
864.296	18216
864.428	18251
864.559	18167
864.691	18201
864.823	18125
864.954	18258
865.086	18254
865.217	18087
865.349	17988
865.48	18174
865.612	18045
865.743	18152
865.875	18129
866.006	18117
866.137	18091
866.269	18121
866.4	18148
866.531	18030
866.662	17908
866.793	18060
866.924	18060
867.055	18087
867.186	17999
867.317	18019
867.448	18003
867.579	18007
867.71	17885
867.841	17977
867.972	18079
868.103	18095
868.233	17996
868.364	18068
868.495	18148
868.625	18330
868.756	18342
868.886	18140
869.017	18285
869.147	18380
869.278	18342
869.408	18311
869.539	18167
869.669	18391
869.799	18334
869.929	18418
870.06	18350
870.19	18563
870.32	18578
870.45	18665
870.58	18658
870.71	18783
870.84	18772
870.97	18646
871.1	18745
871.23	18764
871.36	18802
871.489	18829
871.619	18886
871.749	18810
871.879	18787
872.008	18985
872.138	18821
872.267	18856
872.397	18764
872.526	18703
872.656	18783
872.785	18738
872.915	18833
873.044	19000
873.173	18897
873.303	18970
873.432	19038
873.561	18905
873.69	18856
873.819	18905
873.948	18905
874.077	18875
874.206	18966
874.335	18829
874.464	19046
874.593	19126
874.722	18996
874.851	19095
874.979	19152
875.108	19228
875.237	19107
875.365	19133
875.494	19168
875.623	19274
875.751	19247
875.88	19209
876.008	19327
876.136	19480
876.265	19586
876.393	19712
876.521	19613
876.65	19514
876.778	19548
876.906	19556
877.034	19472
877.162	19521
877.29	19567
877.418	19525
877.546	19506
877.674	19502
877.802	19605
877.93	19499
878.058	19628
878.185	19407
878.313	19548
878.441	19571
878.568	19403
878.696	19468
878.824	19510
878.951	19689
879.079	19807
879.206	20012
879.333	19727
879.461	19624
879.588	19685
879.715	19624
879.842	19879
879.97	19791
880.097	19384
880.224	19430
880.351	19377
880.478	19464
880.605	19240
880.732	19434
880.859	19693
880.986	19403
881.112	19441
881.239	19343
881.366	19179
881.493	19255
881.619	19004
881.746	18973
881.872	19038
881.999	19114
882.125	19031
882.252	19008
882.378	19069
882.505	19179
882.631	18993
882.757	18848
882.883	18806
883.01	18722
883.136	18848
883.262	18692
883.388	18528
883.514	18852
883.64	18840
883.766	18646
883.892	18612
884.018	18582
884.143	18753
884.269	18844
884.395	18627
884.52	18445
884.646	18353
884.772	18388
884.897	18357
885.023	18429
885.148	18403
885.274	18646
885.399	18460
885.524	18475
885.65	18528
885.775	18452
885.9	18426
886.025	18471
886.15	18532
886.275	18342
886.4	18323
886.525	18426
886.65	18266
886.775	18365
886.9	18578
887.025	18604
887.149	18502
887.274	18243
887.399	18247
887.523	18201
887.648	18174
887.773	18117
887.897	18418
888.021	18258
888.146	18152
888.27	18334
888.395	18251
888.519	18247
888.643	18125
888.767	18258
888.891	18209
889.015	18106
889.139	18110
889.263	17961
889.387	18110
889.511	18220
889.635	18060
889.759	18015
889.883	17984
890.006	18045
890.13	17980
890.254	17920
890.377	18007
890.501	17748
890.624	17760
890.748	17863
890.871	17745
890.995	17505
891.118	17615
891.241	17615
891.364	17619
891.488	17882
891.611	17653
891.734	17684
891.857	17680
891.98	17741
892.103	17733
892.226	17737
892.349	17638
892.471	17490
892.594	17573
892.717	17634
892.839	17592
892.962	17611
893.085	17592
893.207	17608
893.33	17478
893.452	17512
893.575	17741
893.697	17551
893.819	17680
893.941	17783
894.064	17649
894.186	17589
894.308	17391
894.43	17661
894.552	17752
894.674	17672
894.796	17455
894.918	17661
895.04	17551
895.161	17703
895.283	17630
895.405	17547
895.526	17630
895.648	17672
895.769	17577
895.891	17581
896.012	17752
896.134	17680
896.255	17733
896.376	17646
896.498	17687
896.619	17714
896.74	17642
896.861	17771
896.982	17946
897.103	18106
897.224	18053
897.345	17931
897.466	17794
897.587	17840
897.708	17977
897.828	17882
897.949	17855
898.07	17710
898.19	17950
898.311	17980
898.431	17870
898.552	17920
898.672	17965
898.792	18053
898.913	17980
899.033	17805
899.153	17638
899.273	17585
899.393	17707
899.513	17668
899.633	17653
899.753	17775
899.873	17623
899.993	17695
900.113	17585
900.232	17665
900.352	17596
900.472	17562
900.591	17543
900.711	17539
900.83	17379
900.95	17486
901.069	17649
901.189	17581
901.308	17280
901.427	17128
901.546	17212
901.665	17216
901.784	17220
901.904	16957
902.023	16892
902.141	16645
902.26	16691
902.379	16691
902.498	16668
902.617	16622
902.735	16611
902.854	16554
902.973	16432
903.091	16299
903.21	16398
903.328	16363
903.446	16261
903.565	16173
903.683	16223
903.801	16169
903.919	16162
904.038	16238
904.156	15956
904.274	16051
904.392	15918
904.51	15854
904.627	15987
904.745	15972
904.863	16044
904.981	15637
905.098	15557
905.216	15564
905.334	15618
905.451	15549
905.569	15580
905.686	15572
905.803	15625
905.921	15439
906.038	15492
906.155	15431
906.272	15310
906.389	15310
906.506	15165
906.623	15199
906.74	15199
906.857	15051
906.974	15154
907.091	15226
907.208	15260
907.324	15176
907.441	15032
907.557	14979
907.674	14933
907.79	14853
907.907	14815
908.023	14887
908.139	14876
908.256	14796
908.372	14800
908.488	14689
908.604	14598
908.72	14473
908.836	14625
908.952	14598
909.068	14583
909.184	14674
909.3	14533
909.415	14556
909.531	14568
909.647	14324
909.762	14248
909.878	14328
909.993	14320
910.108	14267
910.224	14278
910.339	14244
910.454	14214
910.57	14176
910.685	14088
910.8	14385
910.915	14298
911.03	14043
911.145	14020
911.259	13928
911.374	13947
911.489	13791
911.604	13791
911.718	13719
911.833	13670
911.947	13476
912.062	13483
912.176	13643
912.291	13636
912.405	13609
912.519	13826
912.633	13879
912.748	13723
912.862	13540
912.976	13453
913.09	13411
913.204	13506
913.318	13525
913.431	13609
913.545	13533
913.659	13636
913.772	13582
913.886	13392
914	13270
914.113	13487
914.226	13525
914.34	13445
914.453	13278
914.566	13362
914.68	13187
914.793	13236
914.906	13076
915.019	12932
915.132	12913
915.245	13046
915.358	13057
915.47	13114
915.583	13053
915.696	12989
915.809	13084
915.921	13118
916.034	13034
916.146	12935
916.259	12928
916.371	12985
916.483	12962
916.595	12867
916.708	12890
916.82	12924
916.932	12848
917.044	12741
917.156	12791
917.268	12791
917.38	12711
917.491	12703
917.603	12753
917.715	12806
917.826	12859
917.938	12738
918.049	12593
918.161	12772
918.272	12875
918.384	12897
918.495	12696
918.606	12570
918.717	12517
918.828	12601
918.939	12578
919.05	12555
919.161	12460
919.272	12380
919.383	12426
919.494	12593
919.604	12715
919.715	12559
919.826	12486
919.936	12494
920.047	12563
920.157	12475
920.267	12658
920.378	12582
920.488	12407
920.598	12673
920.708	12913
920.818	12631
920.928	12658
921.038	12787
921.148	12753
921.258	12464
921.368	12357
921.477	12304
921.587	12277
921.697	12258
921.806	12289
921.916	12178
922.025	12007
922.134	12015
922.244	11851
922.353	11954
922.462	11828
922.571	11794
922.68	11714
922.789	11646
922.898	11581
923.007	11501
923.116	11661
923.224	11604
923.333	11535
923.442	11444
923.55	11463
923.659	11482
923.767	11573
923.876	11368
923.984	11554
924.092	11452
924.201	11421
924.309	11490
924.417	11433
924.525	11311
924.633	11379
924.741	12285
924.849	11121
924.956	11280
925.064	11151
925.172	11071
925.279	11136
925.387	11159
925.494	11136
925.602	11223
925.709	11147
925.816	11067
925.924	11041
926.031	11178
926.138	11231
926.245	11273
926.352	10984
926.459	11185
926.566	11193
926.673	11086
926.779	10968
926.886	11006
926.993	10782
927.099	10759
927.206	10736
927.312	10664
927.419	10869
927.525	10771
927.631	10923
927.737	10710
927.843	10622
927.95	10519
928.056	10611
928.162	10630
928.267	10691
928.373	11208
928.479	10714
928.585	10417
928.69	10645
928.796	10668
928.901	10519
929.007	10371
929.112	10470
929.218	10466
929.323	10432
929.428	10337
929.533	10561
929.638	10325
929.743	10432
929.848	10451
929.953	10375
930.058	10261
930.163	10074
930.267	10101
930.372	10215
930.477	10109
930.581	10348
930.685	10101
930.79	10025
930.894	10051
930.998	9998
931.103	10116
931.207	9736
931.311	9728
931.415	9576
931.519	9462
931.623	9439
