Data from test_V78500241_3175.txt Node
Date: Fri Mar 25 14:55:49 CST 2022
User: usil
Spectrometer: V785-0024
Trigger mode: 0
Integration Time (sec): 4.000000E-1
Scans to average: 1
Nonlinearity correction enabled: false
Boxcar width: 0
Storing dark spectrum: false
XAxis mode: Wavelengths
Number of Pixels in Spectrum: 1024
>>>>>Begin Spectral Data<<<<<
801.071	22013
801.214	21934
801.356	21713
801.499	21603
801.641	21405
801.783	21340
801.926	21416
802.068	21321
802.211	21272
802.353	21146
802.496	21005
802.638	20899
802.78	20788
802.923	20693
803.065	20689
803.208	20716
803.35	20773
803.492	20883
803.635	20906
803.777	20708
803.919	20800
804.061	20921
804.204	20724
804.346	20667
804.488	20568
804.63	20712
804.773	20537
804.915	20682
805.057	20712
805.199	20606
805.341	20701
805.483	20727
805.626	20613
805.768	20640
805.91	20655
806.052	20606
806.194	20518
806.336	20758
806.478	20648
806.62	20636
806.762	20716
806.904	20857
807.046	20967
807.188	20960
807.33	20971
807.472	21036
807.614	20815
807.756	20895
807.898	20834
808.04	20606
808.182	20636
808.324	20796
808.465	20701
808.607	20921
808.749	20963
808.891	21157
809.033	21032
809.174	21013
809.316	20921
809.458	20982
809.6	20899
809.741	21032
809.883	21013
810.025	21199
810.166	21275
810.308	21199
810.45	21116
810.591	20979
810.733	20941
810.875	20830
811.016	20792
811.158	20632
811.299	20678
811.441	20986
811.582	20883
811.724	20777
811.865	20625
812.007	20731
812.148	20708
812.29	20640
812.431	20971
812.573	21154
812.714	21245
812.855	21233
812.997	21370
813.138	21492
813.279	21416
813.421	21279
813.562	21157
813.703	21047
813.845	20921
813.986	20617
814.127	20370
814.268	20271
814.41	20423
814.551	20301
814.692	20415
814.833	20172
814.974	20290
815.115	20225
815.256	20233
815.397	20206
815.539	20039
815.68	20043
815.821	19852
815.962	20111
816.103	19959
816.244	19982
816.385	19750
816.526	19738
816.666	19575
816.807	19453
816.948	19582
817.089	19586
817.23	19502
817.371	19525
817.512	19468
817.653	19499
817.793	19381
817.934	19521
818.075	19438
818.216	19472
818.356	19377
818.497	19206
818.638	19046
818.778	19114
818.919	18996
819.06	19141
819.2	19297
819.341	19285
819.481	19350
819.622	19483
819.762	19613
819.903	19499
820.043	19483
820.184	19392
820.324	19449
820.465	19468
820.605	19396
820.746	19434
820.886	19202
821.026	19472
821.167	19289
821.307	19415
821.447	19251
821.588	19251
821.728	19023
821.868	18878
822.008	18776
822.149	18844
822.289	18856
822.429	18566
822.569	18506
822.709	18388
822.849	18357
822.99	18304
823.13	18304
823.27	18247
823.41	18026
823.55	18068
823.69	18095
823.83	18159
823.97	18095
824.11	17836
824.25	17843
824.389	17965
824.529	17973
824.669	17847
824.809	18076
824.949	18026
825.089	17973
825.228	17973
825.368	17699
825.508	17722
825.648	17722
825.787	17726
825.927	17649
826.067	17608
826.206	17611
826.346	17634
826.485	17710
826.625	17748
826.765	17824
826.904	17615
827.044	17417
827.183	17372
827.323	17360
827.462	17414
827.601	17372
827.741	17299
827.88	17337
828.02	17162
828.159	17292
828.298	17353
828.437	17444
828.577	17284
828.716	17395
828.855	17250
828.994	17143
829.134	17048
829.273	17181
829.412	17045
829.551	17048
829.69	17018
829.829	17208
829.968	17239
830.107	17098
830.246	17010
830.385	17037
830.524	17025
830.663	16881
830.802	16892
830.941	16698
831.08	16725
831.219	16771
831.357	16801
831.496	16930
831.635	16755
831.774	16664
831.913	16599
832.051	16443
832.19	16478
832.329	16512
832.467	16421
832.606	16455
832.744	16379
832.883	16474
833.022	16440
833.16	16558
833.299	16497
833.437	16276
833.576	16413
833.714	16455
833.852	16440
833.991	16474
834.129	16470
834.267	16550
834.406	16546
834.544	16523
834.682	16466
834.821	16379
834.959	16786
835.097	16485
835.235	16565
835.373	16516
835.511	16432
835.65	16329
835.788	16466
835.926	16162
836.064	16158
836.202	16230
836.34	16405
836.478	16436
836.615	16246
836.753	16379
836.891	16428
837.029	16295
837.167	16284
837.305	16246
837.443	16284
837.58	16299
837.718	16207
837.856	16333
837.993	16177
838.131	16204
838.269	16090
838.406	16162
838.544	16131
838.681	15953
838.819	15907
838.956	15766
839.094	15846
839.231	15793
839.369	15926
839.506	16131
839.643	16044
839.781	15713
839.918	15846
840.055	15793
840.193	15797
840.33	15755
840.467	15800
840.604	15846
840.742	15922
840.879	15599
841.016	15759
841.153	15671
841.29	15785
841.427	15717
841.564	15895
841.701	15804
841.838	15717
841.975	15622
842.112	15728
842.249	15625
842.385	15557
842.522	15652
842.659	15614
842.796	15599
842.933	15523
843.069	15511
843.206	15572
843.343	15663
843.479	15561
843.616	15595
843.752	15389
843.889	15397
844.025	15469
844.162	15325
844.298	15462
844.435	15249
844.571	15275
844.708	15359
844.844	15469
844.98	15435
845.117	15515
845.253	15389
845.389	15294
845.525	15218
845.661	15256
845.798	15199
845.934	15154
846.07	15146
846.206	15146
846.342	15218
846.478	15123
846.614	15017
846.75	14845
846.886	14918
847.022	15097
847.158	14887
847.294	14819
847.429	14937
847.565	15009
847.701	15123
847.837	14731
847.972	14743
848.108	14750
848.244	14754
848.379	14492
848.515	14469
848.65	14530
848.786	14590
848.921	14484
849.057	14625
849.192	14644
849.328	14594
849.463	14606
849.598	14511
849.734	14450
849.869	14412
850.004	14336
850.14	14389
850.275	14294
850.41	14218
850.545	14248
850.68	14366
850.815	14229
850.95	14210
851.085	14476
851.22	14438
851.355	14244
851.49	14275
851.625	14267
851.76	14282
851.895	14149
852.03	14161
852.165	14317
852.299	14244
852.434	14431
852.569	14301
852.703	14282
852.838	14320
852.973	14560
853.107	14336
853.242	14286
853.376	14164
853.511	14073
853.645	14016
853.78	14275
853.914	14138
854.048	14119
854.183	14172
854.317	14199
854.451	14290
854.585	14142
854.72	14119
854.854	14221
854.988	14138
855.122	14153
855.256	14054
855.39	14081
855.524	14202
855.658	14206
855.792	14221
855.926	14176
856.06	14259
856.194	14339
856.327	14225
856.461	14046
856.595	14202
856.729	14130
856.862	14225
856.996	14161
857.13	14191
857.263	14244
857.397	14237
857.53	14130
857.664	14180
857.797	14286
857.931	14259
858.064	14187
858.197	14237
858.331	14161
858.464	14096
858.597	14100
858.731	14161
858.864	14225
858.997	14218
859.13	14210
859.263	14275
859.396	14218
859.529	14157
859.662	14199
859.795	14172
859.928	14176
860.061	14328
860.194	14328
860.327	14164
860.46	14187
860.592	14248
860.725	14248
860.858	14233
860.99	14138
861.123	14016
861.256	14119
861.388	14164
861.521	14887
861.653	14073
861.786	13997
861.918	14043
862.05	14092
862.183	14142
862.315	14119
862.447	14176
862.58	13993
862.712	13967
862.844	13746
862.976	14005
863.108	13917
863.24	14347
863.372	13860
863.504	14027
863.636	13906
863.768	14050
863.9	13989
864.032	13951
864.164	13906
864.296	14050
864.428	14081
864.559	13997
864.691	13967
864.823	14027
864.954	14020
865.086	14050
865.217	13986
865.349	13868
865.48	13944
865.612	14024
865.743	14111
865.875	13967
866.006	13898
866.137	13951
866.269	13852
866.4	13890
866.531	13845
866.662	13875
866.793	13898
866.924	13856
867.055	13879
867.186	13986
867.317	13932
867.448	13811
867.579	13849
867.71	13841
867.841	13833
867.972	13959
868.103	13913
868.233	13909
868.364	14027
868.495	14069
868.625	14191
868.756	14214
868.886	14054
869.017	14115
869.147	14431
869.278	14320
869.408	14210
869.539	14145
869.669	14309
869.799	14142
869.929	14275
870.06	14343
870.19	14560
870.32	14488
870.45	14583
870.58	14545
870.71	14564
870.84	14655
870.97	14621
871.1	14625
871.23	14830
871.36	14708
871.489	14625
871.619	14655
871.749	14746
871.879	14849
872.008	14883
872.138	14830
872.267	14834
872.397	14701
872.526	14644
872.656	14640
872.785	14655
872.915	14796
873.044	14815
873.173	14830
873.303	14899
873.432	14861
873.561	14857
873.69	14880
873.819	14746
873.948	14925
874.077	14785
874.206	14762
874.335	14842
874.464	14948
874.593	15108
874.722	14971
874.851	15195
874.979	15112
875.108	15199
875.237	15154
875.365	15104
875.494	15074
875.623	15291
875.751	15165
875.88	15222
876.008	15317
876.136	15450
876.265	15515
876.393	15717
876.521	15610
876.65	15671
876.778	15557
876.906	15397
877.034	15500
877.162	15614
877.29	15477
877.418	15534
877.546	15507
877.674	15534
877.802	15515
877.93	15519
878.058	15656
878.185	15340
878.313	15477
878.441	15606
878.568	15401
878.696	15466
878.824	15625
878.951	15591
879.079	15709
879.206	15907
879.333	15701
879.461	15595
879.588	15656
879.715	15667
879.842	15846
879.97	15720
880.097	15431
880.224	15336
880.351	15389
880.478	15397
880.605	15405
880.732	15405
880.859	15606
880.986	15507
881.112	15450
881.239	15291
881.366	15161
881.493	15173
881.619	15043
881.746	15119
881.872	15058
881.999	15108
882.125	14914
882.252	15154
882.378	15108
882.505	15283
882.631	14952
882.757	14910
882.883	14967
883.01	14925
883.136	14800
883.262	14743
883.388	14708
883.514	14929
883.64	14804
883.766	14975
883.892	14617
884.018	14689
884.143	14857
884.269	15001
884.395	14682
884.52	14625
884.646	14659
884.772	14533
884.897	14469
885.023	14712
885.148	14701
885.274	14765
885.399	14712
885.524	14575
885.65	14484
885.775	14568
885.9	14575
886.025	14689
886.15	14590
886.275	14564
886.4	14473
886.525	14549
886.65	14480
886.775	14564
886.9	14746
887.025	14842
887.149	14587
887.274	14328
887.399	14427
887.523	14415
887.648	14423
887.773	14332
887.897	14434
888.021	14423
888.146	14442
888.27	14518
888.395	14617
888.519	14476
888.643	14571
888.767	14545
888.891	14358
889.015	14271
889.139	14324
889.263	14278
889.387	14461
889.511	14362
889.635	14431
889.759	14229
889.883	14301
890.006	14415
890.13	14415
890.254	14267
890.377	14237
890.501	14092
890.624	14062
890.748	14149
890.871	14123
890.995	13925
891.118	13845
891.241	14016
891.364	13986
891.488	14149
891.611	14069
891.734	14035
891.857	14115
891.98	14035
892.103	14111
892.226	13955
892.349	13959
892.471	13765
892.594	13997
892.717	14024
892.839	13970
892.962	14016
893.085	14092
893.207	13989
893.33	13856
893.452	13959
893.575	14008
893.697	13913
893.819	14244
893.941	14271
894.064	14062
894.186	13978
894.308	14001
894.43	14183
894.552	14191
894.674	14142
894.796	13906
894.918	14031
895.04	14012
895.161	14134
895.283	14134
895.405	14035
895.526	14084
895.648	14084
895.769	14119
895.891	14138
896.012	14248
896.134	14123
896.255	14172
896.376	14092
896.498	14172
896.619	14233
896.74	14157
896.861	14221
896.982	14507
897.103	14640
897.224	14511
897.345	14374
897.466	14343
897.587	14461
897.708	14427
897.828	14473
897.949	14415
898.07	14320
898.19	14450
898.311	14629
898.431	14511
898.552	14446
898.672	14598
898.792	14678
898.913	14636
899.033	14511
899.153	14355
899.273	14278
899.393	14362
899.513	14404
899.633	14366
899.753	14492
899.873	14381
899.993	14374
900.113	14381
900.232	14412
900.352	14400
900.472	14377
900.591	14161
900.711	14313
900.83	14199
900.95	14408
901.069	14381
901.189	14202
901.308	13982
901.427	13906
901.546	13951
901.665	13921
901.784	13898
901.904	13852
902.023	13670
902.141	13590
902.26	13533
902.379	13537
902.498	13464
902.617	13453
902.735	13597
902.854	13453
902.973	13415
903.091	13263
903.21	13217
903.328	13244
903.446	13202
903.565	13076
903.683	13050
903.801	12989
903.919	13031
904.038	13046
904.156	12829
904.274	12954
904.392	12897
904.51	12859
904.627	12878
904.745	12966
904.863	12897
904.981	12707
905.098	12536
905.216	12582
905.334	12563
905.451	12623
905.569	12528
905.686	12612
905.803	12673
905.921	12456
906.038	12521
906.155	12433
906.272	12285
906.389	12296
906.506	12121
906.623	12110
906.74	12186
906.857	12106
906.974	12182
907.091	12171
907.208	12323
907.324	12148
907.441	12117
907.557	11950
907.674	11870
907.79	11904
907.907	11885
908.023	11912
908.139	11939
908.256	11855
908.372	11916
908.488	11840
908.604	11707
908.72	11646
908.836	11573
908.952	11627
909.068	11726
909.184	11703
909.3	11718
909.415	11695
909.531	11695
909.647	11478
909.762	11425
909.878	11429
909.993	11402
910.108	11433
910.224	11356
910.339	11417
910.454	11334
910.57	11201
910.685	11246
910.8	11505
910.915	11414
911.03	11299
911.145	11155
911.259	11102
911.374	11113
911.489	11048
911.604	11102
911.718	10938
911.833	10900
911.947	10828
912.062	10687
912.176	10847
912.291	10889
912.405	10877
912.519	11117
912.633	11113
912.748	11025
912.862	10862
912.976	10782
913.09	10714
913.204	10824
913.318	10771
913.431	10942
913.545	10771
913.659	10869
913.772	10755
913.886	10706
914	10622
914.113	10778
914.226	10759
914.34	10752
914.453	10584
914.566	10809
914.68	10668
914.793	10607
914.906	10421
915.019	10459
915.132	10432
915.245	10417
915.358	10352
915.47	10386
915.583	10348
915.696	10394
915.809	10603
915.921	10653
916.034	10360
916.146	10337
916.259	10322
916.371	10474
916.483	10409
916.595	10299
916.708	10352
916.82	10344
916.932	10348
917.044	10360
917.156	10306
917.268	10162
917.38	10344
917.491	10219
917.603	10310
917.715	10363
917.826	10394
917.938	10234
918.049	10154
918.161	10192
918.272	10413
918.384	10390
918.495	10253
918.606	10143
918.717	10029
918.828	10238
918.939	10150
919.05	10078
919.161	10040
919.272	9953
919.383	10025
919.494	10139
919.604	10390
919.715	10124
919.826	10040
919.936	10093
920.047	10211
920.157	10147
920.267	10341
920.378	10207
920.488	10116
920.598	10356
920.708	10451
920.818	10291
920.928	10314
921.038	10523
921.148	10386
921.258	10147
921.368	10063
921.477	9953
921.587	9983
921.697	9884
921.806	9968
921.916	9895
922.025	9808
922.134	9629
922.244	9663
922.353	9740
922.462	9568
922.571	9557
922.68	9424
922.789	9428
922.898	9412
923.007	9355
923.116	9329
923.224	9424
923.333	9450
923.442	9374
923.55	9260
923.659	9329
923.767	9351
923.876	9218
923.984	9336
924.092	9214
924.201	9268
924.309	9332
924.417	9313
924.525	9249
924.633	9218
924.741	10128
924.849	9024
924.956	9203
925.064	9070
925.172	8967
925.279	9077
925.387	9123
925.494	9047
925.602	9180
925.709	9093
925.816	9055
925.924	9039
926.031	9157
926.138	9062
926.245	9138
926.352	8982
926.459	9055
926.566	9138
926.673	9047
926.779	8925
926.886	8781
926.993	8720
927.099	8807
927.206	8743
927.312	8731
927.419	8842
927.525	8754
927.631	8834
927.737	8648
927.843	8659
927.95	8606
928.056	8610
928.162	8663
928.267	8766
928.373	9211
928.479	8754
928.585	8511
928.69	8686
928.796	8705
928.901	8583
929.007	8465
929.112	8648
929.218	8518
929.323	8434
929.428	8438
929.533	8621
929.638	8526
929.743	8446
929.848	8575
929.953	8461
930.058	8412
930.163	8183
930.267	8263
930.372	8412
930.477	8290
930.581	8526
930.685	8358
930.79	8202
930.894	8229
930.998	8096
931.103	8324
931.207	8008
931.311	7917
931.415	7932
931.519	7708
931.623	7632
