Data from test_V78500241_588.txt Node
Date: Fri Mar 25 14:37:48 CST 2022
User: usil
Spectrometer: V785-0024
Trigger mode: 0
Integration Time (sec): 4.000000E-1
Scans to average: 1
Nonlinearity correction enabled: false
Boxcar width: 0
Storing dark spectrum: false
XAxis mode: Wavelengths
Number of Pixels in Spectrum: 1024
>>>>>Begin Spectral Data<<<<<
801.071	27785
801.214	27766
801.356	27599
801.499	27492
801.641	27374
801.783	27226
801.926	27195
802.068	27340
802.211	27093
802.353	27055
802.496	26861
802.638	26708
802.78	26853
802.923	26735
803.065	26632
803.208	26697
803.35	26967
803.492	26819
803.635	26891
803.777	26861
803.919	26853
804.061	27150
804.204	26845
804.346	26895
804.488	26933
804.63	26853
804.773	26963
804.915	27051
805.057	27024
805.199	27032
805.341	27275
805.483	27397
805.626	27291
805.768	27256
805.91	27283
806.052	27473
806.194	27382
806.336	27766
806.478	27739
806.62	27732
806.762	28158
806.904	28341
807.046	28847
807.188	29155
807.33	29212
807.472	29604
807.614	30098
807.756	30574
807.898	31312
808.04	32221
808.182	33641
808.324	35360
808.465	37133
808.607	39249
808.749	41170
808.891	42193
809.033	42426
809.174	41151
809.316	39154
809.458	37038
809.6	34801
809.741	33332
809.883	31936
810.025	31118
810.166	30418
810.308	29836
810.45	29360
810.591	29060
810.733	28717
810.875	28367
811.016	28249
811.158	27983
811.299	28074
811.441	27979
811.582	27941
811.724	27679
811.865	27667
812.007	27614
812.148	27606
812.29	27583
812.431	27530
812.573	27869
812.714	27713
812.855	27941
812.997	27918
813.138	27956
813.279	27835
813.421	27720
813.562	27553
813.703	27534
813.845	27264
813.986	26925
814.127	26838
814.268	26629
814.41	26693
814.551	26629
814.692	26655
814.833	26575
814.974	26533
815.115	26495
815.256	26404
815.397	26404
815.539	26389
815.68	26374
815.821	26183
815.962	26218
816.103	26248
816.244	25921
816.385	25864
816.526	25936
816.666	25738
816.807	25495
816.948	25639
817.089	25575
817.23	25613
817.371	25556
817.512	25616
817.653	25457
817.793	25464
817.934	25460
818.075	25502
818.216	25457
818.356	25297
818.497	25156
818.638	25171
818.778	25190
818.919	25179
819.06	25304
819.2	25335
819.341	25518
819.481	25472
819.622	25533
819.762	25681
819.903	25647
820.043	25483
820.184	25426
820.324	25289
820.465	25499
820.605	25297
820.746	25228
820.886	25289
821.026	25533
821.167	25282
821.307	25415
821.447	25289
821.588	25156
821.728	25008
821.868	24886
822.008	24654
822.149	24745
822.289	24418
822.429	24342
822.569	24216
822.709	24300
822.849	24148
822.99	24007
823.13	24053
823.27	24110
823.41	23923
823.55	23737
823.69	23752
823.83	23870
823.97	23802
824.11	23665
824.25	23566
824.389	23634
824.529	23646
824.669	23687
824.809	23729
824.949	23570
825.089	23596
825.228	23687
825.368	23425
825.508	23391
825.648	23474
825.787	23444
825.927	23463
826.067	23356
826.206	23376
826.346	23349
826.485	23512
826.625	23345
826.765	23330
826.904	23471
827.044	23166
827.183	23208
827.323	23124
827.462	23178
827.601	23003
827.741	23105
827.88	23029
828.02	22881
828.159	23025
828.298	23079
828.437	23197
828.577	22968
828.716	23159
828.855	22991
828.994	22801
829.134	22797
829.273	22904
829.412	22683
829.551	22740
829.69	22733
829.829	22694
829.968	22721
830.107	22729
830.246	22713
830.385	22577
830.524	22481
830.663	22432
830.802	22546
830.941	22413
831.08	22421
831.219	22417
831.357	22485
831.496	22546
831.635	22379
831.774	22223
831.913	22219
832.051	22139
832.19	21998
832.329	22177
832.467	22139
832.606	22021
832.744	21934
832.883	22006
833.022	22093
833.16	22200
833.299	22424
833.437	22333
833.576	22485
833.714	22592
833.852	22634
833.991	22793
834.129	22828
834.267	22752
834.406	22736
834.544	22763
834.682	22584
834.821	22592
834.959	22603
835.097	22432
835.235	22405
835.373	22261
835.511	22291
835.65	22036
835.788	21987
835.926	21732
836.064	21785
836.202	21838
836.34	21823
836.478	21922
836.615	21709
836.753	21819
836.891	21949
837.029	21876
837.167	21656
837.305	21747
837.443	21686
837.58	21648
837.718	21717
837.856	21671
837.993	21462
838.131	21614
838.269	21492
838.406	21454
838.544	21511
838.681	21211
838.819	21279
838.956	21119
839.094	21058
839.231	21036
839.369	21249
839.506	21447
839.643	21146
839.781	21104
839.918	20941
840.055	20994
840.193	20982
840.33	21039
840.467	20971
840.604	21104
840.742	21176
840.879	20815
841.016	20853
841.153	20925
841.29	21013
841.427	20971
841.564	20895
841.701	20998
841.838	20937
841.975	20830
842.112	20868
842.249	20788
842.385	20708
842.522	20937
842.659	20902
842.796	20743
842.933	20746
843.069	20743
843.206	20804
843.343	20861
843.479	20918
843.616	20857
843.752	20765
843.889	20792
844.025	20743
844.162	20701
844.298	20891
844.435	20864
844.571	21032
844.708	21188
844.844	21580
844.98	21766
845.117	22101
845.253	22653
845.389	23832
845.525	25947
845.661	29414
845.798	33755
845.934	37213
846.07	38568
846.206	37837
846.342	35166
846.478	30540
846.614	26754
846.75	24209
846.886	22889
847.022	22029
847.158	21310
847.294	20838
847.429	20819
847.565	20499
847.701	20686
847.837	20084
847.972	19982
848.108	19993
848.244	19947
848.379	19753
848.515	19719
848.65	19742
848.786	19712
848.921	19594
849.057	19738
849.192	19662
849.328	19708
849.463	19658
849.598	19514
849.734	19514
849.869	19377
850.004	19377
850.14	19426
850.275	19304
850.41	19236
850.545	19263
850.68	19293
850.815	19274
850.95	19255
851.085	19445
851.22	19331
851.355	19244
851.49	19274
851.625	19209
851.76	19335
851.895	19118
852.03	19164
852.165	19343
852.299	19255
852.434	19365
852.569	19407
852.703	19297
852.838	19362
852.973	19457
853.107	19407
853.242	19259
853.376	19266
853.511	19152
853.645	19202
853.78	19354
853.914	19419
854.048	19396
854.183	19327
854.317	19384
854.451	19559
854.585	19354
854.72	19270
854.854	19464
854.988	19194
855.122	19320
855.256	19148
855.39	19228
855.524	19430
855.658	19202
855.792	19126
855.926	19289
856.06	19179
856.194	19232
856.327	19050
856.461	19194
856.595	18852
856.729	19023
856.862	19171
856.996	19179
857.13	19202
857.263	19183
857.397	19179
857.53	19076
857.664	19034
857.797	19057
857.931	19148
858.064	19145
858.197	19110
858.331	18970
858.464	18905
858.597	18943
858.731	18996
858.864	18909
858.997	18962
859.13	18977
859.263	18913
859.396	19061
859.529	18981
859.662	18932
859.795	18966
859.928	18996
860.061	19183
860.194	19183
860.327	19031
860.46	18848
860.592	19031
860.725	19103
860.858	18954
860.99	18920
861.123	18817
861.256	18848
861.388	18928
861.521	19578
861.653	18810
861.786	18738
861.918	18802
862.05	18848
862.183	18989
862.315	18985
862.447	19122
862.58	18886
862.712	18753
862.844	18585
862.976	18779
863.108	18810
863.24	19004
863.372	18544
863.504	18711
863.636	18642
863.768	18707
863.9	18612
864.032	18407
864.164	18631
864.296	18650
864.428	18696
864.559	18681
864.691	18570
864.823	18665
864.954	18635
865.086	18631
865.217	18684
865.349	18483
865.48	18506
865.612	18597
865.743	18627
865.875	18616
866.006	18532
866.137	18536
866.269	18574
866.4	18509
866.531	18544
866.662	18486
866.793	18441
866.924	18429
867.055	18509
867.186	18452
867.317	18414
867.448	18456
867.579	18464
867.71	18448
867.841	18426
867.972	18513
868.103	18483
868.233	18646
868.364	18494
868.495	18566
868.625	18688
868.756	18814
868.886	18791
869.017	18677
869.147	18894
869.278	18890
869.408	18749
869.539	18787
869.669	18928
869.799	18863
869.929	18905
870.06	18894
870.19	19103
870.32	19160
870.45	19156
870.58	19171
870.71	19396
870.84	19301
870.97	19179
871.1	19251
871.23	19388
871.36	19392
871.489	19419
871.619	19449
871.749	19358
871.879	19502
872.008	19575
872.138	19403
872.267	19483
872.397	19419
872.526	19365
872.656	19316
872.785	19365
872.915	19487
873.044	19537
873.173	19689
873.303	19563
873.432	19616
873.561	19776
873.69	19597
873.819	19658
873.948	19655
874.077	19723
874.206	19582
874.335	19860
874.464	19906
874.593	20096
874.722	19909
874.851	20100
874.979	20180
875.108	20180
875.237	20043
875.365	20005
875.494	20111
875.623	20259
875.751	20248
875.88	20294
876.008	20476
876.136	20556
876.265	20708
876.393	20941
876.521	20895
876.65	20910
876.778	20952
876.906	20819
877.034	20849
877.162	20975
877.29	20861
877.418	21154
877.546	21199
877.674	21093
877.802	21294
877.93	21389
878.058	21359
878.185	21561
878.313	21827
878.441	21888
878.568	22044
878.696	22493
878.824	23079
878.951	23904
879.079	24776
879.206	25997
879.333	27408
879.461	28577
879.588	29375
879.715	29345
879.842	28790
879.97	27447
880.097	26084
880.224	24890
880.351	24342
880.478	23684
880.605	23246
880.732	22972
880.859	23113
880.986	22850
881.112	22767
881.239	22584
881.366	22481
881.493	22417
881.619	22226
881.746	22234
881.872	22360
881.999	22432
882.125	22295
882.252	22379
882.378	22314
882.505	22516
882.631	22303
882.757	22200
882.883	22261
883.01	22188
883.136	22268
883.262	22135
883.388	21930
883.514	22268
883.64	22173
883.766	22059
883.892	21968
884.018	21975
884.143	22185
884.269	22249
884.395	21907
884.52	21918
884.646	21911
884.772	21861
884.897	21895
885.023	21983
885.148	21926
885.274	21964
885.399	21781
885.524	21690
885.65	21580
885.775	21618
885.9	21431
886.025	21511
886.15	21287
886.275	21138
886.4	20986
886.525	21127
886.65	20960
886.775	20785
886.9	20887
887.025	20967
887.149	20758
887.274	20492
887.399	20396
887.523	20309
887.648	20195
887.773	20119
887.897	20210
888.021	20130
888.146	20046
888.27	20191
888.395	20267
888.519	20145
888.643	19944
888.767	20005
888.891	19868
889.015	19715
889.139	19776
889.263	19693
889.387	19731
889.511	19818
889.635	19742
889.759	19556
889.883	19537
890.006	19434
890.13	19571
890.254	19400
890.377	19373
890.501	19194
890.624	19114
890.748	19259
890.871	19095
890.995	18985
891.118	18871
891.241	19008
891.364	18856
891.488	19053
891.611	19031
891.734	19023
891.857	18939
891.98	18829
892.103	18890
892.226	18795
892.349	18646
892.471	18582
892.594	18661
892.717	18844
892.839	18795
892.962	18730
893.085	18677
893.207	18753
893.33	18380
893.452	18616
893.575	18593
893.697	18517
893.819	18753
893.941	18719
894.064	18620
894.186	18490
894.308	18350
894.43	18532
894.552	18757
894.674	18525
894.796	18407
894.918	18422
895.04	18475
895.161	18445
895.283	18498
895.405	18273
895.526	18418
895.648	18426
895.769	18388
895.891	18407
896.012	18418
896.134	18445
896.255	18452
896.376	18220
896.498	18426
896.619	18350
896.74	18429
896.861	18441
896.982	18665
897.103	18886
897.224	18597
897.345	18612
897.466	18589
897.587	18574
897.708	18650
897.828	18555
897.949	18509
898.07	18494
898.19	18502
898.311	18692
898.431	18544
898.552	18517
898.672	18585
898.792	18726
898.913	18490
899.033	18414
899.153	18418
899.273	18239
899.393	18422
899.513	18315
899.633	18213
899.753	18395
899.873	18330
899.993	18330
900.113	18289
900.232	18262
900.352	18308
900.472	18167
900.591	18064
900.711	18144
900.83	18110
900.95	18239
901.069	18281
901.189	18026
901.308	17760
901.427	17729
901.546	17657
901.665	17775
901.784	17786
901.904	17566
902.023	17543
902.141	17341
902.26	17166
902.379	17299
902.498	17261
902.617	17105
902.735	17315
902.854	17227
902.973	17060
903.091	16839
903.21	16854
903.328	16816
903.446	16755
903.565	16649
903.683	16733
903.801	16561
903.919	16752
904.038	16542
904.156	16531
904.274	16554
904.392	16409
904.51	16265
904.627	16428
904.745	16421
904.863	16432
904.981	16116
905.098	16048
905.216	16051
905.334	16067
905.451	16010
905.569	16032
905.686	16055
905.803	16048
905.921	15770
906.038	16002
906.155	15842
906.272	15732
906.389	15671
906.506	15515
906.623	15606
906.74	15591
906.857	15469
906.974	15359
907.091	15625
907.208	15599
907.324	15496
907.441	15435
907.557	15287
907.674	15249
907.79	15188
907.907	15264
908.023	15184
908.139	15256
908.256	15142
908.372	15112
908.488	15062
908.604	15032
908.72	14933
908.836	14914
908.952	14910
909.068	14941
909.184	15024
909.3	14925
909.415	15058
909.531	14864
909.647	14716
909.762	14610
909.878	14617
909.993	14674
910.108	14708
910.224	14507
910.339	14701
910.454	14545
910.57	14522
910.685	14499
910.8	14727
910.915	14617
911.03	14332
911.145	14267
911.259	14240
911.374	14301
911.489	14248
911.604	14103
911.718	14016
911.833	14043
911.947	13898
912.062	13936
912.176	14077
912.291	14008
912.405	14058
912.519	14240
912.633	14229
912.748	14043
912.862	13993
912.976	13898
913.09	13811
913.204	13784
913.318	13833
913.431	14024
913.545	13841
913.659	13890
913.772	13803
913.886	13753
914	13700
914.113	13807
914.226	13830
914.34	13814
914.453	13704
914.566	13731
914.68	13613
914.793	13525
914.906	13468
915.019	13354
915.132	13381
915.245	13327
915.358	13411
915.47	13434
915.583	13415
915.696	13434
915.809	13601
915.921	13441
916.034	13331
916.146	13304
916.259	13358
916.371	13384
916.483	13293
916.595	13259
916.708	13320
916.82	13396
916.932	13289
917.044	13255
917.156	13183
917.268	13137
917.38	13091
917.491	13183
917.603	13114
917.715	13149
917.826	13190
917.938	13061
918.049	12947
918.161	12958
918.272	13183
918.384	13152
918.495	13099
918.606	12996
918.717	12787
918.828	12871
918.939	12905
919.05	12787
919.161	12894
919.272	12616
919.383	12703
919.494	12844
919.604	13046
919.715	12897
919.826	12760
919.936	12779
920.047	12806
920.157	12875
920.267	12985
920.378	12848
920.488	12795
920.598	12939
920.708	13133
920.818	12958
920.928	12867
921.038	13069
921.148	13149
921.258	12817
921.368	12726
921.477	12673
921.587	12589
921.697	12422
921.806	12616
921.916	12433
922.025	12380
922.134	12281
922.244	12178
922.353	12224
922.462	12129
922.571	12167
922.68	11992
922.789	11908
922.898	11927
923.007	11771
923.116	11901
923.224	11901
923.333	11874
923.442	11726
923.55	11760
923.659	11710
923.767	11809
923.876	11703
923.984	11729
924.092	11722
924.201	11665
924.309	11722
924.417	11718
924.525	11558
924.633	11627
924.741	12426
924.849	11356
924.956	11573
925.064	11455
925.172	11318
925.279	11360
925.387	11433
925.494	11376
925.602	11535
925.709	11505
925.816	11337
925.924	11391
926.031	11467
926.138	11334
926.245	11444
926.352	11372
926.459	11398
926.566	11444
926.673	11254
926.779	11231
926.886	11239
926.993	11075
927.099	11033
927.206	11041
927.312	11025
927.419	11109
927.525	11014
927.631	11029
927.737	10968
927.843	10938
927.95	10805
928.056	10869
928.162	10889
928.267	10957
928.373	11429
928.479	10919
928.585	10748
928.69	10847
928.796	10858
928.901	10771
929.007	10691
929.112	10763
929.218	10748
929.323	10672
929.428	10588
929.533	10797
929.638	10596
929.743	10554
929.848	10618
929.953	10588
930.058	10523
930.163	10363
930.267	10382
930.372	10542
930.477	10379
930.581	10523
930.685	10440
930.79	10223
930.894	10379
930.998	10242
931.103	10352
931.207	10101
931.311	9926
931.415	9816
931.519	9663
931.623	9717
