Data from test_V78500241_3196.txt Node
Date: Fri Mar 25 14:55:58 CST 2022
User: usil
Spectrometer: V785-0024
Trigger mode: 0
Integration Time (sec): 4.000000E-1
Scans to average: 1
Nonlinearity correction enabled: false
Boxcar width: 0
Storing dark spectrum: false
XAxis mode: Wavelengths
Number of Pixels in Spectrum: 1024
>>>>>Begin Spectral Data<<<<<
801.071	22055
801.214	21903
801.356	21599
801.499	21568
801.641	21397
801.783	21329
801.926	21397
802.068	21291
802.211	21298
802.353	21176
802.496	21017
802.638	20910
802.78	20906
802.923	20644
803.065	20750
803.208	20568
803.35	20670
803.492	20944
803.635	20765
803.777	20743
803.919	20845
804.061	21085
804.204	20712
804.346	20659
804.488	20545
804.63	20743
804.773	20454
804.915	20625
805.057	20617
805.199	20655
805.341	20613
805.483	20727
805.626	20693
805.768	20606
805.91	20636
806.052	20735
806.194	20568
806.336	20872
806.478	20526
806.62	20602
806.762	20670
806.904	20918
807.046	21074
807.188	20956
807.33	20914
807.472	21047
807.614	20952
807.756	20986
807.898	20838
808.04	20670
808.182	20640
808.324	20541
808.465	20731
808.607	20769
808.749	20967
808.891	21051
809.033	21154
809.174	21074
809.316	20891
809.458	21024
809.6	20891
809.741	20963
809.883	21081
810.025	21028
810.166	21131
810.308	21157
810.45	20937
810.591	21055
810.733	20872
810.875	20773
811.016	20609
811.158	20724
811.299	20720
811.441	20853
811.582	20921
811.724	20902
811.865	20716
812.007	20663
812.148	20830
812.29	20716
812.431	20861
812.573	20998
812.714	21222
812.855	21199
812.997	21382
813.138	21329
813.279	21298
813.421	21294
813.562	21169
813.703	21074
813.845	20845
813.986	20659
814.127	20522
814.268	20298
814.41	20320
814.551	20271
814.692	20377
814.833	20229
814.974	20305
815.115	20164
815.256	20168
815.397	20218
815.539	20126
815.68	20050
815.821	19826
815.962	20031
816.103	20027
816.244	19860
816.385	19822
816.526	19734
816.666	19495
816.807	19403
816.948	19533
817.089	19571
817.23	19457
817.371	19441
817.512	19445
817.653	19460
817.793	19213
817.934	19369
818.075	19464
818.216	19415
818.356	19422
818.497	19266
818.638	19103
818.778	19118
818.919	19012
819.06	19057
819.2	19282
819.341	19331
819.481	19198
819.622	19460
819.762	19613
819.903	19510
820.043	19487
820.184	19320
820.324	19426
820.465	19422
820.605	19304
820.746	19373
820.886	19304
821.026	19358
821.167	19297
821.307	19468
821.447	19415
821.588	19152
821.728	19080
821.868	18905
822.008	18787
822.149	18798
822.289	18711
822.429	18509
822.569	18445
822.709	18532
822.849	18376
822.99	18205
823.13	18254
823.27	18216
823.41	18057
823.55	17870
823.69	18133
823.83	18095
823.97	18102
824.11	17969
824.25	17870
824.389	17874
824.529	17939
824.669	17863
824.809	18019
824.949	17935
825.089	17889
825.228	17961
825.368	17794
825.508	17653
825.648	17638
825.787	17638
825.927	17691
826.067	17649
826.206	17520
826.346	17699
826.485	17592
826.625	17615
826.765	17710
826.904	17680
827.044	17486
827.183	17448
827.323	17311
827.462	17383
827.601	17402
827.741	17307
827.88	17330
828.02	17193
828.159	17353
828.298	17376
828.437	17311
828.577	17242
828.716	17372
828.855	17299
828.994	17197
829.134	17136
829.273	17067
829.412	17048
829.551	17193
829.69	17045
829.829	17136
829.968	17216
830.107	17109
830.246	17117
830.385	17018
830.524	16991
830.663	16862
830.802	16881
830.941	16713
831.08	16713
831.219	16805
831.357	16843
831.496	16889
831.635	16710
831.774	16535
831.913	16577
832.051	16443
832.19	16455
832.329	16577
832.467	16333
832.606	16291
832.744	16451
832.883	16417
833.022	16306
833.16	16443
833.299	16356
833.437	16322
833.576	16546
833.714	16447
833.852	16455
833.991	16386
834.129	16523
834.267	16504
834.406	16466
834.544	16542
834.682	16462
834.821	16394
834.959	16615
835.097	16390
835.235	16569
835.373	16542
835.511	16527
835.65	16314
835.788	16417
835.926	16112
836.064	16200
836.202	16295
836.34	16314
836.478	16481
836.615	16329
836.753	16409
836.891	16405
837.029	16455
837.167	16398
837.305	16306
837.443	16188
837.58	16223
837.718	16306
837.856	16291
837.993	16131
838.131	16223
838.269	16181
838.406	16116
838.544	16101
838.681	15876
838.819	15960
838.956	15747
839.094	15751
839.231	15770
839.369	15903
839.506	16158
839.643	15960
839.781	15838
839.918	15686
840.055	15922
840.193	15865
840.33	15698
840.467	15747
840.604	15759
840.742	16017
840.879	15663
841.016	15720
841.153	15736
841.29	15930
841.427	15759
841.564	15671
841.701	15793
841.838	15709
841.975	15568
842.112	15637
842.249	15751
842.385	15435
842.522	15724
842.659	15641
842.796	15599
842.933	15534
843.069	15564
843.206	15538
843.343	15641
843.479	15587
843.616	15625
843.752	15302
843.889	15420
844.025	15431
844.162	15412
844.298	15473
844.435	15389
844.571	15359
844.708	15355
844.844	15496
844.98	15488
845.117	15473
845.253	15340
845.389	15260
845.525	15264
845.661	15252
845.798	15157
845.934	15142
846.07	15119
846.206	15176
846.342	15279
846.478	15226
846.614	14941
846.75	14891
846.886	14941
847.022	14975
847.158	14929
847.294	14895
847.429	14941
847.565	14910
847.701	15161
847.837	14678
847.972	14632
848.108	14781
848.244	14640
848.379	14682
848.515	14484
848.65	14511
848.786	14473
848.921	14541
849.057	14644
849.192	14632
849.328	14606
849.463	14587
849.598	14484
849.734	14473
849.869	14358
850.004	14336
850.14	14355
850.275	14309
850.41	14259
850.545	14259
850.68	14176
850.815	14309
850.95	14282
851.085	14552
851.22	14431
851.355	14419
851.49	14358
851.625	14317
851.76	14355
851.895	14237
852.03	14157
852.165	14358
852.299	14317
852.434	14377
852.569	14294
852.703	14309
852.838	14423
852.973	14465
853.107	14499
853.242	14347
853.376	14229
853.511	14077
853.645	14069
853.78	14320
853.914	14221
854.048	14180
854.183	14115
854.317	14210
854.451	14328
854.585	14259
854.72	14168
854.854	14240
854.988	14103
855.122	14248
855.256	14096
855.39	14134
855.524	14347
855.658	14195
855.792	14263
855.926	14263
856.06	14275
856.194	14324
856.327	14237
856.461	14172
856.595	14100
856.729	14157
856.862	14263
856.996	14180
857.13	14271
857.263	14396
857.397	14286
857.53	14225
857.664	14259
857.797	14164
857.931	14385
858.064	14233
858.197	14305
858.331	14206
858.464	14183
858.597	14092
858.731	14142
858.864	14149
858.997	14126
859.13	14271
859.263	14202
859.396	14324
859.529	14237
859.662	14100
859.795	14229
859.928	14218
860.061	14374
860.194	14415
860.327	14168
860.46	14145
860.592	14278
860.725	14408
860.858	14309
860.99	14153
861.123	14126
861.256	14164
861.388	14138
861.521	14975
861.653	14103
861.786	14077
861.918	14130
862.05	14096
862.183	14062
862.315	14210
862.447	14206
862.58	14183
862.712	13974
862.844	13913
862.976	14123
863.108	14035
863.24	14366
863.372	13917
863.504	13940
863.636	13909
863.768	14065
863.9	13970
864.032	13944
864.164	13909
864.296	14077
864.428	14134
864.559	14062
864.691	14054
864.823	14012
864.954	13959
865.086	13955
865.217	13986
865.349	13849
865.48	13959
865.612	13974
865.743	14195
865.875	13959
866.006	13887
866.137	13967
866.269	13921
866.4	14005
866.531	13883
866.662	13822
866.793	13887
866.924	13875
867.055	13944
867.186	13928
867.317	13989
867.448	13849
867.579	13860
867.71	13921
867.841	13940
867.972	14008
868.103	13970
868.233	13932
868.364	14035
868.495	13970
868.625	14119
868.756	14298
868.886	14210
869.017	14157
869.147	14259
869.278	14267
869.408	14202
869.539	14164
869.669	14271
869.799	14180
869.929	14328
870.06	14298
870.19	14560
870.32	14549
870.45	14503
870.58	14667
870.71	14686
870.84	14765
870.97	14625
871.1	14594
871.23	14895
871.36	14758
871.489	14735
871.619	14746
871.749	14887
871.879	14902
872.008	14948
872.138	14792
872.267	14746
872.397	14648
872.526	14648
872.656	14674
872.785	14758
872.915	14807
873.044	14826
873.173	14785
873.303	14944
873.432	15028
873.561	14796
873.69	14876
873.819	14861
873.948	14902
874.077	14807
874.206	14861
874.335	14902
874.464	15100
874.593	15119
874.722	15081
874.851	15188
874.979	15264
875.108	15245
875.237	15192
875.365	15089
875.494	15199
875.623	15230
875.751	15245
875.88	15283
876.008	15420
876.136	15485
876.265	15625
876.393	15637
876.521	15660
876.65	15667
876.778	15606
876.906	15545
877.034	15420
877.162	15618
877.29	15519
877.418	15587
877.546	15637
877.674	15515
877.802	15591
877.93	15618
878.058	15576
878.185	15587
878.313	15610
878.441	15618
878.568	15439
878.696	15526
878.824	15675
878.951	15652
879.079	15728
879.206	15911
879.333	15762
879.461	15660
879.588	15656
879.715	15827
879.842	15842
879.97	15656
880.097	15469
880.224	15428
880.351	15526
880.478	15389
880.605	15420
880.732	15542
880.859	15610
880.986	15412
881.112	15500
881.239	15351
881.366	15325
881.493	15226
881.619	15017
881.746	15104
881.872	15176
881.999	15070
882.125	15028
882.252	15218
882.378	15161
882.505	15310
882.631	14994
882.757	14929
882.883	15032
883.01	14918
883.136	15001
883.262	14842
883.388	14796
883.514	14895
883.64	15085
883.766	14773
883.892	14769
884.018	14796
884.143	14952
884.269	14883
884.395	14598
884.52	14667
884.646	14636
884.772	14549
884.897	14575
885.023	14678
885.148	14765
885.274	14800
885.399	14765
885.524	14674
885.65	14644
885.775	14644
885.9	14560
886.025	14720
886.15	14644
886.275	14549
886.4	14465
886.525	14503
886.65	14594
886.775	14594
886.9	14864
887.025	14864
887.149	14701
887.274	14457
887.399	14385
887.523	14488
887.648	14408
887.773	14499
887.897	14564
888.021	14526
888.146	14454
888.27	14587
888.395	14590
888.519	14503
888.643	14571
888.767	14564
888.891	14450
889.015	14183
889.139	14275
889.263	14252
889.387	14396
889.511	14522
889.635	14446
889.759	14362
889.883	14301
890.006	14400
890.13	14396
890.254	14244
890.377	14339
890.501	14123
890.624	14134
890.748	14149
890.871	14100
890.995	14050
891.118	13963
891.241	13947
891.364	13967
891.488	14043
891.611	14027
891.734	14054
891.857	14062
891.98	14039
892.103	14115
892.226	13947
892.349	13947
892.471	13883
892.594	14005
892.717	14062
892.839	14054
892.962	14031
893.085	14149
893.207	13986
893.33	13932
893.452	14035
893.575	14073
893.697	14081
893.819	14183
893.941	14180
894.064	14221
894.186	13986
894.308	13970
894.43	14161
894.552	14259
894.674	14153
894.796	13982
894.918	14107
895.04	14020
895.161	14180
895.283	14073
895.405	13982
895.526	14130
895.648	14130
895.769	14138
895.891	14153
896.012	14210
896.134	14123
896.255	14195
896.376	14259
896.498	14259
896.619	14320
896.74	14225
896.861	14259
896.982	14552
897.103	14705
897.224	14499
897.345	14362
897.466	14400
897.587	14374
897.708	14575
897.828	14560
897.949	14419
898.07	14282
898.19	14385
898.311	14564
898.431	14457
898.552	14606
898.672	14568
898.792	14716
898.913	14549
899.033	14503
899.153	14370
899.273	14393
899.393	14423
899.513	14431
899.633	14355
899.753	14370
899.873	14294
899.993	14492
900.113	14385
900.232	14461
900.352	14305
900.472	14317
900.591	14240
900.711	14298
900.83	14298
900.95	14347
901.069	14267
901.189	14202
901.308	14077
901.427	13989
901.546	14008
901.665	13944
901.784	14024
901.904	13818
902.023	13727
902.141	13586
902.26	13472
902.379	13624
902.498	13567
902.617	13468
902.735	13609
902.854	13457
902.973	13430
903.091	13293
903.21	13209
903.328	13221
903.446	13206
903.565	13156
903.683	13126
903.801	13038
903.919	13069
904.038	13065
904.156	12966
904.274	12977
904.392	12840
904.51	12833
904.627	12871
904.745	12954
904.863	12989
904.981	12623
905.098	12665
905.216	12490
905.334	12612
905.451	12719
905.569	12544
905.686	12620
905.803	12631
905.921	12342
906.038	12509
906.155	12437
906.272	12300
906.389	12285
906.506	12216
906.623	12258
906.74	12155
906.857	11939
906.974	12045
907.091	12270
907.208	12300
907.324	12209
907.441	12110
907.557	12022
907.674	11969
907.79	11893
907.907	11931
908.023	11942
908.139	11946
908.256	11980
908.372	11824
908.488	11885
908.604	11771
908.72	11581
908.836	11676
908.952	11703
909.068	11676
909.184	11809
909.3	11703
909.415	11684
909.531	11691
909.647	11551
909.762	11490
909.878	11414
909.993	11532
910.108	11433
910.224	11425
910.339	11455
910.454	11410
910.57	11395
910.685	11288
910.8	11532
910.915	11493
911.03	11337
911.145	11174
911.259	11128
911.374	11052
911.489	11052
911.604	11048
911.718	10942
911.833	11006
911.947	10843
912.062	10771
912.176	10911
912.291	10862
912.405	10961
912.519	11067
912.633	11128
912.748	10999
912.862	10828
912.976	10736
913.09	10702
913.204	10664
913.318	10843
913.431	10889
913.545	10847
913.659	10938
913.772	10847
913.886	10672
914	10630
914.113	10748
914.226	10824
914.34	10828
914.453	10546
914.566	10767
914.68	10649
914.793	10584
914.906	10440
915.019	10474
915.132	10379
915.245	10474
915.358	10386
915.47	10462
915.583	10405
915.696	10485
915.809	10558
915.921	10573
916.034	10363
916.146	10443
916.259	10329
916.371	10554
916.483	10451
916.595	10303
916.708	10341
916.82	10386
916.932	10367
917.044	10325
917.156	10344
917.268	10234
917.38	10238
917.491	10246
917.603	10234
917.715	10390
917.826	10352
917.938	10234
918.049	10082
918.161	10207
918.272	10436
918.384	10382
918.495	10344
918.606	10188
918.717	10040
918.828	10204
918.939	10162
919.05	10086
919.161	10147
919.272	9945
919.383	10105
919.494	10230
919.604	10386
919.715	10143
919.826	10093
919.936	10135
920.047	10234
920.157	10204
920.267	10432
920.378	10261
920.488	10223
920.598	10386
920.708	10565
920.818	10390
920.928	10329
921.038	10542
921.148	10561
921.258	10261
921.368	10188
921.477	10120
921.587	10032
921.697	9968
921.806	10029
921.916	9987
922.025	9682
922.134	9698
922.244	9740
922.353	9762
922.462	9652
922.571	9644
922.68	9431
922.789	9382
922.898	9523
923.007	9325
923.116	9428
923.224	9454
923.333	9435
923.442	9378
923.55	9336
923.659	9344
923.767	9447
923.876	9313
923.984	9351
924.092	9233
924.201	9298
924.309	9306
924.417	9325
924.525	9207
924.633	9325
924.741	10227
924.849	9058
924.956	9272
925.064	9116
925.172	9005
925.279	9089
925.387	9123
925.494	9123
925.602	9222
925.709	9146
925.816	9005
925.924	9138
926.031	9123
926.138	9173
926.245	9173
926.352	9039
926.459	9108
926.566	9230
926.673	9036
926.779	8990
926.886	8979
926.993	8880
927.099	8781
927.206	8750
927.312	8731
927.419	8853
927.525	8887
927.631	8880
927.737	8739
927.843	8701
927.95	8552
928.056	8651
928.162	8746
928.267	8758
928.373	9374
928.479	8864
928.585	8530
928.69	8731
928.796	8743
928.901	8640
929.007	8541
929.112	8621
929.218	8507
929.323	8549
929.428	8507
929.533	8651
929.638	8434
929.743	8511
929.848	8579
929.953	8446
930.058	8469
930.163	8339
930.267	8381
930.372	8427
930.477	8240
930.581	8522
930.685	8404
930.79	8210
930.894	8267
930.998	8176
931.103	8457
931.207	8027
931.311	8012
931.415	7932
931.519	7742
931.623	7734
