Data from test_V78500241_200.txt Node
Date: Fri Mar 25 14:35:07 CST 2022
User: usil
Spectrometer: V785-0024
Trigger mode: 0
Integration Time (sec): 4.000000E-1
Scans to average: 1
Nonlinearity correction enabled: false
Boxcar width: 0
Storing dark spectrum: false
XAxis mode: Wavelengths
Number of Pixels in Spectrum: 1024
>>>>>Begin Spectral Data<<<<<
801.071	28139
801.214	27949
801.356	27679
801.499	27652
801.641	27625
801.783	27694
801.926	27587
802.068	27416
802.211	27561
802.353	27207
802.496	27119
802.638	27249
802.78	27001
802.923	27116
803.065	26872
803.208	27096
803.35	27127
803.492	27108
803.635	27127
803.777	27119
803.919	27070
804.061	27416
804.204	27096
804.346	26914
804.488	27074
804.63	26994
804.773	26948
804.915	27173
805.057	27146
805.199	26918
805.341	27066
805.483	27047
805.626	27100
805.768	27093
805.91	27085
806.052	27036
806.194	27077
806.336	27306
806.478	27287
806.62	27184
806.762	27317
806.904	27374
807.046	27580
807.188	27534
807.33	27694
807.472	27648
807.614	27587
807.756	27648
807.898	27557
808.04	27625
808.182	27629
808.324	27812
808.465	27766
808.607	28169
808.749	28394
808.891	28508
809.033	28569
809.174	28428
809.316	28192
809.458	28074
809.6	27934
809.741	27914
809.883	27937
810.025	28006
810.166	27831
810.308	27922
810.45	27857
810.591	27842
810.733	27739
810.875	27545
811.016	27481
811.158	27386
811.299	27534
811.441	27732
811.582	27561
811.724	27355
811.865	27439
812.007	27458
812.148	27515
812.29	27606
812.431	27682
812.573	27895
812.714	27899
812.855	28017
812.997	27911
813.138	28185
813.279	28097
813.421	27914
813.562	27876
813.703	27759
813.845	27610
813.986	27317
814.127	27081
814.268	27135
814.41	26998
814.551	27013
814.692	27058
814.833	27017
814.974	26956
815.115	27146
815.256	26853
815.397	26815
815.539	26925
815.68	26804
815.821	26731
815.962	26739
816.103	26689
816.244	26556
816.385	26484
816.526	26469
816.666	26305
816.807	26077
816.948	26149
817.089	26218
817.23	26172
817.371	26111
817.512	26096
817.653	26103
817.793	25879
817.934	26054
818.075	26153
818.216	26176
818.356	26103
818.497	25932
818.638	25833
818.778	25776
818.919	25830
819.06	25772
819.2	25974
819.341	25993
819.481	26081
819.622	26168
819.762	26275
819.903	26149
820.043	26240
820.184	26039
820.324	26027
820.465	26202
820.605	25974
820.746	25978
820.886	25898
821.026	26035
821.167	25928
821.307	26145
821.447	25871
821.588	25871
821.728	25765
821.868	25582
822.008	25362
822.149	25327
822.289	25282
822.429	25088
822.569	25168
822.709	24886
822.849	24989
822.99	24734
823.13	24875
823.27	24859
823.41	24654
823.55	24570
823.69	24688
823.83	24692
823.97	24566
824.11	24429
824.25	24502
824.389	24395
824.529	24467
824.669	24574
824.809	24570
824.949	24517
825.089	24498
825.228	24388
825.368	24311
825.508	24372
825.648	24281
825.787	24289
825.927	24289
826.067	24334
826.206	24239
826.346	24372
826.485	24353
826.625	24190
826.765	24426
826.904	24304
827.044	24015
827.183	24030
827.323	23954
827.462	23988
827.601	23984
827.741	23923
827.88	23931
828.02	23745
828.159	23851
828.298	23958
828.437	23954
828.577	23805
828.716	24022
828.855	23874
828.994	23611
829.134	23657
829.273	23608
829.412	23581
829.551	23425
829.69	23528
829.829	23623
829.968	23566
830.107	23726
830.246	23512
830.385	23577
830.524	23539
830.663	23433
830.802	23193
830.941	23204
831.08	23269
831.219	23197
831.357	23311
831.496	23318
831.635	23083
831.774	22987
831.913	23113
832.051	23064
832.19	22869
832.329	23010
832.467	22904
832.606	22812
832.744	22854
832.883	22736
833.022	22771
833.16	22915
833.299	22904
833.437	22858
833.576	22938
833.714	22782
833.852	22984
833.991	22892
834.129	22995
834.267	23014
834.406	22866
834.544	22896
834.682	22828
834.821	22843
834.959	22923
835.097	22740
835.235	22797
835.373	22801
835.511	22691
835.65	22626
835.788	22710
835.926	22538
836.064	22375
836.202	22565
836.34	22588
836.478	22782
836.615	22557
836.753	22588
836.891	22653
837.029	22626
837.167	22535
837.305	22577
837.443	22405
837.58	22390
837.718	22519
837.856	22394
837.993	22386
838.131	22474
838.269	22367
838.406	22196
838.544	22246
838.681	22196
838.819	22124
838.956	21907
839.094	21888
839.231	21861
839.369	22036
839.506	22242
839.643	22063
839.781	21838
839.918	21800
840.055	21819
840.193	21812
840.33	21713
840.467	21667
840.604	21656
840.742	22063
840.879	21595
841.016	21610
841.153	21606
841.29	21835
841.427	21759
841.564	21770
841.701	21755
841.838	21641
841.975	21511
842.112	21599
842.249	21618
842.385	21538
842.522	21671
842.659	21576
842.796	21420
842.933	21519
843.069	21340
843.206	21359
843.343	21526
843.479	21473
843.616	21496
843.752	21237
843.889	21241
844.025	21348
844.162	21184
844.298	21279
844.435	21226
844.571	21207
844.708	21340
844.844	21359
844.98	21511
845.117	21420
845.253	21176
845.389	21214
845.525	21458
845.661	21637
845.798	21762
845.934	21968
846.07	21994
846.206	22143
846.342	21922
846.478	21466
846.614	21211
846.75	20826
846.886	20815
847.022	20819
847.158	20815
847.294	20758
847.429	20613
847.565	20594
847.701	20853
847.837	20457
847.972	20473
848.108	20457
848.244	20522
848.379	20275
848.515	20267
848.65	20259
848.786	20267
848.921	20199
849.057	20332
849.192	20271
849.328	20244
849.463	20187
849.598	20111
849.734	20096
849.869	20043
850.004	19986
850.14	19993
850.275	20031
850.41	19791
850.545	19959
850.68	20005
850.815	20043
850.95	19811
851.085	20069
851.22	20069
851.355	19921
851.49	19772
851.625	19890
851.76	19814
851.895	19833
852.03	19826
852.165	19871
852.299	19982
852.434	19921
852.569	19928
852.703	19970
852.838	19944
852.973	19974
853.107	20039
853.242	19860
853.376	19776
853.511	19582
853.645	19715
853.78	19906
853.914	19655
854.048	19780
854.183	19727
854.317	19655
854.451	19887
854.585	19704
854.72	19738
854.854	19750
854.988	19563
855.122	19799
855.256	19449
855.39	19727
855.524	19704
855.658	19799
855.792	19712
855.926	19757
856.06	19715
856.194	19799
856.327	19689
856.461	19693
856.595	19674
856.729	19761
856.862	19807
856.996	19723
857.13	19807
857.263	19708
857.397	19803
857.53	19658
857.664	19738
857.797	19845
857.931	19765
858.064	19715
858.197	19761
858.331	19719
858.464	19609
858.597	19537
858.731	19723
858.864	19761
858.997	19594
859.13	19681
859.263	19666
859.396	19795
859.529	19613
859.662	19586
859.795	19567
859.928	19563
860.061	19791
860.194	19826
860.327	19643
860.46	19731
860.592	19734
860.725	19731
860.858	19738
860.99	19575
861.123	19502
861.256	19556
861.388	19601
861.521	20206
861.653	19449
861.786	19411
861.918	19544
862.05	19601
862.183	19696
862.315	19731
862.447	19772
862.58	19628
862.712	19358
862.844	19426
862.976	19552
863.108	19556
863.24	19712
863.372	19388
863.504	19335
863.636	19217
863.768	19320
863.9	19293
864.032	19221
864.164	19236
864.296	19362
864.428	19430
864.559	19453
864.691	19415
864.823	19403
864.954	19278
865.086	19308
865.217	19240
865.349	19232
865.48	19266
865.612	19236
865.743	19388
865.875	19244
866.006	19293
866.137	19259
866.269	19285
866.4	19209
866.531	19278
866.662	19209
866.793	19171
866.924	19156
867.055	19316
867.186	19114
867.317	19148
867.448	19057
867.579	19019
867.71	19129
867.841	19156
867.972	19148
868.103	19137
868.233	19171
868.364	19156
868.495	19331
868.625	19274
868.756	19514
868.886	19312
869.017	19301
869.147	19575
869.278	19586
869.408	19365
869.539	19400
869.669	19487
869.799	19426
869.929	19491
870.06	19487
870.19	19632
870.32	19666
870.45	19715
870.58	19811
870.71	19978
870.84	19917
870.97	19753
871.1	19906
871.23	19967
871.36	20016
871.489	19928
871.619	19890
871.749	19978
871.879	20092
872.008	20054
872.138	20012
872.267	19974
872.397	19860
872.526	19826
872.656	19921
872.785	19841
872.915	19909
873.044	20084
873.173	20005
873.303	20065
873.432	20005
873.561	20164
873.69	20088
873.819	20187
873.948	20187
874.077	20054
874.206	19974
874.335	20065
874.464	20202
874.593	20237
874.722	20347
874.851	20305
874.979	20374
875.108	20320
875.237	20336
875.365	20161
875.494	20313
875.623	20434
875.751	20313
875.88	20389
876.008	20484
876.136	20442
876.265	20705
876.393	20762
876.521	20899
876.65	20857
876.778	20746
876.906	20625
877.034	20777
877.162	20773
877.29	20693
877.418	20670
877.546	20807
877.674	20716
877.802	20735
877.93	20849
878.058	20579
878.185	20629
878.313	20651
878.441	20659
878.568	20552
878.696	20708
878.824	20963
878.951	20937
879.079	21089
879.206	21298
879.333	21146
879.461	21192
879.588	21169
879.715	21447
879.842	21416
879.97	21131
880.097	20887
880.224	20769
880.351	20788
880.478	20724
880.605	20587
880.732	20724
880.859	20804
880.986	20648
881.112	20560
881.239	20549
881.366	20423
881.493	20336
881.619	20263
881.746	20377
881.872	20275
881.999	20176
882.125	20252
882.252	20328
882.378	20202
882.505	20454
882.631	20046
882.757	20130
882.883	20107
883.01	20020
883.136	19928
883.262	19936
883.388	19959
883.514	19974
883.64	20062
883.766	19974
883.892	19875
884.018	19837
884.143	20073
884.269	20027
884.395	19738
884.52	19700
884.646	19719
884.772	19605
884.897	19609
885.023	19601
885.148	19868
885.274	19738
885.399	19799
885.524	19655
885.65	19712
885.775	19514
885.9	19685
886.025	19715
886.15	19590
886.275	19613
886.4	19567
886.525	19476
886.65	19472
886.775	19537
886.9	19635
887.025	19772
887.149	19677
887.274	19438
887.399	19343
887.523	19346
887.648	19289
887.773	19304
887.897	19411
888.021	19434
888.146	19312
888.27	19369
888.395	19422
888.519	19297
888.643	19468
888.767	19381
888.891	19213
889.015	19156
889.139	19069
889.263	19042
889.387	19145
889.511	19362
889.635	19327
889.759	19118
889.883	19057
890.006	19190
890.13	19171
890.254	18996
890.377	18977
890.501	18840
890.624	18852
890.748	18890
890.871	18821
890.995	18631
891.118	18547
891.241	18741
891.364	18661
891.488	18726
891.611	18696
891.734	18639
891.857	18837
891.98	18646
892.103	18677
892.226	18753
892.349	18673
892.471	18486
892.594	18585
892.717	18741
892.839	18574
892.962	18566
893.085	18601
893.207	18623
893.33	18494
893.452	18536
893.575	18623
893.697	18422
893.819	18810
893.941	18821
894.064	18722
894.186	18570
894.308	18513
894.43	18661
894.552	18779
894.674	18688
894.796	18559
894.918	18555
895.04	18528
895.161	18745
895.283	18646
895.405	18536
895.526	18627
895.648	18544
895.769	18582
895.891	18650
896.012	18620
896.134	18696
896.255	18604
896.376	18620
896.498	18715
896.619	18783
896.74	18639
896.861	18730
896.982	19061
897.103	19228
897.224	18943
897.345	18852
897.466	18905
897.587	18958
897.708	19110
897.828	19091
897.949	18821
898.07	18795
898.19	18802
898.311	19008
898.431	19008
898.552	18928
898.672	19012
898.792	18970
898.913	18844
899.033	18871
899.153	18753
899.273	18631
899.393	18745
899.513	18642
899.633	18745
899.753	18665
899.873	18574
899.993	18749
900.113	18654
900.232	18570
900.352	18509
900.472	18506
900.591	18429
900.711	18433
900.83	18422
900.95	18608
901.069	18563
901.189	18426
901.308	18182
901.427	18121
901.546	18041
901.665	18163
901.784	18041
901.904	18019
902.023	17980
902.141	17726
902.26	17592
902.379	17752
902.498	17638
902.617	17539
902.735	17463
902.854	17535
902.973	17421
903.091	17288
903.21	17170
903.328	17250
903.446	17147
903.565	17083
903.683	17037
903.801	16991
903.919	16968
904.038	17052
904.156	16885
904.274	17022
904.392	16786
904.51	16740
904.627	16904
904.745	16930
904.863	16946
904.981	16626
905.098	16466
905.216	16478
905.334	16447
905.451	16573
905.569	16363
905.686	16527
905.803	16550
905.921	16226
906.038	16356
906.155	16333
906.272	16177
906.389	16173
906.506	16048
906.623	16059
906.74	16013
906.857	15903
906.974	15991
907.091	16150
907.208	15953
907.324	16071
907.441	15937
907.557	15778
907.674	15789
907.79	15644
907.907	15755
908.023	15679
908.139	15728
908.256	15572
908.372	15538
908.488	15572
908.604	15389
908.72	15378
908.836	15412
908.952	15488
909.068	15428
909.184	15374
909.3	15424
909.415	15351
909.531	15389
909.647	15173
909.762	15058
909.878	14971
909.993	15112
910.108	14998
910.224	15032
910.339	14994
910.454	14982
910.57	14941
910.685	14864
910.8	15066
910.915	15146
911.03	14864
911.145	14746
911.259	14739
911.374	14754
911.489	14655
911.604	14648
911.718	14457
911.833	14396
911.947	14305
912.062	14183
912.176	14393
912.291	14514
912.405	14415
912.519	14568
912.633	14629
912.748	14389
912.862	14336
912.976	14275
913.09	14103
913.204	14275
913.318	14214
913.431	14332
913.545	14336
913.659	14278
913.772	14328
913.886	14077
914	14012
914.113	14221
914.226	14164
914.34	14157
914.453	14005
914.566	14062
914.68	14008
914.793	14073
914.906	13727
915.019	13750
915.132	13643
915.245	13803
915.358	13738
915.47	13837
915.583	13727
915.696	13731
915.809	13830
915.921	13909
916.034	13628
916.146	13723
916.259	13563
916.371	13704
916.483	13708
916.595	13677
916.708	13483
916.82	13681
916.932	13518
917.044	13567
917.156	13578
917.268	13445
917.38	13434
917.491	13403
917.603	13411
917.715	13582
917.826	13548
917.938	13377
918.049	13289
918.161	13343
918.272	13518
918.384	13464
918.495	13453
918.606	13301
918.717	13118
918.828	13236
918.939	13278
919.05	13187
919.161	13221
919.272	12935
919.383	13110
919.494	13282
919.604	13369
919.715	13187
919.826	13145
919.936	13072
920.047	13213
920.157	13152
920.267	13388
920.378	13141
920.488	13099
920.598	13339
920.708	13453
920.818	13282
920.928	13206
921.038	13407
921.148	13312
921.258	13183
921.368	13038
921.477	12954
921.587	12954
921.697	12795
921.806	12882
921.916	12772
922.025	12650
922.134	12620
922.244	12627
922.353	12608
922.462	12445
922.571	12342
922.68	12365
922.789	12133
922.898	12201
923.007	12201
923.116	12266
923.224	12175
923.333	12224
923.442	12106
923.55	12072
923.659	12121
923.767	12114
923.876	12190
923.984	12098
924.092	12007
924.201	12057
924.309	12003
924.417	12053
924.525	11889
924.633	11897
924.741	12806
924.849	11824
924.956	11969
925.064	11672
925.172	11615
925.279	11707
925.387	11828
925.494	11710
925.602	11874
925.709	11767
925.816	11623
925.924	11649
926.031	11779
926.138	11760
926.245	11634
926.352	11528
926.459	11783
926.566	11733
926.673	11604
926.779	11566
926.886	11532
926.993	11391
927.099	11269
927.206	11246
927.312	11364
927.419	11379
927.525	11345
927.631	11398
927.737	11174
927.843	11151
927.95	11086
928.056	11174
928.162	11201
928.267	11208
928.373	11817
928.479	11280
928.585	11003
928.69	11162
928.796	11261
928.901	11025
929.007	10881
929.112	11086
929.218	10968
929.323	10942
929.428	10991
929.533	11025
929.638	10854
929.743	10809
929.848	11006
929.953	10877
930.058	10763
930.163	10645
930.267	10634
930.372	10748
930.477	10596
930.581	10820
930.685	10611
930.79	10474
930.894	10599
930.998	10565
931.103	10634
931.207	10257
931.311	10242
931.415	10154
931.519	9956
931.623	9915
