Data from test_V78500241_2200.txt Node
Date: Fri Mar 25 14:49:01 CST 2022
User: usil
Spectrometer: V785-0024
Trigger mode: 0
Integration Time (sec): 4.000000E-1
Scans to average: 1
Nonlinearity correction enabled: false
Boxcar width: 0
Storing dark spectrum: false
XAxis mode: Wavelengths
Number of Pixels in Spectrum: 1024
>>>>>Begin Spectral Data<<<<<
801.071	22181
801.214	22181
801.356	21759
801.499	21663
801.641	21583
801.783	21435
801.926	21504
802.068	21504
802.211	21462
802.353	21370
802.496	20986
802.638	21100
802.78	21074
802.923	21047
803.065	20800
803.208	20906
803.35	20891
803.492	20948
803.635	21013
803.777	20910
803.919	21028
804.061	21192
804.204	20899
804.346	20864
804.488	20781
804.63	20849
804.773	20758
804.915	20864
805.057	20864
805.199	20796
805.341	20918
805.483	21074
805.626	20864
805.768	20712
805.91	20842
806.052	20716
806.194	20697
806.336	20941
806.478	20758
806.62	20617
806.762	20834
806.904	21024
807.046	21195
807.188	21173
807.33	21039
807.472	21173
807.614	21081
807.756	21058
807.898	20948
808.04	20857
808.182	20864
808.324	21017
808.465	20963
808.607	20982
808.749	21070
808.891	21260
809.033	21344
809.174	21233
809.316	21150
809.458	21192
809.6	21180
809.741	21135
809.883	21230
810.025	21359
810.166	21344
810.308	21256
810.45	21317
810.591	21192
810.733	21085
810.875	20971
811.016	20899
811.158	20883
811.299	20998
811.441	21066
811.582	20982
811.724	21066
811.865	20899
812.007	20986
812.148	20982
812.29	20952
812.431	21039
812.573	21302
812.714	21336
812.855	21473
812.997	21504
813.138	21587
813.279	21466
813.421	21599
813.562	21340
813.703	21165
813.845	21043
813.986	20743
814.127	20655
814.268	20568
814.41	20537
814.551	20526
814.692	20549
814.833	20385
814.974	20545
815.115	20564
815.256	20370
815.397	20393
815.539	20347
815.68	20244
815.821	20142
815.962	20282
816.103	20282
816.244	20039
816.385	19898
816.526	19788
816.666	19685
816.807	19769
816.948	19822
817.089	19685
817.23	19647
817.371	19666
817.512	19601
817.653	19681
817.793	19487
817.934	19563
818.075	19674
818.216	19582
818.356	19559
818.497	19422
818.638	19194
818.778	19145
818.919	19362
819.06	19251
819.2	19346
819.341	19502
819.481	19483
819.622	19670
819.762	19765
819.903	19738
820.043	19757
820.184	19510
820.324	19567
820.465	19693
820.605	19563
820.746	19396
820.886	19426
821.026	19643
821.167	19563
821.307	19529
821.447	19605
821.588	19422
821.728	19339
821.868	19225
822.008	19027
822.149	18814
822.289	19034
822.429	18741
822.569	18677
822.709	18711
822.849	18460
822.99	18559
823.13	18448
823.27	18490
823.41	18262
823.55	18254
823.69	18315
823.83	18315
823.97	18228
824.11	18144
824.25	17977
824.389	18068
824.529	18155
824.669	18064
824.809	18213
824.949	18186
825.089	18106
825.228	17969
825.368	17942
825.508	17874
825.648	17889
825.787	17977
825.927	17984
826.067	17840
826.206	17771
826.346	17832
826.485	17901
826.625	17942
826.765	17904
826.904	17859
827.044	17585
827.183	17623
827.323	17547
827.462	17653
827.601	17558
827.741	17414
827.88	17528
828.02	17395
828.159	17551
828.298	17581
828.437	17604
828.577	17448
828.716	17680
828.855	17524
828.994	17288
829.134	17315
829.273	17307
829.412	17315
829.551	17212
829.69	17227
829.829	17349
829.968	17353
830.107	17364
830.246	17223
830.385	17330
830.524	17109
830.663	17102
830.802	17029
830.941	16972
831.08	16877
831.219	16987
831.357	17048
831.496	17109
831.635	16877
831.774	16797
831.913	16793
832.051	16755
832.19	16664
832.329	16679
832.467	16691
832.606	16546
832.744	16611
832.883	16649
833.022	16637
833.16	16641
833.299	16622
833.437	16603
833.576	16626
833.714	16634
833.852	16710
833.991	16702
834.129	16828
834.267	16710
834.406	16698
834.544	16611
834.682	16706
834.821	16653
834.959	16782
835.097	16641
835.235	16729
835.373	16558
835.511	16702
835.65	16580
835.788	16611
835.926	16405
836.064	16337
836.202	16367
836.34	16599
836.478	16634
836.615	16470
836.753	16527
836.891	16508
837.029	16622
837.167	16531
837.305	16542
837.443	16493
837.58	16440
837.718	16550
837.856	16428
837.993	16424
838.131	16474
838.269	16348
838.406	16348
838.544	16295
838.681	16139
838.819	16150
838.956	15953
839.094	15953
839.231	15941
839.369	16219
839.506	16489
839.643	16265
839.781	15865
839.918	15915
840.055	15934
840.193	15907
840.33	15888
840.467	15930
840.604	16013
840.742	16143
840.879	15835
841.016	15865
841.153	15861
841.29	15991
841.427	15956
841.564	15930
841.701	15934
841.838	15953
841.975	15819
842.112	15812
842.249	15675
842.385	15682
842.522	15888
842.659	15778
842.796	15789
842.933	15800
843.069	15667
843.206	15534
843.343	15717
843.479	15766
843.616	15797
843.752	15595
843.889	15545
844.025	15641
844.162	15572
844.298	15606
844.435	15603
844.571	15469
844.708	15591
844.844	15656
844.98	15622
845.117	15667
845.253	15431
845.389	15386
845.525	15500
845.661	15439
845.798	15249
845.934	15382
846.07	15188
846.206	15264
846.342	15359
846.478	15275
846.614	15043
846.75	14963
846.886	15005
847.022	15123
847.158	15074
847.294	15108
847.429	15157
847.565	14994
847.701	15169
847.837	14933
847.972	14758
848.108	14899
848.244	14887
848.379	14727
848.515	14651
848.65	14651
848.786	14712
848.921	14701
849.057	14716
849.192	14712
849.328	14724
849.463	14697
849.598	14625
849.734	14552
849.869	14537
850.004	14473
850.14	14461
850.275	14571
850.41	14423
850.545	14412
850.68	14431
850.815	14461
850.95	14431
851.085	14556
851.22	14556
851.355	14450
851.49	14370
851.625	14419
851.76	14480
851.895	14385
852.03	14332
852.165	14492
852.299	14583
852.434	14590
852.569	14507
852.703	14507
852.838	14473
852.973	14613
853.107	14606
853.242	14457
853.376	14282
853.511	14103
853.645	14317
853.78	14412
853.914	14366
854.048	14385
854.183	14343
854.317	14393
854.451	14488
854.585	14408
854.72	14301
854.854	14400
854.988	14347
855.122	14263
855.256	14142
855.39	14210
855.524	14427
855.658	14366
855.792	14267
855.926	14412
856.06	14419
856.194	14404
856.327	14377
856.461	14324
856.595	14305
856.729	14385
856.862	14488
856.996	14385
857.13	14427
857.263	14442
857.397	14465
857.53	14393
857.664	14442
857.797	14476
857.931	14568
858.064	14381
858.197	14404
858.331	14320
858.464	14305
858.597	14214
858.731	14328
858.864	14301
858.997	14347
859.13	14400
859.263	14469
859.396	14400
859.529	14256
859.662	14225
859.795	14294
859.928	14427
860.061	14385
860.194	14537
860.327	14355
860.46	14320
860.592	14431
860.725	14503
860.858	14450
860.99	14347
861.123	14271
861.256	14237
861.388	14381
861.521	14906
861.653	14309
861.786	14180
861.918	14244
862.05	14237
862.183	14324
862.315	14263
862.447	14328
862.58	14358
862.712	14020
862.844	14138
862.976	14263
863.108	14218
863.24	14503
863.372	14020
863.504	14134
863.636	14020
863.768	14259
863.9	14126
864.032	14012
864.164	14123
864.296	14145
864.428	14336
864.559	14237
864.691	14176
864.823	14286
864.954	14111
865.086	14153
865.217	14176
865.349	14001
865.48	14031
865.612	14138
865.743	14180
865.875	14161
866.006	14088
866.137	13986
866.269	14069
866.4	14054
866.531	14058
866.662	14062
866.793	14149
866.924	14153
867.055	14149
867.186	14100
867.317	14043
867.448	13959
867.579	14111
867.71	14039
867.841	14043
867.972	14077
868.103	14012
868.233	14115
868.364	14142
868.495	14138
868.625	14294
868.756	14385
868.886	14343
869.017	14362
869.147	14450
869.278	14389
869.408	14252
869.539	14351
869.669	14480
869.799	14438
869.929	14473
870.06	14438
870.19	14735
870.32	14727
870.45	14708
870.58	14777
870.71	14895
870.84	14834
870.97	14697
871.1	14724
871.23	14941
871.36	14864
871.489	14826
871.619	14864
871.749	14868
871.879	14895
872.008	15032
872.138	14952
872.267	14910
872.397	14743
872.526	14811
872.656	14758
872.785	14819
872.915	14979
873.044	15077
873.173	15020
873.303	14986
873.432	15093
873.561	15100
873.69	15047
873.819	14956
873.948	15043
874.077	14982
874.206	14956
874.335	15009
874.464	15108
874.593	15222
874.722	15211
874.851	15310
874.979	15237
875.108	15279
875.237	15222
875.365	15192
875.494	15241
875.623	15363
875.751	15218
875.88	15412
876.008	15500
876.136	15420
876.265	15720
876.393	15907
876.521	15770
876.65	15831
876.778	15732
876.906	15614
877.034	15599
877.162	15732
877.29	15549
877.418	15667
877.546	15675
877.674	15720
877.802	15705
877.93	15739
878.058	15595
878.185	15572
878.313	15713
878.441	15618
878.568	15526
878.696	15641
878.824	15736
878.951	15819
879.079	15823
879.206	16082
879.333	16002
879.461	15762
879.588	15911
879.715	15930
879.842	16013
879.97	15835
880.097	15572
880.224	15553
880.351	15690
880.478	15515
880.605	15663
880.732	15530
880.859	15793
880.986	15610
881.112	15576
881.239	15496
881.366	15374
881.493	15241
881.619	15260
881.746	15287
881.872	15199
881.999	15199
882.125	15184
882.252	15268
882.378	15275
882.505	15378
882.631	15146
882.757	15062
882.883	15123
883.01	15108
883.136	14986
883.262	14963
883.388	14910
883.514	14952
883.64	14979
883.766	14986
883.892	14861
884.018	14819
884.143	15051
884.269	15176
884.395	14804
884.52	14739
884.646	14667
884.772	14746
884.897	14594
885.023	14811
885.148	14880
885.274	15024
885.399	14880
885.524	14746
885.65	14762
885.775	14769
885.9	14705
886.025	14849
886.15	14781
886.275	14739
886.4	14625
886.525	14727
886.65	14693
886.775	14648
886.9	14872
887.025	14895
887.149	14796
887.274	14598
887.399	14537
887.523	14659
887.648	14507
887.773	14507
887.897	14655
888.021	14651
888.146	14526
888.27	14731
888.395	14564
888.519	14530
888.643	14640
888.767	14530
888.891	14492
889.015	14347
889.139	14461
889.263	14396
889.387	14533
889.511	14590
889.635	14552
889.759	14450
889.883	14408
890.006	14412
890.13	14583
890.254	14370
890.377	14446
890.501	14267
890.624	14164
890.748	14317
890.871	14149
890.995	14035
891.118	14039
891.241	14142
891.364	14138
891.488	14244
891.611	14164
891.734	14164
891.857	14157
891.98	14240
892.103	14244
892.226	14107
892.349	14096
892.471	13963
892.594	14157
892.717	14130
892.839	14084
892.962	14191
893.085	14145
893.207	14153
893.33	13989
893.452	14092
893.575	14214
893.697	14195
893.819	14320
893.941	14259
894.064	14252
894.186	14119
894.308	14046
894.43	14290
894.552	14336
894.674	14309
894.796	14115
894.918	14111
895.04	14172
895.161	14328
895.283	14324
895.405	14180
895.526	14161
895.648	14191
895.769	14286
895.891	14252
896.012	14358
896.134	14313
896.255	14305
896.376	14309
896.498	14324
896.619	14408
896.74	14404
896.861	14381
896.982	14689
897.103	14826
897.224	14621
897.345	14533
897.466	14568
897.587	14473
897.708	14636
897.828	14613
897.949	14469
898.07	14412
898.19	14610
898.311	14788
898.431	14560
898.552	14613
898.672	14651
898.792	14663
898.913	14632
899.033	14579
899.153	14438
899.273	14385
899.393	14571
899.513	14495
899.633	14541
899.753	14594
899.873	14480
899.993	14663
900.113	14575
900.232	14526
900.352	14461
900.472	14514
900.591	14271
900.711	14423
900.83	14339
900.95	14366
901.069	14492
901.189	14233
901.308	14126
901.427	14016
901.546	14020
901.665	14138
901.784	14050
901.904	13963
902.023	13860
902.141	13700
902.26	13689
902.379	13734
902.498	13525
902.617	13540
902.735	13731
902.854	13544
902.973	13525
903.091	13263
903.21	13392
903.328	13350
903.446	13396
903.565	13183
903.683	13194
903.801	13225
903.919	13221
904.038	13168
904.156	12962
904.274	13122
904.392	12901
904.51	13008
904.627	12993
904.745	13034
904.863	13038
904.981	12798
905.098	12696
905.216	12696
905.334	12627
905.451	12707
905.569	12635
905.686	12779
905.803	12726
905.921	12521
906.038	12635
906.155	12528
906.272	12323
906.389	12365
906.506	12273
906.623	12315
906.74	12258
906.857	12148
906.974	12201
907.091	12350
907.208	12380
907.324	12334
907.441	12201
907.557	12167
907.674	12102
907.79	12019
907.907	11992
908.023	11996
908.139	12030
908.256	11984
908.372	11969
908.488	11969
908.604	11764
908.72	11794
908.836	11847
908.952	11707
909.068	11832
909.184	11840
909.3	11802
909.415	11847
909.531	11836
909.647	11581
909.762	11471
909.878	11482
909.993	11566
910.108	11509
910.224	11421
910.339	11581
910.454	11509
910.57	11440
910.685	11307
910.8	11596
910.915	11604
911.03	11509
911.145	11337
911.259	11239
911.374	11277
911.489	11246
911.604	11105
911.718	10991
911.833	10980
911.947	10869
912.062	10896
912.176	10999
912.291	11090
912.405	11041
912.519	11181
912.633	11231
912.748	11033
912.862	11090
912.976	10885
913.09	10740
913.204	10858
913.318	10881
913.431	10968
913.545	10957
913.659	10999
913.772	10881
913.886	10778
914	10702
914.113	10850
914.226	10831
914.34	10915
914.453	10691
914.566	10801
914.68	10706
914.793	10668
914.906	10569
915.019	10474
915.132	10447
915.245	10558
915.358	10584
915.47	10504
915.583	10493
915.696	10603
915.809	10702
915.921	10615
916.034	10527
916.146	10481
916.259	10470
916.371	10531
916.483	10573
916.595	10424
916.708	10424
916.82	10508
916.932	10398
917.044	10466
917.156	10462
917.268	10261
917.38	10325
917.491	10333
917.603	10405
917.715	10436
917.826	10447
917.938	10314
918.049	10185
918.161	10306
918.272	10470
918.384	10447
918.495	10341
918.606	10234
918.717	10105
918.828	10261
918.939	10230
919.05	10109
919.161	10192
919.272	10029
919.383	10109
919.494	10234
919.604	10432
919.715	10215
919.826	10158
919.936	10196
920.047	10356
920.157	10325
920.267	10390
920.378	10249
920.488	10204
920.598	10417
920.708	10641
920.818	10371
920.928	10413
921.038	10653
921.148	10607
921.258	10280
921.368	10219
921.477	10101
921.587	10006
921.697	9979
921.806	10135
921.916	9991
922.025	9831
922.134	9778
922.244	9728
922.353	9850
922.462	9713
922.571	9629
922.68	9485
922.789	9454
922.898	9526
923.007	9515
923.116	9610
923.224	9469
923.333	9511
923.442	9431
923.55	9363
923.659	9367
923.767	9458
923.876	9344
923.984	9389
924.092	9302
924.201	9393
924.309	9401
924.417	9370
924.525	9317
924.633	9355
924.741	10249
924.849	9081
924.956	9306
925.064	9188
925.172	9116
925.279	9051
925.387	9157
925.494	9100
925.602	9214
925.709	9180
925.816	9070
925.924	9138
926.031	9233
926.138	9127
926.245	9165
926.352	9108
926.459	9195
926.566	9161
926.673	9058
926.779	9047
926.886	8910
926.993	8914
927.099	8845
927.206	8857
927.312	8807
927.419	8910
927.525	8781
927.631	8891
927.737	8735
927.843	8754
927.95	8678
928.056	8720
928.162	8731
928.267	8804
928.373	9431
928.479	8834
928.585	8617
928.69	8758
928.796	8823
928.901	8648
929.007	8476
929.112	8720
929.218	8560
929.323	8621
929.428	8587
929.533	8712
929.638	8514
929.743	8579
929.848	8583
929.953	8579
930.058	8541
930.163	8362
930.267	8377
930.372	8473
930.477	8279
930.581	8590
930.685	8419
930.79	8351
930.894	8290
930.998	8332
931.103	8450
931.207	8142
931.311	8035
931.415	7951
931.519	7822
931.623	7727
