Data from test_V78500241_2893.txt Node
Date: Fri Mar 25 14:53:51 CST 2022
User: usil
Spectrometer: V785-0024
Trigger mode: 0
Integration Time (sec): 4.000000E-1
Scans to average: 1
Nonlinearity correction enabled: false
Boxcar width: 0
Storing dark spectrum: false
XAxis mode: Wavelengths
Number of Pixels in Spectrum: 1024
>>>>>Begin Spectral Data<<<<<
801.071	22154
801.214	22040
801.356	21686
801.499	21698
801.641	21416
801.783	21481
801.926	21576
802.068	21378
802.211	21393
802.353	21180
802.496	20998
802.638	21039
802.78	20971
802.923	20857
803.065	20800
803.208	20807
803.35	20746
803.492	20899
803.635	20857
803.777	20819
803.919	20842
804.061	21093
804.204	20941
804.346	20750
804.488	20678
804.63	20880
804.773	20667
804.915	20701
805.057	20796
805.199	20663
805.341	20625
805.483	20804
805.626	20689
805.768	20678
805.91	20708
806.052	20773
806.194	20629
806.336	20819
806.478	20716
806.62	20708
806.762	20788
806.904	20994
807.046	21135
807.188	20948
807.33	21108
807.472	21028
807.614	20960
807.756	20937
807.898	20948
808.04	20731
808.182	20861
808.324	20914
808.465	20868
808.607	21009
808.749	21032
808.891	21275
809.033	21226
809.174	21100
809.316	21100
809.458	21104
809.6	20990
809.741	21093
809.883	21157
810.025	21214
810.166	21332
810.308	21222
810.45	21176
810.591	21131
810.733	20937
810.875	20883
811.016	20701
811.158	20629
811.299	20868
811.441	21096
811.582	21005
811.724	20781
811.865	20815
812.007	20811
812.148	20811
812.29	20872
812.431	21009
812.573	21127
812.714	21283
812.855	21287
812.997	21485
813.138	21591
813.279	21420
813.421	21355
813.562	21233
813.703	21017
813.845	21020
813.986	20743
814.127	20552
814.268	20541
814.41	20415
814.551	20339
814.692	20537
814.833	20415
814.974	20355
815.115	20393
815.256	20248
815.397	20183
815.539	20199
815.68	20294
815.821	20081
815.962	20115
816.103	20221
816.244	20050
816.385	19898
816.526	19864
816.666	19677
816.807	19502
816.948	19582
817.089	19597
817.23	19620
817.371	19453
817.512	19499
817.653	19510
817.793	19476
817.934	19403
818.075	19525
818.216	19495
818.356	19487
818.497	19441
818.638	19095
818.778	19099
818.919	19232
819.06	19190
819.2	19327
819.341	19282
819.481	19464
819.622	19472
819.762	19712
819.903	19742
820.043	19521
820.184	19582
820.324	19483
820.465	19514
820.605	19407
820.746	19472
820.886	19339
821.026	19403
821.167	19384
821.307	19601
821.447	19460
821.588	19327
821.728	19171
821.868	19057
822.008	18814
822.149	18905
822.289	18867
822.429	18635
822.569	18650
822.709	18532
822.849	18445
822.99	18433
823.13	18388
823.27	18334
823.41	18209
823.55	18247
823.69	18076
823.83	18220
823.97	18133
824.11	17954
824.25	17920
824.389	17923
824.529	18019
824.669	17939
824.809	18079
824.949	17927
825.089	18079
825.228	17897
825.368	17748
825.508	17714
825.648	17748
825.787	17836
825.927	17805
826.067	17756
826.206	17634
826.346	17687
826.485	17771
826.625	17726
826.765	17809
826.904	17775
827.044	17520
827.183	17585
827.323	17436
827.462	17356
827.601	17532
827.741	17478
827.88	17520
828.02	17330
828.159	17379
828.298	17463
828.437	17554
828.577	17330
828.716	17539
828.855	17303
828.994	17094
829.134	17117
829.273	17200
829.412	17094
829.551	17140
829.69	17178
829.829	17124
829.968	17273
830.107	17216
830.246	17178
830.385	17075
830.524	17166
830.663	16980
830.802	16919
830.941	16774
831.08	16675
831.219	16850
831.357	16809
831.496	17003
831.635	16771
831.774	16656
831.913	16717
832.051	16637
832.19	16569
832.329	16565
832.467	16561
832.606	16474
832.744	16443
832.883	16489
833.022	16455
833.16	16485
833.299	16493
833.437	16565
833.576	16523
833.714	16584
833.852	16478
833.991	16542
834.129	16634
834.267	16596
834.406	16580
834.544	16508
834.682	16565
834.821	16500
834.959	16774
835.097	16470
835.235	16694
835.373	16573
835.511	16478
835.65	16417
835.788	16485
835.926	16329
836.064	16188
836.202	16314
836.34	16478
836.478	16462
836.615	16428
836.753	16466
836.891	16531
837.029	16523
837.167	16390
837.305	16424
837.443	16276
837.58	16246
837.718	16432
837.856	16363
837.993	16272
838.131	16265
838.269	16249
838.406	16226
838.544	16253
838.681	16059
838.819	16021
838.956	15880
839.094	15884
839.231	15846
839.369	16002
839.506	16303
839.643	16131
839.781	15865
839.918	15793
840.055	15888
840.193	15831
840.33	15751
840.467	15842
840.604	15816
840.742	16063
840.879	15705
841.016	15857
841.153	15823
841.29	15911
841.427	15945
841.564	15694
841.701	15819
841.838	15819
841.975	15762
842.112	15736
842.249	15663
842.385	15515
842.522	15873
842.659	15698
842.796	15530
842.933	15584
843.069	15500
843.206	15622
843.343	15743
843.479	15633
843.616	15648
843.752	15405
843.889	15325
844.025	15576
844.162	15424
844.298	15557
844.435	15416
844.571	15291
844.708	15439
844.844	15500
844.98	15584
845.117	15507
845.253	15313
845.389	15252
845.525	15283
845.661	15336
845.798	15150
845.934	15260
846.07	15154
846.206	15245
846.342	15313
846.478	15226
846.614	15032
846.75	14899
846.886	14868
847.022	15051
847.158	14982
847.294	14967
847.429	15043
847.565	14864
847.701	15233
847.837	14686
847.972	14773
848.108	14887
848.244	14868
848.379	14613
848.515	14648
848.65	14541
848.786	14560
848.921	14613
849.057	14655
849.192	14701
849.328	14629
849.463	14549
849.598	14522
849.734	14461
849.869	14415
850.004	14358
850.14	14415
850.275	14324
850.41	14317
850.545	14313
850.68	14244
850.815	14400
850.95	14309
851.085	14457
851.22	14461
851.355	14351
851.49	14381
851.625	14282
851.76	14294
851.895	14218
852.03	14172
852.165	14343
852.299	14324
852.434	14450
852.569	14400
852.703	14271
852.838	14377
852.973	14393
853.107	14450
853.242	14305
853.376	14157
853.511	14024
853.645	14130
853.78	14271
853.914	14103
854.048	14180
854.183	14134
854.317	14244
854.451	14457
854.585	14134
854.72	14180
854.854	14263
854.988	14164
855.122	14081
855.256	14134
855.39	14176
855.524	14244
855.658	14168
855.792	14252
855.926	14271
856.06	14347
856.194	14328
856.327	14202
856.461	14161
856.595	14248
856.729	14237
856.862	14389
856.996	14157
857.13	14290
857.263	14324
857.397	14278
857.53	14237
857.664	14252
857.797	14377
857.931	14317
858.064	14355
858.197	14381
858.331	14339
858.464	14187
858.597	14168
858.731	14202
858.864	14294
858.997	14218
859.13	14237
859.263	14263
859.396	14252
859.529	14305
859.662	14210
859.795	14221
859.928	14336
860.061	14415
860.194	14404
860.327	14252
860.46	14202
860.592	14305
860.725	14275
860.858	14320
860.99	14210
861.123	14176
861.256	14157
861.388	14313
861.521	14849
861.653	14092
861.786	14119
861.918	14039
862.05	14149
862.183	14149
862.315	14164
862.447	14218
862.58	14134
862.712	13932
862.844	13970
862.976	14126
863.108	14069
863.24	14507
863.372	13974
863.504	14005
863.636	14016
863.768	14001
863.9	14062
864.032	13978
864.164	13974
864.296	13970
864.428	14157
864.559	14103
864.691	14153
864.823	14054
864.954	14024
865.086	13963
865.217	13947
865.349	13913
865.48	13925
865.612	14031
865.743	14275
865.875	14001
866.006	13944
866.137	14065
866.269	14058
866.4	13944
866.531	14020
866.662	13913
866.793	13921
866.924	13898
867.055	14005
867.186	13887
867.317	13986
867.448	13921
867.579	14012
867.71	13959
867.841	13997
867.972	13989
868.103	13974
868.233	14123
868.364	14046
868.495	14005
868.625	14164
868.756	14290
868.886	14187
869.017	14374
869.147	14442
869.278	14415
869.408	14237
869.539	14256
869.669	14343
869.799	14317
869.929	14385
870.06	14339
870.19	14575
870.32	14564
870.45	14537
870.58	14655
870.71	14727
870.84	14743
870.97	14610
871.1	14724
871.23	14842
871.36	14910
871.489	14773
871.619	14830
871.749	14773
871.879	14887
872.008	14971
872.138	14731
872.267	14887
872.397	14758
872.526	14636
872.656	14674
872.785	14682
872.915	14838
873.044	14937
873.173	14861
873.303	14826
873.432	14948
873.561	14944
873.69	15043
873.819	14872
873.948	14971
874.077	14861
874.206	14868
874.335	14914
874.464	15081
874.593	15131
874.722	15188
874.851	15279
874.979	15272
875.108	15294
875.237	15211
875.365	15184
875.494	15157
875.623	15302
875.751	15241
875.88	15294
876.008	15355
876.136	15408
876.265	15591
876.393	15819
876.521	15804
876.65	15701
876.778	15614
876.906	15629
877.034	15534
877.162	15591
877.29	15523
877.418	15584
877.546	15663
877.674	15671
877.802	15641
877.93	15572
878.058	15572
878.185	15595
878.313	15637
878.441	15720
878.568	15507
878.696	15591
878.824	15644
878.951	15709
879.079	15827
879.206	16010
879.333	15766
879.461	15637
879.588	15701
879.715	15804
879.842	15899
879.97	15641
880.097	15428
880.224	15416
880.351	15587
880.478	15523
880.605	15466
880.732	15393
880.859	15679
880.986	15530
881.112	15458
881.239	15420
881.366	15275
881.493	15207
881.619	15097
881.746	15169
881.872	15188
881.999	15112
882.125	15066
882.252	15157
882.378	15233
882.505	15325
882.631	15085
882.757	14990
882.883	15001
883.01	15005
883.136	14830
883.262	14705
883.388	14762
883.514	14982
883.64	14982
883.766	14918
883.892	14758
884.018	14792
884.143	14925
884.269	15066
884.395	14686
884.52	14621
884.646	14705
884.772	14571
884.897	14594
885.023	14663
885.148	14792
885.274	14823
885.399	14674
885.524	14613
885.65	14701
885.775	14644
885.9	14712
886.025	14777
886.15	14682
886.275	14663
886.4	14552
886.525	14587
886.65	14488
886.775	14549
886.9	14781
887.025	14853
887.149	14693
887.274	14488
887.399	14442
887.523	14427
887.648	14328
887.773	14370
887.897	14473
888.021	14556
888.146	14431
888.27	14590
888.395	14594
888.519	14511
888.643	14556
888.767	14571
888.891	14431
889.015	14336
889.139	14385
889.263	14290
889.387	14465
889.511	14541
889.635	14473
889.759	14282
889.883	14389
890.006	14381
890.13	14427
890.254	14237
890.377	14347
890.501	14134
890.624	14119
890.748	14202
890.871	14046
890.995	13963
891.118	13989
891.241	13974
891.364	14054
891.488	14157
891.611	14077
891.734	14058
891.857	14164
891.98	14084
892.103	14096
892.226	13989
892.349	14058
892.471	13947
892.594	14012
892.717	14039
892.839	14001
892.962	13982
893.085	14168
893.207	14008
893.33	13841
893.452	13906
893.575	14164
893.697	14016
893.819	14210
893.941	14290
894.064	14157
894.186	14054
894.308	13906
894.43	14259
894.552	14278
894.674	14149
894.796	14100
894.918	14103
895.04	13997
895.161	14164
895.283	14161
895.405	14134
895.526	14176
895.648	14199
895.769	14130
895.891	14164
896.012	14263
896.134	14195
896.255	14286
896.376	14183
896.498	14142
896.619	14240
896.74	14202
896.861	14282
896.982	14526
897.103	14697
897.224	14602
897.345	14438
897.466	14381
897.587	14465
897.708	14564
897.828	14526
897.949	14438
898.07	14309
898.19	14434
898.311	14629
898.431	14518
898.552	14552
898.672	14606
898.792	14754
898.913	14617
899.033	14488
899.153	14518
899.273	14271
899.393	14492
899.513	14465
899.633	14377
899.753	14457
899.873	14381
899.993	14480
900.113	14434
900.232	14454
900.352	14499
900.472	14400
900.591	14252
900.711	14351
900.83	14183
900.95	14385
901.069	14476
901.189	14252
901.308	14077
901.427	13887
901.546	14043
901.665	13925
901.784	13993
901.904	13807
902.023	13742
902.141	13674
902.26	13563
902.379	13727
902.498	13548
902.617	13453
902.735	13518
902.854	13559
902.973	13468
903.091	13289
903.21	13274
903.328	13236
903.446	13206
903.565	13179
903.683	13183
903.801	12993
903.919	13069
904.038	13122
904.156	12905
904.274	12924
904.392	12943
904.51	12890
904.627	12871
904.745	12951
904.863	12996
904.981	12726
905.098	12692
905.216	12597
905.334	12719
905.451	12608
905.569	12559
905.686	12662
905.803	12532
905.921	12494
906.038	12620
906.155	12426
906.272	12311
906.389	12357
906.506	12228
906.623	12152
906.74	12110
906.857	12003
906.974	12125
907.091	12304
907.208	12346
907.324	12235
907.441	12121
907.557	12026
907.674	11935
907.79	11939
907.907	11923
908.023	11980
908.139	11927
908.256	11836
908.372	11786
908.488	11931
908.604	11783
908.72	11832
908.836	11680
908.952	11699
909.068	11703
909.184	11775
909.3	11733
909.415	11764
909.531	11733
909.647	11467
909.762	11497
909.878	11425
909.993	11501
910.108	11474
910.224	11452
910.339	11490
910.454	11376
910.57	11288
910.685	11227
910.8	11589
910.915	11524
911.03	11360
911.145	11223
911.259	11208
911.374	11212
911.489	11121
911.604	11075
911.718	10961
911.833	10835
911.947	10831
912.062	10736
912.176	11003
912.291	10999
912.405	10961
912.519	11170
912.633	11098
912.748	11067
912.862	11014
912.976	10873
913.09	10736
913.204	10744
913.318	10835
913.431	10938
913.545	10835
913.659	10961
913.772	10793
913.886	10736
914	10752
914.113	10755
914.226	10812
914.34	10771
914.453	10630
914.566	10725
914.68	10596
914.793	10622
914.906	10489
915.019	10413
915.132	10348
915.245	10489
915.358	10459
915.47	10489
915.583	10489
915.696	10459
915.809	10626
915.921	10603
916.034	10409
916.146	10363
916.259	10405
916.371	10508
916.483	10402
916.595	10360
916.708	10398
916.82	10310
916.932	10382
917.044	10314
917.156	10367
917.268	10333
917.38	10348
917.491	10204
917.603	10280
917.715	10447
917.826	10398
917.938	10234
918.049	10207
918.161	10284
918.272	10424
918.384	10436
918.495	10348
918.606	10158
918.717	10086
918.828	10139
918.939	10124
919.05	10120
919.161	10223
919.272	9960
919.383	10055
919.494	10207
919.604	10360
919.715	10219
919.826	10101
919.936	10124
920.047	10265
920.157	10128
920.267	10382
920.378	10227
920.488	10074
920.598	10363
920.708	10500
920.818	10394
920.928	10363
921.038	10531
921.148	10459
921.258	10234
921.368	10227
921.477	10078
921.587	10109
921.697	9937
921.806	10055
921.916	9835
922.025	9770
922.134	9755
922.244	9736
922.353	9747
922.462	9538
922.571	9587
922.68	9420
922.789	9431
922.898	9450
923.007	9351
923.116	9469
923.224	9428
923.333	9473
923.442	9340
923.55	9325
923.659	9351
923.767	9367
923.876	9226
923.984	9359
924.092	9226
924.201	9249
924.309	9351
924.417	9291
924.525	9195
924.633	9264
924.741	10249
924.849	9058
924.956	9272
925.064	9093
925.172	8994
925.279	8971
925.387	9203
925.494	9043
925.602	9230
925.709	9127
925.816	9001
925.924	9028
926.031	9180
926.138	9074
926.245	9116
926.352	9055
926.459	9097
926.566	9176
926.673	9009
926.779	8899
926.886	8902
926.993	8849
927.099	8838
927.206	8724
927.312	8815
927.419	8857
927.525	8948
927.631	8887
927.737	8811
927.843	8689
927.95	8625
928.056	8617
928.162	8648
928.267	8689
928.373	9355
928.479	8815
928.585	8636
928.69	8724
928.796	8766
928.901	8689
929.007	8415
929.112	8659
929.218	8659
929.323	8549
929.428	8461
929.533	8583
929.638	8484
929.743	8541
929.848	8568
929.953	8556
930.058	8438
930.163	8248
930.267	8366
930.372	8400
930.477	8294
930.581	8606
930.685	8400
930.79	8233
930.894	8195
930.998	8199
931.103	8347
931.207	8058
931.311	7997
931.415	7890
931.519	7738
931.623	7753
