Data from test_V78500241_1365.txt Node
Date: Fri Mar 25 14:43:13 CST 2022
User: usil
Spectrometer: V785-0024
Trigger mode: 0
Integration Time (sec): 4.000000E-1
Scans to average: 1
Nonlinearity correction enabled: false
Boxcar width: 0
Storing dark spectrum: false
XAxis mode: Wavelengths
Number of Pixels in Spectrum: 1024
>>>>>Begin Spectral Data<<<<<
801.071	22466
801.214	22363
801.356	22051
801.499	21945
801.641	21876
801.783	21808
801.926	21743
802.068	21717
802.211	21641
802.353	21656
802.496	21351
802.638	21291
802.78	21306
802.923	21188
803.065	21058
803.208	21214
803.35	21138
803.492	21302
803.635	21268
803.777	21089
803.919	21203
804.061	21477
804.204	21237
804.346	21093
804.488	20956
804.63	21188
804.773	20902
804.915	21066
805.057	21176
805.199	21013
805.341	21096
805.483	21199
805.626	21165
805.768	21070
805.91	21066
806.052	21116
806.194	20929
806.336	21260
806.478	21066
806.62	21157
806.762	21085
806.904	21393
807.046	21378
807.188	21458
807.33	21485
807.472	21439
807.614	21405
807.756	21393
807.898	21313
808.04	21424
808.182	21355
808.324	21268
808.465	21397
808.607	21583
808.749	21622
808.891	21800
809.033	21876
809.174	21732
809.316	21625
809.458	21648
809.6	21561
809.741	21720
809.883	21675
810.025	21739
810.166	21797
810.308	21682
810.45	21625
810.591	21469
810.733	21405
810.875	21272
811.016	21180
811.158	21138
811.299	21237
811.441	21348
811.582	21443
811.724	21264
811.865	21268
812.007	21260
812.148	21055
812.29	21218
812.431	21458
812.573	21485
812.714	21648
812.855	21728
812.997	21831
813.138	21956
813.279	21892
813.421	21629
813.562	21671
813.703	21496
813.845	21450
813.986	21161
814.127	20933
814.268	20872
814.41	20895
814.551	20640
814.692	20914
814.833	20693
814.974	20659
815.115	20785
815.256	20625
815.397	20541
815.539	20686
815.68	20495
815.821	20473
815.962	20552
816.103	20583
816.244	20301
816.385	20275
816.526	20328
816.666	20069
816.807	19791
816.948	19940
817.089	20069
817.23	20001
817.371	19944
817.512	20046
817.653	19932
817.793	19978
817.934	19982
818.075	19997
818.216	19921
818.356	19932
818.497	19723
818.638	19548
818.778	19594
818.919	19620
819.06	19693
819.2	19803
819.341	19833
819.481	19868
819.622	19841
819.762	20062
819.903	20043
820.043	19967
820.184	19936
820.324	19734
820.465	19849
820.605	19959
820.746	19902
820.886	19830
821.026	19913
821.167	19879
821.307	19963
821.447	19879
821.588	19864
821.728	19582
821.868	19491
822.008	19403
822.149	19365
822.289	19137
822.429	19099
822.569	19057
822.709	19038
822.849	18707
822.99	18810
823.13	18909
823.27	18779
823.41	18608
823.55	18635
823.69	18654
823.83	18566
823.97	18547
824.11	18327
824.25	18285
824.389	18429
824.529	18388
824.669	18395
824.809	18460
824.949	18471
825.089	18426
825.228	18376
825.368	18327
825.508	18258
825.648	18167
825.787	18171
825.927	18281
826.067	18205
826.206	18167
826.346	18163
826.485	18186
826.625	18091
826.765	18277
826.904	18209
827.044	17889
827.183	17954
827.323	17904
827.462	17984
827.601	17836
827.741	17950
827.88	17893
828.02	17699
828.159	17954
828.298	17939
828.437	17893
828.577	17798
828.716	17950
828.855	17904
828.994	17554
829.134	17638
829.273	17573
829.412	17714
829.551	17611
829.69	17596
829.829	17604
829.968	17756
830.107	17589
830.246	17596
830.385	17589
830.524	17570
830.663	17395
830.802	17364
830.941	17216
831.08	17200
831.219	17284
831.357	17315
831.496	17459
831.635	17315
831.774	17140
831.913	17086
832.051	16968
832.19	17079
832.329	17094
832.467	16889
832.606	17006
832.744	16858
832.883	17010
833.022	16881
833.16	16999
833.299	16938
833.437	16984
833.576	16972
833.714	16984
833.852	17056
833.991	16976
834.129	17162
834.267	17113
834.406	16934
834.544	16915
834.682	16946
834.821	16991
834.959	17132
835.097	16972
835.235	17060
835.373	17018
835.511	17056
835.65	16771
835.788	16843
835.926	16793
836.064	16702
836.202	16744
836.34	16881
836.478	17010
836.615	16786
836.753	16831
836.891	16915
837.029	17014
837.167	16843
837.305	16740
837.443	16767
837.58	16641
837.718	16816
837.856	16774
837.993	16626
838.131	16729
838.269	16683
838.406	16679
838.544	16558
838.681	16489
838.819	16466
838.956	16268
839.094	16211
839.231	16299
839.369	16462
839.506	16736
839.643	16546
839.781	16322
839.918	16284
840.055	16352
840.193	16337
840.33	16238
840.467	16238
840.604	16295
840.742	16527
840.879	16120
841.016	16249
841.153	16188
841.29	16348
841.427	16276
841.564	16398
841.701	16272
841.838	16242
841.975	16147
842.112	16211
842.249	16116
842.385	16067
842.522	16287
842.659	16032
842.796	15960
842.933	16048
843.069	16006
843.206	15972
843.343	16116
843.479	16044
843.616	16063
843.752	15884
843.889	15743
844.025	16021
844.162	15831
844.298	15899
844.435	15797
844.571	15827
844.708	15968
844.844	16036
844.98	16017
845.117	15994
845.253	15903
845.389	15804
845.525	15838
845.661	15888
845.798	15812
845.934	16010
846.07	15903
846.206	15956
846.342	16029
846.478	15652
846.614	15542
846.75	15530
846.886	15348
847.022	15447
847.158	15424
847.294	15473
847.429	15428
847.565	15477
847.701	15705
847.837	15146
847.972	15203
848.108	15146
848.244	15218
848.379	15055
848.515	15074
848.65	14963
848.786	14982
848.921	15051
849.057	15036
849.192	15081
849.328	15024
849.463	15089
849.598	14960
849.734	14876
849.869	14819
850.004	14796
850.14	14876
850.275	14807
850.41	14708
850.545	14823
850.68	14758
850.815	14891
850.95	14796
851.085	14887
851.22	14883
851.355	14823
851.49	14758
851.625	14754
851.76	14705
851.895	14644
852.03	14689
852.165	14727
852.299	14754
852.434	14785
852.569	14785
852.703	14845
852.838	14906
852.973	14982
853.107	14944
853.242	14769
853.376	14659
853.511	14473
853.645	14587
853.78	14773
853.914	14754
854.048	14648
854.183	14606
854.317	14659
854.451	14758
854.585	14651
854.72	14640
854.854	14636
854.988	14549
855.122	14716
855.256	14492
855.39	14674
855.524	14648
855.658	14674
855.792	14613
855.926	14674
856.06	14632
856.194	14724
856.327	14659
856.461	14629
856.595	14495
856.729	14583
856.862	14769
856.996	14701
857.13	14693
857.263	14842
857.397	14762
857.53	14579
857.664	14708
857.797	14811
857.931	14746
858.064	14712
858.197	14731
858.331	14636
858.464	14724
858.597	14598
858.731	14629
858.864	14701
858.997	14571
859.13	14621
859.263	14610
859.396	14625
859.529	14629
859.662	14659
859.795	14530
859.928	14617
860.061	14777
860.194	14830
860.327	14625
860.46	14617
860.592	14750
860.725	14727
860.858	14712
860.99	14617
861.123	14476
861.256	14499
861.388	14632
861.521	15344
861.653	14541
861.786	14465
861.918	14629
862.05	14507
862.183	14560
862.315	14625
862.447	14621
862.58	14579
862.712	14389
862.844	14347
862.976	14465
863.108	14465
863.24	14762
863.372	14347
863.504	14355
863.636	14374
863.768	14400
863.9	14492
864.032	14324
864.164	14320
864.296	14480
864.428	14442
864.559	14511
864.691	14457
864.823	14465
864.954	14526
865.086	14423
865.217	14355
865.349	14366
865.48	14446
865.612	14457
865.743	14587
865.875	14408
866.006	14358
866.137	14343
866.269	14438
866.4	14419
866.531	14366
866.662	14233
866.793	14442
866.924	14324
867.055	14324
867.186	14454
867.317	14298
867.448	14221
867.579	14336
867.71	14305
867.841	14259
867.972	14476
868.103	14294
868.233	14423
868.364	14442
868.495	14499
868.625	14705
868.756	14655
868.886	14579
869.017	14613
869.147	14651
869.278	14777
869.408	14731
869.539	14655
869.669	14617
869.799	14731
869.929	14777
870.06	14731
870.19	14933
870.32	14929
870.45	14937
870.58	15066
870.71	15138
870.84	15116
870.97	14948
871.1	15135
871.23	15169
871.36	15180
871.489	15070
871.619	15108
871.749	15199
871.879	15264
872.008	15492
872.138	15226
872.267	15146
872.397	15043
872.526	15097
872.656	15020
872.785	15131
872.915	15260
873.044	15408
873.173	15291
873.303	15256
873.432	15340
873.561	15500
873.69	15382
873.819	15279
873.948	15420
874.077	15374
874.206	15279
874.335	15218
874.464	15542
874.593	15542
874.722	15545
874.851	15614
874.979	15625
875.108	15690
875.237	15568
875.365	15428
875.494	15572
875.623	15618
875.751	15633
875.88	15648
876.008	15736
876.136	15739
876.265	16067
876.393	16162
876.521	16105
876.65	16116
876.778	16090
876.906	15953
877.034	15899
877.162	15979
877.29	15968
877.418	16048
877.546	16002
877.674	16086
877.802	15994
877.93	15994
878.058	16013
878.185	15804
878.313	15979
878.441	16071
878.568	15842
878.696	15987
878.824	16048
878.951	16139
879.079	16246
879.206	16329
879.333	16306
879.461	16147
879.588	16314
879.715	16306
879.842	16436
879.97	16253
880.097	15911
880.224	15880
880.351	15937
880.478	15953
880.605	15873
880.732	15926
880.859	16181
880.986	15968
881.112	15915
881.239	15743
881.366	15633
881.493	15599
881.619	15500
881.746	15671
881.872	15557
881.999	15614
882.125	15485
882.252	15553
882.378	15526
882.505	15618
882.631	15561
882.757	15351
882.883	15454
883.01	15370
883.136	15306
883.262	15226
883.388	15108
883.514	15397
883.64	15507
883.766	15291
883.892	15211
884.018	15222
884.143	15355
884.269	15496
884.395	15199
884.52	15085
884.646	15097
884.772	14960
884.897	14967
885.023	15055
885.148	15154
885.274	15199
885.399	15142
885.524	15154
885.65	15001
885.775	15116
885.9	15032
886.025	15066
886.15	15116
886.275	15066
886.4	14921
886.525	15055
886.65	15100
886.775	15009
886.9	15207
887.025	15325
887.149	15043
887.274	14895
887.399	14830
887.523	14826
887.648	14819
887.773	14941
887.897	14967
888.021	14956
888.146	14838
888.27	14979
888.395	14929
888.519	14944
888.643	15005
888.767	14979
888.891	14804
889.015	14712
889.139	14739
889.263	14716
889.387	14800
889.511	14876
889.635	14845
889.759	14621
889.883	14727
890.006	14796
890.13	14990
890.254	14663
890.377	14735
890.501	14507
890.624	14583
890.748	14587
890.871	14560
890.995	14366
891.118	14351
891.241	14351
891.364	14320
891.488	14476
891.611	14370
891.734	14423
891.857	14492
891.98	14419
892.103	14511
892.226	14412
892.349	14320
892.471	14256
892.594	14206
892.717	14377
892.839	14282
892.962	14400
893.085	14396
893.207	14320
893.33	14233
893.452	14305
893.575	14454
893.697	14393
893.819	14530
893.941	14575
894.064	14537
894.186	14381
894.308	14408
894.43	14488
894.552	14594
894.674	14446
894.796	14362
894.918	14473
895.04	14408
895.161	14556
895.283	14457
895.405	14381
895.526	14412
895.648	14507
895.769	14568
895.891	14667
896.012	14613
896.134	14613
896.255	14484
896.376	14480
896.498	14530
896.619	14613
896.74	14575
896.861	14518
896.982	14864
897.103	15127
897.224	14857
897.345	14800
897.466	14788
897.587	14792
897.708	14994
897.828	14864
897.949	14716
898.07	14686
898.19	14724
898.311	15017
898.431	14849
898.552	15005
898.672	14906
898.792	14864
898.913	15001
899.033	14876
899.153	14781
899.273	14705
899.393	14811
899.513	14758
899.633	14754
899.753	14815
899.873	14697
899.993	14804
900.113	14781
900.232	14735
900.352	14705
900.472	14689
900.591	14556
900.711	14701
900.83	14522
900.95	14724
901.069	14750
901.189	14541
901.308	14343
901.427	14271
901.546	14301
901.665	14366
901.784	14313
901.904	14153
902.023	14092
902.141	14005
902.26	13860
902.379	13925
902.498	13753
902.617	13814
902.735	13868
902.854	13997
902.973	13765
903.091	13556
903.21	13624
903.328	13620
903.446	13468
903.565	13438
903.683	13297
903.801	13244
903.919	13388
904.038	13415
904.156	13228
904.274	13263
904.392	13247
904.51	13141
904.627	13114
904.745	13312
904.863	13304
904.981	13129
905.098	12890
905.216	12924
905.334	12928
905.451	13004
905.569	12844
905.686	12981
905.803	12981
905.921	12730
906.038	12821
906.155	12817
906.272	12589
906.389	12623
906.506	12521
906.623	12509
906.74	12506
906.857	12361
906.974	12460
907.091	12551
907.208	12608
907.324	12593
907.441	12380
907.557	12300
907.674	12171
907.79	12167
907.907	12182
908.023	12213
908.139	12235
908.256	12213
908.372	12213
908.488	12159
908.604	12011
908.72	12022
908.836	12136
908.952	11988
909.068	12011
909.184	12076
909.3	12030
909.415	12087
909.531	12049
909.647	11798
909.762	11741
909.878	11760
909.993	11802
910.108	11767
910.224	11760
910.339	11722
910.454	11589
910.57	11608
910.685	11619
910.8	11874
910.915	11752
911.03	11710
911.145	11516
911.259	11482
911.374	11532
911.489	11372
911.604	11406
911.718	11261
911.833	11204
911.947	11067
912.062	11113
912.176	11242
912.291	11197
912.405	11235
912.519	11448
912.633	11455
912.748	11376
912.862	11208
912.976	11121
913.09	10961
913.204	11033
913.318	11067
913.431	11147
913.545	11117
913.659	11242
913.772	11071
913.886	11006
914	10976
914.113	11029
914.226	11113
914.34	11098
914.453	10938
914.566	11010
914.68	11006
914.793	11010
914.906	10641
915.019	10721
915.132	10683
915.245	10748
915.358	10721
915.47	10771
915.583	10771
915.696	10771
915.809	10824
915.921	10889
916.034	10672
916.146	10759
916.259	10607
916.371	10759
916.483	10656
916.595	10668
916.708	10725
916.82	10634
916.932	10637
917.044	10660
917.156	10626
917.268	10500
917.38	10569
917.491	10440
917.603	10538
917.715	10592
917.826	10596
917.938	10504
918.049	10421
918.161	10596
918.272	10641
918.384	10649
918.495	10603
918.606	10421
918.717	10367
918.828	10421
918.939	10466
919.05	10360
919.161	10371
919.272	10215
919.383	10310
919.494	10531
919.604	10656
919.715	10470
919.826	10314
919.936	10398
920.047	10432
920.157	10394
920.267	10694
920.378	10455
920.488	10405
920.598	10656
920.708	10767
920.818	10637
920.928	10630
921.038	10843
921.148	10774
921.258	10451
921.368	10356
921.477	10318
921.587	10238
921.697	10242
921.806	10280
921.916	10147
922.025	10029
922.134	9968
922.244	9934
922.353	9987
922.462	9899
922.571	9808
922.68	9648
922.789	9682
922.898	9667
923.007	9591
923.116	9713
923.224	9641
923.333	9610
923.442	9507
923.55	9496
923.659	9561
923.767	9595
923.876	9428
923.984	9572
924.092	9488
924.201	9614
924.309	9496
924.417	9564
924.525	9466
924.633	9469
924.741	10375
924.849	9317
924.956	9561
925.064	9279
925.172	9173
925.279	9245
925.387	9363
925.494	9336
925.602	9408
925.709	9370
925.816	9203
925.924	9233
926.031	9443
926.138	9287
926.245	9313
926.352	9237
926.459	9348
926.566	9363
926.673	9291
926.779	9142
926.886	9237
926.993	9024
927.099	8948
927.206	8967
927.312	8944
927.419	9051
927.525	8975
927.631	9036
927.737	8914
927.843	8944
927.95	8766
928.056	8853
928.162	8963
928.267	8906
928.373	9606
928.479	8994
928.585	8792
928.69	8906
928.796	8902
928.901	8758
929.007	8697
929.112	8842
929.218	8712
929.323	8731
929.428	8678
929.533	8762
929.638	8655
929.743	8731
929.848	8796
929.953	8667
930.058	8556
930.163	8423
930.267	8457
930.372	8655
930.477	8545
930.581	8693
930.685	8518
930.79	8415
930.894	8571
930.998	8465
931.103	8636
931.207	8240
931.311	8111
931.415	8111
931.519	7898
931.623	7944
