Data from test_V78500241_1178.txt Node
Date: Fri Mar 25 14:41:55 CST 2022
User: usil
Spectrometer: V785-0024
Trigger mode: 0
Integration Time (sec): 4.000000E-1
Scans to average: 1
Nonlinearity correction enabled: false
Boxcar width: 0
Storing dark spectrum: false
XAxis mode: Wavelengths
Number of Pixels in Spectrum: 1024
>>>>>Begin Spectral Data<<<<<
801.071	22436
801.214	22379
801.356	22135
801.499	21998
801.641	21831
801.783	21793
801.926	21789
802.068	21709
802.211	21686
802.353	21568
802.496	21374
802.638	21378
802.78	21340
802.923	21367
803.065	21165
803.208	21142
803.35	21104
803.492	21249
803.635	21294
803.777	21161
803.919	21184
804.061	21424
804.204	21310
804.346	21108
804.488	21093
804.63	21081
804.773	20998
804.915	21058
805.057	21142
805.199	21127
805.341	21214
805.483	21252
805.626	21135
805.768	21058
805.91	21062
806.052	21043
806.194	21077
806.336	21264
806.478	21028
806.62	21157
806.762	21119
806.904	21279
807.046	21389
807.188	21485
807.33	21466
807.472	21408
807.614	21222
807.756	21458
807.898	21397
808.04	21226
808.182	21161
808.324	21340
808.465	21393
808.607	21492
808.749	21511
808.891	21709
809.033	21835
809.174	21743
809.316	21644
809.458	21564
809.6	21496
809.741	21526
809.883	21492
810.025	21720
810.166	21720
810.308	21675
810.45	21568
810.591	21591
810.733	21275
810.875	21211
811.016	21256
811.158	21226
811.299	21386
811.441	21473
811.582	21500
811.724	21291
811.865	21233
812.007	21222
812.148	21264
812.29	21408
812.431	21431
812.573	21564
812.714	21641
812.855	21797
812.997	21857
813.138	21880
813.279	21884
813.421	21838
813.562	21679
813.703	21542
813.845	21435
813.986	21256
814.127	20941
814.268	20777
814.41	20773
814.551	20750
814.692	20918
814.833	20819
814.974	20678
815.115	20941
815.256	20640
815.397	20785
815.539	20644
815.68	20556
815.821	20415
815.962	20583
816.103	20488
816.244	20366
816.385	20172
816.526	20248
816.666	20199
816.807	19928
816.948	20058
817.089	20149
817.23	20016
817.371	20012
817.512	19974
817.653	20046
817.793	19936
817.934	19932
818.075	20046
818.216	20100
818.356	19951
818.497	19841
818.638	19647
818.778	19712
818.919	19624
819.06	19708
819.2	19761
819.341	19719
819.481	19826
819.622	19997
819.762	20202
819.903	20172
820.043	19974
820.184	20039
820.324	19963
820.465	19932
820.605	20012
820.746	19833
820.886	19856
821.026	19906
821.167	19898
821.307	20058
821.447	19818
821.588	19750
821.728	19616
821.868	19537
822.008	19449
822.149	19350
822.289	19339
822.429	19141
822.569	19084
822.709	19084
822.849	18856
822.99	18840
823.13	18878
823.27	18852
823.41	18582
823.55	18749
823.69	18627
823.83	18715
823.97	18555
824.11	18494
824.25	18429
824.389	18319
824.529	18517
824.669	18433
824.809	18532
824.949	18551
825.089	18448
825.228	18410
825.368	18251
825.508	18262
825.648	18277
825.787	18213
825.927	18281
826.067	18194
826.206	18239
826.346	18133
826.485	18213
826.625	18197
826.765	18296
826.904	18292
827.044	18064
827.183	18026
827.323	17821
827.462	18041
827.601	17920
827.741	17882
827.88	17916
828.02	17714
828.159	17885
828.298	18019
828.437	17969
828.577	17942
828.716	18091
828.855	17920
828.994	17775
829.134	17611
829.273	17714
829.412	17615
829.551	17646
829.69	17741
829.829	17672
829.968	17824
830.107	17764
830.246	17691
830.385	17649
830.524	17581
830.663	17558
830.802	17334
830.941	17265
831.08	17197
831.219	17398
831.357	17364
831.496	17448
831.635	17326
831.774	17277
831.913	17174
832.051	17064
832.19	17105
832.329	17223
832.467	16980
832.606	17018
832.744	16968
832.883	16987
833.022	16953
833.16	16938
833.299	17105
833.437	17048
833.576	17056
833.714	17079
833.852	17140
833.991	17102
834.129	17121
834.267	17071
834.406	17014
834.544	17132
834.682	16965
834.821	17086
834.959	17235
835.097	17071
835.235	17216
835.373	17147
835.511	17071
835.65	16904
835.788	16858
835.926	16812
836.064	16782
836.202	16843
836.34	16930
836.478	16976
836.615	16953
836.753	17003
836.891	17121
837.029	17003
837.167	17003
837.305	16839
837.443	16869
837.58	16774
837.718	16877
837.856	16869
837.993	16835
838.131	16877
838.269	16668
838.406	16816
838.544	16649
838.681	16584
838.819	16504
838.956	16455
839.094	16390
839.231	16512
839.369	16516
839.506	16843
839.643	16607
839.781	16421
839.918	16371
840.055	16390
840.193	16436
840.33	16291
840.467	16356
840.604	16356
840.742	16637
840.879	16253
841.016	16257
841.153	16291
841.29	16580
841.427	16398
841.564	16455
841.701	16337
841.838	16405
841.975	16211
842.112	16306
842.249	16234
842.385	16128
842.522	16291
842.659	16185
842.796	16181
842.933	16158
843.069	16128
843.206	16150
843.343	16246
843.479	16158
843.616	16223
843.752	15987
843.889	16032
844.025	16143
844.162	15842
844.298	16044
844.435	15998
844.571	15899
844.708	16002
844.844	15994
844.98	16063
845.117	16044
845.253	15934
845.389	15835
845.525	16040
845.661	15903
845.798	15785
845.934	15865
846.07	15903
846.206	15964
846.342	16021
846.478	15930
846.614	15637
846.75	15504
846.886	15424
847.022	15572
847.158	15572
847.294	15500
847.429	15511
847.565	15454
847.701	15736
847.837	15279
847.972	15207
848.108	15344
848.244	15336
848.379	15100
848.515	15055
848.65	15066
848.786	15093
848.921	15138
849.057	15199
849.192	15249
849.328	15230
849.463	15184
849.598	15024
849.734	15001
849.869	15074
850.004	14876
850.14	14925
850.275	14807
850.41	14807
850.545	14853
850.68	14895
850.815	14773
850.95	14849
851.085	14944
851.22	14925
851.355	15005
851.49	14861
851.625	14876
851.76	14800
851.895	14754
852.03	14655
852.165	14979
852.299	14906
852.434	14963
852.569	14906
852.703	14941
852.838	14823
852.973	14952
853.107	15005
853.242	14891
853.376	14773
853.511	14610
853.645	14663
853.78	14872
853.914	14746
854.048	14727
854.183	14670
854.317	14701
854.451	14906
854.585	14621
854.72	14735
854.854	14800
854.988	14621
855.122	14815
855.256	14556
855.39	14674
855.524	14838
855.658	14887
855.792	14743
855.926	14815
856.06	14746
856.194	14804
856.327	14743
856.461	14697
856.595	14758
856.729	14701
856.862	14842
856.996	14800
857.13	14830
857.263	14815
857.397	14819
857.53	14762
857.664	14849
857.797	14785
857.931	14887
858.064	14720
858.197	14933
858.331	14800
858.464	14705
858.597	14682
858.731	14716
858.864	14743
858.997	14758
859.13	14800
859.263	14705
859.396	14826
859.529	14712
859.662	14758
859.795	14705
859.928	14697
860.061	14929
860.194	14944
860.327	14864
860.46	14765
860.592	14857
860.725	14941
860.858	14937
860.99	14910
861.123	14701
861.256	14750
861.388	14773
861.521	15374
861.653	14644
861.786	14556
861.918	14587
862.05	14697
862.183	14773
862.315	14765
862.447	14800
862.58	14670
862.712	14602
862.844	14629
862.976	14552
863.108	14522
863.24	14956
863.372	14514
863.504	14545
863.636	14583
863.768	14716
863.9	14583
864.032	14564
864.164	14488
864.296	14583
864.428	14629
864.559	14632
864.691	14583
864.823	14602
864.954	14552
865.086	14602
865.217	14530
865.349	14518
865.48	14579
865.612	14594
865.743	14754
865.875	14579
866.006	14522
866.137	14594
866.269	14511
866.4	14568
866.531	14476
866.662	14438
866.793	14465
866.924	14541
867.055	14556
867.186	14518
867.317	14537
867.448	14473
867.579	14434
867.71	14492
867.841	14377
867.972	14518
868.103	14473
868.233	14469
868.364	14492
868.495	14678
868.625	14750
868.756	14895
868.886	14621
869.017	14697
869.147	14876
869.278	14861
869.408	14914
869.539	14800
869.669	14857
869.799	14845
869.929	14937
870.06	14944
870.19	15123
870.32	15051
870.45	15081
870.58	15097
870.71	15302
870.84	15329
870.97	15249
871.1	15169
871.23	15332
871.36	15378
871.489	15302
871.619	15420
871.749	15393
871.879	15359
872.008	15386
872.138	15382
872.267	15420
872.397	15272
872.526	15165
872.656	15176
872.785	15165
872.915	15401
873.044	15435
873.173	15466
873.303	15477
873.432	15450
873.561	15473
873.69	15469
873.819	15424
873.948	15435
874.077	15431
874.206	15424
874.335	15473
874.464	15526
874.593	15770
874.722	15686
874.851	15797
874.979	15755
875.108	15842
875.237	15705
875.365	15572
875.494	15675
875.623	15831
875.751	15739
875.88	15698
876.008	15892
876.136	15823
876.265	16124
876.393	16261
876.521	16223
876.65	16158
876.778	16097
876.906	16071
877.034	16181
877.162	16082
877.29	16093
877.418	15960
877.546	16185
877.674	16143
877.802	16093
877.93	16128
878.058	16078
878.185	16006
878.313	16230
878.441	16177
878.568	16017
878.696	16078
878.824	16204
878.951	16265
879.079	16352
879.206	16474
879.333	16371
879.461	16356
879.588	16238
879.715	16356
879.842	16451
879.97	16337
880.097	15979
880.224	15964
880.351	16093
880.478	15934
880.605	15964
880.732	15930
880.859	16242
880.986	16055
881.112	16025
881.239	15956
881.366	15850
881.493	15641
881.619	15667
881.746	15728
881.872	15694
881.999	15614
882.125	15595
882.252	15781
882.378	15762
882.505	15781
882.631	15629
882.757	15519
882.883	15553
883.01	15545
883.136	15378
883.262	15245
883.388	15443
883.514	15389
883.64	15477
883.766	15374
883.892	15313
884.018	15321
884.143	15443
884.269	15584
884.395	15275
884.52	15199
884.646	15214
884.772	15123
884.897	15055
885.023	15123
885.148	15287
885.274	15367
885.399	15351
885.524	15085
885.65	15142
885.775	15310
885.9	15226
886.025	15359
886.15	15287
886.275	15081
886.4	15074
886.525	15074
886.65	15028
886.775	15123
886.9	15279
887.025	15359
887.149	15199
887.274	14967
887.399	14921
887.523	15058
887.648	14937
887.773	14967
887.897	14994
888.021	15032
888.146	15028
888.27	15032
888.395	15093
888.519	15070
888.643	14990
888.767	15036
888.891	14872
889.015	14807
889.139	14944
889.263	14777
889.387	14979
889.511	14982
889.635	14960
889.759	14777
889.883	14849
890.006	14914
890.13	14929
890.254	14788
890.377	14826
890.501	14659
890.624	14651
890.748	14697
890.871	14579
890.995	14476
891.118	14507
891.241	14484
891.364	14533
891.488	14632
891.611	14598
891.734	14549
891.857	14560
891.98	14602
892.103	14674
892.226	14598
892.349	14541
892.471	14339
892.594	14465
892.717	14419
892.839	14454
892.962	14564
893.085	14514
893.207	14476
893.33	14457
893.452	14492
893.575	14488
893.697	14526
893.819	14682
893.941	14667
894.064	14670
894.186	14514
894.308	14492
894.43	14560
894.552	14701
894.674	14693
894.796	14454
894.918	14537
895.04	14514
895.161	14678
895.283	14583
895.405	14571
895.526	14583
895.648	14579
895.769	14621
895.891	14758
896.012	14826
896.134	14724
896.255	14720
896.376	14667
896.498	14651
896.619	14754
896.74	14682
896.861	14765
896.982	15032
897.103	15192
897.224	14986
897.345	14819
897.466	14910
897.587	14941
897.708	15001
897.828	14998
897.949	14948
898.07	14849
898.19	14876
898.311	15138
898.431	14921
898.552	14963
898.672	15074
898.792	15108
898.913	14998
899.033	14937
899.153	14891
899.273	14838
899.393	14952
899.513	14781
899.633	14849
899.753	14891
899.873	14845
899.993	14952
900.113	14769
900.232	14944
900.352	14621
900.472	14834
900.591	14697
900.711	14705
900.83	14686
900.95	14796
901.069	14899
901.189	14640
901.308	14476
901.427	14324
901.546	14415
901.665	14332
901.784	14412
901.904	14271
902.023	14100
902.141	13982
902.26	13906
902.379	13951
902.498	13932
902.617	13894
902.735	13967
902.854	13993
902.973	13811
903.091	13639
903.21	13605
903.328	13670
903.446	13571
903.565	13510
903.683	13548
903.801	13419
903.919	13472
904.038	13480
904.156	13392
904.274	13396
904.392	13263
904.51	13304
904.627	13339
904.745	13365
904.863	13346
904.981	13183
905.098	13046
905.216	13012
905.334	12989
905.451	13019
905.569	12993
905.686	13141
905.803	12977
905.921	12852
906.038	13053
906.155	12886
906.272	12738
906.389	12810
906.506	12662
906.623	12540
906.74	12525
906.857	12528
906.974	12536
907.091	12631
907.208	12711
907.324	12578
907.441	12517
907.557	12365
907.674	12258
907.79	12308
907.907	12243
908.023	12433
908.139	12391
908.256	12338
908.372	12289
908.488	12262
908.604	12114
908.72	11996
908.836	12182
908.952	12098
909.068	12068
909.184	12228
909.3	12098
909.415	12224
909.531	12045
909.647	11885
909.762	11745
909.878	11824
909.993	11901
910.108	11855
910.224	11885
910.339	11885
910.454	11726
910.57	11657
910.685	11634
910.8	11908
910.915	11889
911.03	11786
911.145	11581
911.259	11490
911.374	11551
911.489	11478
911.604	11417
911.718	11265
911.833	11341
911.947	11273
912.062	11239
912.176	11239
912.291	11277
912.405	11334
912.519	11482
912.633	11562
912.748	11482
912.862	11341
912.976	11201
913.09	11151
913.204	11208
913.318	11162
913.431	11292
913.545	11204
913.659	11288
913.772	11280
913.886	11075
914	11029
914.113	11071
914.226	11136
914.34	11178
914.453	10961
914.566	11140
914.68	11014
914.793	10987
914.906	10816
915.019	10721
915.132	10793
915.245	10797
915.358	10866
915.47	10862
915.583	10866
915.696	10862
915.809	10942
915.921	11025
916.034	10805
916.146	10698
916.259	10748
916.371	10885
916.483	10771
916.595	10733
916.708	10759
916.82	10717
916.932	10641
917.044	10656
917.156	10740
917.268	10588
917.38	10637
917.491	10542
917.603	10634
917.715	10691
917.826	10763
917.938	10554
918.049	10493
918.161	10660
918.272	10660
918.384	10721
918.495	10641
918.606	10508
918.717	10432
918.828	10527
918.939	10519
919.05	10314
919.161	10554
919.272	10284
919.383	10303
919.494	10462
919.604	10797
919.715	10470
919.826	10436
919.936	10371
920.047	10573
920.157	10489
920.267	10717
920.378	10535
920.488	10558
920.598	10645
920.708	10892
920.818	10729
920.928	10725
921.038	10858
921.148	10691
921.258	10535
921.368	10447
921.477	10333
921.587	10242
921.697	10249
921.806	10436
921.916	10265
922.025	10131
922.134	10010
922.244	10013
922.353	10090
922.462	9968
922.571	9892
922.68	9743
922.789	9675
922.898	9800
923.007	9644
923.116	9781
923.224	9774
923.333	9751
923.442	9587
923.55	9591
923.659	9644
923.767	9656
923.876	9557
923.984	9698
924.092	9545
924.201	9641
924.309	9599
924.417	9641
924.525	9530
924.633	9549
924.741	10284
924.849	9393
924.956	9568
925.064	9325
925.172	9306
925.279	9317
925.387	9481
925.494	9466
925.602	9466
925.709	9458
925.816	9435
925.924	9393
926.031	9519
926.138	9340
926.245	9405
926.352	9264
926.459	9492
926.566	9595
926.673	9424
926.779	9233
926.886	9230
926.993	9207
927.099	9119
927.206	9051
927.312	9032
927.419	9135
927.525	9089
927.631	9176
927.737	9024
927.843	8971
927.95	8925
928.056	8857
928.162	8975
928.267	9051
928.373	9736
928.479	9127
928.585	8906
928.69	8937
928.796	9024
928.901	8960
929.007	8777
929.112	8872
929.218	8921
929.323	8804
929.428	8785
929.533	8941
929.638	8758
929.743	8785
929.848	8804
929.953	8727
930.058	8686
930.163	8629
930.267	8636
930.372	8758
930.477	8552
930.581	8826
930.685	8640
930.79	8549
930.894	8598
930.998	8503
931.103	8674
931.207	8332
931.311	8259
931.415	8214
931.519	8084
931.623	7986
