Data from test_V78500241_193.txt Node
Date: Fri Mar 25 14:35:04 CST 2022
User: usil
Spectrometer: V785-0024
Trigger mode: 0
Integration Time (sec): 4.000000E-1
Scans to average: 1
Nonlinearity correction enabled: false
Boxcar width: 0
Storing dark spectrum: false
XAxis mode: Wavelengths
Number of Pixels in Spectrum: 1024
>>>>>Begin Spectral Data<<<<<
801.071	28280
801.214	28082
801.356	27876
801.499	27861
801.641	27762
801.783	27797
801.926	27774
802.068	27671
802.211	27603
802.353	27374
802.496	27249
802.638	27317
802.78	27173
802.923	27043
803.065	27138
803.208	27157
803.35	27252
803.492	27218
803.635	27294
803.777	27310
803.919	27466
804.061	27603
804.204	27340
804.346	27222
804.488	26986
804.63	27222
804.773	27146
804.915	27222
805.057	27291
805.199	27211
805.341	27298
805.483	27199
805.626	27249
805.768	27169
805.91	27302
806.052	27302
806.194	27180
806.336	27504
806.478	27496
806.62	27378
806.762	27488
806.904	27622
807.046	27713
807.188	27804
807.33	27823
807.472	27968
807.614	27762
807.756	27865
807.898	27816
808.04	27842
808.182	27838
808.324	28051
808.465	28242
808.607	28542
808.749	28664
808.891	28911
809.033	28869
809.174	28691
809.316	28752
809.458	28459
809.6	28409
809.741	28207
809.883	28029
810.025	28211
810.166	28253
810.308	28139
810.45	28093
810.591	28025
810.733	27880
810.875	27774
811.016	27690
811.158	27641
811.299	27770
811.441	27854
811.582	27766
811.724	27694
811.865	27553
812.007	27705
812.148	27694
812.29	27732
812.431	27846
812.573	27994
812.714	27998
812.855	28101
812.997	28211
813.138	28360
813.279	28196
813.421	28097
813.562	28059
813.703	27785
813.845	27774
813.986	27542
814.127	27374
814.268	27146
814.41	27268
814.551	27241
814.692	27298
814.833	27085
814.974	27146
815.115	27036
815.256	27074
815.397	27116
815.539	27123
815.68	26899
815.821	26819
815.962	26910
816.103	26792
816.244	26644
816.385	26602
816.526	26701
816.666	26385
816.807	26408
816.948	26408
817.089	26366
817.23	26263
817.371	26248
817.512	26400
817.653	26210
817.793	26252
817.934	26259
818.075	26286
818.216	26343
818.356	26278
818.497	26176
818.638	26024
818.778	25928
818.919	25989
819.06	25982
819.2	26142
819.341	26073
819.481	26077
819.622	26256
819.762	26526
819.903	26461
820.043	26389
820.184	26396
820.324	26370
820.465	26309
820.605	26271
820.746	26206
820.886	26024
821.026	26191
821.167	26134
821.307	26180
821.447	26134
821.588	26005
821.728	26069
821.868	25753
822.008	25628
822.149	25582
822.289	25426
822.429	25449
822.569	25232
822.709	25228
822.849	25012
822.99	25137
823.13	25091
823.27	25034
823.41	24943
823.55	24700
823.69	24837
823.83	24863
823.97	24776
824.11	24608
824.25	24650
824.389	24604
824.529	24673
824.669	24620
824.809	24703
824.949	24688
825.089	24806
825.228	24703
825.368	24433
825.508	24380
825.648	24395
825.787	24410
825.927	24612
826.067	24311
826.206	24403
826.346	24403
826.485	24403
826.625	24433
826.765	24490
826.904	24391
827.044	24228
827.183	24110
827.323	24045
827.462	24220
827.601	24064
827.741	24087
827.88	24174
828.02	24068
828.159	24064
828.298	24030
828.437	23999
828.577	23958
828.716	24121
828.855	24011
828.994	23714
829.134	23885
829.273	23786
829.412	23600
829.551	23737
829.69	23783
829.829	23802
829.968	23707
830.107	23897
830.246	23756
830.385	23589
830.524	23581
830.663	23627
830.802	23379
830.941	23433
831.08	23353
831.219	23360
831.357	23296
831.496	23589
831.635	23330
831.774	23170
831.913	23151
832.051	23048
832.19	23109
832.329	23140
832.467	23041
832.606	23033
832.744	22854
832.883	22934
833.022	22911
833.16	22927
833.299	22854
833.437	23010
833.576	22999
833.714	22984
833.852	23003
833.991	23052
834.129	23227
834.267	23200
834.406	22968
834.544	22980
834.682	23075
834.821	22949
834.959	23094
835.097	22839
835.235	22923
835.373	22843
835.511	22831
835.65	22774
835.788	22828
835.926	22710
836.064	22607
836.202	22698
836.34	22763
836.478	22748
836.615	22793
836.753	22683
836.891	22881
837.029	22733
837.167	22527
837.305	22615
837.443	22615
837.58	22527
837.718	22577
837.856	22626
837.993	22626
838.131	22535
838.269	22508
838.406	22519
838.544	22474
838.681	22246
838.819	22291
838.956	22055
839.094	21888
839.231	22017
839.369	22192
839.506	22440
839.643	22223
839.781	22032
839.918	21918
840.055	21934
840.193	21991
840.33	21915
840.467	21960
840.604	21835
840.742	22074
840.879	21785
841.016	21751
841.153	21751
841.29	21926
841.427	21915
841.564	21937
841.701	21804
841.838	21717
841.975	21724
842.112	21808
842.249	21667
842.385	21618
842.522	21873
842.659	21610
842.796	21614
842.933	21610
843.069	21572
843.206	21614
843.343	21728
843.479	21644
843.616	21625
843.752	21344
843.889	21370
844.025	21443
844.162	21367
844.298	21408
844.435	21325
844.571	21526
844.708	21386
844.844	21488
844.98	21583
845.117	21435
845.253	21439
845.389	21454
845.525	21682
845.661	21930
845.798	22063
845.934	22371
846.07	22325
846.206	22417
846.342	22253
846.478	21918
846.614	21389
846.75	21195
846.886	21070
847.022	21066
847.158	20895
847.294	20838
847.429	20906
847.565	20861
847.701	20979
847.837	20499
847.972	20492
848.108	20514
848.244	20514
848.379	20412
848.515	20374
848.65	20396
848.786	20328
848.921	20301
849.057	20370
849.192	20355
849.328	20339
849.463	20427
849.598	20336
849.734	20149
849.869	20183
850.004	20180
850.14	20115
850.275	20130
850.41	20001
850.545	20088
850.68	20050
850.815	20210
850.95	20062
851.085	20240
851.22	20145
851.355	20054
851.49	20077
851.625	20115
851.76	20069
851.895	19928
852.03	19890
852.165	20027
852.299	20062
852.434	20142
852.569	20016
852.703	20065
852.838	20054
852.973	20240
853.107	20282
853.242	19967
853.376	20020
853.511	19719
853.645	19860
853.78	19993
853.914	19902
854.048	19811
854.183	19978
854.317	20065
854.451	20126
854.585	19906
854.72	19902
854.854	19955
854.988	19879
855.122	19852
855.256	19712
855.39	19837
855.524	19940
855.658	20024
855.792	19875
855.926	19814
856.06	19978
856.194	20065
856.327	19807
856.461	19791
856.595	19868
856.729	19864
856.862	19887
856.996	19909
857.13	19906
857.263	19909
857.397	19967
857.53	19913
857.664	19947
857.797	19909
857.931	19890
858.064	19833
858.197	19898
858.331	19830
858.464	19795
858.597	19746
858.731	19765
858.864	19814
858.997	19845
859.13	19803
859.263	19769
859.396	19936
859.529	19841
859.662	19727
859.795	19677
859.928	19734
860.061	19921
860.194	19993
860.327	19807
860.46	19814
860.592	19887
860.725	19890
860.858	19917
860.99	19852
861.123	19799
861.256	19727
861.388	19811
861.521	20370
861.653	19753
861.786	19578
861.918	19643
862.05	19727
862.183	19868
862.315	19909
862.447	19902
862.58	19887
862.712	19594
862.844	19529
862.976	19548
863.108	19571
863.24	19814
863.372	19426
863.504	19464
863.636	19480
863.768	19537
863.9	19571
864.032	19415
864.164	19464
864.296	19502
864.428	19601
864.559	19620
864.691	19571
864.823	19559
864.954	19419
865.086	19415
865.217	19392
865.349	19377
865.48	19407
865.612	19346
865.743	19502
865.875	19422
866.006	19316
866.137	19426
866.269	19400
866.4	19419
866.531	19373
866.662	19270
866.793	19266
866.924	19339
867.055	19343
867.186	19403
867.317	19320
867.448	19164
867.579	19343
867.71	19350
867.841	19244
867.972	19453
868.103	19285
868.233	19331
868.364	19388
868.495	19552
868.625	19556
868.756	19643
868.886	19434
869.017	19457
869.147	19632
869.278	19738
869.408	19552
869.539	19609
869.669	19742
869.799	19670
869.929	19651
870.06	19578
870.19	19803
870.32	19883
870.45	19963
870.58	19963
870.71	20024
870.84	20111
870.97	19887
871.1	19970
871.23	20126
871.36	20168
871.489	20107
871.619	20100
871.749	20259
871.879	20248
872.008	20176
872.138	20161
872.267	20130
872.397	19959
872.526	20020
872.656	19978
872.785	20039
872.915	20187
873.044	20088
873.173	20210
873.303	20305
873.432	20237
873.561	20324
873.69	20122
873.819	20199
873.948	20366
874.077	20229
874.206	20214
874.335	20263
874.464	20278
874.593	20469
874.722	20381
874.851	20598
874.979	20549
875.108	20511
875.237	20450
875.365	20442
875.494	20457
875.623	20575
875.751	20594
875.88	20476
876.008	20663
876.136	20655
876.265	20914
876.393	21104
876.521	20883
876.65	21150
876.778	20994
876.906	20864
877.034	20918
877.162	20921
877.29	20758
877.418	20811
877.546	20914
877.674	20826
877.802	20781
877.93	21013
878.058	20861
878.185	20838
878.313	20929
878.441	21047
878.568	20853
878.696	20956
878.824	20948
878.951	21085
879.079	21355
879.206	21568
879.333	21583
879.461	21492
879.588	21507
879.715	21629
879.842	21781
879.97	21393
880.097	21096
880.224	21070
880.351	21062
880.478	20921
880.605	20963
880.732	20880
880.859	21066
880.986	20811
881.112	20906
881.239	20762
881.366	20651
881.493	20526
881.619	20503
881.746	20495
881.872	20454
881.999	20434
882.125	20362
882.252	20537
882.378	20522
882.505	20564
882.631	20434
882.757	20267
882.883	20358
883.01	20240
883.136	20305
883.262	20149
883.388	20100
883.514	20183
883.64	20218
883.766	20195
883.892	19890
884.018	20081
884.143	20115
884.269	20176
884.395	19993
884.52	19780
884.646	20001
884.772	19780
884.897	19795
885.023	19909
885.148	20005
885.274	19932
885.399	19898
885.524	19917
885.65	19883
885.775	19925
885.9	19822
886.025	19921
886.15	19898
886.275	19655
886.4	19666
886.525	19780
886.65	19769
886.775	19799
886.9	19974
887.025	19887
887.149	19784
887.274	19689
887.399	19521
887.523	19438
887.648	19468
887.773	19552
887.897	19582
888.021	19506
888.146	19407
888.27	19556
888.395	19696
888.519	19491
888.643	19590
888.767	19529
888.891	19270
889.015	19358
889.139	19354
889.263	19312
889.387	19438
889.511	19422
889.635	19476
889.759	19221
889.883	19171
890.006	19247
890.13	19377
890.254	19221
890.377	19099
890.501	18989
890.624	18837
890.748	19114
890.871	18928
890.995	18947
891.118	18810
891.241	18791
891.364	18886
891.488	18897
891.611	18833
891.734	18878
891.857	18973
891.98	18844
892.103	18989
892.226	18810
892.349	18791
892.471	18654
892.594	18806
892.717	18745
892.839	18692
892.962	18772
893.085	18882
893.207	18719
893.33	18696
893.452	18669
893.575	18787
893.697	18764
893.819	18928
893.941	18954
894.064	18901
894.186	18696
894.308	18741
894.43	18897
894.552	18890
894.674	18897
894.796	18764
894.918	18745
895.04	18719
895.161	18863
895.283	18833
895.405	18692
895.526	18745
895.648	18810
895.769	18806
895.891	18829
896.012	18726
896.134	18863
896.255	18779
896.376	18726
896.498	18833
896.619	18909
896.74	18779
896.861	18897
896.982	19228
897.103	19316
897.224	19099
897.345	19012
897.466	18947
897.587	19099
897.708	19236
897.828	18993
897.949	18977
898.07	18924
898.19	18932
898.311	19160
898.431	18920
898.552	18939
898.672	19042
898.792	19076
898.913	18973
899.033	18882
899.153	18840
899.273	18726
899.393	18700
899.513	18875
899.633	18810
899.753	18776
899.873	18806
899.993	18817
900.113	18696
900.232	18779
900.352	18795
900.472	18555
900.591	18700
900.711	18585
900.83	18525
900.95	18623
901.069	18669
901.189	18517
901.308	18353
901.427	18190
901.546	18186
901.665	18273
901.784	18186
901.904	18038
902.023	18019
902.141	17771
902.26	17760
902.379	17817
902.498	17764
902.617	17619
902.735	17790
902.854	17699
902.973	17547
903.091	17455
903.21	17391
903.328	17425
903.446	17379
903.565	17235
903.683	17239
903.801	17064
903.919	17178
904.038	17064
904.156	16972
904.274	17132
904.392	17025
904.51	16961
904.627	16991
904.745	16961
904.863	17025
904.981	16820
905.098	16706
905.216	16672
905.334	16565
905.451	16531
905.569	16603
905.686	16596
905.803	16603
905.921	16325
906.038	16409
906.155	16535
906.272	16261
906.389	16314
906.506	16097
906.623	16143
906.74	16143
906.857	16025
906.974	16074
907.091	16120
907.208	16215
907.324	16090
907.441	16044
907.557	15785
907.674	15838
907.79	15793
907.907	15709
908.023	15842
908.139	15816
908.256	15793
908.372	15762
908.488	15747
908.604	15591
908.72	15469
908.836	15549
908.952	15477
909.068	15549
909.184	15599
909.3	15553
909.415	15584
909.531	15515
909.647	15275
909.762	15207
909.878	15097
909.993	15161
910.108	15127
910.224	15154
910.339	15154
910.454	15127
910.57	15055
910.685	15024
910.8	15272
910.915	15119
911.03	15089
911.145	14918
911.259	14838
911.374	14750
911.489	14716
911.604	14689
911.718	14590
911.833	14655
911.947	14514
912.062	14442
912.176	14530
912.291	14457
912.405	14514
912.519	14788
912.633	14610
912.748	14602
912.862	14541
912.976	14324
913.09	14229
913.204	14412
913.318	14415
913.431	14446
913.545	14431
913.659	14507
913.772	14294
913.886	14126
914	14214
914.113	14339
914.226	14347
914.34	14294
914.453	14176
914.566	14240
914.68	14142
914.793	14065
914.906	14005
915.019	13830
915.132	13750
915.245	13856
915.358	13833
915.47	13909
915.583	13715
915.696	13845
915.809	14046
915.921	13986
916.034	13814
916.146	13822
916.259	13761
916.371	13811
916.483	13883
916.595	13670
916.708	13788
916.82	13651
916.932	13651
917.044	13734
917.156	13700
917.268	13647
917.38	13510
917.491	13521
917.603	13575
917.715	13647
917.826	13597
917.938	13468
918.049	13308
918.161	13525
918.272	13776
918.384	13639
918.495	13525
918.606	13392
918.717	13221
918.828	13411
918.939	13403
919.05	13202
919.161	13266
919.272	13126
919.383	13164
919.494	13285
919.604	13506
919.715	13217
919.826	13168
919.936	13278
920.047	13247
920.157	13247
920.267	13548
920.378	13346
920.488	13320
920.598	13426
920.708	13586
920.818	13464
920.928	13400
921.038	13559
921.148	13495
921.258	13263
921.368	13156
921.477	13076
921.587	13019
921.697	12920
921.806	13065
921.916	12913
922.025	12677
922.134	12703
922.244	12658
922.353	12730
922.462	12608
922.571	12502
922.68	12388
922.789	12410
922.898	12395
923.007	12346
923.116	12395
923.224	12239
923.333	12262
923.442	12197
923.55	12144
923.659	12258
923.767	12254
923.876	12159
923.984	12171
924.092	12076
924.201	12186
924.309	12152
924.417	12060
924.525	12030
924.633	12114
924.741	12962
924.849	11920
924.956	11980
925.064	11847
925.172	11840
925.279	11824
925.387	11817
925.494	11813
925.602	11939
925.709	11870
925.816	11729
925.924	11726
926.031	11866
926.138	11798
926.245	11897
926.352	11646
926.459	11840
926.566	11863
926.673	11752
926.779	11642
926.886	11589
926.993	11486
927.099	11402
927.206	11368
927.312	11337
927.419	11429
927.525	11467
927.631	11383
927.737	11315
927.843	11277
927.95	11189
928.056	11140
928.162	11284
928.267	11254
928.373	11939
928.479	11406
928.585	11132
928.69	11250
928.796	11307
928.901	11140
929.007	10984
929.112	11094
929.218	11075
929.323	11006
929.428	11010
929.533	11124
929.638	10904
929.743	11025
929.848	11022
929.953	10934
930.058	10778
930.163	10736
930.267	10752
930.372	10869
930.477	10664
930.581	10938
930.685	10812
930.79	10675
930.894	10546
930.998	10538
931.103	10740
931.207	10287
931.311	10238
931.415	10234
931.519	9945
931.623	10059
