Data from test_V78500241_1334.txt Node
Date: Fri Mar 25 14:43:00 CST 2022
User: usil
Spectrometer: V785-0024
Trigger mode: 0
Integration Time (sec): 4.000000E-1
Scans to average: 1
Nonlinearity correction enabled: false
Boxcar width: 0
Storing dark spectrum: false
XAxis mode: Wavelengths
Number of Pixels in Spectrum: 1024
>>>>>Begin Spectral Data<<<<<
801.071	22424
801.214	22318
801.356	22169
801.499	21861
801.641	21835
801.783	21797
801.926	21770
802.068	21732
802.211	21679
802.353	21610
802.496	21443
802.638	21283
802.78	21184
802.923	21199
803.065	21013
803.208	21081
803.35	21062
803.492	21173
803.635	21127
803.777	21150
803.919	21199
804.061	21633
804.204	21230
804.346	21051
804.488	21036
804.63	21112
804.773	20937
804.915	20845
805.057	21207
805.199	21066
805.341	21157
805.483	21112
805.626	21081
805.768	20994
805.91	21108
806.052	21005
806.194	20914
806.336	21096
806.478	20929
806.62	20975
806.762	20982
806.904	21222
807.046	21504
807.188	21370
807.33	21344
807.472	21412
807.614	21378
807.756	21416
807.898	21195
808.04	21112
808.182	21218
808.324	21176
808.465	21211
808.607	21492
808.749	21648
808.891	21808
809.033	21823
809.174	21762
809.316	21519
809.458	21561
809.6	21408
809.741	21606
809.883	21625
810.025	21770
810.166	21667
810.308	21751
810.45	21500
810.591	21511
810.733	21405
810.875	21268
811.016	21218
811.158	21116
811.299	21275
811.441	21359
811.582	21393
811.724	21222
811.865	21161
812.007	21230
812.148	21135
812.29	21211
812.431	21287
812.573	21488
812.714	21591
812.855	21622
812.997	21865
813.138	21884
813.279	21705
813.421	21701
813.562	21652
813.703	21477
813.845	21382
813.986	21081
814.127	20872
814.268	20758
814.41	20754
814.551	20731
814.692	20739
814.833	20629
814.974	20678
815.115	20693
815.256	20667
815.397	20571
815.539	20549
815.68	20530
815.821	20465
815.962	20438
816.103	20396
816.244	20320
816.385	20332
816.526	20206
816.666	20016
816.807	19978
816.948	20054
817.089	19970
817.23	19970
817.371	19963
817.512	19898
817.653	19913
817.793	19925
817.934	19909
818.075	20001
818.216	19852
818.356	19712
818.497	19670
818.638	19529
818.778	19582
818.919	19620
819.06	19537
819.2	19655
819.341	19689
819.481	19727
819.622	19856
819.762	20088
819.903	20020
820.043	19913
820.184	19974
820.324	19871
820.465	19909
820.605	19887
820.746	19845
820.886	19780
821.026	19864
821.167	19860
821.307	19822
821.447	19852
821.588	19715
821.728	19563
821.868	19396
822.008	19324
822.149	19221
822.289	19327
822.429	19099
822.569	18833
822.709	18985
822.849	18749
822.99	18658
823.13	18848
823.27	18776
823.41	18665
823.55	18467
823.69	18597
823.83	18589
823.97	18547
824.11	18445
824.25	18292
824.389	18433
824.529	18525
824.669	18448
824.809	18494
824.949	18509
825.089	18422
825.228	18251
825.368	18197
825.508	18216
825.648	18300
825.787	18292
825.927	18201
826.067	18148
826.206	18060
826.346	18140
826.485	18201
826.625	18239
826.765	18277
826.904	18197
827.044	18003
827.183	17939
827.323	17836
827.462	17904
827.601	17889
827.741	17908
827.88	17889
828.02	17786
828.159	17840
828.298	17904
828.437	17961
828.577	17790
828.716	17950
828.855	17824
828.994	17684
829.134	17695
829.273	17695
829.412	17577
829.551	17592
829.69	17539
829.829	17695
829.968	17684
830.107	17608
830.246	17608
830.385	17589
830.524	17619
830.663	17440
830.802	17429
830.941	17273
831.08	17227
831.219	17383
831.357	17360
831.496	17406
831.635	17353
831.774	17162
831.913	17124
832.051	17121
832.19	17045
832.329	17014
832.467	16980
832.606	16877
832.744	16972
832.883	16847
833.022	16915
833.16	16923
833.299	16965
833.437	16858
833.576	17010
833.714	17022
833.852	17037
833.991	17006
834.129	17018
834.267	17075
834.406	16942
834.544	16987
834.682	17048
834.821	16999
834.959	17064
835.097	16938
835.235	17155
835.373	16965
835.511	17075
835.65	16873
835.788	16911
835.926	16717
836.064	16736
836.202	16771
836.34	16885
836.478	17010
836.615	16911
836.753	16889
836.891	16984
837.029	16919
837.167	16866
837.305	16862
837.443	16801
837.58	16786
837.718	16744
837.856	16778
837.993	16725
838.131	16793
838.269	16664
838.406	16702
838.544	16618
838.681	16462
838.819	16508
838.956	16352
839.094	16310
839.231	16382
839.369	16462
839.506	16672
839.643	16691
839.781	16386
839.918	16265
840.055	16386
840.193	16356
840.33	16188
840.467	16363
840.604	16284
840.742	16565
840.879	16120
841.016	16272
841.153	16215
841.29	16371
841.427	16242
841.564	16337
841.701	16352
841.838	16219
841.975	16169
842.112	16219
842.249	16093
842.385	15991
842.522	16379
842.659	16078
842.796	16071
842.933	16112
843.069	16101
843.206	16013
843.343	16166
843.479	16150
843.616	16090
843.752	15831
843.889	15724
844.025	16112
844.162	15854
844.298	15937
844.435	15846
844.571	15797
844.708	15880
844.844	16048
844.98	16013
845.117	16025
845.253	15835
845.389	15819
845.525	15823
845.661	15800
845.798	15926
845.934	15854
846.07	15956
846.206	15975
846.342	15903
846.478	15850
846.614	15587
846.75	15492
846.886	15393
847.022	15568
847.158	15378
847.294	15447
847.429	15557
847.565	15321
847.701	15618
847.837	15146
847.972	15154
848.108	15310
848.244	15211
848.379	15108
848.515	15127
848.65	15028
848.786	15058
848.921	15051
849.057	15207
849.192	15154
849.328	15089
849.463	15089
849.598	14944
849.734	14941
849.869	14823
850.004	14861
850.14	14807
850.275	14845
850.41	14621
850.545	14701
850.68	14876
850.815	14830
850.95	14781
851.085	14952
851.22	14792
851.355	14830
851.49	14750
851.625	14724
851.76	14826
851.895	14682
852.03	14613
852.165	14712
852.299	14804
852.434	14864
852.569	14785
852.703	14857
852.838	14872
852.973	14948
853.107	14887
853.242	14731
853.376	14682
853.511	14587
853.645	14636
853.78	14796
853.914	14651
854.048	14594
854.183	14571
854.317	14632
854.451	14826
854.585	14636
854.72	14560
854.854	14762
854.988	14648
855.122	14564
855.256	14434
855.39	14579
855.524	14746
855.658	14697
855.792	14693
855.926	14610
856.06	14701
856.194	14773
856.327	14617
856.461	14560
856.595	14587
856.729	14610
856.862	14826
856.996	14705
857.13	14678
857.263	14727
857.397	14758
857.53	14758
857.664	14659
857.797	14807
857.931	14785
858.064	14754
858.197	14754
858.331	14625
858.464	14648
858.597	14587
858.731	14712
858.864	14667
858.997	14644
859.13	14777
859.263	14686
859.396	14815
859.529	14621
859.662	14613
859.795	14632
859.928	14701
860.061	14823
860.194	14807
860.327	14651
860.46	14674
860.592	14826
860.725	14785
860.858	14781
860.99	14613
861.123	14522
861.256	14625
861.388	14674
861.521	15336
861.653	14450
861.786	14507
861.918	14526
862.05	14560
862.183	14590
862.315	14613
862.447	14659
862.58	14552
862.712	14370
862.844	14450
862.976	14457
863.108	14514
863.24	14861
863.372	14347
863.504	14461
863.636	14450
863.768	14465
863.9	14473
864.032	14351
864.164	14339
864.296	14465
864.428	14438
864.559	14545
864.691	14488
864.823	14431
864.954	14564
865.086	14446
865.217	14526
865.349	14355
865.48	14385
865.612	14404
865.743	14533
865.875	14408
866.006	14355
866.137	14427
866.269	14393
866.4	14355
866.531	14370
866.662	14305
866.793	14374
866.924	14317
867.055	14294
867.186	14362
867.317	14328
867.448	14339
867.579	14355
867.71	14347
867.841	14328
867.972	14328
868.103	14419
868.233	14484
868.364	14450
868.495	14480
868.625	14670
868.756	14712
868.886	14613
869.017	14701
869.147	14804
869.278	14785
869.408	14598
869.539	14682
869.669	14788
869.799	14781
869.929	14796
870.06	14743
870.19	15020
870.32	14864
870.45	14941
870.58	15039
870.71	15127
870.84	15154
870.97	15058
871.1	15104
871.23	15230
871.36	15272
871.489	15043
871.619	15226
871.749	15272
871.879	15298
872.008	15348
872.138	15272
872.267	15226
872.397	15074
872.526	15097
872.656	15135
872.785	15051
872.915	15222
873.044	15313
873.173	15275
873.303	15302
873.432	15332
873.561	15450
873.69	15306
873.819	15332
873.948	15424
874.077	15348
874.206	15260
874.335	15344
874.464	15447
874.593	15538
874.722	15492
874.851	15584
874.979	15644
875.108	15652
875.237	15576
875.365	15481
875.494	15591
875.623	15682
875.751	15587
875.88	15603
876.008	15682
876.136	15823
876.265	16071
876.393	16124
876.521	16124
876.65	16204
876.778	16124
876.906	15956
877.034	15937
877.162	15876
877.29	15915
877.418	16067
877.546	15922
877.674	15975
877.802	15964
877.93	16090
878.058	15956
878.185	15930
878.313	16029
878.441	16044
878.568	15888
878.696	16006
878.824	15968
878.951	16150
879.079	16287
879.206	16474
879.333	16299
879.461	16192
879.588	16280
879.715	16379
879.842	16489
879.97	16169
880.097	15983
880.224	15903
880.351	15998
880.478	15854
880.605	15907
880.732	15915
880.859	16223
880.986	15915
881.112	16002
881.239	15709
881.366	15599
881.493	15587
881.619	15519
881.746	15568
881.872	15603
881.999	15591
882.125	15477
882.252	15595
882.378	15500
882.505	15644
882.631	15469
882.757	15416
882.883	15420
883.01	15382
883.136	15321
883.262	15256
883.388	15268
883.514	15405
883.64	15359
883.766	15386
883.892	15112
884.018	15260
884.143	15367
884.269	15477
884.395	15222
884.52	15051
884.646	15051
884.772	15043
884.897	14956
885.023	15051
885.148	15294
885.274	15230
885.399	15230
885.524	15066
885.65	15138
885.775	15112
885.9	14982
886.025	15169
886.15	15165
886.275	15036
886.4	14941
886.525	15062
886.65	14994
886.775	15013
886.9	15127
887.025	15298
887.149	15112
887.274	14883
887.399	14842
887.523	14861
887.648	14785
887.773	14823
887.897	14872
888.021	14960
888.146	14853
888.27	14979
888.395	14982
888.519	15013
888.643	14921
888.767	14979
888.891	14876
889.015	14727
889.139	14788
889.263	14670
889.387	14765
889.511	14887
889.635	14891
889.759	14739
889.883	14636
890.006	14727
890.13	14701
890.254	14659
890.377	14781
890.501	14571
890.624	14556
890.748	14552
890.871	14499
890.995	14393
891.118	14355
891.241	14480
891.364	14457
891.488	14495
891.611	14385
891.734	14469
891.857	14499
891.98	14511
892.103	14503
892.226	14423
892.349	14450
892.471	14362
892.594	14400
892.717	14492
892.839	14385
892.962	14454
893.085	14522
893.207	14381
893.33	14362
893.452	14370
893.575	14503
893.697	14339
893.819	14594
893.941	14590
894.064	14708
894.186	14351
894.308	14339
894.43	14473
894.552	14560
894.674	14530
894.796	14431
894.918	14438
895.04	14415
895.161	14556
895.283	14587
895.405	14400
895.526	14492
895.648	14480
895.769	14526
895.891	14674
896.012	14583
896.134	14621
896.255	14587
896.376	14533
896.498	14560
896.619	14594
896.74	14640
896.861	14602
896.982	14876
897.103	15039
897.224	14944
897.345	14838
897.466	14826
897.587	14769
897.708	15009
897.828	14830
897.949	14796
898.07	14682
898.19	14796
898.311	14868
898.431	14826
898.552	14963
898.672	14994
898.792	14994
898.913	14952
899.033	14815
899.153	14804
899.273	14682
899.393	14716
899.513	14777
899.633	14769
899.753	14804
899.873	14800
899.993	14804
900.113	14678
900.232	14823
900.352	14758
900.472	14697
900.591	14602
900.711	14667
900.83	14629
900.95	14777
901.069	14735
901.189	14568
901.308	14370
901.427	14294
901.546	14347
901.665	14374
901.784	14343
901.904	14153
902.023	14126
902.141	13845
902.26	13791
902.379	13898
902.498	13811
902.617	13772
902.735	13993
902.854	13902
902.973	13746
903.091	13548
903.21	13609
903.328	13563
903.446	13537
903.565	13407
903.683	13407
903.801	13411
903.919	13411
904.038	13381
904.156	13236
904.274	13259
904.392	13217
904.51	13217
904.627	13209
904.745	13308
904.863	13304
904.981	13145
905.098	12989
905.216	12894
905.334	12928
905.451	12913
905.569	12837
905.686	12973
905.803	13015
905.921	12783
906.038	12856
906.155	12681
906.272	12658
906.389	12650
906.506	12506
906.623	12486
906.74	12608
906.857	12452
906.974	12414
907.091	12566
907.208	12563
907.324	12589
907.441	12441
907.557	12194
907.674	12194
907.79	12171
907.907	12159
908.023	12235
908.139	12228
908.256	12243
908.372	12114
908.488	12140
908.604	12114
908.72	11927
908.836	11939
908.952	12003
909.068	12026
909.184	12129
909.3	12045
909.415	12072
909.531	11958
909.647	11794
909.762	11805
909.878	11611
909.993	11771
910.108	11764
910.224	11767
910.339	11813
910.454	11665
910.57	11558
910.685	11570
910.8	11904
910.915	11737
911.03	11691
911.145	11440
911.259	11429
911.374	11433
911.489	11429
911.604	11356
911.718	11322
911.833	11296
911.947	11079
912.062	11064
912.176	11155
912.291	11231
912.405	11181
912.519	11417
912.633	11368
912.748	11303
912.862	11193
912.976	11086
913.09	10987
913.204	10980
913.318	11113
913.431	11178
913.545	11105
913.659	11155
913.772	11079
913.886	11014
914	11022
914.113	11117
914.226	11086
914.34	11018
914.453	10904
914.566	11140
914.68	10942
914.793	10915
914.906	10672
915.019	10683
915.132	10580
915.245	10710
915.358	10702
915.47	10820
915.583	10653
915.696	10744
915.809	10847
915.921	10889
916.034	10637
916.146	10733
916.259	10615
916.371	10706
916.483	10790
916.595	10569
916.708	10736
916.82	10664
916.932	10569
917.044	10672
917.156	10615
917.268	10493
917.38	10497
917.491	10466
917.603	10626
917.715	10645
917.826	10554
917.938	10542
918.049	10500
918.161	10569
918.272	10645
918.384	10626
918.495	10607
918.606	10356
918.717	10238
918.828	10485
918.939	10436
919.05	10424
919.161	10432
919.272	10200
919.383	10261
919.494	10421
919.604	10603
919.715	10447
919.826	10287
919.936	10485
920.047	10493
920.157	10466
920.267	10618
920.378	10417
920.488	10379
920.598	10596
920.708	10820
920.818	10599
920.928	10641
921.038	10740
921.148	10725
921.258	10508
921.368	10409
921.477	10325
921.587	10246
921.697	10162
921.806	10295
921.916	10124
922.025	10006
922.134	9911
922.244	9945
922.353	10036
922.462	9861
922.571	9793
922.68	9743
922.789	9603
922.898	9686
923.007	9610
923.116	9701
923.224	9717
923.333	9701
923.442	9507
923.55	9530
923.659	9641
923.767	9633
923.876	9447
923.984	9568
924.092	9511
924.201	9545
924.309	9523
924.417	9519
924.525	9428
924.633	9412
924.741	10398
924.849	9302
924.956	9416
925.064	9298
925.172	9157
925.279	9287
925.387	9317
925.494	9249
925.602	9473
925.709	9420
925.816	9313
925.924	9218
926.031	9450
926.138	9237
926.245	9397
926.352	9241
926.459	9355
926.566	9428
926.673	9321
926.779	9173
926.886	9199
926.993	9051
927.099	8994
927.206	9028
927.312	8929
927.419	9005
927.525	9013
927.631	9039
927.737	8944
927.843	8929
927.95	8762
928.056	8902
928.162	8918
928.267	8986
928.373	9564
928.479	9062
928.585	8762
928.69	8895
928.796	9009
928.901	8815
929.007	8682
929.112	8758
929.218	8792
929.323	8769
929.428	8739
929.533	8899
929.638	8621
929.743	8693
929.848	8743
929.953	8705
930.058	8678
930.163	8461
930.267	8457
930.372	8583
930.477	8438
930.581	8739
930.685	8564
930.79	8412
930.894	8476
930.998	8404
931.103	8514
931.207	8195
931.311	8191
931.415	8081
931.519	7947
931.623	7913
