Data from test_V78500241_2254.txt Node
Date: Fri Mar 25 14:49:24 CST 2022
User: usil
Spectrometer: V785-0024
Trigger mode: 0
Integration Time (sec): 4.000000E-1
Scans to average: 1
Nonlinearity correction enabled: false
Boxcar width: 0
Storing dark spectrum: false
XAxis mode: Wavelengths
Number of Pixels in Spectrum: 1024
>>>>>Begin Spectral Data<<<<<
801.071	22333
801.214	22029
801.356	21956
801.499	21816
801.641	21667
801.783	21530
801.926	21610
802.068	21542
802.211	21500
802.353	21405
802.496	21195
802.638	21032
802.78	20979
802.923	20956
803.065	20811
803.208	20883
803.35	21001
803.492	21074
803.635	21070
803.777	20956
803.919	20910
804.061	21195
804.204	20834
804.346	20921
804.488	20739
804.63	20960
804.773	20773
804.915	20823
805.057	20842
805.199	20826
805.341	20811
805.483	20857
805.626	21062
805.768	20834
805.91	20845
806.052	20781
806.194	20777
806.336	20998
806.478	20842
806.62	20724
806.762	20861
806.904	20994
807.046	21180
807.188	21028
807.33	21123
807.472	21104
807.614	20944
807.756	21077
807.898	21108
808.04	20849
808.182	20864
808.324	20937
808.465	21028
808.607	21055
808.749	21161
808.891	21237
809.033	21416
809.174	21283
809.316	21233
809.458	21169
809.6	21135
809.741	21348
809.883	21291
810.025	21386
810.166	21310
810.308	21363
810.45	21393
810.591	21245
810.733	21123
810.875	21013
811.016	20899
811.158	20929
811.299	21055
811.441	21131
811.582	20994
811.724	21077
811.865	20929
812.007	20967
812.148	20952
812.29	21036
812.431	21119
812.573	21230
812.714	21359
812.855	21393
812.997	21625
813.138	21671
813.279	21549
813.421	21485
813.562	21302
813.703	21192
813.845	21192
813.986	20788
814.127	20758
814.268	20613
814.41	20560
814.551	20507
814.692	20530
814.833	20442
814.974	20419
815.115	20606
815.256	20317
815.397	20427
815.539	20347
815.68	20248
815.821	20206
815.962	20419
816.103	20214
816.244	20046
816.385	19921
816.526	19982
816.666	19898
816.807	19715
816.948	19689
817.089	19788
817.23	19639
817.371	19677
817.512	19704
817.653	19655
817.793	19685
817.934	19689
818.075	19731
818.216	19521
818.356	19655
818.497	19392
818.638	19339
818.778	19354
818.919	19308
819.06	19308
819.2	19457
819.341	19525
819.481	19460
819.622	19696
819.762	19860
819.903	19715
820.043	19693
820.184	19655
820.324	19571
820.465	19772
820.605	19597
820.746	19540
820.886	19468
821.026	19715
821.167	19655
821.307	19616
821.447	19628
821.588	19464
821.728	19365
821.868	19232
822.008	19046
822.149	19080
822.289	19000
822.429	18825
822.569	18719
822.709	18772
822.849	18388
822.99	18445
823.13	18380
823.27	18429
823.41	18319
823.55	18178
823.69	18361
823.83	18311
823.97	18266
824.11	18053
824.25	18072
824.389	18163
824.529	18213
824.669	18022
824.809	18186
824.949	18121
825.089	18224
825.228	18091
825.368	17889
825.508	17794
825.648	17908
825.787	18053
825.927	17950
826.067	17889
826.206	17805
826.346	17878
826.485	17992
826.625	17832
826.765	17912
826.904	17821
827.044	17589
827.183	17661
827.323	17353
827.462	17554
827.601	17562
827.741	17604
827.88	17592
828.02	17448
828.159	17592
828.298	17649
828.437	17646
828.577	17501
828.716	17638
828.855	17581
828.994	17349
829.134	17258
829.273	17197
829.412	17246
829.551	17258
829.69	17254
829.829	17387
829.968	17410
830.107	17376
830.246	17353
830.385	17197
830.524	17208
830.663	17132
830.802	16919
830.941	16858
831.08	16957
831.219	17014
831.357	16965
831.496	17159
831.635	16900
831.774	16782
831.913	16854
832.051	16744
832.19	16706
832.329	16706
832.467	16565
832.606	16535
832.744	16622
832.883	16580
833.022	16596
833.16	16596
833.299	16497
833.437	16523
833.576	16755
833.714	16569
833.852	16744
833.991	16679
834.129	16782
834.267	16611
834.406	16565
834.544	16634
834.682	16630
834.821	16668
834.959	16885
835.097	16432
835.235	16637
835.373	16679
835.511	16573
835.65	16603
835.788	16546
835.926	16447
836.064	16253
836.202	16386
836.34	16523
836.478	16489
836.615	16394
836.753	16569
836.891	16687
837.029	16645
837.167	16508
837.305	16497
837.443	16375
837.58	16329
837.718	16413
837.856	16356
837.993	16325
838.131	16451
838.269	16272
838.406	16329
838.544	16242
838.681	16040
838.819	16040
838.956	15903
839.094	15884
839.231	16006
839.369	16059
839.506	16284
839.643	16310
839.781	16010
839.918	15960
840.055	15998
840.193	15991
840.33	15911
840.467	15918
840.604	15915
840.742	16101
840.879	15755
841.016	15873
841.153	15842
841.29	16059
841.427	16013
841.564	15941
841.701	16063
841.838	15903
841.975	15899
842.112	15895
842.249	15720
842.385	15747
842.522	15854
842.659	15686
842.796	15724
842.933	15736
843.069	15671
843.206	15701
843.343	15842
843.479	15789
843.616	15785
843.752	15557
843.889	15606
844.025	15732
844.162	15572
844.298	15713
844.435	15492
844.571	15443
844.708	15572
844.844	15709
844.98	15622
845.117	15580
845.253	15507
845.389	15370
845.525	15363
845.661	15363
845.798	15306
845.934	15382
846.07	15214
846.206	15302
846.342	15397
846.478	15382
846.614	15070
846.75	15036
846.886	15085
847.022	15165
847.158	15104
847.294	15074
847.429	15176
847.565	15150
847.701	15260
847.837	14727
847.972	14754
848.108	14929
848.244	14887
848.379	14701
848.515	14587
848.65	14571
848.786	14712
848.921	14674
849.057	14792
849.192	14754
849.328	14686
849.463	14655
849.598	14667
849.734	14644
849.869	14560
850.004	14446
850.14	14503
850.275	14415
850.41	14370
850.545	14396
850.68	14492
850.815	14454
850.95	14400
851.085	14518
851.22	14659
851.355	14431
851.49	14355
851.625	14393
851.76	14317
851.895	14381
852.03	14267
852.165	14473
852.299	14423
852.434	14415
852.569	14499
852.703	14533
852.838	14522
852.973	14644
853.107	14560
853.242	14362
853.376	14237
853.511	14206
853.645	14138
853.78	14412
853.914	14419
854.048	14290
854.183	14259
854.317	14317
854.451	14507
854.585	14259
854.72	14206
854.854	14320
854.988	14248
855.122	14271
855.256	14111
855.39	14256
855.524	14362
855.658	14267
855.792	14320
855.926	14317
856.06	14393
856.194	14480
856.327	14244
856.461	14301
856.595	14244
856.729	14271
856.862	14358
856.996	14351
857.13	14328
857.263	14434
857.397	14446
857.53	14313
857.664	14355
857.797	14374
857.931	14374
858.064	14286
858.197	14396
858.331	14320
858.464	14218
858.597	14237
858.731	14248
858.864	14286
858.997	14271
859.13	14309
859.263	14339
859.396	14438
859.529	14282
859.662	14358
859.795	14176
859.928	14324
860.061	14476
860.194	14461
860.327	14366
860.46	14248
860.592	14347
860.725	14427
860.858	14480
860.99	14301
861.123	14267
861.256	14195
861.388	14290
861.521	14815
861.653	14168
861.786	14103
861.918	14161
862.05	14221
862.183	14229
862.315	14271
862.447	14263
862.58	14199
862.712	14035
862.844	13978
862.976	14187
863.108	14202
863.24	14465
863.372	14081
863.504	14050
863.636	14130
863.768	14024
863.9	14092
864.032	14012
864.164	14043
864.296	14088
864.428	14206
864.559	14115
864.691	14149
864.823	14035
864.954	14157
865.086	14100
865.217	14077
865.349	13993
865.48	14103
865.612	14088
865.743	14172
865.875	14100
866.006	14005
866.137	14157
866.269	14100
866.4	14107
866.531	14054
866.662	14012
866.793	14069
866.924	13978
867.055	14103
867.186	14077
867.317	14008
867.448	13959
867.579	13940
867.71	13970
867.841	13974
867.972	14024
868.103	14065
868.233	14096
868.364	14016
868.495	14081
868.625	14259
868.756	14278
868.886	14233
869.017	14240
869.147	14476
869.278	14370
869.408	14240
869.539	14271
869.669	14457
869.799	14412
869.929	14431
870.06	14434
870.19	14689
870.32	14617
870.45	14606
870.58	14636
870.71	14925
870.84	14792
870.97	14686
871.1	14686
871.23	14842
871.36	14800
871.489	14781
871.619	14918
871.749	14914
871.879	14937
872.008	15020
872.138	14887
872.267	14864
872.397	14796
872.526	14796
872.656	14697
872.785	14663
872.915	14914
873.044	14986
873.173	15028
873.303	14998
873.432	14902
873.561	15028
873.69	14963
873.819	14963
873.948	14944
874.077	14895
874.206	14891
874.335	14876
874.464	15077
874.593	15275
874.722	15230
874.851	15287
874.979	15367
875.108	15264
875.237	15249
875.365	15287
875.494	15154
875.623	15317
875.751	15218
875.88	15317
876.008	15393
876.136	15519
876.265	15648
876.393	15857
876.521	15713
876.65	15778
876.778	15679
876.906	15648
877.034	15663
877.162	15652
877.29	15561
877.418	15663
877.546	15682
877.674	15500
877.802	15580
877.93	15641
878.058	15557
878.185	15492
878.313	15557
878.441	15629
878.568	15580
878.696	15603
878.824	15694
878.951	15778
879.079	15816
879.206	16074
879.333	15850
879.461	15728
879.588	15804
879.715	15827
879.842	16025
879.97	15709
880.097	15458
880.224	15511
880.351	15477
880.478	15595
880.605	15564
880.732	15599
880.859	15743
880.986	15568
881.112	15576
881.239	15462
881.366	15233
881.493	15146
881.619	15104
881.746	15116
881.872	15245
881.999	15104
882.125	15169
882.252	15207
882.378	15237
882.505	15298
882.631	15176
882.757	15001
882.883	15097
883.01	15108
883.136	14929
883.262	14887
883.388	14857
883.514	15028
883.64	15077
883.766	14910
883.892	14792
884.018	14811
884.143	14952
884.269	15119
884.395	14758
884.52	14708
884.646	14754
884.772	14590
884.897	14648
885.023	14670
885.148	14773
885.274	14861
885.399	14762
885.524	14739
885.65	14705
885.775	14686
885.9	14705
886.025	14891
886.15	14750
886.275	14686
886.4	14564
886.525	14583
886.65	14640
886.775	14613
886.9	14682
887.025	14895
887.149	14762
887.274	14549
887.399	14492
887.523	14503
887.648	14545
887.773	14450
887.897	14598
888.021	14587
888.146	14537
888.27	14583
888.395	14682
888.519	14610
888.643	14564
888.767	14659
888.891	14431
889.015	14351
889.139	14537
889.263	14438
889.387	14442
889.511	14575
889.635	14385
889.759	14408
889.883	14469
890.006	14480
890.13	14492
890.254	14309
890.377	14370
890.501	14263
890.624	14183
890.748	14328
890.871	14168
890.995	14050
891.118	14024
891.241	14103
891.364	14073
891.488	14176
891.611	14081
891.734	14115
891.857	14164
891.98	14088
892.103	14214
892.226	14065
892.349	14111
892.471	13993
892.594	14187
892.717	14187
892.839	14027
892.962	14161
893.085	14256
893.207	14145
893.33	13959
893.452	14012
893.575	14069
893.697	14077
893.819	14237
893.941	14218
894.064	14240
894.186	14027
894.308	14088
894.43	14210
894.552	14278
894.674	14225
894.796	14065
894.918	14191
895.04	14096
895.161	14275
895.283	14210
895.405	14145
895.526	14221
895.648	14161
895.769	14278
895.891	14328
896.012	14298
896.134	14267
896.255	14214
896.376	14229
896.498	14374
896.619	14317
896.74	14332
896.861	14286
896.982	14659
897.103	14743
897.224	14640
897.345	14549
897.466	14324
897.587	14522
897.708	14583
897.828	14568
897.949	14530
898.07	14446
898.19	14545
898.311	14606
898.431	14606
898.552	14613
898.672	14712
898.792	14644
898.913	14629
899.033	14545
899.153	14446
899.273	14339
899.393	14560
899.513	14511
899.633	14431
899.753	14522
899.873	14571
899.993	14621
900.113	14488
900.232	14423
900.352	14590
900.472	14480
900.591	14290
900.711	14317
900.83	14263
900.95	14419
901.069	14419
901.189	14320
901.308	14138
901.427	14027
901.546	14046
901.665	14088
901.784	14012
901.904	13963
902.023	13784
902.141	13643
902.26	13613
902.379	13616
902.498	13647
902.617	13567
902.735	13662
902.854	13556
902.973	13613
903.091	13354
903.21	13324
903.328	13320
903.446	13194
903.565	13122
903.683	13145
903.801	13152
903.919	13179
904.038	13133
904.156	12932
904.274	13110
904.392	12947
904.51	13046
904.627	12939
904.745	13084
904.863	13065
904.981	12856
905.098	12635
905.216	12734
905.334	12673
905.451	12601
905.569	12578
905.686	12684
905.803	12639
905.921	12441
906.038	12551
906.155	12460
906.272	12426
906.389	12448
906.506	12235
906.623	12129
906.74	12247
906.857	12178
906.974	12224
907.091	12285
907.208	12490
907.324	12334
907.441	12167
907.557	12038
907.674	11920
907.79	11965
907.907	11973
908.023	12026
908.139	11969
908.256	11969
908.372	11901
908.488	11851
908.604	11748
908.72	11657
908.836	11813
908.952	11649
909.068	11805
909.184	11901
909.3	11775
909.415	11783
909.531	11817
909.647	11497
909.762	11547
909.878	11482
909.993	11482
910.108	11615
910.224	11493
910.339	11539
910.454	11474
910.57	11345
910.685	11353
910.8	11611
910.915	11532
911.03	11516
911.145	11277
911.259	11223
911.374	11185
911.489	11083
911.604	11071
911.718	11045
911.833	10987
911.947	10885
912.062	10771
912.176	10930
912.291	10953
912.405	11033
912.519	11170
912.633	11170
912.748	10991
912.862	11014
912.976	10885
913.09	10774
913.204	10828
913.318	10858
913.431	10900
913.545	10999
913.659	10923
913.772	10919
913.886	10744
914	10710
914.113	10790
914.226	10824
914.34	10820
914.453	10683
914.566	10862
914.68	10714
914.793	10698
914.906	10569
915.019	10481
915.132	10325
915.245	10478
915.358	10565
915.47	10527
915.583	10577
915.696	10531
915.809	10660
915.921	10550
916.034	10363
916.146	10440
916.259	10459
916.371	10516
916.483	10459
916.595	10337
916.708	10432
916.82	10409
916.932	10329
917.044	10405
917.156	10337
917.268	10306
917.38	10306
917.491	10303
917.603	10341
917.715	10428
917.826	10405
917.938	10333
918.049	10192
918.161	10352
918.272	10443
918.384	10478
918.495	10299
918.606	10268
918.717	10139
918.828	10173
918.939	10257
919.05	10169
919.161	10246
919.272	10025
919.383	10101
919.494	10325
919.604	10474
919.715	10147
919.826	10177
919.936	10181
920.047	10329
920.157	10230
920.267	10382
920.378	10299
920.488	10253
920.598	10462
920.708	10565
920.818	10375
920.928	10402
921.038	10573
921.148	10626
921.258	10204
921.368	10124
921.477	10093
921.587	10071
921.697	9922
921.806	10105
921.916	9975
922.025	9804
922.134	9808
922.244	9629
922.353	9789
922.462	9648
922.571	9614
922.68	9511
922.789	9454
922.898	9515
923.007	9329
923.116	9477
923.224	9515
923.333	9435
923.442	9412
923.55	9351
923.659	9367
923.767	9393
923.876	9306
923.984	9454
924.092	9283
924.201	9397
924.309	9355
924.417	9367
924.525	9264
924.633	9294
924.741	10287
924.849	9093
924.956	9272
925.064	9051
925.172	9074
925.279	9100
925.387	9104
925.494	9112
925.602	9310
925.709	9192
925.816	9112
925.924	9100
926.031	9230
926.138	9173
926.245	9233
926.352	9089
926.459	9142
926.566	9233
926.673	9112
926.779	9005
926.886	9039
926.993	8819
927.099	8769
927.206	8834
927.312	8762
927.419	8853
927.525	8830
927.631	8910
927.737	8864
927.843	8739
927.95	8625
928.056	8705
928.162	8724
928.267	8826
928.373	9408
928.479	8842
928.585	8625
928.69	8667
928.796	8792
928.901	8655
929.007	8514
929.112	8686
929.218	8636
929.323	8564
929.428	8552
929.533	8697
929.638	8438
929.743	8556
929.848	8568
929.953	8621
930.058	8469
930.163	8358
930.267	8374
930.372	8495
930.477	8332
930.581	8530
930.685	8408
930.79	8256
930.894	8313
930.998	8248
931.103	8412
931.207	8058
931.311	8035
931.415	7909
931.519	7803
931.623	7753
