Data from test_V78500241_2738.txt Node
Date: Fri Mar 25 14:52:46 CST 2022
User: usil
Spectrometer: V785-0024
Trigger mode: 0
Integration Time (sec): 4.000000E-1
Scans to average: 1
Nonlinearity correction enabled: false
Boxcar width: 0
Storing dark spectrum: false
XAxis mode: Wavelengths
Number of Pixels in Spectrum: 1024
>>>>>Begin Spectral Data<<<<<
801.071	22166
801.214	21911
801.356	21781
801.499	21622
801.641	21481
801.783	21351
801.926	21454
802.068	21397
802.211	21302
802.353	21268
802.496	21036
802.638	20941
802.78	20906
802.923	20807
803.065	20743
803.208	20830
803.35	20777
803.492	20781
803.635	20842
803.777	20739
803.919	20792
804.061	21085
804.204	20849
804.346	20739
804.488	20590
804.63	20724
804.773	20575
804.915	20678
805.057	20636
805.199	20632
805.341	20792
805.483	20823
805.626	20754
805.768	20594
805.91	20632
806.052	20606
806.194	20575
806.336	20804
806.478	20640
806.62	20537
806.762	20727
806.904	21028
807.046	21093
807.188	20986
807.33	21020
807.472	20872
807.614	20925
807.756	20902
807.898	20823
808.04	20731
808.182	20697
808.324	20735
808.465	20727
808.607	20880
808.749	20971
808.891	21131
809.033	21180
809.174	21119
809.316	20929
809.458	20956
809.6	21017
809.741	21062
809.883	21135
810.025	21264
810.166	21138
810.308	21199
810.45	21184
810.591	21001
810.733	20864
810.875	20746
811.016	20739
811.158	20693
811.299	20906
811.441	20948
811.582	20918
811.724	20826
811.865	20845
812.007	20788
812.148	20716
812.29	20834
812.431	20902
812.573	21058
812.714	21195
812.855	21275
812.997	21477
813.138	21500
813.279	21473
813.421	21207
813.562	21161
813.703	21013
813.845	20864
813.986	20750
814.127	20560
814.268	20358
814.41	20343
814.551	20202
814.692	20393
814.833	20290
814.974	20271
815.115	20358
815.256	20119
815.397	20134
815.539	20229
815.68	19978
815.821	20001
815.962	20111
816.103	20001
816.244	19868
816.385	19830
816.526	19704
816.666	19635
816.807	19559
816.948	19559
817.089	19582
817.23	19491
817.371	19495
817.512	19304
817.653	19502
817.793	19415
817.934	19381
818.075	19514
818.216	19537
818.356	19282
818.497	19236
818.638	19133
818.778	19160
818.919	19255
819.06	19175
819.2	19206
819.341	19369
819.481	19464
819.622	19533
819.762	19712
819.903	19575
820.043	19441
820.184	19415
820.324	19453
820.465	19434
820.605	19502
820.746	19453
820.886	19263
821.026	19483
821.167	19415
821.307	19377
821.447	19304
821.588	19293
821.728	19072
821.868	19004
822.008	18894
822.149	18924
822.289	18768
822.429	18631
822.569	18498
822.709	18414
822.849	18304
822.99	18277
823.13	18251
823.27	18338
823.41	18106
823.55	18140
823.69	18136
823.83	18110
823.97	18060
824.11	17882
824.25	17859
824.389	17870
824.529	17851
824.669	17893
824.809	18019
824.949	17950
825.089	17999
825.228	18030
825.368	17558
825.508	17661
825.648	17714
825.787	17551
825.927	17798
826.067	17649
826.206	17623
826.346	17638
826.485	17676
826.625	17668
826.765	17798
826.904	17646
827.044	17528
827.183	17459
827.323	17387
827.462	17471
827.601	17395
827.741	17436
827.88	17269
828.02	17235
828.159	17425
828.298	17326
828.437	17452
828.577	17307
828.716	17414
828.855	17349
828.994	17098
829.134	17220
829.273	17193
829.412	17178
829.551	17170
829.69	17124
829.829	17162
829.968	17246
830.107	17166
830.246	17162
830.385	17041
830.524	17025
830.663	16968
830.802	16892
830.941	16854
831.08	16790
831.219	16820
831.357	16812
831.496	16968
831.635	16767
831.774	16668
831.913	16660
832.051	16538
832.19	16588
832.329	16584
832.467	16493
832.606	16398
832.744	16428
832.883	16466
833.022	16451
833.16	16390
833.299	16466
833.437	16485
833.576	16466
833.714	16443
833.852	16550
833.991	16493
834.129	16504
834.267	16523
834.406	16436
834.544	16603
834.682	16459
834.821	16573
834.959	16694
835.097	16516
835.235	16656
835.373	16561
835.511	16611
835.65	16382
835.788	16367
835.926	16322
836.064	16169
836.202	16211
836.34	16428
836.478	16462
836.615	16409
836.753	16337
836.891	16470
837.029	16379
837.167	16459
837.305	16386
837.443	16432
837.58	16284
837.718	16394
837.856	16356
837.993	16314
838.131	16314
838.269	16265
838.406	16318
838.544	16200
838.681	16169
838.819	16067
838.956	15945
839.094	15808
839.231	15793
839.369	16032
839.506	16200
839.643	16006
839.781	15873
839.918	15854
840.055	15895
840.193	15865
840.33	15739
840.467	15835
840.604	15766
840.742	16135
840.879	15728
841.016	15751
841.153	15774
841.29	15926
841.427	15823
841.564	15968
841.701	15911
841.838	15819
841.975	15736
842.112	15686
842.249	15591
842.385	15439
842.522	15785
842.659	15667
842.796	15618
842.933	15656
843.069	15644
843.206	15637
843.343	15660
843.479	15637
843.616	15690
843.752	15466
843.889	15393
844.025	15462
844.162	15504
844.298	15473
844.435	15507
844.571	15344
844.708	15443
844.844	15614
844.98	15610
845.117	15485
845.253	15374
845.389	15374
845.525	15344
845.661	15359
845.798	15256
845.934	15222
846.07	15260
846.206	15260
846.342	15329
846.478	15199
846.614	15055
846.75	14952
846.886	14975
847.022	15062
847.158	14918
847.294	14948
847.429	15024
847.565	14990
847.701	15245
847.837	14804
847.972	14781
848.108	14769
848.244	14815
848.379	14610
848.515	14606
848.65	14613
848.786	14545
848.921	14598
849.057	14739
849.192	14708
849.328	14602
849.463	14571
849.598	14461
849.734	14438
849.869	14492
850.004	14396
850.14	14434
850.275	14370
850.41	14225
850.545	14305
850.68	14404
850.815	14396
850.95	14286
851.085	14533
851.22	14419
851.355	14351
851.49	14347
851.625	14374
851.76	14259
851.895	14252
852.03	14229
852.165	14275
852.299	14332
852.434	14450
852.569	14343
852.703	14431
852.838	14385
852.973	14450
853.107	14488
853.242	14347
853.376	14237
853.511	14092
853.645	14199
853.78	14309
853.914	14218
854.048	14180
854.183	14210
854.317	14298
854.451	14393
854.585	14248
854.72	14199
854.854	14259
854.988	14092
855.122	14176
855.256	14145
855.39	14233
855.524	14309
855.658	14320
855.792	14278
855.926	14298
856.06	14305
856.194	14290
856.327	14301
856.461	14282
856.595	14119
856.729	14263
856.862	14214
856.996	14240
857.13	14282
857.263	14324
857.397	14317
857.53	14278
857.664	14324
857.797	14301
857.931	14324
858.064	14282
858.197	14324
858.331	14237
858.464	14187
858.597	14191
858.731	14199
858.864	14221
858.997	14149
859.13	14267
859.263	14248
859.396	14423
859.529	14157
859.662	14168
859.795	14119
859.928	14180
860.061	14370
860.194	14396
860.327	14229
860.46	14332
860.592	14385
860.725	14351
860.858	14237
860.99	14214
861.123	14134
861.256	14229
861.388	14206
861.521	14849
861.653	14119
861.786	14084
861.918	14138
862.05	14142
862.183	14123
862.315	14115
862.447	14389
862.58	14225
862.712	14027
862.844	13898
862.976	14046
863.108	14027
863.24	14374
863.372	14016
863.504	13986
863.636	13997
863.768	14077
863.9	14054
864.032	13947
864.164	14005
864.296	14111
864.428	14157
864.559	14062
864.691	14183
864.823	13989
864.954	14126
865.086	14107
865.217	14012
865.349	13936
865.48	13944
865.612	14012
865.743	14138
865.875	14005
866.006	13940
866.137	14012
866.269	14008
866.4	13967
866.531	13947
866.662	13959
866.793	13959
866.924	13986
867.055	14024
867.186	13947
867.317	13986
867.448	13898
867.579	13955
867.71	13936
867.841	14031
867.972	14062
868.103	14065
868.233	13875
868.364	14035
868.495	14115
868.625	14199
868.756	14168
868.886	14187
869.017	14202
869.147	14408
869.278	14305
869.408	14252
869.539	14309
869.669	14286
869.799	14362
869.929	14309
870.06	14381
870.19	14537
870.32	14511
870.45	14621
870.58	14651
870.71	14716
870.84	14701
870.97	14708
871.1	14632
871.23	14796
871.36	14823
871.489	14667
871.619	14781
871.749	14895
871.879	14876
872.008	14941
872.138	14693
872.267	14807
872.397	14716
872.526	14682
872.656	14735
872.785	14674
872.915	14902
873.044	14910
873.173	14849
873.303	14925
873.432	14929
873.561	14963
873.69	14948
873.819	14792
873.948	14941
874.077	14891
874.206	14887
874.335	14990
874.464	15058
874.593	15142
874.722	15142
874.851	15161
874.979	15249
875.108	15275
875.237	15222
875.365	15100
875.494	15154
875.623	15192
875.751	15260
875.88	15313
876.008	15313
876.136	15382
876.265	15576
876.393	15755
876.521	15701
876.65	15751
876.778	15686
876.906	15679
877.034	15625
877.162	15557
877.29	15549
877.418	15629
877.546	15580
877.674	15652
877.802	15663
877.93	15584
878.058	15534
878.185	15572
878.313	15568
878.441	15686
878.568	15492
878.696	15469
878.824	15614
878.951	15762
879.079	15781
879.206	15911
879.333	15789
879.461	15701
879.588	15698
879.715	15747
879.842	15937
879.97	15720
880.097	15500
880.224	15428
880.351	15500
880.478	15511
880.605	15424
880.732	15511
880.859	15755
880.986	15633
881.112	15507
881.239	15443
881.366	15370
881.493	15199
881.619	15108
881.746	15070
881.872	15211
881.999	15100
882.125	15150
882.252	15169
882.378	15218
882.505	15367
882.631	15070
882.757	15005
882.883	15024
883.01	15093
883.136	14899
883.262	14834
883.388	14769
883.514	14994
883.64	15017
883.766	14956
883.892	14735
884.018	14769
884.143	14998
884.269	15051
884.395	14773
884.52	14560
884.646	14727
884.772	14564
884.897	14556
885.023	14606
885.148	14705
885.274	14811
885.399	14804
885.524	14720
885.65	14670
885.775	14731
885.9	14667
886.025	14796
886.15	14651
886.275	14693
886.4	14492
886.525	14689
886.65	14583
886.775	14575
886.9	14739
887.025	14800
887.149	14640
887.274	14370
887.399	14393
887.523	14419
887.648	14381
887.773	14339
887.897	14533
888.021	14545
888.146	14389
888.27	14579
888.395	14659
888.519	14621
888.643	14511
888.767	14499
888.891	14396
889.015	14267
889.139	14404
889.263	14214
889.387	14480
889.511	14571
889.635	14514
889.759	14332
889.883	14381
890.006	14419
890.13	14461
890.254	14229
890.377	14396
890.501	14142
890.624	14191
890.748	14202
890.871	14142
890.995	13944
891.118	13997
891.241	14081
891.364	14088
891.488	14195
891.611	14016
891.734	13974
891.857	14130
891.98	14012
892.103	14164
892.226	14054
892.349	13993
892.471	13947
892.594	14020
892.717	14054
892.839	14062
892.962	14149
893.085	14073
893.207	14069
893.33	13932
893.452	14043
893.575	14092
893.697	14149
893.819	14248
893.941	14305
894.064	14229
894.186	13997
894.308	14024
894.43	14119
894.552	14256
894.674	14244
894.796	14088
894.918	14142
895.04	14149
895.161	14305
895.283	14237
895.405	14115
895.526	14149
895.648	14123
895.769	14153
895.891	14199
896.012	14313
896.134	14157
896.255	14183
896.376	14210
896.498	14218
896.619	14244
896.74	14225
896.861	14313
896.982	14575
897.103	14693
897.224	14469
897.345	14393
897.466	14362
897.587	14533
897.708	14651
897.828	14632
897.949	14511
898.07	14381
898.19	14480
898.311	14613
898.431	14404
898.552	14503
898.672	14640
898.792	14655
898.913	14522
899.033	14469
899.153	14476
899.273	14313
899.393	14377
899.513	14385
899.633	14381
899.753	14419
899.873	14370
899.993	14465
900.113	14385
900.232	14408
900.352	14400
900.472	14313
900.591	14298
900.711	14275
900.83	14298
900.95	14396
901.069	14396
901.189	14294
901.308	14008
901.427	13959
901.546	13898
901.665	14031
901.784	14012
901.904	13841
902.023	13753
902.141	13578
902.26	13586
902.379	13677
902.498	13567
902.617	13453
902.735	13590
902.854	13472
902.973	13495
903.091	13232
903.21	13244
903.328	13259
903.446	13122
903.565	13103
903.683	13194
903.801	13107
903.919	13053
904.038	13076
904.156	12981
904.274	13046
904.392	12852
904.51	12802
904.627	12909
904.745	12966
904.863	12897
904.981	12768
905.098	12582
905.216	12623
905.334	12673
905.451	12608
905.569	12551
905.686	12650
905.803	12612
905.921	12513
906.038	12563
906.155	12448
906.272	12433
906.389	12384
906.506	12209
906.623	12178
906.74	12251
906.857	12041
906.974	12140
907.091	12224
907.208	12388
907.324	12296
907.441	12186
907.557	11961
907.674	11866
907.79	11863
907.907	11942
908.023	11923
908.139	12053
908.256	11908
908.372	11866
908.488	11828
908.604	11741
908.72	11729
908.836	11722
908.952	11623
909.068	11718
909.184	11798
909.3	11733
909.415	11745
909.531	11741
909.647	11509
909.762	11429
909.878	11440
909.993	11532
910.108	11509
910.224	11604
910.339	11619
910.454	11315
910.57	11349
910.685	11239
910.8	11573
910.915	11471
911.03	11406
911.145	11204
911.259	11223
911.374	11189
911.489	11151
911.604	11064
911.718	10968
911.833	10961
911.947	10854
912.062	10873
912.176	10915
912.291	10976
912.405	10946
912.519	11052
912.633	11117
912.748	11037
912.862	10904
912.976	10862
913.09	10771
913.204	10782
913.318	10805
913.431	10930
913.545	10862
913.659	10908
913.772	10812
913.886	10714
914	10694
914.113	10839
914.226	10839
914.34	10755
914.453	10698
914.566	10752
914.68	10641
914.793	10641
914.906	10443
915.019	10436
915.132	10352
915.245	10360
915.358	10489
915.47	10519
915.583	10462
915.696	10535
915.809	10603
915.921	10565
916.034	10519
916.146	10470
916.259	10424
916.371	10531
916.483	10470
916.595	10303
916.708	10390
916.82	10371
916.932	10337
917.044	10386
917.156	10291
917.268	10299
917.38	10341
917.491	10261
917.603	10344
917.715	10413
917.826	10360
917.938	10265
918.049	10207
918.161	10284
918.272	10409
918.384	10398
918.495	10306
918.606	10188
918.717	10082
918.828	10188
918.939	10211
919.05	10044
919.161	10204
919.272	9987
919.383	10006
919.494	10242
919.604	10455
919.715	10200
919.826	10101
919.936	10150
920.047	10253
920.157	10234
920.267	10417
920.378	10299
920.488	10219
920.598	10398
920.708	10550
920.818	10409
920.928	10352
921.038	10573
921.148	10504
921.258	10188
921.368	10078
921.477	10051
921.587	10044
921.697	9937
921.806	10139
921.916	9907
922.025	9838
922.134	9762
922.244	9660
922.353	9846
922.462	9629
922.571	9576
922.68	9439
922.789	9481
922.898	9519
923.007	9397
923.116	9496
923.224	9462
923.333	9416
923.442	9370
923.55	9329
923.659	9325
923.767	9374
923.876	9256
923.984	9424
924.092	9154
924.201	9245
924.309	9317
924.417	9279
924.525	9226
924.633	9291
924.741	9979
924.849	9123
924.956	9195
925.064	9024
925.172	9005
925.279	9062
925.387	9127
925.494	9100
925.602	9245
925.709	9192
925.816	9024
925.924	9119
926.031	9173
926.138	9135
926.245	9188
926.352	8963
926.459	9157
926.566	9157
926.673	9108
926.779	8967
926.886	8918
926.993	8857
927.099	8796
927.206	8762
927.312	8834
927.419	8762
927.525	8845
927.631	8883
927.737	8792
927.843	8716
927.95	8636
928.056	8682
928.162	8697
928.267	8777
928.373	9370
928.479	8777
928.585	8530
928.69	8644
928.796	8758
928.901	8629
929.007	8423
929.112	8659
929.218	8575
929.323	8518
929.428	8568
929.533	8636
929.638	8469
929.743	8530
929.848	8530
929.953	8587
930.058	8415
930.163	8313
930.267	8320
930.372	8385
930.477	8256
930.581	8503
930.685	8286
930.79	8214
930.894	8168
930.998	8259
931.103	8427
931.207	8043
931.311	7955
931.415	7967
931.519	7776
931.623	7738
