Data from test_V78500241_1966.txt Node
Date: Fri Mar 25 14:47:24 CST 2022
User: usil
Spectrometer: V785-0024
Trigger mode: 0
Integration Time (sec): 4.000000E-1
Scans to average: 1
Nonlinearity correction enabled: false
Boxcar width: 0
Storing dark spectrum: false
XAxis mode: Wavelengths
Number of Pixels in Spectrum: 1024
>>>>>Begin Spectral Data<<<<<
801.071	22128
801.214	22063
801.356	21686
801.499	21656
801.641	21545
801.783	21378
801.926	21435
802.068	21382
802.211	21428
802.353	21230
802.496	21009
802.638	21024
802.78	20868
802.923	20826
803.065	20762
803.208	20720
803.35	20705
803.492	20914
803.635	20982
803.777	20792
803.919	20868
804.061	21119
804.204	20815
804.346	20735
804.488	20712
804.63	20842
804.773	20705
804.915	20735
805.057	20804
805.199	20693
805.341	20773
805.483	20883
805.626	20667
805.768	20556
805.91	20739
806.052	20819
806.194	20617
806.336	20838
806.478	20762
806.62	20644
806.762	20788
806.904	20834
807.046	21165
807.188	21055
807.33	21055
807.472	21013
807.614	20967
807.756	20853
807.898	20861
808.04	20769
808.182	20804
808.324	20769
808.465	20769
808.607	20910
808.749	21135
808.891	21195
809.033	21428
809.174	21104
809.316	21005
809.458	21123
809.6	21070
809.741	21169
809.883	21245
810.025	21203
810.166	21355
810.308	21256
810.45	21184
810.591	21074
810.733	20887
810.875	20849
811.016	20910
811.158	20731
811.299	20857
811.441	21017
811.582	20937
811.724	20777
811.865	20826
812.007	20815
812.148	20807
812.29	20895
812.431	20925
812.573	21142
812.714	21355
812.855	21374
812.997	21428
813.138	21599
813.279	21477
813.421	21291
813.562	21169
813.703	21203
813.845	20998
813.986	20777
814.127	20552
814.268	20389
814.41	20484
814.551	20419
814.692	20347
814.833	20298
814.974	20393
815.115	20339
815.256	20240
815.397	20240
815.539	20248
815.68	20168
815.821	20122
815.962	20161
816.103	20130
816.244	20050
816.385	19879
816.526	19826
816.666	19616
816.807	19647
816.948	19609
817.089	19571
817.23	19689
817.371	19590
817.512	19476
817.653	19544
817.793	19476
817.934	19540
818.075	19472
818.216	19544
818.356	19510
818.497	19240
818.638	19175
818.778	19202
818.919	19160
819.06	19259
819.2	19324
819.341	19426
819.481	19464
819.622	19582
819.762	19727
819.903	19658
820.043	19613
820.184	19491
820.324	19453
820.465	19571
820.605	19537
820.746	19426
820.886	19369
821.026	19476
821.167	19563
821.307	19586
821.447	19480
821.588	19438
821.728	19278
821.868	19019
822.008	18973
822.149	19061
822.289	18878
822.429	18639
822.569	18570
822.709	18620
822.849	18464
822.99	18410
823.13	18403
823.27	18330
823.41	18254
823.55	18129
823.69	18262
823.83	18232
823.97	18140
824.11	17984
824.25	18034
824.389	18083
824.529	18064
824.669	17984
824.809	17980
824.949	18098
825.089	18007
825.228	17961
825.368	17821
825.508	17733
825.648	17828
825.787	17764
825.927	17821
826.067	17737
826.206	17707
826.346	17779
826.485	17684
826.625	17809
826.765	17809
826.904	17726
827.044	17516
827.183	17596
827.323	17417
827.462	17535
827.601	17486
827.741	17421
827.88	17543
828.02	17258
828.159	17414
828.298	17634
828.437	17497
828.577	17505
828.716	17585
828.855	17368
828.994	17303
829.134	17220
829.273	17216
829.412	17220
829.551	17178
829.69	17231
829.829	17246
829.968	17376
830.107	17277
830.246	17189
830.385	17200
830.524	17071
830.663	17128
830.802	17006
830.941	16828
831.08	16873
831.219	17006
831.357	16968
831.496	17048
831.635	16771
831.774	16877
831.913	16782
832.051	16653
832.19	16535
832.329	16626
832.467	16603
832.606	16497
832.744	16596
832.883	16554
833.022	16519
833.16	16542
833.299	16630
833.437	16546
833.576	16603
833.714	16603
833.852	16588
833.991	16645
834.129	16664
834.267	16713
834.406	16580
834.544	16603
834.682	16656
834.821	16493
834.959	16721
835.097	16702
835.235	16771
835.373	16645
835.511	16596
835.65	16481
835.788	16516
835.926	16310
836.064	16299
836.202	16348
836.34	16588
836.478	16565
836.615	16489
836.753	16512
836.891	16580
837.029	16546
837.167	16409
837.305	16474
837.443	16413
837.58	16382
837.718	16455
837.856	16405
837.993	16398
838.131	16489
838.269	16257
838.406	16299
838.544	16295
838.681	16112
838.819	16131
838.956	15899
839.094	15972
839.231	15880
839.369	16105
839.506	16322
839.643	16139
839.781	16021
839.918	15876
840.055	15918
840.193	15956
840.33	15964
840.467	15907
840.604	15930
840.742	16253
840.879	15861
841.016	15827
841.153	15842
841.29	16044
841.427	16082
841.564	15983
841.701	15964
841.838	15930
841.975	15861
842.112	15785
842.249	15774
842.385	15713
842.522	15934
842.659	15778
842.796	15553
842.933	15713
843.069	15660
843.206	15679
843.343	15869
843.479	15785
843.616	15865
843.752	15492
843.889	15614
844.025	15690
844.162	15481
844.298	15599
844.435	15488
844.571	15450
844.708	15515
844.844	15682
844.98	15622
845.117	15686
845.253	15435
845.389	15447
845.525	15428
845.661	15481
845.798	15382
845.934	15367
846.07	15226
846.206	15386
846.342	15428
846.478	15222
846.614	15146
846.75	15001
846.886	14967
847.022	15127
847.158	15173
847.294	15081
847.429	15146
847.565	15043
847.701	15348
847.837	14830
847.972	14758
848.108	14948
848.244	14921
848.379	14727
848.515	14613
848.65	14644
848.786	14640
848.921	14731
849.057	14838
849.192	14735
849.328	14758
849.463	14724
849.598	14659
849.734	14564
849.869	14473
850.004	14438
850.14	14480
850.275	14450
850.41	14499
850.545	14431
850.68	14461
850.815	14511
850.95	14339
851.085	14545
851.22	14476
851.355	14495
851.49	14434
851.625	14358
851.76	14415
851.895	14355
852.03	14328
852.165	14438
852.299	14492
852.434	14454
852.569	14465
852.703	14514
852.838	14552
852.973	14587
853.107	14659
853.242	14465
853.376	14339
853.511	14252
853.645	14298
853.78	14427
853.914	14343
854.048	14301
854.183	14263
854.317	14385
854.451	14533
854.585	14256
854.72	14301
854.854	14286
854.988	14176
855.122	14263
855.256	14225
855.39	14317
855.524	14450
855.658	14442
855.792	14396
855.926	14309
856.06	14408
856.194	14446
856.327	14278
856.461	14210
856.595	14252
856.729	14313
856.862	14454
856.996	14305
857.13	14385
857.263	14385
857.397	14362
857.53	14317
857.664	14415
857.797	14446
857.931	14408
858.064	14324
858.197	14377
858.331	14377
858.464	14400
858.597	14320
858.731	14324
858.864	14374
858.997	14332
859.13	14320
859.263	14320
859.396	14347
859.529	14328
859.662	14286
859.795	14393
859.928	14351
860.061	14450
860.194	14568
860.327	14290
860.46	14202
860.592	14324
860.725	14476
860.858	14377
860.99	14294
861.123	14229
861.256	14263
861.388	14427
861.521	14994
861.653	14237
861.786	14119
861.918	14218
862.05	14286
862.183	14313
862.315	14347
862.447	14393
862.58	14259
862.712	14157
862.844	14092
862.976	14202
863.108	14225
863.24	14313
863.372	14043
863.504	14164
863.636	14073
863.768	14115
863.9	14103
864.032	14024
864.164	14012
864.296	14142
864.428	14164
864.559	14119
864.691	14214
864.823	14180
864.954	14168
865.086	14180
865.217	14054
865.349	14084
865.48	14050
865.612	14088
865.743	14252
865.875	14126
866.006	13989
866.137	14172
866.269	13986
866.4	14126
866.531	13928
866.662	13947
866.793	14058
866.924	13955
867.055	14119
867.186	14065
867.317	14149
867.448	13997
867.579	14024
867.71	14020
867.841	14016
867.972	14176
868.103	14081
868.233	13967
868.364	14012
868.495	14065
868.625	14313
868.756	14385
868.886	14210
869.017	14240
869.147	14492
869.278	14423
869.408	14290
869.539	14290
869.669	14454
869.799	14282
869.929	14549
870.06	14484
870.19	14674
870.32	14583
870.45	14720
870.58	14746
870.71	14804
870.84	14944
870.97	14678
871.1	14758
871.23	14971
871.36	14921
871.489	14838
871.619	14823
871.749	14941
871.879	14963
872.008	15070
872.138	14952
872.267	14921
872.397	14750
872.526	14610
872.656	14796
872.785	14697
872.915	14902
873.044	15032
873.173	14933
873.303	15039
873.432	15009
873.561	14998
873.69	14929
873.819	15074
873.948	15116
874.077	15032
874.206	14979
874.335	14963
874.464	15161
874.593	15298
874.722	15203
874.851	15283
874.979	15291
875.108	15329
875.237	15199
875.365	15142
875.494	15211
875.623	15367
875.751	15142
875.88	15317
876.008	15477
876.136	15466
876.265	15743
876.393	15892
876.521	15827
876.65	15739
876.778	15785
876.906	15717
877.034	15625
877.162	15648
877.29	15671
877.418	15694
877.546	15781
877.674	15637
877.802	15755
877.93	15694
878.058	15675
878.185	15500
878.313	15629
878.441	15789
878.568	15492
878.696	15637
878.824	15705
878.951	15797
879.079	15869
879.206	16139
879.333	15751
879.461	15739
879.588	15865
879.715	15926
879.842	16017
879.97	15804
880.097	15622
880.224	15439
880.351	15603
880.478	15526
880.605	15462
880.732	15519
880.859	15736
880.986	15580
881.112	15633
881.239	15481
881.366	15306
881.493	15272
881.619	15237
881.746	15226
881.872	15188
881.999	15214
882.125	15112
882.252	15252
882.378	15329
882.505	15355
882.631	15131
882.757	15005
882.883	15077
883.01	15013
883.136	14921
883.262	14891
883.388	14872
883.514	14948
883.64	15081
883.766	14967
883.892	14883
884.018	14883
884.143	14998
884.269	15146
884.395	14823
884.52	14765
884.646	14765
884.772	14663
884.897	14507
885.023	14697
885.148	14834
885.274	14872
885.399	14823
885.524	14731
885.65	14689
885.775	14769
885.9	14762
886.025	14826
886.15	14785
886.275	14689
886.4	14655
886.525	14644
886.65	14617
886.775	14716
886.9	14876
887.025	14963
887.149	14758
887.274	14526
887.399	14564
887.523	14541
887.648	14473
887.773	14461
887.897	14617
888.021	14549
888.146	14617
888.27	14621
888.395	14754
888.519	14632
888.643	14602
888.767	14621
888.891	14533
889.015	14434
889.139	14507
889.263	14389
889.387	14495
889.511	14636
889.635	14499
889.759	14355
889.883	14320
890.006	14415
890.13	14621
890.254	14377
890.377	14339
890.501	14157
890.624	14191
890.748	14252
890.871	14145
890.995	13967
891.118	14001
891.241	14149
891.364	14161
891.488	14210
891.611	14130
891.734	14161
891.857	14225
891.98	14096
892.103	14168
892.226	14161
892.349	14096
892.471	13940
892.594	14123
892.717	14058
892.839	14020
892.962	14126
893.085	14195
893.207	14119
893.33	14103
893.452	14016
893.575	14142
893.697	14126
893.819	14240
893.941	14317
894.064	14309
894.186	14111
894.308	14046
894.43	14259
894.552	14313
894.674	14339
894.796	14107
894.918	14126
895.04	14111
895.161	14278
895.283	14183
895.405	14126
895.526	14134
895.648	14244
895.769	14286
895.891	14320
896.012	14313
896.134	14339
896.255	14271
896.376	14278
896.498	14381
896.619	14374
896.74	14328
896.861	14412
896.982	14575
897.103	14712
897.224	14610
897.345	14492
897.466	14514
897.587	14560
897.708	14632
897.828	14613
897.949	14632
898.07	14492
898.19	14530
898.311	14712
898.431	14499
898.552	14697
898.672	14758
898.792	14731
898.913	14792
899.033	14560
899.153	14465
899.273	14450
899.393	14549
899.513	14602
899.633	14522
899.753	14473
899.873	14446
899.993	14617
900.113	14518
900.232	14514
900.352	14442
900.472	14412
900.591	14385
900.711	14400
900.83	14343
900.95	14374
901.069	14499
901.189	14301
901.308	14115
901.427	13868
901.546	14100
901.665	13974
901.784	14130
901.904	13826
902.023	13868
902.141	13601
902.26	13601
902.379	13689
902.498	13586
902.617	13559
902.735	13567
902.854	13510
902.973	13632
903.091	13308
903.21	13247
903.328	13331
903.446	13270
903.565	13103
903.683	13168
903.801	13023
903.919	13202
904.038	13099
904.156	13019
904.274	13072
904.392	12928
904.51	12970
904.627	12973
904.745	13057
904.863	12993
904.981	12753
905.098	12589
905.216	12726
905.334	12646
905.451	12738
905.569	12673
905.686	12837
905.803	12764
905.921	12490
906.038	12616
906.155	12513
906.272	12437
906.389	12426
906.506	12251
906.623	12258
906.74	12224
906.857	12121
906.974	12216
907.091	12407
907.208	12395
907.324	12277
907.441	12140
907.557	12079
907.674	12022
907.79	11984
907.907	12034
908.023	12095
908.139	12038
908.256	11939
908.372	12019
908.488	11950
908.604	11828
908.72	11748
908.836	11840
908.952	11695
909.068	11805
909.184	11828
909.3	11824
909.415	11920
909.531	11805
909.647	11585
909.762	11547
909.878	11573
909.993	11581
910.108	11577
910.224	11596
910.339	11566
910.454	11478
910.57	11455
910.685	11406
910.8	11619
910.915	11547
911.03	11414
911.145	11223
911.259	11299
911.374	11227
911.489	11284
911.604	11132
911.718	11109
911.833	11083
911.947	10938
912.062	10869
912.176	11060
912.291	11090
912.405	11067
912.519	11197
912.633	11284
912.748	11132
912.862	11071
912.976	10900
913.09	10759
913.204	10923
913.318	10972
913.431	10987
913.545	11105
913.659	11083
913.772	10904
913.886	10774
914	10812
914.113	10843
914.226	10930
914.34	10820
914.453	10698
914.566	10900
914.68	10694
914.793	10866
914.906	10584
915.019	10542
915.132	10497
915.245	10634
915.358	10535
915.47	10554
915.583	10535
915.696	10736
915.809	10668
915.921	10710
916.034	10550
916.146	10466
916.259	10500
916.371	10596
916.483	10599
916.595	10474
916.708	10440
916.82	10428
916.932	10451
917.044	10462
917.156	10447
917.268	10379
917.38	10272
917.491	10356
917.603	10432
917.715	10466
917.826	10405
917.938	10337
918.049	10238
918.161	10421
918.272	10535
918.384	10462
918.495	10375
918.606	10227
918.717	10196
918.828	10291
918.939	10268
919.05	10177
919.161	10177
919.272	10071
919.383	10128
919.494	10333
919.604	10516
919.715	10238
919.826	10139
919.936	10204
920.047	10413
920.157	10333
920.267	10504
920.378	10318
920.488	10360
920.598	10417
920.708	10607
920.818	10561
920.928	10493
921.038	10653
921.148	10577
921.258	10356
921.368	10223
921.477	10112
921.587	10147
921.697	9964
921.806	10158
921.916	9945
922.025	9926
922.134	9800
922.244	9846
922.353	9785
922.462	9682
922.571	9724
922.68	9591
922.789	9534
922.898	9652
923.007	9408
923.116	9625
923.224	9492
923.333	9496
923.442	9382
923.55	9386
923.659	9458
923.767	9526
923.876	9370
923.984	9526
924.092	9272
924.201	9351
924.309	9329
924.417	9412
924.525	9374
924.633	9329
924.741	10295
924.849	9165
924.956	9256
925.064	9112
925.172	9058
925.279	9074
925.387	9192
925.494	9195
925.602	9260
925.709	9214
925.816	9161
925.924	9127
926.031	9245
926.138	9207
926.245	9260
926.352	9112
926.459	9260
926.566	9287
926.673	9138
926.779	9058
926.886	9058
926.993	8944
927.099	8830
927.206	8883
927.312	8895
927.419	8925
927.525	8868
927.631	8891
927.737	8781
927.843	8788
927.95	8644
928.056	8754
928.162	8762
928.267	8819
928.373	9462
928.479	8830
928.585	8644
928.69	8876
928.796	8826
928.901	8743
929.007	8625
929.112	8670
929.218	8659
929.323	8568
929.428	8613
929.533	8667
929.638	8587
929.743	8560
929.848	8644
929.953	8629
930.058	8461
930.163	8290
930.267	8408
930.372	8530
930.477	8313
930.581	8621
930.685	8454
930.79	8317
930.894	8358
930.998	8309
931.103	8469
931.207	8084
931.311	8008
931.415	8020
931.519	7833
931.623	7788
