Data from test_V78500241_2833.txt Node
Date: Fri Mar 25 14:53:26 CST 2022
User: usil
Spectrometer: V785-0024
Trigger mode: 0
Integration Time (sec): 4.000000E-1
Scans to average: 1
Nonlinearity correction enabled: false
Boxcar width: 0
Storing dark spectrum: false
XAxis mode: Wavelengths
Number of Pixels in Spectrum: 1024
>>>>>Begin Spectral Data<<<<<
801.071	22021
801.214	21934
801.356	21785
801.499	21572
801.641	21458
801.783	21420
801.926	21439
802.068	21336
802.211	21298
802.353	21214
802.496	21043
802.638	20933
802.78	20880
802.923	20773
803.065	20754
803.208	20758
803.35	20724
803.492	20921
803.635	20883
803.777	20750
803.919	20769
804.061	21150
804.204	20857
804.346	20743
804.488	20609
804.63	20853
804.773	20606
804.915	20613
805.057	20712
805.199	20693
805.341	20712
805.483	20762
805.626	20769
805.768	20739
805.91	20750
806.052	20663
806.194	20537
806.336	20796
806.478	20636
806.62	20590
806.762	20765
806.904	20849
807.046	21051
807.188	20998
807.33	21001
807.472	21104
807.614	20891
807.756	20887
807.898	20765
808.04	20727
808.182	20796
808.324	20716
808.465	20746
808.607	21020
808.749	21039
808.891	21066
809.033	21142
809.174	21184
809.316	20956
809.458	21131
809.6	20982
809.741	21043
809.883	20971
810.025	21146
810.166	21207
810.308	21283
810.45	21024
810.591	21066
810.733	20918
810.875	20773
811.016	20705
811.158	20693
811.299	20887
811.441	21009
811.582	20963
811.724	20834
811.865	20754
812.007	20712
812.148	20651
812.29	20804
812.431	20982
812.573	21249
812.714	21256
812.855	21348
812.997	21435
813.138	21405
813.279	21325
813.421	21412
813.562	21211
813.703	21005
813.845	20944
813.986	20644
814.127	20568
814.268	20362
814.41	20336
814.551	20313
814.692	20423
814.833	20415
814.974	20202
815.115	20408
815.256	20138
815.397	20157
815.539	20145
815.68	20100
815.821	20096
815.962	20157
816.103	20073
816.244	19932
816.385	19864
816.526	19913
816.666	19601
816.807	19495
816.948	19533
817.089	19655
817.23	19510
817.371	19495
817.512	19502
817.653	19529
817.793	19400
817.934	19434
818.075	19419
818.216	19377
818.356	19457
818.497	19316
818.638	19107
818.778	19183
818.919	19156
819.06	19225
819.2	19301
819.341	19373
819.481	19316
819.622	19563
819.762	19742
819.903	19537
820.043	19495
820.184	19525
820.324	19365
820.465	19419
820.605	19445
820.746	19506
820.886	19369
821.026	19422
821.167	19354
821.307	19495
821.447	19491
821.588	19266
821.728	19187
821.868	18928
822.008	18791
822.149	18863
822.289	18875
822.429	18722
822.569	18467
822.709	18582
822.849	18327
822.99	18426
823.13	18357
823.27	18277
823.41	18155
823.55	18186
823.69	18136
823.83	18144
823.97	18068
824.11	17916
824.25	17927
824.389	17916
824.529	18022
824.669	17935
824.809	18011
824.949	18034
825.089	17927
825.228	17942
825.368	17779
825.508	17760
825.648	17859
825.787	17783
825.927	17832
826.067	17608
826.206	17619
826.346	17714
826.485	17691
826.625	17703
826.765	17885
826.904	17779
827.044	17562
827.183	17383
827.323	17383
827.462	17421
827.601	17391
827.741	17337
827.88	17402
828.02	17254
828.159	17406
828.298	17391
828.437	17497
828.577	17303
828.716	17604
828.855	17307
828.994	17307
829.134	17083
829.273	17231
829.412	17079
829.551	16957
829.69	17056
829.829	17174
829.968	17181
830.107	17212
830.246	17166
830.385	17159
830.524	17029
830.663	16987
830.802	16900
830.941	16641
831.08	16694
831.219	16755
831.357	16782
831.496	16991
831.635	16736
831.774	16725
831.913	16710
832.051	16519
832.19	16512
832.329	16538
832.467	16329
832.606	16379
832.744	16421
832.883	16481
833.022	16417
833.16	16493
833.299	16542
833.437	16428
833.576	16508
833.714	16531
833.852	16402
833.991	16535
834.129	16584
834.267	16607
834.406	16531
834.544	16538
834.682	16504
834.821	16409
834.959	16573
835.097	16504
835.235	16668
835.373	16569
835.511	16577
835.65	16318
835.788	16371
835.926	16265
836.064	16200
836.202	16181
836.34	16413
836.478	16489
836.615	16417
836.753	16538
836.891	16443
837.029	16417
837.167	16375
837.305	16329
837.443	16287
837.58	16276
837.718	16329
837.856	16207
837.993	16166
838.131	16204
838.269	16219
838.406	16124
838.544	16109
838.681	16002
838.819	15983
838.956	15728
839.094	15892
839.231	15922
839.369	16059
839.506	16291
839.643	16048
839.781	15781
839.918	15770
840.055	15892
840.193	15812
840.33	15766
840.467	15747
840.604	15778
840.742	16059
840.879	15641
841.016	15728
841.153	15759
841.29	15998
841.427	15899
841.564	15934
841.701	15869
841.838	15781
841.975	15724
842.112	15808
842.249	15671
842.385	15545
842.522	15819
842.659	15743
842.796	15591
842.933	15587
843.069	15603
843.206	15526
843.343	15682
843.479	15591
843.616	15637
843.752	15416
843.889	15393
844.025	15610
844.162	15393
844.298	15481
844.435	15401
844.571	15306
844.708	15492
844.844	15564
844.98	15561
845.117	15481
845.253	15435
845.389	15294
845.525	15363
845.661	15291
845.798	15184
845.934	15230
846.07	15218
846.206	15321
846.342	15416
846.478	15165
846.614	15043
846.75	14910
846.886	14929
847.022	15055
847.158	14998
847.294	14899
847.429	15108
847.565	15036
847.701	15294
847.837	14682
847.972	14724
848.108	14697
848.244	14739
848.379	14602
848.515	14541
848.65	14492
848.786	14533
848.921	14621
849.057	14651
849.192	14693
849.328	14674
849.463	14655
849.598	14522
849.734	14511
849.869	14476
850.004	14358
850.14	14355
850.275	14290
850.41	14309
850.545	14332
850.68	14332
850.815	14343
850.95	14317
851.085	14514
851.22	14457
851.355	14328
851.49	14336
851.625	14282
851.76	14221
851.895	14206
852.03	14191
852.165	14366
852.299	14400
852.434	14389
852.569	14317
852.703	14374
852.838	14442
852.973	14393
853.107	14427
853.242	14286
853.376	14153
853.511	14119
853.645	14142
853.78	14370
853.914	14164
854.048	14199
854.183	14187
854.317	14252
854.451	14317
854.585	14225
854.72	14096
854.854	14244
854.988	14149
855.122	14248
855.256	14107
855.39	14161
855.524	14313
855.658	14275
855.792	14271
855.926	14389
856.06	14244
856.194	14324
856.327	14271
856.461	14149
856.595	14103
856.729	14103
856.862	14377
856.996	14176
857.13	14233
857.263	14366
857.397	14332
857.53	14157
857.664	14210
857.797	14290
857.931	14404
858.064	14240
858.197	14393
858.331	14183
858.464	14164
858.597	14142
858.731	14263
858.864	14225
858.997	14153
859.13	14218
859.263	14210
859.396	14377
859.529	14214
859.662	14092
859.795	14100
859.928	14202
860.061	14415
860.194	14370
860.327	14176
860.46	14317
860.592	14343
860.725	14347
860.858	14267
860.99	14142
861.123	14123
861.256	14134
861.388	14275
861.521	14960
861.653	14088
861.786	14054
861.918	13989
862.05	14153
862.183	14115
862.315	14172
862.447	14233
862.58	14153
862.712	14012
862.844	13947
862.976	14031
863.108	14103
863.24	14351
863.372	13959
863.504	13944
863.636	14092
863.768	14126
863.9	14027
864.032	13928
864.164	13982
864.296	13970
864.428	14081
864.559	14054
864.691	14092
864.823	14100
864.954	13989
865.086	13997
865.217	13940
865.349	14008
865.48	13944
865.612	13967
865.743	14092
865.875	14081
866.006	13913
866.137	13963
866.269	13921
866.4	14020
866.531	13974
866.662	13887
866.793	13906
866.924	13970
867.055	14027
867.186	14008
867.317	13894
867.448	13894
867.579	13913
867.71	13879
867.841	13822
867.972	13963
868.103	13955
868.233	13989
868.364	13993
868.495	14077
868.625	14153
868.756	14271
868.886	14103
869.017	14210
869.147	14259
869.278	14263
869.408	14202
869.539	14218
869.669	14286
869.799	14263
869.929	14355
870.06	14320
870.19	14617
870.32	14400
870.45	14590
870.58	14629
870.71	14697
870.84	14689
870.97	14613
871.1	14499
871.23	14777
871.36	14826
871.489	14777
871.619	14815
871.749	14853
871.879	14845
872.008	14971
872.138	14830
872.267	14781
872.397	14655
872.526	14735
872.656	14552
872.785	14807
872.915	14720
873.044	15009
873.173	14876
873.303	14887
873.432	14872
873.561	14948
873.69	14796
873.819	14906
873.948	14914
874.077	14937
874.206	14853
874.335	14944
874.464	14979
874.593	15157
874.722	15173
874.851	15245
874.979	15173
875.108	15150
875.237	15199
875.365	15070
875.494	15192
875.623	15294
875.751	15211
875.88	15176
876.008	15233
876.136	15344
876.265	15591
876.393	15698
876.521	15629
876.65	15739
876.778	15671
876.906	15538
877.034	15530
877.162	15504
877.29	15561
877.418	15584
877.546	15591
877.674	15587
877.802	15629
877.93	15595
878.058	15469
878.185	15485
878.313	15572
878.441	15606
878.568	15447
878.696	15553
878.824	15576
878.951	15648
879.079	15781
879.206	15945
879.333	15736
879.461	15656
879.588	15652
879.715	15751
879.842	15846
879.97	15656
880.097	15450
880.224	15367
880.351	15481
880.478	15469
880.605	15370
880.732	15458
880.859	15625
880.986	15504
881.112	15504
881.239	15412
881.366	15154
881.493	15119
881.619	15127
881.746	15070
881.872	15097
881.999	15150
882.125	15055
882.252	15176
882.378	15176
882.505	15272
882.631	15116
882.757	14998
882.883	14975
883.01	14967
883.136	14906
883.262	14834
883.388	14743
883.514	14960
883.64	14902
883.766	14899
883.892	14750
884.018	14857
884.143	14925
884.269	14948
884.395	14682
884.52	14674
884.646	14606
884.772	14629
884.897	14537
885.023	14659
885.148	14621
885.274	14720
885.399	14849
885.524	14659
885.65	14541
885.775	14708
885.9	14590
886.025	14754
886.15	14727
886.275	14552
886.4	14556
886.525	14636
886.65	14503
886.775	14644
886.9	14743
887.025	14861
887.149	14708
887.274	14518
887.399	14495
887.523	14465
887.648	14400
887.773	14317
887.897	14526
888.021	14522
888.146	14461
888.27	14533
888.395	14625
888.519	14533
888.643	14419
888.767	14526
888.891	14461
889.015	14370
889.139	14358
889.263	14370
889.387	14484
889.511	14617
889.635	14385
889.759	14298
889.883	14282
890.006	14389
890.13	14408
890.254	14309
890.377	14343
890.501	14267
890.624	14134
890.748	14218
890.871	14145
890.995	14084
891.118	13928
891.241	13970
891.364	14039
891.488	14168
891.611	13974
891.734	14092
891.857	14107
891.98	14092
892.103	14035
892.226	14111
892.349	13986
892.471	13887
892.594	14043
892.717	14031
892.839	14001
892.962	14050
893.085	14077
893.207	14016
893.33	13883
893.452	13959
893.575	14035
893.697	13951
893.819	14237
893.941	14263
894.064	14191
894.186	13989
894.308	13940
894.43	14134
894.552	14214
894.674	14168
894.796	14027
894.918	14058
895.04	14012
895.161	14100
895.283	14065
895.405	14027
895.526	14119
895.648	14119
895.769	14142
895.891	14187
896.012	14248
896.134	14248
896.255	14214
896.376	14210
896.498	14172
896.619	14233
896.74	14221
896.861	14183
896.982	14545
897.103	14640
897.224	14568
897.345	14476
897.466	14404
897.587	14423
897.708	14602
897.828	14499
897.949	14552
898.07	14389
898.19	14465
898.311	14651
898.431	14484
898.552	14514
898.672	14606
898.792	14708
898.913	14568
899.033	14404
899.153	14400
899.273	14339
899.393	14381
899.513	14465
899.633	14404
899.753	14552
899.873	14454
899.993	14598
900.113	14385
900.232	14530
900.352	14396
900.472	14370
900.591	14252
900.711	14385
900.83	14210
900.95	14351
901.069	14412
901.189	14237
901.308	13993
901.427	13986
901.546	14031
901.665	14001
901.784	14012
901.904	13849
902.023	13780
902.141	13563
902.26	13540
902.379	13624
902.498	13491
902.617	13445
902.735	13476
902.854	13533
902.973	13373
903.091	13331
903.21	13240
903.328	13266
903.446	13213
903.565	13187
903.683	13118
903.801	12966
903.919	13004
904.038	13080
904.156	12958
904.274	13046
904.392	12939
904.51	12859
904.627	13015
904.745	12951
904.863	12928
904.981	12795
905.098	12604
905.216	12604
905.334	12627
905.451	12604
905.569	12623
905.686	12703
905.803	12627
905.921	12433
906.038	12604
906.155	12384
906.272	12357
906.389	12391
906.506	12163
906.623	12133
906.74	12136
906.857	12106
906.974	12053
907.091	12285
907.208	12296
907.324	12220
907.441	12171
907.557	12019
907.674	11942
907.79	11961
907.907	11950
908.023	11935
908.139	12003
908.256	11882
908.372	11798
908.488	11843
908.604	11691
908.72	11668
908.836	11653
908.952	11695
909.068	11729
909.184	11828
909.3	11638
909.415	11718
909.531	11813
909.647	11471
909.762	11512
909.878	11429
909.993	11501
910.108	11421
910.224	11448
910.339	11467
910.454	11406
910.57	11315
910.685	11246
910.8	11589
910.915	11554
911.03	11288
911.145	11258
911.259	11128
911.374	11170
911.489	11037
911.604	11037
911.718	10968
911.833	10938
911.947	10908
912.062	10847
912.176	10968
912.291	10927
912.405	10877
912.519	11155
912.633	11075
912.748	11029
912.862	10923
912.976	10869
913.09	10710
913.204	10774
913.318	10805
913.431	10869
913.545	10828
913.659	10961
913.772	10828
913.886	10763
914	10714
914.113	10767
914.226	10892
914.34	10778
914.453	10698
914.566	10809
914.68	10649
914.793	10523
914.906	10386
915.019	10390
915.132	10405
915.245	10424
915.358	10443
915.47	10447
915.583	10451
915.696	10474
915.809	10512
915.921	10569
916.034	10440
916.146	10371
916.259	10356
916.371	10462
916.483	10577
916.595	10352
916.708	10402
916.82	10363
916.932	10356
917.044	10348
917.156	10375
917.268	10306
917.38	10249
917.491	10329
917.603	10249
917.715	10421
917.826	10394
917.938	10238
918.049	10185
918.161	10280
918.272	10348
918.384	10341
918.495	10211
918.606	10158
918.717	10086
918.828	10162
918.939	10185
919.05	10105
919.161	10059
919.272	9930
919.383	10006
919.494	10219
919.604	10360
919.715	10219
919.826	10017
919.936	10200
920.047	10162
920.157	10230
920.267	10447
920.378	10227
920.488	10173
920.598	10310
920.708	10519
920.818	10428
920.928	10402
921.038	10603
921.148	10405
921.258	10272
921.368	10158
921.477	10071
921.587	10017
921.697	9892
921.806	10082
921.916	9884
922.025	9690
922.134	9713
922.244	9682
922.353	9774
922.462	9644
922.571	9519
922.68	9469
922.789	9439
922.898	9439
923.007	9336
923.116	9447
923.224	9420
923.333	9439
923.442	9279
923.55	9214
923.659	9241
923.767	9420
923.876	9268
923.984	9363
924.092	9218
924.201	9302
924.309	9260
924.417	9348
924.525	9241
924.633	9310
924.741	10120
924.849	9001
924.956	9230
925.064	9081
925.172	9085
925.279	9051
925.387	9127
925.494	9077
925.602	9245
925.709	9142
925.816	9043
925.924	9119
926.031	9203
926.138	9089
926.245	9097
926.352	9036
926.459	9138
926.566	9195
926.673	9070
926.779	8990
926.886	8990
926.993	8823
927.099	8819
927.206	8727
927.312	8766
927.419	8883
927.525	8849
927.631	8834
927.737	8766
927.843	8625
927.95	8651
928.056	8731
928.162	8720
928.267	8746
928.373	9237
928.479	8830
928.585	8564
928.69	8727
928.796	8697
928.901	8594
929.007	8499
929.112	8579
929.218	8625
929.323	8556
929.428	8511
929.533	8579
929.638	8511
929.743	8480
929.848	8533
929.953	8530
930.058	8457
930.163	8267
930.267	8313
930.372	8419
930.477	8298
930.581	8514
930.685	8298
930.79	8259
930.894	8187
930.998	8180
931.103	8298
931.207	8046
931.311	7989
931.415	7909
931.519	7738
931.623	7761
