Data from test_V78500241_1136.txt Node
Date: Fri Mar 25 14:41:37 CST 2022
User: usil
Spectrometer: V785-0024
Trigger mode: 0
Integration Time (sec): 4.000000E-1
Scans to average: 1
Nonlinearity correction enabled: false
Boxcar width: 0
Storing dark spectrum: false
XAxis mode: Wavelengths
Number of Pixels in Spectrum: 1024
>>>>>Begin Spectral Data<<<<<
801.071	22508
801.214	22447
801.356	22234
801.499	22109
801.641	22021
801.783	21762
801.926	21991
802.068	21854
802.211	21766
802.353	21656
802.496	21583
802.638	21469
802.78	21359
802.923	21416
803.065	21211
803.208	21279
803.35	21367
803.492	21321
803.635	21351
803.777	21370
803.919	21431
804.061	21747
804.204	21408
804.346	21302
804.488	21070
804.63	21264
804.773	21195
804.915	21291
805.057	21287
805.199	21199
805.341	21344
805.483	21408
805.626	21233
805.768	21093
805.91	21192
806.052	21146
806.194	21154
806.336	21507
806.478	21165
806.62	21214
806.762	21340
806.904	21447
807.046	21663
807.188	21580
807.33	21500
807.472	21599
807.614	21583
807.756	21511
807.898	21477
808.04	21386
808.182	21386
808.324	21447
808.465	21485
808.607	21743
808.749	21911
808.891	22025
809.033	22029
809.174	21888
809.316	21789
809.458	21603
809.6	21694
809.741	21926
809.883	21762
810.025	21911
810.166	21880
810.308	21892
810.45	21675
810.591	21656
810.733	21545
810.875	21473
811.016	21325
811.158	21393
811.299	21443
811.441	21530
811.582	21561
811.724	21416
811.865	21424
812.007	21332
812.148	21435
812.29	21492
812.431	21694
812.573	21789
812.714	21766
812.855	21895
812.997	21998
813.138	22120
813.279	22097
813.421	21857
813.562	21808
813.703	21732
813.845	21618
813.986	21287
814.127	21142
814.268	21028
814.41	21089
814.551	20956
814.692	21085
814.833	20925
814.974	20914
815.115	20963
815.256	20819
815.397	20800
815.539	20735
815.68	20746
815.821	20644
815.962	20739
816.103	20648
816.244	20526
816.385	20438
816.526	20419
816.666	20248
816.807	20149
816.948	20278
817.089	20320
817.23	20176
817.371	20187
817.512	20161
817.653	20096
817.793	20016
817.934	20119
818.075	20168
818.216	20157
818.356	20084
818.497	19879
818.638	19875
818.778	19879
818.919	19791
819.06	19757
819.2	19913
819.341	19993
819.481	20001
819.622	20111
819.762	20362
819.903	20202
820.043	20176
820.184	20149
820.324	20046
820.465	20172
820.605	20206
820.746	20134
820.886	19928
821.026	20100
821.167	20005
821.307	20115
821.447	19913
821.588	19879
821.728	19791
821.868	19677
822.008	19552
822.149	19502
822.289	19438
822.429	19209
822.569	19221
822.709	19209
822.849	18977
822.99	18939
823.13	18943
823.27	18993
823.41	18745
823.55	18730
823.69	18814
823.83	18719
823.97	18722
824.11	18532
824.25	18551
824.389	18540
824.529	18749
824.669	18559
824.809	18654
824.949	18582
825.089	18642
825.228	18601
825.368	18308
825.508	18418
825.648	18327
825.787	18414
825.927	18407
826.067	18289
826.206	18304
826.346	18376
826.485	18353
826.625	18258
826.765	18467
826.904	18486
827.044	18186
827.183	18091
827.323	18060
827.462	18049
827.601	18045
827.741	17977
827.88	18091
828.02	17901
828.159	18038
828.298	18106
828.437	18053
828.577	18015
828.716	18194
828.855	17999
828.994	17882
829.134	17847
829.273	17897
829.412	17756
829.551	17775
829.69	17771
829.829	17691
829.968	17904
830.107	17870
830.246	17649
830.385	17726
830.524	17687
830.663	17558
830.802	17623
830.941	17539
831.08	17532
831.219	17402
831.357	17524
831.496	17638
831.635	17376
831.774	17322
831.913	17387
832.051	17178
832.19	17189
832.329	17254
832.467	17170
832.606	17094
832.744	17117
832.883	17151
833.022	17105
833.16	17185
833.299	17147
833.437	17079
833.576	17197
833.714	17098
833.852	17109
833.991	17227
834.129	17273
834.267	17185
834.406	17174
834.544	17159
834.682	17178
834.821	17079
834.959	17376
835.097	17174
835.235	17265
835.373	17269
835.511	17181
835.65	17113
835.788	17151
835.926	16877
836.064	16873
836.202	16923
836.34	17045
836.478	17208
836.615	16938
836.753	17071
836.891	17170
837.029	17105
837.167	17064
837.305	16965
837.443	16976
837.58	16976
837.718	17079
837.856	17098
837.993	16885
838.131	16995
838.269	16812
838.406	16866
838.544	16847
838.681	16668
838.819	16561
838.956	16500
839.094	16394
839.231	16550
839.369	16607
839.506	16915
839.643	16759
839.781	16459
839.918	16443
840.055	16478
840.193	16390
840.33	16519
840.467	16489
840.604	16497
840.742	16877
840.879	16462
841.016	16314
841.153	16382
841.29	16603
841.427	16432
841.564	16584
841.701	16409
841.838	16462
841.975	16363
842.112	16356
842.249	16280
842.385	16207
842.522	16314
842.659	16413
842.796	16276
842.933	16185
843.069	16154
843.206	16143
843.343	16329
843.479	16299
843.616	16299
843.752	15994
843.889	16013
844.025	16181
844.162	16105
844.298	16226
844.435	16040
844.571	15949
844.708	16067
844.844	16238
844.98	16230
845.117	16105
845.253	16002
845.389	15937
845.525	16025
845.661	16086
845.798	16078
845.934	16166
846.07	16192
846.206	16306
846.342	16265
846.478	16006
846.614	15709
846.75	15679
846.886	15557
847.022	15804
847.158	15701
847.294	15671
847.429	15701
847.565	15507
847.701	15850
847.837	15485
847.972	15317
848.108	15431
848.244	15450
848.379	15275
848.515	15199
848.65	15233
848.786	15188
848.921	15283
849.057	15241
849.192	15294
849.328	15283
849.463	15237
849.598	15192
849.734	15146
849.869	14941
850.004	14933
850.14	14979
850.275	15005
850.41	14921
850.545	15066
850.68	14929
850.815	14963
850.95	14925
851.085	15142
851.22	15055
851.355	14960
851.49	14925
851.625	14891
851.76	14921
851.895	14807
852.03	14910
852.165	14899
852.299	14918
852.434	15055
852.569	14967
852.703	15024
852.838	15097
852.973	15081
853.107	15017
853.242	14906
853.376	14937
853.511	14727
853.645	14762
853.78	14933
853.914	14823
854.048	14880
854.183	14735
854.317	14853
854.451	14986
854.585	14941
854.72	14849
854.854	14941
854.988	14777
855.122	14826
855.256	14678
855.39	14853
855.524	14823
855.658	14815
855.792	14979
855.926	14895
856.06	14906
856.194	14963
856.327	14868
856.461	14834
856.595	14834
856.729	14872
856.862	14941
856.996	14910
857.13	14910
857.263	14979
857.397	15013
857.53	14849
857.664	14948
857.797	14963
857.931	15024
858.064	14971
858.197	15017
858.331	14811
858.464	14910
858.597	14796
858.731	14864
858.864	14819
858.997	14906
859.13	14823
859.263	14864
859.396	15066
859.529	14883
859.662	14689
859.795	14830
859.928	14941
860.061	15104
860.194	15051
860.327	14906
860.46	14849
860.592	14929
860.725	14986
860.858	14929
860.99	14842
861.123	14823
861.256	14796
861.388	14887
861.521	15641
861.653	14648
861.786	14663
861.918	14655
862.05	14716
862.183	14781
862.315	14834
862.447	14864
862.58	14834
862.712	14640
862.844	14571
862.976	14735
863.108	14705
863.24	15089
863.372	14598
863.504	14651
863.636	14636
863.768	14701
863.9	14598
864.032	14579
864.164	14606
864.296	14621
864.428	14762
864.559	14655
864.691	14739
864.823	14708
864.954	14663
865.086	14651
865.217	14556
865.349	14465
865.48	14617
865.612	14636
865.743	14689
865.875	14613
866.006	14511
866.137	14701
866.269	14522
866.4	14625
866.531	14545
866.662	14476
866.793	14549
866.924	14533
867.055	14606
867.186	14693
867.317	14621
867.448	14484
867.579	14552
867.71	14488
867.841	14514
867.972	14613
868.103	14602
868.233	14552
868.364	14636
868.495	14735
868.625	14815
868.756	14967
868.886	14762
869.017	14872
869.147	14937
869.278	14929
869.408	14819
869.539	14960
869.669	14960
869.799	14963
869.929	14990
870.06	15009
870.19	15173
870.32	15077
870.45	15089
870.58	15222
870.71	15469
870.84	15386
870.97	15188
871.1	15256
871.23	15412
871.36	15435
871.489	15416
871.619	15473
871.749	15435
871.879	15530
872.008	15660
872.138	15500
872.267	15393
872.397	15256
872.526	15233
872.656	15256
872.785	15336
872.915	15412
873.044	15561
873.173	15416
873.303	15549
873.432	15488
873.561	15530
873.69	15545
873.819	15382
873.948	15553
874.077	15450
874.206	15504
874.335	15515
874.464	15667
874.593	15736
874.722	15701
874.851	15884
874.979	15736
875.108	15915
875.237	15713
875.365	15682
875.494	15770
875.623	15854
875.751	15770
875.88	15899
876.008	15892
876.136	15994
876.265	16242
876.393	16284
876.521	16230
876.65	16299
876.778	16268
876.906	16280
877.034	16177
877.162	16158
877.29	16238
877.418	16181
877.546	16112
877.674	16181
877.802	16291
877.93	16200
878.058	16226
878.185	16135
878.313	16223
878.441	16207
878.568	16063
878.696	16169
878.824	16226
878.951	16348
879.079	16516
879.206	16656
879.333	16443
879.461	16382
879.588	16428
879.715	16599
879.842	16687
879.97	16348
880.097	16162
880.224	16063
880.351	16185
880.478	16124
880.605	16086
880.732	16040
880.859	16356
880.986	16051
881.112	16128
881.239	16044
881.366	15873
881.493	15956
881.619	15728
881.746	15713
881.872	15694
881.999	15755
882.125	15728
882.252	15876
882.378	15778
882.505	15895
882.631	15705
882.757	15614
882.883	15614
883.01	15595
883.136	15439
883.262	15561
883.388	15405
883.514	15591
883.64	15675
883.766	15466
883.892	15317
884.018	15439
884.143	15443
884.269	15671
884.395	15298
884.52	15211
884.646	15214
884.772	15214
884.897	15169
885.023	15279
885.148	15401
885.274	15492
885.399	15359
885.524	15275
885.65	15268
885.775	15226
885.9	15207
886.025	15428
886.15	15340
886.275	15272
886.4	15138
886.525	15104
886.65	15176
886.775	15214
886.9	15344
887.025	15443
887.149	15252
887.274	15116
887.399	15116
887.523	15017
887.648	15070
887.773	14963
887.897	15127
888.021	15116
888.146	15123
888.27	15207
888.395	15203
888.519	14994
888.643	15154
888.767	15058
888.891	15058
889.015	14845
889.139	14933
889.263	14891
889.387	15116
889.511	15176
889.635	14990
889.759	14838
889.883	14937
890.006	14914
890.13	14998
890.254	14876
890.377	14883
890.501	14716
890.624	14651
890.748	14804
890.871	14644
890.995	14461
891.118	14488
891.241	14606
891.364	14545
891.488	14708
891.611	14545
891.734	14644
891.857	14769
891.98	14667
892.103	14735
892.226	14594
892.349	14617
892.471	14423
892.594	14499
892.717	14629
892.839	14473
892.962	14549
893.085	14720
893.207	14541
893.33	14488
893.452	14552
893.575	14708
893.697	14469
893.819	14773
893.941	14727
894.064	14769
894.186	14564
894.308	14613
894.43	14720
894.552	14731
894.674	14762
894.796	14518
894.918	14590
895.04	14564
895.161	14731
895.283	14674
895.405	14613
895.526	14716
895.648	14644
895.769	14621
895.891	14762
896.012	14777
896.134	14868
896.255	14834
896.376	14640
896.498	14705
896.619	14781
896.74	14777
896.861	14785
896.982	15157
897.103	15272
897.224	15093
897.345	14982
897.466	14998
897.587	15062
897.708	15112
897.828	15077
897.949	14941
898.07	14899
898.19	14921
898.311	15089
898.431	14986
898.552	15150
898.672	15097
898.792	15256
898.913	15154
899.033	14986
899.153	15005
899.273	14849
899.393	14864
899.513	14998
899.633	14929
899.753	14887
899.873	14826
899.993	15028
900.113	14861
900.232	14998
900.352	14849
900.472	14697
900.591	14758
900.711	14735
900.83	14667
900.95	14861
901.069	14891
901.189	14773
901.308	14530
901.427	14423
901.546	14431
901.665	14419
901.784	14499
901.904	14343
902.023	14195
902.141	13989
902.26	14100
902.379	14058
902.498	14012
902.617	13902
902.735	13951
902.854	13982
902.973	13906
903.091	13677
903.21	13689
903.328	13799
903.446	13624
903.565	13605
903.683	13609
903.801	13407
903.919	13499
904.038	13540
904.156	13445
904.274	13514
904.392	13358
904.51	13411
904.627	13343
904.745	13556
904.863	13373
904.981	13198
905.098	13031
905.216	13088
905.334	13114
905.451	13095
905.569	13000
905.686	13137
905.803	13076
905.921	12913
906.038	13008
906.155	12981
906.272	12707
906.389	12753
906.506	12627
906.623	12684
906.74	12654
906.857	12578
906.974	12612
907.091	12646
907.208	12734
907.324	12688
907.441	12574
907.557	12433
907.674	12388
907.79	12346
907.907	12414
908.023	12407
908.139	12471
908.256	12407
908.372	12323
908.488	12277
908.604	12133
908.72	12152
908.836	12140
908.952	12079
909.068	12205
909.184	12304
909.3	12038
909.415	12167
909.531	12197
909.647	11958
909.762	11996
909.878	11901
909.993	11999
910.108	11836
910.224	11954
910.339	11882
910.454	11726
910.57	11824
910.685	11615
910.8	12079
910.915	11897
911.03	11805
911.145	11532
911.259	11558
911.374	11638
911.489	11570
911.604	11570
911.718	11341
911.833	11277
911.947	11280
912.062	11159
912.176	11315
912.291	11376
912.405	11402
912.519	11532
912.633	11562
912.748	11406
912.862	11277
912.976	11227
913.09	11117
913.204	11193
913.318	11193
913.431	11315
913.545	11315
913.659	11433
913.772	11246
913.886	11136
914	11086
914.113	11178
914.226	11223
914.34	11151
914.453	11033
914.566	11250
914.68	11029
914.793	11045
914.906	10934
915.019	10835
915.132	10755
915.245	10763
915.358	10904
915.47	10786
915.583	10915
915.696	10835
915.809	11003
915.921	11041
916.034	10797
916.146	10816
916.259	10725
916.371	10839
916.483	10873
916.595	10672
916.708	10793
916.82	10774
916.932	10771
917.044	10748
917.156	10706
917.268	10641
917.38	10683
917.491	10668
917.603	10664
917.715	10755
917.826	10774
917.938	10649
918.049	10447
918.161	10748
918.272	10744
918.384	10786
918.495	10683
918.606	10550
918.717	10436
918.828	10554
918.939	10588
919.05	10527
919.161	10523
919.272	10371
919.383	10470
919.494	10577
919.604	10820
919.715	10645
919.826	10500
919.936	10569
920.047	10596
920.157	10527
920.267	10721
920.378	10497
920.488	10489
920.598	10706
920.708	10862
920.818	10740
920.928	10809
921.038	10831
921.148	10843
921.258	10569
921.368	10535
921.477	10428
921.587	10333
921.697	10234
921.806	10440
921.916	10337
922.025	10090
922.134	10124
922.244	10059
922.353	10067
922.462	10051
922.571	9892
922.68	9812
922.789	9781
922.898	9816
923.007	9747
923.116	9865
923.224	9812
923.333	9751
923.442	9701
923.55	9698
923.659	9618
923.767	9724
923.876	9648
923.984	9732
924.092	9572
924.201	9701
924.309	9584
924.417	9728
924.525	9542
924.633	9591
924.741	10291
924.849	9428
924.956	9542
925.064	9454
925.172	9340
925.279	9348
925.387	9428
925.494	9412
925.602	9568
925.709	9515
925.816	9374
925.924	9435
926.031	9523
926.138	9359
926.245	9450
926.352	9382
926.459	9439
926.566	9485
926.673	9355
926.779	9329
926.886	9283
926.993	9176
927.099	9070
927.206	9036
927.312	9024
927.419	9138
927.525	9131
927.631	9176
927.737	8986
927.843	9013
927.95	8864
928.056	8887
928.162	9047
928.267	9032
928.373	9663
928.479	9154
928.585	8906
928.69	8933
928.796	8979
928.901	8921
929.007	8838
929.112	8891
929.218	8792
929.323	8845
929.428	8834
929.533	8960
929.638	8750
929.743	8785
929.848	8823
929.953	8781
930.058	8735
930.163	8579
930.267	8708
930.372	8781
930.477	8610
930.581	8811
930.685	8667
930.79	8533
930.894	8575
930.998	8499
931.103	8617
931.207	8294
931.311	8225
931.415	8237
931.519	7982
931.623	8058
