Data from test_V78500241_2423.txt Node
Date: Fri Mar 25 14:50:35 CST 2022
User: usil
Spectrometer: V785-0024
Trigger mode: 0
Integration Time (sec): 4.000000E-1
Scans to average: 1
Nonlinearity correction enabled: false
Boxcar width: 0
Storing dark spectrum: false
XAxis mode: Wavelengths
Number of Pixels in Spectrum: 1024
>>>>>Begin Spectral Data<<<<<
801.071	22219
801.214	22048
801.356	21747
801.499	21728
801.641	21591
801.783	21549
801.926	21420
802.068	21439
802.211	21382
802.353	21256
802.496	21119
802.638	20990
802.78	20933
802.923	20956
803.065	20804
803.208	20743
803.35	20845
803.492	20906
803.635	21013
803.777	20773
803.919	20933
804.061	21161
804.204	20895
804.346	20781
804.488	20693
804.63	20792
804.773	20621
804.915	20838
805.057	20811
805.199	20712
805.341	20705
805.483	20830
805.626	20785
805.768	20697
805.91	20716
806.052	20853
806.194	20693
806.336	20807
806.478	20743
806.62	20697
806.762	20796
806.904	20906
807.046	21233
807.188	21135
807.33	20948
807.472	21119
807.614	20979
807.756	21001
807.898	20800
808.04	20724
808.182	20743
808.324	20838
808.465	20819
808.607	21127
808.749	21127
808.891	21154
809.033	21272
809.174	21169
809.316	21154
809.458	21188
809.6	21230
809.741	21272
809.883	21157
810.025	21161
810.166	21264
810.308	21272
810.45	21287
810.591	21214
810.733	20986
810.875	20910
811.016	20849
811.158	20758
811.299	20872
811.441	21085
811.582	20887
811.724	20895
811.865	20807
812.007	20899
812.148	20910
812.29	20929
812.431	21104
812.573	21272
812.714	21302
812.855	21378
812.997	21408
813.138	21633
813.279	21420
813.421	21431
813.562	21370
813.703	21249
813.845	21005
813.986	20788
814.127	20454
814.268	20412
814.41	20450
814.551	20484
814.692	20545
814.833	20400
814.974	20324
815.115	20374
815.256	20339
815.397	20298
815.539	20286
815.68	20183
815.821	20195
815.962	20161
816.103	20138
816.244	20096
816.385	19868
816.526	19757
816.666	19780
816.807	19578
816.948	19605
817.089	19807
817.23	19582
817.371	19597
817.512	19590
817.653	19540
817.793	19476
817.934	19601
818.075	19521
818.216	19514
818.356	19502
818.497	19304
818.638	19244
818.778	19339
818.919	19266
819.06	19285
819.2	19324
819.341	19415
819.481	19563
819.622	19590
819.762	19628
819.903	19605
820.043	19628
820.184	19552
820.324	19563
820.465	19537
820.605	19464
820.746	19597
820.886	19407
821.026	19510
821.167	19472
821.307	19590
821.447	19422
821.588	19430
821.728	19320
821.868	19148
822.008	18989
822.149	18958
822.289	18947
822.429	18726
822.569	18498
822.709	18582
822.849	18471
822.99	18464
823.13	18346
823.27	18399
823.41	18216
823.55	18190
823.69	18186
823.83	18418
823.97	18174
824.11	17992
824.25	18034
824.389	18106
824.529	18083
824.669	17999
824.809	18129
824.949	18106
825.089	18148
825.228	17965
825.368	17748
825.508	17836
825.648	17958
825.787	17904
825.927	17760
826.067	17707
826.206	17786
826.346	17897
826.485	17878
826.625	17752
826.765	17935
826.904	17687
827.044	17642
827.183	17649
827.323	17440
827.462	17547
827.601	17402
827.741	17429
827.88	17539
828.02	17337
828.159	17425
828.298	17493
828.437	17585
828.577	17410
828.716	17596
828.855	17452
828.994	17200
829.134	17254
829.273	17273
829.412	17220
829.551	17216
829.69	17155
829.829	17292
829.968	17353
830.107	17200
830.246	17288
830.385	17162
830.524	17121
830.663	16976
830.802	16980
830.941	16885
831.08	16835
831.219	16889
831.357	16984
831.496	17117
831.635	16854
831.774	16763
831.913	16721
832.051	16607
832.19	16577
832.329	16694
832.467	16596
832.606	16542
832.744	16550
832.883	16531
833.022	16516
833.16	16558
833.299	16565
833.437	16656
833.576	16565
833.714	16508
833.852	16607
833.991	16630
834.129	16603
834.267	16694
834.406	16554
834.544	16618
834.682	16584
834.821	16527
834.959	16748
835.097	16542
835.235	16626
835.373	16630
835.511	16573
835.65	16470
835.788	16455
835.926	16382
836.064	16230
836.202	16287
836.34	16580
836.478	16565
836.615	16287
836.753	16478
836.891	16656
837.029	16523
837.167	16447
837.305	16367
837.443	16322
837.58	16348
837.718	16287
837.856	16322
837.993	16306
838.131	16344
838.269	16253
838.406	16268
838.544	16192
838.681	15968
838.819	16082
838.956	15857
839.094	15873
839.231	15903
839.369	16059
839.506	16287
839.643	16207
839.781	15873
839.918	15812
840.055	15869
840.193	15895
840.33	15880
840.467	15827
840.604	15956
840.742	16112
840.879	15770
841.016	15838
841.153	15762
841.29	15949
841.427	15975
841.564	15876
841.701	15922
841.838	15842
841.975	15785
842.112	15778
842.249	15679
842.385	15629
842.522	15831
842.659	15694
842.796	15724
842.933	15644
843.069	15686
843.206	15610
843.343	15781
843.479	15667
843.616	15724
843.752	15428
843.889	15439
844.025	15663
844.162	15466
844.298	15580
844.435	15401
844.571	15378
844.708	15561
844.844	15553
844.98	15549
845.117	15477
845.253	15405
845.389	15241
845.525	15443
845.661	15386
845.798	15256
845.934	15249
846.07	15230
846.206	15359
846.342	15431
846.478	15188
846.614	15085
846.75	14914
846.886	14956
847.022	15070
847.158	15062
847.294	15032
847.429	15066
847.565	14933
847.701	15241
847.837	14807
847.972	14746
848.108	14842
848.244	14743
848.379	14697
848.515	14705
848.65	14636
848.786	14670
848.921	14629
849.057	14731
849.192	14735
849.328	14674
849.463	14636
849.598	14549
849.734	14644
849.869	14415
850.004	14408
850.14	14522
850.275	14396
850.41	14385
850.545	14362
850.68	14442
850.815	14476
850.95	14313
851.085	14511
851.22	14507
851.355	14480
851.49	14328
851.625	14381
851.76	14381
851.895	14275
852.03	14298
852.165	14408
852.299	14503
852.434	14530
852.569	14423
852.703	14412
852.838	14530
852.973	14583
853.107	14408
853.242	14355
853.376	14305
853.511	14237
853.645	14214
853.78	14431
853.914	14290
854.048	14183
854.183	14233
854.317	14317
854.451	14450
854.585	14195
854.72	14206
854.854	14347
854.988	14183
855.122	14206
855.256	14119
855.39	14282
855.524	14256
855.658	14328
855.792	14282
855.926	14275
856.06	14370
856.194	14408
856.327	14202
856.461	14214
856.595	14138
856.729	14233
856.862	14351
856.996	14244
857.13	14408
857.263	14377
857.397	14294
857.53	14214
857.664	14328
857.797	14381
857.931	14442
858.064	14267
858.197	14381
858.331	14305
858.464	14286
858.597	14214
858.731	14229
858.864	14214
858.997	14180
859.13	14347
859.263	14286
859.396	14393
859.529	14206
859.662	14168
859.795	14278
859.928	14336
860.061	14469
860.194	14461
860.327	14309
860.46	14313
860.592	14457
860.725	14450
860.858	14396
860.99	14408
861.123	14256
861.256	14218
861.388	14294
861.521	14887
861.653	14138
861.786	14081
861.918	14309
862.05	14282
862.183	14153
862.315	14229
862.447	14286
862.58	14252
862.712	14096
862.844	14020
862.976	14210
863.108	14119
863.24	14408
863.372	14031
863.504	14069
863.636	14081
863.768	14020
863.9	14077
864.032	13989
864.164	14084
864.296	14073
864.428	14145
864.559	14142
864.691	14229
864.823	14248
864.954	14180
865.086	14084
865.217	14088
865.349	13993
865.48	14031
865.612	14081
865.743	14138
865.875	14050
866.006	14012
866.137	14096
866.269	14069
866.4	14020
866.531	13989
866.662	13959
866.793	14062
866.924	13887
867.055	14103
867.186	14065
867.317	14035
867.448	13959
867.579	13989
867.71	14008
867.841	13989
867.972	14054
868.103	14084
868.233	14058
868.364	14008
868.495	14062
868.625	14263
868.756	14332
868.886	14244
869.017	14313
869.147	14461
869.278	14434
869.408	14370
869.539	14225
869.669	14393
869.799	14400
869.929	14484
870.06	14309
870.19	14659
870.32	14636
870.45	14636
870.58	14701
870.71	14899
870.84	14853
870.97	14621
871.1	14708
871.23	14880
871.36	14887
871.489	14891
871.619	14914
871.749	14937
871.879	14952
872.008	15074
872.138	14906
872.267	14826
872.397	14819
872.526	14670
872.656	14697
872.785	14788
872.915	14967
873.044	14941
873.173	14990
873.303	14986
873.432	15001
873.561	14982
873.69	14921
873.819	14929
873.948	15017
874.077	14971
874.206	14967
874.335	14948
874.464	15138
874.593	15260
874.722	15199
874.851	15325
874.979	15260
875.108	15313
875.237	15256
875.365	15218
875.494	15214
875.623	15378
875.751	15173
875.88	15268
876.008	15382
876.136	15466
876.265	15679
876.393	15850
876.521	15785
876.65	15789
876.778	15717
876.906	15641
877.034	15530
877.162	15515
877.29	15660
877.418	15690
877.546	15755
877.674	15698
877.802	15717
877.93	15580
878.058	15648
878.185	15603
878.313	15762
878.441	15705
878.568	15633
878.696	15648
878.824	15606
878.951	15804
879.079	15819
879.206	15926
879.333	15827
879.461	15861
879.588	15778
879.715	15869
879.842	15907
879.97	15827
880.097	15526
880.224	15504
880.351	15507
880.478	15576
880.605	15553
880.732	15496
880.859	15728
880.986	15557
881.112	15507
881.239	15428
881.366	15249
881.493	15222
881.619	15211
881.746	15226
881.872	15081
881.999	15237
882.125	15195
882.252	15222
882.378	15161
882.505	15256
882.631	15074
882.757	14975
882.883	15085
883.01	15036
883.136	14952
883.262	14925
883.388	14891
883.514	15039
883.64	15032
883.766	14960
883.892	14758
884.018	14830
884.143	14994
884.269	15043
884.395	14800
884.52	14632
884.646	14731
884.772	14648
884.897	14670
885.023	14716
885.148	14750
885.274	14868
885.399	14921
885.524	14678
885.65	14731
885.775	14746
885.9	14659
886.025	14838
886.15	14792
886.275	14663
886.4	14564
886.525	14571
886.65	14579
886.775	14659
886.9	14819
887.025	14902
887.149	14765
887.274	14583
887.399	14530
887.523	14503
887.648	14583
887.773	14370
887.897	14511
888.021	14583
888.146	14476
888.27	14663
888.395	14674
888.519	14473
888.643	14583
888.767	14682
888.891	14473
889.015	14434
889.139	14415
889.263	14286
889.387	14503
889.511	14499
889.635	14556
889.759	14351
889.883	14442
890.006	14370
890.13	14431
890.254	14355
890.377	14290
890.501	14328
890.624	14290
890.748	14229
890.871	14073
890.995	14069
891.118	14027
891.241	14050
891.364	14077
891.488	14210
891.611	14081
891.734	14081
891.857	14237
891.98	14077
892.103	14202
892.226	14069
892.349	14077
892.471	13944
892.594	14218
892.717	14062
892.839	14103
892.962	14172
893.085	14138
893.207	14031
893.33	13978
893.452	13997
893.575	14168
893.697	14069
893.819	14225
893.941	14298
894.064	14298
894.186	14016
894.308	14012
894.43	14123
894.552	14343
894.674	14145
894.796	14115
894.918	14168
895.04	14149
895.161	14161
895.283	14317
895.405	14123
895.526	14275
895.648	14199
895.769	14252
895.891	14259
896.012	14278
896.134	14351
896.255	14301
896.376	14259
896.498	14252
896.619	14366
896.74	14275
896.861	14366
896.982	14670
897.103	14743
897.224	14511
897.345	14518
897.466	14412
897.587	14488
897.708	14758
897.828	14613
897.949	14446
898.07	14377
898.19	14450
898.311	14674
898.431	14545
898.552	14651
898.672	14689
898.792	14769
898.913	14598
899.033	14602
899.153	14533
899.273	14320
899.393	14476
899.513	14442
899.633	14560
899.753	14454
899.873	14434
899.993	14514
900.113	14438
900.232	14518
900.352	14404
900.472	14366
900.591	14396
900.711	14412
900.83	14381
900.95	14438
901.069	14408
901.189	14271
901.308	13997
901.427	13974
901.546	13928
901.665	14027
901.784	14081
901.904	14008
902.023	13871
902.141	13719
902.26	13575
902.379	13712
902.498	13647
902.617	13506
902.735	13597
902.854	13575
902.973	13514
903.091	13312
903.21	13316
903.328	13396
903.446	13308
903.565	13164
903.683	13156
903.801	13129
903.919	13149
904.038	13133
904.156	12890
904.274	13008
904.392	12954
904.51	12939
904.627	12871
904.745	12935
904.863	13072
904.981	12688
905.098	12772
905.216	12715
905.334	12741
905.451	12631
905.569	12635
905.686	12639
905.803	12692
905.921	12467
906.038	12620
906.155	12506
906.272	12353
906.389	12384
906.506	12152
906.623	12216
906.74	12289
906.857	12224
906.974	12197
907.091	12361
907.208	12445
907.324	12243
907.441	12114
907.557	12007
907.674	12026
907.79	11836
907.907	11931
908.023	12095
908.139	11935
908.256	11866
908.372	11920
908.488	11878
908.604	11703
908.72	11760
908.836	11741
908.952	11748
909.068	11832
909.184	11832
909.3	11771
909.415	11832
909.531	11722
909.647	11543
909.762	11486
909.878	11608
909.993	11528
910.108	11505
910.224	11474
910.339	11482
910.454	11406
910.57	11368
910.685	11273
910.8	11543
910.915	11493
911.03	11410
911.145	11250
911.259	11193
911.374	11208
911.489	11132
911.604	11170
911.718	10991
911.833	10976
911.947	10778
912.062	10828
912.176	10923
912.291	10961
912.405	10953
912.519	11273
912.633	11197
912.748	11056
912.862	10965
912.976	10812
913.09	10748
913.204	10755
913.318	10850
913.431	10991
913.545	10946
913.659	10957
913.772	10900
913.886	10691
914	10622
914.113	10801
914.226	10847
914.34	10801
914.453	10733
914.566	10904
914.68	10668
914.793	10679
914.906	10508
915.019	10413
915.132	10436
915.245	10493
915.358	10531
915.47	10535
915.583	10561
915.696	10489
915.809	10618
915.921	10622
916.034	10367
916.146	10455
916.259	10371
916.371	10516
916.483	10535
916.595	10402
916.708	10462
916.82	10440
916.932	10344
917.044	10421
917.156	10432
917.268	10310
917.38	10318
917.491	10291
917.603	10291
917.715	10333
917.826	10405
917.938	10379
918.049	10223
918.161	10382
918.272	10386
918.384	10466
918.495	10337
918.606	10192
918.717	10143
918.828	10192
918.939	10139
919.05	10101
919.161	10173
919.272	10048
919.383	10131
919.494	10234
919.604	10379
919.715	10219
919.826	10143
919.936	10162
920.047	10287
920.157	10219
920.267	10337
920.378	10276
920.488	10257
920.598	10462
920.708	10592
920.818	10402
920.928	10447
921.038	10546
921.148	10550
921.258	10238
921.368	10116
921.477	10105
921.587	9968
921.697	9926
921.806	10048
921.916	9930
922.025	9827
922.134	9785
922.244	9732
922.353	9812
922.462	9629
922.571	9648
922.68	9439
922.789	9386
922.898	9485
923.007	9412
923.116	9564
923.224	9500
923.333	9477
923.442	9351
923.55	9264
923.659	9401
923.767	9454
923.876	9344
923.984	9351
924.092	9199
924.201	9313
924.309	9283
924.417	9332
924.525	9302
924.633	9241
924.741	10048
924.849	9089
924.956	9287
925.064	9123
925.172	9047
925.279	9055
925.387	9169
925.494	9131
925.602	9176
925.709	9237
925.816	9127
925.924	9058
926.031	9241
926.138	9154
926.245	9157
926.352	9055
926.459	9108
926.566	9264
926.673	8990
926.779	8982
926.886	8933
926.993	8899
927.099	8823
927.206	8861
927.312	8819
927.419	8857
927.525	8811
927.631	8925
927.737	8758
927.843	8705
927.95	8644
928.056	8724
928.162	8720
928.267	8727
928.373	9344
928.479	8785
928.585	8568
928.69	8705
928.796	8823
928.901	8629
929.007	8533
929.112	8610
929.218	8579
929.323	8514
929.428	8587
929.533	8682
929.638	8431
929.743	8530
929.848	8541
929.953	8571
930.058	8461
930.163	8339
930.267	8343
930.372	8495
930.477	8275
930.581	8446
930.685	8389
930.79	8259
930.894	8313
930.998	8225
931.103	8366
931.207	8027
931.311	8016
931.415	7967
931.519	7746
931.623	7765
