Data from test_V78500241_2493.txt Node
Date: Fri Mar 25 14:51:04 CST 2022
User: usil
Spectrometer: V785-0024
Trigger mode: 0
Integration Time (sec): 4.000000E-1
Scans to average: 1
Nonlinearity correction enabled: false
Boxcar width: 0
Storing dark spectrum: false
XAxis mode: Wavelengths
Number of Pixels in Spectrum: 1024
>>>>>Begin Spectral Data<<<<<
801.071	22116
801.214	22078
801.356	21709
801.499	21637
801.641	21526
801.783	21367
801.926	21454
802.068	21462
802.211	21401
802.353	21226
802.496	20952
802.638	20948
802.78	20887
802.923	20823
803.065	20777
803.208	20629
803.35	20762
803.492	20853
803.635	20910
803.777	20826
803.919	20800
804.061	21127
804.204	20914
804.346	20701
804.488	20689
804.63	20727
804.773	20632
804.915	20724
805.057	20739
805.199	20632
805.341	20754
805.483	20758
805.626	20678
805.768	20613
805.91	20705
806.052	20769
806.194	20716
806.336	20762
806.478	20640
806.62	20655
806.762	20754
806.904	20876
807.046	21081
807.188	21135
807.33	21074
807.472	21218
807.614	20952
807.756	20842
807.898	20826
808.04	20765
808.182	20857
808.324	20830
808.465	20819
808.607	21051
808.749	21047
808.891	21116
809.033	21233
809.174	21214
809.316	21009
809.458	21009
809.6	21165
809.741	21135
809.883	21112
810.025	21180
810.166	21180
810.308	21180
810.45	21157
810.591	21146
810.733	20857
810.875	20830
811.016	20750
811.158	20583
811.299	20842
811.441	21017
811.582	20986
811.724	20853
811.865	20754
812.007	20804
812.148	20773
812.29	20838
812.431	21096
812.573	21066
812.714	21226
812.855	21291
812.997	21447
813.138	21610
813.279	21458
813.421	21302
813.562	21237
813.703	21131
813.845	20921
813.986	20750
814.127	20541
814.268	20495
814.41	20434
814.551	20336
814.692	20358
814.833	20286
814.974	20244
815.115	20355
815.256	20263
815.397	20126
815.539	20298
815.68	20145
815.821	20039
815.962	20077
816.103	20115
816.244	20005
816.385	19925
816.526	19951
816.666	19715
816.807	19605
816.948	19594
817.089	19616
817.23	19567
817.371	19514
817.512	19430
817.653	19575
817.793	19441
817.934	19529
818.075	19483
818.216	19510
818.356	19358
818.497	19304
818.638	19183
818.778	19183
818.919	19209
819.06	19251
819.2	19278
819.341	19339
819.481	19373
819.622	19464
819.762	19704
819.903	19655
820.043	19575
820.184	19400
820.324	19457
820.465	19586
820.605	19396
820.746	19540
820.886	19392
821.026	19422
821.167	19358
821.307	19499
821.447	19411
821.588	19358
821.728	19168
821.868	19145
822.008	18977
822.149	18875
822.289	18954
822.429	18646
822.569	18601
822.709	18570
822.849	18369
822.99	18350
823.13	18399
823.27	18391
823.41	18197
823.55	18254
823.69	18300
823.83	18353
823.97	18190
824.11	17885
824.25	17939
824.389	18022
824.529	17999
824.669	18034
824.809	18148
824.949	18095
825.089	17961
825.228	17999
825.368	17790
825.508	17745
825.648	17783
825.787	17870
825.927	17840
826.067	17646
826.206	17786
826.346	17802
826.485	17699
826.625	17805
826.765	17863
826.904	17764
827.044	17512
827.183	17562
827.323	17535
827.462	17520
827.601	17448
827.741	17417
827.88	17414
828.02	17318
828.159	17391
828.298	17474
828.437	17604
828.577	17360
828.716	17684
828.855	17398
828.994	17288
829.134	17170
829.273	17315
829.412	17121
829.551	17132
829.69	17151
829.829	17193
829.968	17322
830.107	17311
830.246	17277
830.385	17212
830.524	17128
830.663	17006
830.802	16976
830.941	16828
831.08	16908
831.219	16831
831.357	16869
831.496	17121
831.635	16896
831.774	16675
831.913	16691
832.051	16645
832.19	16615
832.329	16698
832.467	16508
832.606	16493
832.744	16531
832.883	16497
833.022	16512
833.16	16470
833.299	16577
833.437	16516
833.576	16489
833.714	16637
833.852	16645
833.991	16596
834.129	16656
834.267	16725
834.406	16584
834.544	16656
834.682	16565
834.821	16504
834.959	16733
835.097	16485
835.235	16645
835.373	16603
835.511	16634
835.65	16360
835.788	16367
835.926	16333
836.064	16318
836.202	16287
836.34	16504
836.478	16592
836.615	16436
836.753	16542
836.891	16588
837.029	16558
837.167	16413
837.305	16367
837.443	16341
837.58	16337
837.718	16405
837.856	16291
837.993	16306
838.131	16341
838.269	16337
838.406	16280
838.544	16253
838.681	16055
838.819	16048
838.956	15937
839.094	15808
839.231	15926
839.369	16010
839.506	16207
839.643	16143
839.781	15861
839.918	15865
840.055	15994
840.193	15972
840.33	15827
840.467	15918
840.604	15926
840.742	16207
840.879	15846
841.016	15850
841.153	15831
841.29	16048
841.427	15903
841.564	15991
841.701	15937
841.838	15873
841.975	15785
842.112	15838
842.249	15762
842.385	15587
842.522	15873
842.659	15713
842.796	15629
842.933	15671
843.069	15690
843.206	15610
843.343	15732
843.479	15709
843.616	15747
843.752	15523
843.889	15412
844.025	15580
844.162	15466
844.298	15568
844.435	15469
844.571	15538
844.708	15496
844.844	15648
844.98	15671
845.117	15637
845.253	15401
845.389	15374
845.525	15359
845.661	15355
845.798	15298
845.934	15370
846.07	15272
846.206	15310
846.342	15454
846.478	15157
846.614	15108
846.75	15070
846.886	15001
847.022	15199
847.158	15097
847.294	15005
847.429	15081
847.565	14975
847.701	15161
847.837	14830
847.972	14716
848.108	14891
848.244	14834
848.379	14701
848.515	14514
848.65	14670
848.786	14663
848.921	14640
849.057	14689
849.192	14750
849.328	14724
849.463	14670
849.598	14617
849.734	14587
849.869	14488
850.004	14469
850.14	14488
850.275	14530
850.41	14355
850.545	14427
850.68	14427
850.815	14419
850.95	14415
851.085	14549
851.22	14461
851.355	14438
851.49	14370
851.625	14396
851.76	14324
851.895	14290
852.03	14298
852.165	14404
852.299	14351
852.434	14469
852.569	14404
852.703	14419
852.838	14484
852.973	14503
853.107	14431
853.242	14446
853.376	14343
853.511	14081
853.645	14252
853.78	14355
853.914	14328
854.048	14256
854.183	14252
854.317	14332
854.451	14358
854.585	14278
854.72	14278
854.854	14282
854.988	14199
855.122	14229
855.256	14084
855.39	14263
855.524	14404
855.658	14332
855.792	14298
855.926	14374
856.06	14286
856.194	14408
856.327	14210
856.461	14233
856.595	14153
856.729	14317
856.862	14484
856.996	14229
857.13	14305
857.263	14465
857.397	14393
857.53	14298
857.664	14408
857.797	14339
857.931	14389
858.064	14305
858.197	14412
858.331	14225
858.464	14237
858.597	14107
858.731	14275
858.864	14229
858.997	14248
859.13	14233
859.263	14256
859.396	14343
859.529	14320
859.662	14210
859.795	14278
859.928	14328
860.061	14389
860.194	14438
860.327	14339
860.46	14339
860.592	14419
860.725	14423
860.858	14343
860.99	14218
861.123	14229
861.256	14206
861.388	14328
861.521	14899
861.653	14134
861.786	14103
861.918	14115
862.05	14187
862.183	14138
862.315	14259
862.447	14294
862.58	14218
862.712	14024
862.844	13963
862.976	14123
863.108	14164
863.24	14412
863.372	14031
863.504	14153
863.636	14081
863.768	14206
863.9	14065
864.032	13932
864.164	14073
864.296	14005
864.428	14161
864.559	14153
864.691	14206
864.823	14073
864.954	14107
865.086	14096
865.217	14012
865.349	14043
865.48	14054
865.612	14077
865.743	14123
865.875	14058
866.006	14031
866.137	14111
866.269	14153
866.4	13944
866.531	14012
866.662	14046
866.793	13921
866.924	14016
867.055	14065
867.186	14046
867.317	14054
867.448	13913
867.579	13928
867.71	13921
867.841	13974
867.972	14054
868.103	14054
868.233	14008
868.364	13955
868.495	14183
868.625	14210
868.756	14381
868.886	14176
869.017	14202
869.147	14347
869.278	14503
869.408	14263
869.539	14298
869.669	14309
869.799	14248
869.929	14438
870.06	14381
870.19	14686
870.32	14526
870.45	14587
870.58	14758
870.71	14788
870.84	14807
870.97	14667
871.1	14655
871.23	14834
871.36	14849
871.489	14838
871.619	14807
871.749	14796
871.879	14899
872.008	15081
872.138	14849
872.267	14902
872.397	14670
872.526	14651
872.656	14693
872.785	14743
872.915	14785
873.044	15024
873.173	14925
873.303	14952
873.432	14975
873.561	14971
873.69	14952
873.819	14929
873.948	15020
874.077	15001
874.206	14918
874.335	14990
874.464	15062
874.593	15214
874.722	15230
874.851	15294
874.979	15283
875.108	15214
875.237	15135
875.365	15165
875.494	15119
875.623	15329
875.751	15195
875.88	15317
876.008	15397
876.136	15466
876.265	15713
876.393	15835
876.521	15701
876.65	15656
876.778	15717
876.906	15762
877.034	15614
877.162	15641
877.29	15614
877.418	15701
877.546	15709
877.674	15698
877.802	15599
877.93	15739
878.058	15564
878.185	15450
878.313	15682
878.441	15584
878.568	15496
878.696	15652
878.824	15648
878.951	15686
879.079	15804
879.206	16029
879.333	15797
879.461	15766
879.588	15698
879.715	15926
879.842	15991
879.97	15694
880.097	15492
880.224	15416
880.351	15538
880.478	15504
880.605	15473
880.732	15519
880.859	15751
880.986	15466
881.112	15504
881.239	15439
881.366	15340
881.493	15237
881.619	15184
881.746	15127
881.872	15230
881.999	15230
882.125	15150
882.252	15108
882.378	15176
882.505	15386
882.631	15047
882.757	15028
882.883	15001
883.01	15085
883.136	14937
883.262	14868
883.388	14849
883.514	15013
883.64	15032
883.766	14994
883.892	14895
884.018	14849
884.143	14937
884.269	14971
884.395	14838
884.52	14648
884.646	14716
884.772	14705
884.897	14564
885.023	14708
885.148	14876
885.274	14845
885.399	14739
885.524	14689
885.65	14594
885.775	14792
885.9	14682
886.025	14674
886.15	14750
886.275	14629
886.4	14579
886.525	14682
886.65	14568
886.775	14701
886.9	14811
887.025	14864
887.149	14735
887.274	14511
887.399	14526
887.523	14560
887.648	14450
887.773	14412
887.897	14636
888.021	14560
888.146	14526
888.27	14583
888.395	14621
888.519	14575
888.643	14495
888.767	14632
888.891	14404
889.015	14351
889.139	14427
889.263	14332
889.387	14507
889.511	14590
889.635	14480
889.759	14298
889.883	14396
890.006	14423
890.13	14419
890.254	14336
890.377	14374
890.501	14176
890.624	14229
890.748	14221
890.871	14119
890.995	14043
891.118	14088
891.241	14008
891.364	14199
891.488	14259
891.611	14008
891.734	14138
891.857	14092
891.98	14103
892.103	14153
892.226	14050
892.349	14031
892.471	13951
892.594	14031
892.717	14069
892.839	14035
892.962	14084
893.085	14180
893.207	14065
893.33	13993
893.452	14168
893.575	14164
893.697	14138
893.819	14290
893.941	14294
894.064	14134
894.186	14100
894.308	14016
894.43	14206
894.552	14317
894.674	14183
894.796	13989
894.918	14103
895.04	14058
895.161	14240
895.283	14092
895.405	14107
895.526	14199
895.648	14142
895.769	14176
895.891	14225
896.012	14332
896.134	14294
896.255	14210
896.376	14206
896.498	14240
896.619	14237
896.74	14267
896.861	14233
896.982	14602
897.103	14815
897.224	14560
897.345	14571
897.466	14492
897.587	14419
897.708	14571
897.828	14613
897.949	14503
898.07	14396
898.19	14610
898.311	14693
898.431	14564
898.552	14632
898.672	14724
898.792	14716
898.913	14655
899.033	14514
899.153	14400
899.273	14442
899.393	14351
899.513	14503
899.633	14412
899.753	14518
899.873	14442
899.993	14537
900.113	14385
900.232	14358
900.352	14454
900.472	14404
900.591	14290
900.711	14362
900.83	14187
900.95	14442
901.069	14358
901.189	14320
901.308	13974
901.427	14046
901.546	14043
901.665	13986
901.784	13974
901.904	13909
902.023	13879
902.141	13609
902.26	13582
902.379	13643
902.498	13605
902.617	13415
902.735	13548
902.854	13582
902.973	13548
903.091	13285
903.21	13221
903.328	13301
903.446	13293
903.565	13160
903.683	13076
903.801	13034
903.919	13107
904.038	13156
904.156	12962
904.274	12962
904.392	12935
904.51	12928
904.627	12897
904.745	13027
904.863	13034
904.981	12791
905.098	12726
905.216	12730
905.334	12684
905.451	12627
905.569	12658
905.686	12715
905.803	12612
905.921	12471
906.038	12616
906.155	12509
906.272	12342
906.389	12281
906.506	12247
906.623	12273
906.74	12197
906.857	12106
906.974	12167
907.091	12262
907.208	12395
907.324	12285
907.441	12129
907.557	12019
907.674	11946
907.79	11878
907.907	11897
908.023	12022
908.139	11977
908.256	11901
908.372	11790
908.488	11950
908.604	11783
908.72	11611
908.836	11737
908.952	11783
909.068	11668
909.184	11866
909.3	11828
909.415	11802
909.531	11714
909.647	11509
909.762	11551
909.878	11490
909.993	11516
910.108	11505
910.224	11463
910.339	11543
910.454	11436
910.57	11372
910.685	11307
910.8	11615
910.915	11524
911.03	11387
911.145	11261
911.259	11162
911.374	11189
911.489	11197
911.604	11147
911.718	10957
911.833	11018
911.947	10885
912.062	10767
912.176	10881
912.291	11014
912.405	10991
912.519	11143
912.633	11136
912.748	10991
912.862	10987
912.976	10854
913.09	10755
913.204	10759
913.318	10862
913.431	11029
913.545	10942
913.659	10984
913.772	10908
913.886	10805
914	10733
914.113	10782
914.226	10854
914.34	10816
914.453	10660
914.566	10847
914.68	10687
914.793	10622
914.906	10481
915.019	10470
915.132	10409
915.245	10481
915.358	10523
915.47	10451
915.583	10447
915.696	10512
915.809	10626
915.921	10577
916.034	10432
916.146	10413
916.259	10409
916.371	10516
916.483	10516
916.595	10363
916.708	10428
916.82	10398
916.932	10409
917.044	10379
917.156	10348
917.268	10318
917.38	10299
917.491	10253
917.603	10303
917.715	10398
917.826	10337
917.938	10215
918.049	10211
918.161	10337
918.272	10474
918.384	10527
918.495	10386
918.606	10131
918.717	10158
918.828	10261
918.939	10238
919.05	10044
919.161	10200
919.272	10010
919.383	10048
919.494	10287
919.604	10493
919.715	10230
919.826	10120
919.936	10272
920.047	10196
920.157	10261
920.267	10394
920.378	10265
920.488	10223
920.598	10379
920.708	10577
920.818	10314
920.928	10424
921.038	10580
921.148	10535
921.258	10306
921.368	10090
921.477	10059
921.587	9983
921.697	9979
921.806	10059
921.916	9953
922.025	9785
922.134	9732
922.244	9701
922.353	9846
922.462	9652
922.571	9606
922.68	9408
922.789	9420
922.898	9473
923.007	9439
923.116	9450
923.224	9405
923.333	9431
923.442	9313
923.55	9279
923.659	9382
923.767	9492
923.876	9302
923.984	9439
924.092	9256
924.201	9332
924.309	9294
924.417	9428
924.525	9249
924.633	9233
924.741	10021
924.849	9089
924.956	9230
925.064	9097
925.172	8990
925.279	9074
925.387	9135
925.494	9066
925.602	9287
925.709	9119
925.816	9020
925.924	9112
926.031	9119
926.138	9081
926.245	9173
926.352	9020
926.459	9195
926.566	9226
926.673	8998
926.779	8994
926.886	8902
926.993	8864
927.099	8785
927.206	8792
927.312	8819
927.419	8842
927.525	8830
927.631	8902
927.737	8788
927.843	8724
927.95	8621
928.056	8644
928.162	8697
928.267	8750
928.373	9405
928.479	8861
928.585	8606
928.69	8705
928.796	8826
928.901	8651
929.007	8499
929.112	8682
929.218	8636
929.323	8587
929.428	8564
929.533	8606
929.638	8511
929.743	8545
929.848	8606
929.953	8530
930.058	8332
930.163	8244
930.267	8324
930.372	8492
930.477	8294
930.581	8568
930.685	8419
930.79	8191
930.894	8324
930.998	8218
931.103	8412
931.207	8035
931.311	7951
931.415	7951
931.519	7784
931.623	7814
