Data from test_V78500241_830.txt Node
Date: Fri Mar 25 14:39:29 CST 2022
User: usil
Spectrometer: V785-0024
Trigger mode: 0
Integration Time (sec): 4.000000E-1
Scans to average: 1
Nonlinearity correction enabled: false
Boxcar width: 0
Storing dark spectrum: false
XAxis mode: Wavelengths
Number of Pixels in Spectrum: 1024
>>>>>Begin Spectral Data<<<<<
801.071	26294
801.214	26088
801.356	25932
801.499	25689
801.641	25628
801.783	25628
801.926	25597
802.068	25499
802.211	25384
802.353	25240
802.496	25057
802.638	25133
802.78	24882
802.923	24985
803.065	24985
803.208	25088
803.35	24932
803.492	25160
803.635	25099
803.777	25008
803.919	25091
804.061	25506
804.204	25194
804.346	25031
804.488	24924
804.63	25129
804.773	24981
804.915	25282
805.057	25354
805.199	25263
805.341	25514
805.483	25441
805.626	25578
805.768	25419
805.91	25510
806.052	25647
806.194	25655
806.336	26107
806.478	25986
806.62	26054
806.762	26199
806.904	26484
807.046	27100
807.188	27260
807.33	27439
807.472	27930
807.614	28116
807.756	28919
807.898	29684
808.04	30608
808.182	31868
808.324	33629
808.465	35611
808.607	37784
808.749	39610
808.891	40831
809.033	40866
809.174	39945
809.316	37856
809.458	35592
809.6	33310
809.741	31712
809.883	30129
810.025	29379
810.166	28694
810.308	28032
810.45	27671
810.591	27199
810.733	26948
810.875	26750
811.016	26343
811.158	26183
811.299	26164
811.441	26237
811.582	25959
811.724	25982
811.865	25689
812.007	25647
812.148	25601
812.29	25628
812.431	25738
812.573	25963
812.714	25940
812.855	25932
812.997	26100
813.138	26157
813.279	25909
813.421	25944
813.562	25807
813.703	25620
813.845	25422
813.986	25175
814.127	25129
814.268	24859
814.41	24867
814.551	24810
814.692	24882
814.833	24574
814.974	24852
815.115	24692
815.256	24483
815.397	24433
815.539	24448
815.68	24388
815.821	24277
815.962	24323
816.103	24410
816.244	24350
816.385	24125
816.526	24144
816.666	23855
816.807	23729
816.948	23817
817.089	23786
817.23	23745
817.371	23767
817.512	23722
817.653	23710
817.793	23573
817.934	23691
818.075	23703
818.216	23608
818.356	23558
818.497	23497
818.638	23360
818.778	23436
818.919	23307
819.06	23364
819.2	23452
819.341	23611
819.481	23379
819.622	23608
819.762	23786
819.903	23718
820.043	23668
820.184	23562
820.324	23627
820.465	23668
820.605	23600
820.746	23471
820.886	23376
821.026	23372
821.167	23353
821.307	23509
821.447	23345
821.588	23303
821.728	23044
821.868	22858
822.008	22782
822.149	22866
822.289	22744
822.429	22573
822.569	22405
822.709	22470
822.849	22253
822.99	22363
823.13	22257
823.27	22219
823.41	22078
823.55	21956
823.69	22002
823.83	22124
823.97	21998
824.11	21778
824.25	21888
824.389	21876
824.529	21884
824.669	21831
824.809	21953
824.949	21972
825.089	21816
825.228	21838
825.368	21614
825.508	21698
825.648	21587
825.787	21629
825.927	21656
826.067	21587
826.206	21564
826.346	21682
826.485	21633
826.625	21572
826.765	21705
826.904	21637
827.044	21359
827.183	21298
827.323	21355
827.462	21367
827.601	21264
827.741	21218
827.88	21302
828.02	21077
828.159	21146
828.298	21184
828.437	21272
828.577	21142
828.716	21272
828.855	21062
828.994	20849
829.134	20971
829.273	21077
829.412	20948
829.551	20956
829.69	20944
829.829	20967
829.968	21024
830.107	20990
830.246	20914
830.385	20872
830.524	20712
830.663	20682
830.802	20606
830.941	20530
831.08	20415
831.219	20602
831.357	20552
831.496	20762
831.635	20511
831.774	20377
831.913	20431
832.051	20305
832.19	20362
832.329	20347
832.467	20298
832.606	20328
832.744	20355
832.883	20415
833.022	20355
833.16	20431
833.299	20457
833.437	20632
833.576	20830
833.714	20868
833.852	20891
833.991	21135
834.129	21058
834.267	21150
834.406	20971
834.544	21131
834.682	20918
834.821	20826
834.959	20914
835.097	20579
835.235	20689
835.373	20556
835.511	20609
835.65	20267
835.788	20313
835.926	20050
836.064	20005
836.202	19902
836.34	20111
836.478	20252
836.615	20081
836.753	20084
836.891	20218
837.029	20050
837.167	19986
837.305	20012
837.443	20001
837.58	19932
837.718	19993
837.856	19940
837.993	19807
838.131	19967
838.269	19677
838.406	19757
838.544	19761
838.681	19651
838.819	19460
838.956	19316
839.094	19411
839.231	19331
839.369	19472
839.506	19811
839.643	19559
839.781	19308
839.918	19266
840.055	19335
840.193	19206
840.33	19301
840.467	19247
840.604	19274
840.742	19647
840.879	19202
841.016	19209
841.153	19251
841.29	19339
841.427	19339
841.564	19339
841.701	19339
841.838	19236
841.975	19190
842.112	19255
842.249	19122
842.385	19019
842.522	19430
842.659	19148
842.796	19133
842.933	19015
843.069	19050
843.206	19137
843.343	19244
843.479	19122
843.616	19156
843.752	18856
843.889	19034
844.025	19259
844.162	19095
844.298	19228
844.435	19327
844.571	19244
844.708	19586
844.844	19898
844.98	20267
845.117	20594
845.253	21230
845.389	22284
845.525	24460
845.661	28002
845.798	32556
845.934	36121
846.07	37510
846.206	36817
846.342	33770
846.478	29455
846.614	25343
846.75	22675
846.886	21249
847.022	20320
847.158	19750
847.294	19384
847.429	19114
847.565	18890
847.701	19012
847.837	18441
847.972	18323
848.108	18304
848.244	18346
848.379	18171
848.515	18129
848.65	17977
848.786	18178
848.921	18041
849.057	18224
849.192	18038
849.328	18011
849.463	17923
849.598	17927
849.734	17840
849.869	17828
850.004	17695
850.14	17809
850.275	17718
850.41	17680
850.545	17657
850.68	17646
850.815	17802
850.95	17638
851.085	17901
851.22	17863
851.355	17695
851.49	17665
851.625	17726
851.76	17619
851.895	17623
852.03	17687
852.165	17684
852.299	17680
852.434	17786
852.569	17756
852.703	17760
852.838	17923
852.973	17961
853.107	17863
853.242	17726
853.376	17703
853.511	17630
853.645	17805
853.78	17843
853.914	17733
854.048	17840
854.183	17878
854.317	17878
854.451	17927
854.585	17726
854.72	17775
854.854	17904
854.988	17615
855.122	17737
855.256	17646
855.39	17745
855.524	17714
855.658	17771
855.792	17722
855.926	17699
856.06	17589
856.194	17623
856.327	17585
856.461	17570
856.595	17619
856.729	17554
856.862	17665
856.996	17554
857.13	17562
857.263	17638
857.397	17630
857.53	17501
857.664	17585
857.797	17516
857.931	17604
858.064	17516
858.197	17611
858.331	17581
858.464	17471
858.597	17364
858.731	17528
858.864	17455
858.997	17402
859.13	17535
859.263	17372
859.396	17558
859.529	17391
859.662	17364
859.795	17395
859.928	17402
860.061	17528
860.194	17573
860.327	17345
860.46	17471
860.592	17486
860.725	17444
860.858	17516
860.99	17391
861.123	17410
861.256	17311
861.388	17459
861.521	17999
861.653	17345
861.786	17143
861.918	17258
862.05	17383
862.183	17402
862.315	17421
862.447	17391
862.58	17337
862.712	17216
862.844	17284
862.976	17216
863.108	17235
863.24	17459
863.372	17147
863.504	17060
863.636	17124
863.768	17166
863.9	17109
864.032	16987
864.164	17086
864.296	17121
864.428	17265
864.559	17124
864.691	17181
864.823	17102
864.954	17079
865.086	17060
865.217	17086
865.349	17132
865.48	17109
865.612	17067
865.743	17178
865.875	17052
866.006	16976
866.137	17003
866.269	17006
866.4	17128
866.531	17113
866.662	16961
866.793	17010
866.924	17048
867.055	17006
867.186	17025
867.317	16847
867.448	16877
867.579	16980
867.71	16995
867.841	16934
867.972	17037
868.103	16900
868.233	17022
868.364	17113
868.495	17113
868.625	17220
868.756	17364
868.886	17258
869.017	17307
869.147	17410
869.278	17356
869.408	17269
869.539	17315
869.669	17528
869.799	17349
869.929	17459
870.06	17429
870.19	17543
870.32	17722
870.45	17676
870.58	17737
870.71	17771
870.84	17745
870.97	17741
871.1	17657
871.23	17870
871.36	17969
871.489	17718
871.619	17931
871.749	17874
871.879	17980
872.008	18136
872.138	17908
872.267	17996
872.397	17939
872.526	17878
872.656	17851
872.785	17885
872.915	18007
873.044	18057
873.173	18068
873.303	18178
873.432	18182
873.561	18190
873.69	18182
873.819	18155
873.948	18235
874.077	18216
874.206	18216
874.335	18266
874.464	18410
874.593	18483
874.722	18585
874.851	18585
874.979	18642
875.108	18654
875.237	18601
875.365	18559
875.494	18730
875.623	18817
875.751	18665
875.88	18814
876.008	18951
876.136	18958
876.265	19297
876.393	19426
876.521	19514
876.65	19377
876.778	19403
876.906	19327
877.034	19373
877.162	19411
877.29	19358
877.418	19544
877.546	19567
877.674	19757
877.802	19715
877.93	19909
878.058	20024
878.185	20077
878.313	20259
878.441	20678
878.568	20598
878.696	21116
878.824	21690
878.951	22432
879.079	23589
879.206	24916
879.333	26237
879.461	27374
879.588	28112
879.715	28097
879.842	27641
879.97	26119
880.097	24608
880.224	23562
880.351	22831
880.478	22329
880.605	21804
880.732	21629
880.859	21736
880.986	21336
881.112	21279
881.239	21192
881.366	20998
881.493	20975
881.619	20705
881.746	20785
881.872	20963
881.999	20830
882.125	20857
882.252	21096
882.378	21017
882.505	21180
882.631	21020
882.757	20910
882.883	20868
883.01	20830
883.136	20792
883.262	20754
883.388	20613
883.514	20872
883.64	20857
883.766	20765
883.892	20720
884.018	20689
884.143	20906
884.269	20807
884.395	20693
884.52	20530
884.646	20552
884.772	20602
884.897	20450
885.023	20579
885.148	20655
885.274	20518
885.399	20465
885.524	20374
885.65	20294
885.775	20157
885.9	20134
886.025	20176
886.15	19932
886.275	19818
886.4	19601
886.525	19681
886.65	19529
886.775	19453
886.9	19529
887.025	19639
887.149	19202
887.274	19107
887.399	18996
887.523	18996
887.648	18741
887.773	18791
887.897	18909
888.021	18947
888.146	18620
888.27	18878
888.395	18768
888.519	18730
888.643	18661
888.767	18665
888.891	18445
889.015	18376
889.139	18338
889.263	18296
889.387	18273
889.511	18346
889.635	18357
889.759	18194
889.883	18228
890.006	18213
890.13	18155
890.254	18091
890.377	18007
890.501	17802
890.624	17863
890.748	17863
890.871	17836
890.995	17627
891.118	17570
891.241	17627
891.364	17748
891.488	17729
891.611	17592
891.734	17627
891.857	17558
891.98	17589
892.103	17539
892.226	17558
892.349	17490
892.471	17296
892.594	17452
892.717	17433
892.839	17368
892.962	17280
893.085	17501
893.207	17284
893.33	17242
893.452	17178
893.575	17109
893.697	17151
893.819	17433
893.941	17391
894.064	17303
894.186	17124
894.308	17067
894.43	17193
894.552	17311
894.674	17193
894.796	17086
894.918	17185
895.04	17162
895.161	17143
895.283	17170
895.405	16995
895.526	17102
895.648	17079
895.769	17136
895.891	17029
896.012	17200
896.134	17109
896.255	17086
896.376	17041
896.498	17006
896.619	17109
896.74	17037
896.861	17052
896.982	17311
897.103	17478
897.224	17341
897.345	17239
897.466	17246
897.587	17254
897.708	17364
897.828	17284
897.949	17170
898.07	17151
898.19	17159
898.311	17417
898.431	17128
898.552	17292
898.672	17410
898.792	17433
898.913	17280
899.033	17181
899.153	17151
899.273	16991
899.393	17048
899.513	17128
899.633	17121
899.753	17075
899.873	17029
899.993	17170
900.113	16946
900.232	17075
900.352	17056
900.472	16991
900.591	16900
900.711	16892
900.83	16892
900.95	17124
901.069	17041
901.189	16820
901.308	16542
901.427	16573
901.546	16558
901.665	16531
901.784	16580
901.904	16352
902.023	16242
902.141	16090
902.26	16040
902.379	16090
902.498	16086
902.617	15991
902.735	15987
902.854	16010
902.973	15895
903.091	15739
903.21	15663
903.328	15762
903.446	15462
903.565	15443
903.683	15580
903.801	15435
903.919	15469
904.038	15466
904.156	15363
904.274	15313
904.392	15302
904.51	15180
904.627	15184
904.745	15279
904.863	15287
904.981	15070
905.098	14853
905.216	14944
905.334	14868
905.451	14906
905.569	14880
905.686	14838
905.803	14921
905.921	14705
906.038	14762
906.155	14773
906.272	14625
906.389	14537
906.506	14419
906.623	14362
906.74	14324
906.857	14343
906.974	14336
907.091	14492
907.208	14518
907.324	14476
907.441	14389
907.557	14210
907.674	14096
907.79	14130
907.907	14157
908.023	14065
908.139	14119
908.256	14077
908.372	14012
908.488	14103
908.604	13830
908.72	13963
908.836	13921
908.952	13822
909.068	13860
909.184	13986
909.3	13837
909.415	13852
909.531	13860
909.647	13681
909.762	13586
909.878	13605
909.993	13529
910.108	13502
910.224	13518
910.339	13651
910.454	13453
910.57	13381
910.685	13285
910.8	13616
910.915	13567
911.03	13419
911.145	13247
911.259	13232
911.374	13263
911.489	13202
911.604	13149
911.718	12920
911.833	13053
911.947	12962
912.062	12829
912.176	12939
912.291	12947
912.405	12882
912.519	13145
912.633	13133
912.748	13069
912.862	12954
912.976	12829
913.09	12662
913.204	12738
913.318	12757
913.431	12920
913.545	12943
913.659	12871
913.772	12890
913.886	12662
914	12654
914.113	12764
914.226	12932
914.34	12791
914.453	12570
914.566	12825
914.68	12593
914.793	12658
914.906	12456
915.019	12323
915.132	12342
915.245	12410
915.358	12437
915.47	12418
915.583	12346
915.696	12437
915.809	12525
915.921	12608
916.034	12365
916.146	12486
916.259	12330
916.371	12437
916.483	12445
916.595	12228
916.708	12372
916.82	12399
916.932	12281
917.044	12281
917.156	12304
917.268	12201
917.38	12125
917.491	12216
917.603	12194
917.715	12346
917.826	12296
917.938	12152
918.049	12049
918.161	12098
918.272	12281
918.384	12285
918.495	12110
918.606	11920
918.717	11927
918.828	11946
918.939	12083
919.05	11855
919.161	11935
919.272	11688
919.383	11817
919.494	11988
919.604	12125
919.715	11996
919.826	11851
919.936	11969
920.047	12034
920.157	11942
920.267	12220
920.378	11954
920.488	11893
920.598	12053
920.708	12254
920.818	12091
920.928	12144
921.038	12235
921.148	12216
921.258	11923
921.368	11821
921.477	11756
921.587	11672
921.697	11619
921.806	11745
921.916	11672
922.025	11452
922.134	11398
922.244	11307
922.353	11402
922.462	11353
922.571	11204
922.68	11113
922.789	11071
922.898	11056
923.007	11079
923.116	11079
923.224	10987
923.333	11052
923.442	10923
923.55	10892
923.659	10965
923.767	11090
923.876	10854
923.984	11045
924.092	10843
924.201	10915
924.309	10896
924.417	10801
924.525	10801
924.633	10850
924.741	11714
924.849	10668
924.956	10805
925.064	10618
925.172	10592
925.279	10626
925.387	10672
925.494	10729
925.602	10668
925.709	10706
925.816	10550
925.924	10618
926.031	10664
926.138	10561
926.245	10698
926.352	10516
926.459	10672
926.566	10729
926.673	10519
926.779	10455
926.886	10440
926.993	10371
927.099	10280
927.206	10234
927.312	10318
927.419	10265
927.525	10261
927.631	10299
927.737	10280
927.843	10215
927.95	10086
928.056	10135
928.162	10207
928.267	10322
928.373	10778
928.479	10181
928.585	10067
928.69	10086
928.796	10154
928.901	10078
929.007	9987
929.112	10051
929.218	9998
929.323	9991
929.428	9934
929.533	10128
929.638	9876
929.743	9873
929.848	9907
929.953	9907
930.058	9888
930.163	9686
930.267	9682
930.372	9907
930.477	9614
930.581	9903
930.685	9690
930.79	9603
930.894	9591
930.998	9526
931.103	9762
931.207	9386
931.311	9233
931.415	9241
931.519	9005
931.623	8990
