Data from test_V78500241_1585.txt Node
Date: Fri Mar 25 14:44:45 CST 2022
User: usil
Spectrometer: V785-0024
Trigger mode: 0
Integration Time (sec): 4.000000E-1
Scans to average: 1
Nonlinearity correction enabled: false
Boxcar width: 0
Storing dark spectrum: false
XAxis mode: Wavelengths
Number of Pixels in Spectrum: 1024
>>>>>Begin Spectral Data<<<<<
801.071	22421
801.214	22344
801.356	22044
801.499	21903
801.641	21709
801.783	21564
801.926	21728
802.068	21682
802.211	21709
802.353	21485
802.496	21348
802.638	21135
802.78	21173
802.923	21001
803.065	20963
803.208	20986
803.35	21066
803.492	21154
803.635	21249
803.777	21070
803.919	21230
804.061	21424
804.204	21081
804.346	21043
804.488	20937
804.63	21043
804.773	20807
804.915	20948
805.057	21074
805.199	21001
805.341	21138
805.483	20963
805.626	21207
805.768	20975
805.91	20990
806.052	20956
806.194	20921
806.336	21039
806.478	20918
806.62	21028
806.762	21058
806.904	21142
807.046	21378
807.188	21283
807.33	21302
807.472	21310
807.614	21180
807.756	21283
807.898	21146
808.04	21154
808.182	21043
808.324	21241
808.465	21233
808.607	21393
808.749	21534
808.891	21633
809.033	21675
809.174	21526
809.316	21374
809.458	21458
809.6	21382
809.741	21523
809.883	21481
810.025	21576
810.166	21614
810.308	21637
810.45	21526
810.591	21359
810.733	21351
810.875	21131
811.016	21123
811.158	21081
811.299	21150
811.441	21336
811.582	21302
811.724	21222
811.865	21135
812.007	21100
812.148	21241
812.29	21256
812.431	21283
812.573	21553
812.714	21435
812.855	21561
812.997	21736
813.138	21892
813.279	21713
813.421	21679
813.562	21606
813.703	21591
813.845	21382
813.986	21104
814.127	20956
814.268	20872
814.41	20727
814.551	20697
814.692	20720
814.833	20575
814.974	20663
815.115	20785
815.256	20408
815.397	20602
815.539	20579
815.68	20495
815.821	20434
815.962	20457
816.103	20355
816.244	20294
816.385	20168
816.526	20138
816.666	19947
816.807	19890
816.948	20005
817.089	19944
817.23	19845
817.371	19887
817.512	19841
817.653	19860
817.793	19689
817.934	19864
818.075	19921
818.216	19921
818.356	19791
818.497	19655
818.638	19525
818.778	19590
818.919	19563
819.06	19502
819.2	19605
819.341	19795
819.481	19685
819.622	19864
819.762	19925
819.903	19902
820.043	19967
820.184	19807
820.324	19845
820.465	19917
820.605	19746
820.746	19814
820.886	19731
821.026	19826
821.167	19727
821.307	19852
821.447	19830
821.588	19597
821.728	19578
821.868	19350
822.008	19320
822.149	19236
822.289	19209
822.429	18951
822.569	18886
822.709	18916
822.849	18764
822.99	18719
823.13	18692
823.27	18654
823.41	18551
823.55	18429
823.69	18483
823.83	18627
823.97	18380
824.11	18300
824.25	18304
824.389	18296
824.529	18410
824.669	18338
824.809	18342
824.949	18403
825.089	18330
825.228	18361
825.368	18068
825.508	18152
825.648	18098
825.787	18102
825.927	18102
826.067	18019
826.206	18060
826.346	18098
826.485	18057
826.625	18019
826.765	18308
826.904	18068
827.044	17824
827.183	17893
827.323	17722
827.462	17908
827.601	17779
827.741	17783
827.88	17737
828.02	17665
828.159	17752
828.298	17821
828.437	17771
828.577	17737
828.716	17954
828.855	17745
828.994	17535
829.134	17474
829.273	17573
829.412	17520
829.551	17417
829.69	17395
829.829	17467
829.968	17554
830.107	17638
830.246	17417
830.385	17547
830.524	17376
830.663	17341
830.802	17364
830.941	17098
831.08	17166
831.219	17159
831.357	17178
831.496	17337
831.635	17117
831.774	17128
831.913	17041
832.051	16824
832.19	16892
832.329	16957
832.467	16900
832.606	16717
832.744	16831
832.883	16812
833.022	16889
833.16	16771
833.299	16869
833.437	16847
833.576	16896
833.714	16877
833.852	16881
833.991	16831
834.129	16835
834.267	16877
834.406	16774
834.544	16911
834.682	16812
834.821	16801
834.959	16965
835.097	16713
835.235	16839
835.373	16908
835.511	16889
835.65	16847
835.788	16706
835.926	16721
836.064	16527
836.202	16607
836.34	16717
836.478	16881
836.615	16702
836.753	16713
836.891	16877
837.029	16828
837.167	16698
837.305	16691
837.443	16622
837.58	16580
837.718	16664
837.856	16675
837.993	16538
838.131	16584
838.269	16508
838.406	16607
838.544	16417
838.681	16223
838.819	16284
838.956	16086
839.094	16055
839.231	16196
839.369	16337
839.506	16500
839.643	16466
839.781	16234
839.918	16063
840.055	16226
840.193	16158
840.33	16063
840.467	16196
840.604	16158
840.742	16371
840.879	16055
841.016	15937
841.153	16090
841.29	16265
841.427	16166
841.564	16234
841.701	16143
841.838	16139
841.975	16040
842.112	16158
842.249	15857
842.385	15941
842.522	16143
842.659	15979
842.796	15949
842.933	15956
843.069	15884
843.206	15846
843.343	15987
843.479	15842
843.616	15998
843.752	15766
843.889	15690
844.025	15831
844.162	15663
844.298	15857
844.435	15667
844.571	15526
844.708	15770
844.844	15945
844.98	15838
845.117	15789
845.253	15641
845.389	15587
845.525	15633
845.661	15580
845.798	15759
845.934	15778
846.07	15561
846.206	15709
846.342	15865
846.478	15656
846.614	15367
846.75	15279
846.886	15268
847.022	15367
847.158	15359
847.294	15264
847.429	15214
847.565	15291
847.701	15428
847.837	15085
847.972	14971
848.108	15108
848.244	15077
848.379	14948
848.515	14845
848.65	14838
848.786	14876
848.921	14937
849.057	14899
849.192	14998
849.328	14967
849.463	14990
849.598	14800
849.734	14777
849.869	14769
850.004	14655
850.14	14872
850.275	14682
850.41	14560
850.545	14655
850.68	14594
850.815	14686
850.95	14575
851.085	14800
851.22	14731
851.355	14674
851.49	14537
851.625	14568
851.76	14617
851.895	14560
852.03	14518
852.165	14667
852.299	14674
852.434	14731
852.569	14670
852.703	14625
852.838	14724
852.973	14849
853.107	14853
853.242	14552
853.376	14385
853.511	14366
853.645	14438
853.78	14571
853.914	14606
854.048	14484
854.183	14545
854.317	14446
854.451	14705
854.585	14499
854.72	14503
854.854	14530
854.988	14457
855.122	14465
855.256	14351
855.39	14461
855.524	14564
855.658	14518
855.792	14568
855.926	14476
856.06	14587
856.194	14556
856.327	14473
856.461	14434
856.595	14377
856.729	14446
856.862	14598
856.996	14427
857.13	14579
857.263	14644
857.397	14648
857.53	14518
857.664	14552
857.797	14613
857.931	14598
858.064	14492
858.197	14655
858.331	14560
858.464	14480
858.597	14484
858.731	14454
858.864	14461
858.997	14454
859.13	14484
859.263	14522
859.396	14552
859.529	14511
859.662	14404
859.795	14484
859.928	14499
860.061	14632
860.194	14689
860.327	14518
860.46	14522
860.592	14610
860.725	14610
860.858	14667
860.99	14454
861.123	14355
861.256	14336
861.388	14541
861.521	15245
861.653	14278
861.786	14324
861.918	14317
862.05	14412
862.183	14530
862.315	14438
862.447	14587
862.58	14438
862.712	14438
862.844	14298
862.976	14282
863.108	14286
863.24	14781
863.372	14256
863.504	14237
863.636	14366
863.768	14320
863.9	14355
864.032	14225
864.164	14206
864.296	14381
864.428	14393
864.559	14366
864.691	14476
864.823	14252
864.954	14351
865.086	14214
865.217	14259
865.349	14126
865.48	14351
865.612	14313
865.743	14313
865.875	14229
866.006	14252
866.137	14282
866.269	14305
866.4	14298
866.531	14187
866.662	14214
866.793	14214
866.924	14187
867.055	14210
867.186	14233
867.317	14164
867.448	14119
867.579	14149
867.71	14225
867.841	14149
867.972	14259
868.103	14259
868.233	14252
868.364	14252
868.495	14317
868.625	14457
868.756	14632
868.886	14305
869.017	14518
869.147	14655
869.278	14629
869.408	14575
869.539	14484
869.669	14541
869.799	14583
869.929	14648
870.06	14686
870.19	14788
870.32	14708
870.45	14842
870.58	14853
870.71	14979
870.84	15089
870.97	14921
871.1	14902
871.23	15028
871.36	15138
871.489	14929
871.619	15028
871.749	15028
871.879	15085
872.008	15211
872.138	15009
872.267	15051
872.397	14906
872.526	14929
872.656	14902
872.785	14914
872.915	15077
873.044	15252
873.173	15161
873.303	15150
873.432	15203
873.561	15192
873.69	15112
873.819	15180
873.948	15256
874.077	15199
874.206	15176
874.335	15138
874.464	15321
874.593	15416
874.722	15256
874.851	15416
874.979	15519
875.108	15568
875.237	15454
875.365	15336
875.494	15492
875.623	15523
875.751	15431
875.88	15473
876.008	15648
876.136	15644
876.265	15968
876.393	15987
876.521	15941
876.65	15884
876.778	15876
876.906	15797
877.034	15800
877.162	15857
877.29	15857
877.418	15888
877.546	15869
877.674	15937
877.802	15850
877.93	15846
878.058	15781
878.185	15701
878.313	15800
878.441	15895
878.568	15720
878.696	15850
878.824	15880
878.951	16010
879.079	16036
879.206	16219
879.333	15994
879.461	15968
879.588	16074
879.715	16177
879.842	16337
879.97	16036
880.097	15770
880.224	15778
880.351	15865
880.478	15736
880.605	15641
880.732	15667
880.859	16021
880.986	15770
881.112	15812
881.239	15595
881.366	15481
881.493	15378
881.619	15443
881.746	15329
881.872	15412
881.999	15275
882.125	15298
882.252	15393
882.378	15367
882.505	15473
882.631	15306
882.757	15218
882.883	15184
883.01	15142
883.136	15062
883.262	14994
883.388	15097
883.514	15150
883.64	15192
883.766	15241
883.892	15127
884.018	15043
884.143	15245
884.269	15237
884.395	14963
884.52	14941
884.646	14933
884.772	14891
884.897	14819
885.023	14902
885.148	14982
885.274	15062
885.399	14982
885.524	14937
885.65	14971
885.775	14887
885.9	14891
886.025	15077
886.15	14979
886.275	14880
886.4	14792
886.525	14864
886.65	14758
886.775	14864
886.9	15009
887.025	15131
887.149	14899
887.274	14693
887.399	14667
887.523	14716
887.648	14731
887.773	14678
887.897	14880
888.021	14804
888.146	14693
888.27	14819
888.395	14921
888.519	14754
888.643	14819
888.767	14773
888.891	14568
889.015	14518
889.139	14610
889.263	14507
889.387	14731
889.511	14785
889.635	14651
889.759	14564
889.883	14484
890.006	14632
890.13	14670
890.254	14476
890.377	14549
890.501	14305
890.624	14286
890.748	14480
890.871	14301
890.995	14237
891.118	14225
891.241	14267
891.364	14278
891.488	14408
891.611	14317
891.734	14347
891.857	14336
891.98	14229
892.103	14400
892.226	14290
892.349	14248
892.471	14214
892.594	14309
892.717	14290
892.839	14374
892.962	14237
893.085	14396
893.207	14305
893.33	14225
893.452	14237
893.575	14389
893.697	14275
893.819	14446
893.941	14423
894.064	14324
894.186	14301
894.308	14202
894.43	14358
894.552	14465
894.674	14465
894.796	14259
894.918	14313
895.04	14286
895.161	14389
895.283	14370
895.405	14377
895.526	14332
895.648	14404
895.769	14423
895.891	14537
896.012	14431
896.134	14594
896.255	14404
896.376	14423
896.498	14465
896.619	14434
896.74	14522
896.861	14522
896.982	14754
897.103	14830
897.224	14720
897.345	14682
897.466	14659
897.587	14670
897.708	14891
897.828	14777
897.949	14583
898.07	14606
898.19	14735
898.311	14887
898.431	14655
898.552	14826
898.672	14921
898.792	14929
898.913	14811
899.033	14686
899.153	14750
899.273	14556
899.393	14640
899.513	14708
899.633	14610
899.753	14689
899.873	14461
899.993	14587
900.113	14686
900.232	14667
900.352	14579
900.472	14522
900.591	14522
900.711	14533
900.83	14381
900.95	14590
901.069	14708
901.189	14374
901.308	14336
901.427	14237
901.546	14126
901.665	14271
901.784	14229
901.904	14111
902.023	14130
902.141	13841
902.26	13704
902.379	13830
902.498	13727
902.617	13712
902.735	13849
902.854	13746
902.973	13715
903.091	13495
903.21	13460
903.328	13521
903.446	13369
903.565	13213
903.683	13316
903.801	13179
903.919	13350
904.038	13289
904.156	13084
904.274	13202
904.392	13084
904.51	13175
904.627	13145
904.745	13175
904.863	13206
904.981	12882
905.098	12833
905.216	12817
905.334	12924
905.451	12856
905.569	12791
905.686	12894
905.803	12768
905.921	12612
906.038	12711
906.155	12715
906.272	12536
906.389	12589
906.506	12399
906.623	12376
906.74	12467
906.857	12357
906.974	12266
907.091	12448
907.208	12509
907.324	12437
907.441	12308
907.557	12205
907.674	12110
907.79	12079
907.907	12117
908.023	12209
908.139	12087
908.256	12159
908.372	12079
908.488	12076
908.604	11954
908.72	11916
908.836	11851
908.952	11866
909.068	11969
909.184	11996
909.3	11840
909.415	11980
909.531	11889
909.647	11703
909.762	11688
909.878	11600
909.993	11653
910.108	11646
910.224	11630
910.339	11596
910.454	11638
910.57	11577
910.685	11433
910.8	11809
910.915	11680
911.03	11524
911.145	11398
911.259	11345
911.374	11406
911.489	11280
911.604	11239
911.718	11094
911.833	11170
911.947	11025
912.062	10961
912.176	11067
912.291	11079
912.405	11121
912.519	11345
912.633	11353
912.748	11143
912.862	11071
912.976	10911
913.09	10927
913.204	10984
913.318	11079
913.431	11151
913.545	11098
913.659	11109
913.772	11056
913.886	10904
914	10828
914.113	10942
914.226	11086
914.34	10873
914.453	10816
914.566	11010
914.68	10812
914.793	10782
914.906	10615
915.019	10641
915.132	10615
915.245	10611
915.358	10618
915.47	10645
915.583	10607
915.696	10729
915.809	10782
915.921	10812
916.034	10588
916.146	10615
916.259	10558
916.371	10694
916.483	10599
916.595	10523
916.708	10565
916.82	10634
916.932	10542
917.044	10527
917.156	10519
917.268	10470
917.38	10421
917.491	10409
917.603	10538
917.715	10569
917.826	10577
917.938	10413
918.049	10318
918.161	10485
918.272	10611
918.384	10584
918.495	10390
918.606	10402
918.717	10242
918.828	10394
918.939	10375
919.05	10234
919.161	10295
919.272	10185
919.383	10188
919.494	10344
919.604	10512
919.715	10352
919.826	10234
919.936	10386
920.047	10405
920.157	10348
920.267	10554
920.378	10413
920.488	10295
920.598	10565
920.708	10717
920.818	10573
920.928	10584
921.038	10694
921.148	10645
921.258	10348
921.368	10348
921.477	10215
921.587	10150
921.697	10040
921.806	10257
921.916	10120
922.025	9850
922.134	9888
922.244	9838
922.353	9907
922.462	9781
922.571	9778
922.68	9572
922.789	9519
922.898	9660
923.007	9561
923.116	9644
923.224	9515
923.333	9584
923.442	9523
923.55	9507
923.659	9511
923.767	9511
923.876	9408
923.984	9584
924.092	9386
924.201	9435
924.309	9488
924.417	9447
924.525	9367
924.633	9420
924.741	10417
924.849	9272
924.956	9401
925.064	9245
925.172	9199
925.279	9169
925.387	9237
925.494	9211
925.602	9370
925.709	9336
925.816	9157
925.924	9233
926.031	9329
926.138	9253
926.245	9332
926.352	9176
926.459	9325
926.566	9306
926.673	9237
926.779	9032
926.886	9074
926.993	8902
927.099	8960
927.206	8902
927.312	8891
927.419	9058
927.525	8944
927.631	8971
927.737	8880
927.843	8849
927.95	8735
928.056	8830
928.162	8834
928.267	8883
928.373	9374
928.479	8963
928.585	8670
928.69	8811
928.796	8906
928.901	8766
929.007	8674
929.112	8807
929.218	8796
929.323	8720
929.428	8693
929.533	8739
929.638	8564
929.743	8625
929.848	8651
929.953	8674
930.058	8571
930.163	8480
930.267	8514
930.372	8560
930.477	8305
930.581	8613
930.685	8545
930.79	8415
930.894	8332
930.998	8434
931.103	8484
931.207	8161
931.311	8119
931.415	8073
931.519	7845
931.623	7852
