Data from test_V78500241_1618.txt Node
Date: Fri Mar 25 14:44:58 CST 2022
User: usil
Spectrometer: V785-0024
Trigger mode: 0
Integration Time (sec): 4.000000E-1
Scans to average: 1
Nonlinearity correction enabled: false
Boxcar width: 0
Storing dark spectrum: false
XAxis mode: Wavelengths
Number of Pixels in Spectrum: 1024
>>>>>Begin Spectral Data<<<<<
801.071	22356
801.214	22200
801.356	22025
801.499	21998
801.641	21736
801.783	21686
801.926	21698
802.068	21641
802.211	21564
802.353	21492
802.496	21382
802.638	21154
802.78	21154
802.923	21058
803.065	21001
803.208	20982
803.35	21017
803.492	21161
803.635	21131
803.777	21070
803.919	21245
804.061	21515
804.204	21013
804.346	20948
804.488	20906
804.63	21043
804.773	21009
804.915	20952
805.057	21161
805.199	20956
805.341	21066
805.483	21077
805.626	21062
805.768	20948
805.91	20868
806.052	20975
806.194	20823
806.336	21146
806.478	21074
806.62	20960
806.762	20952
806.904	21146
807.046	21306
807.188	21355
807.33	21154
807.472	21302
807.614	21237
807.756	21370
807.898	21192
808.04	21096
808.182	21047
808.324	21100
808.465	21077
808.607	21336
808.749	21462
808.891	21504
809.033	21622
809.174	21530
809.316	21306
809.458	21439
809.6	21367
809.741	21450
809.883	21466
810.025	21663
810.166	21538
810.308	21523
810.45	21523
810.591	21447
810.733	21313
810.875	21112
811.016	21233
811.158	21009
811.299	21169
811.441	21302
811.582	21378
811.724	21313
811.865	21070
812.007	21207
812.148	21233
812.29	21131
812.431	21283
812.573	21496
812.714	21583
812.855	21629
812.997	21732
813.138	21835
813.279	21759
813.421	21568
813.562	21564
813.703	21412
813.845	21294
813.986	20979
814.127	20823
814.268	20754
814.41	20659
814.551	20716
814.692	20834
814.833	20705
814.974	20549
815.115	20750
815.256	20568
815.397	20533
815.539	20583
815.68	20457
815.821	20328
815.962	20514
816.103	20358
816.244	20286
816.385	20149
816.526	20100
816.666	19955
816.807	19879
816.948	19932
817.089	19963
817.23	19982
817.371	19833
817.512	19757
817.653	19791
817.793	19830
817.934	19776
818.075	19826
818.216	19936
818.356	19731
818.497	19571
818.638	19502
818.778	19476
818.919	19518
819.06	19468
819.2	19605
819.341	19655
819.481	19689
819.622	19875
819.762	19963
819.903	19928
820.043	19898
820.184	19807
820.324	19814
820.465	19849
820.605	19772
820.746	19845
820.886	19651
821.026	19693
821.167	19727
821.307	19833
821.447	19799
821.588	19639
821.728	19457
821.868	19483
822.008	19152
822.149	19202
822.289	19194
822.429	18932
822.569	18787
822.709	18829
822.849	18722
822.99	18673
823.13	18719
823.27	18681
823.41	18517
823.55	18490
823.69	18593
823.83	18574
823.97	18414
824.11	18319
824.25	18289
824.389	18254
824.529	18403
824.669	18262
824.809	18346
824.949	18437
825.089	18350
825.228	18369
825.368	18068
825.508	18053
825.648	18045
825.787	18106
825.927	18106
826.067	18072
826.206	17935
826.346	18060
826.485	18076
826.625	17999
826.765	18102
826.904	18030
827.044	17927
827.183	17855
827.323	17767
827.462	17733
827.601	17752
827.741	17745
827.88	17824
828.02	17509
828.159	17615
828.298	17737
828.437	17733
828.577	17726
828.716	17821
828.855	17684
828.994	17573
829.134	17532
829.273	17486
829.412	17551
829.551	17372
829.69	17512
829.829	17376
829.968	17551
830.107	17497
830.246	17459
830.385	17341
830.524	17311
830.663	17269
830.802	17147
830.941	17223
831.08	17117
831.219	17178
831.357	17174
831.496	17303
831.635	17102
831.774	17052
831.913	17025
832.051	16809
832.19	16957
832.329	17022
832.467	16812
832.606	16713
832.744	16752
832.883	16771
833.022	16736
833.16	16873
833.299	16877
833.437	16862
833.576	16717
833.714	16820
833.852	16862
833.991	16847
834.129	16938
834.267	16828
834.406	16812
834.544	16782
834.682	16801
834.821	16885
834.959	17075
835.097	16774
835.235	16892
835.373	16824
835.511	16858
835.65	16771
835.788	16858
835.926	16508
836.064	16558
836.202	16573
836.34	16759
836.478	16805
836.615	16694
836.753	16672
836.891	16752
837.029	16801
837.167	16672
837.305	16721
837.443	16618
837.58	16535
837.718	16584
837.856	16721
837.993	16550
838.131	16584
838.269	16481
838.406	16516
838.544	16512
838.681	16318
838.819	16337
838.956	16097
839.094	16101
839.231	16249
839.369	16192
839.506	16527
839.643	16371
839.781	16169
839.918	16150
840.055	16101
840.193	16128
840.33	16124
840.467	16158
840.604	16257
840.742	16443
840.879	15918
841.016	15991
841.153	16017
841.29	16272
841.427	16112
841.564	16177
841.701	16147
841.838	16086
841.975	15987
842.112	15975
842.249	16032
842.385	15964
842.522	16055
842.659	15895
842.796	15804
842.933	15945
843.069	15937
843.206	15842
843.343	15835
843.479	15842
843.616	16006
843.752	15671
843.889	15831
844.025	15835
844.162	15717
844.298	15899
844.435	15694
844.571	15671
844.708	15816
844.844	15888
844.98	15751
845.117	15816
845.253	15580
845.389	15682
845.525	15648
845.661	15557
845.798	15530
845.934	15572
846.07	15504
846.206	15671
846.342	15690
846.478	15591
846.614	15329
846.75	15188
846.886	15291
847.022	15408
847.158	15355
847.294	15283
847.429	15298
847.565	15241
847.701	15431
847.837	14918
847.972	14902
848.108	15085
848.244	15009
848.379	14998
848.515	14823
848.65	14686
848.786	14830
848.921	14895
849.057	14975
849.192	14929
849.328	14876
849.463	14864
849.598	14849
849.734	14727
849.869	14750
850.004	14560
850.14	14735
850.275	14689
850.41	14590
850.545	14590
850.68	14568
850.815	14659
850.95	14629
851.085	14781
851.22	14735
851.355	14644
851.49	14621
851.625	14564
851.76	14598
851.895	14518
852.03	14385
852.165	14537
852.299	14644
852.434	14674
852.569	14648
852.703	14617
852.838	14663
852.973	14754
853.107	14724
853.242	14541
853.376	14442
853.511	14351
853.645	14461
853.78	14629
853.914	14549
854.048	14412
854.183	14507
854.317	14434
854.451	14686
854.585	14427
854.72	14492
854.854	14431
854.988	14423
855.122	14495
855.256	14427
855.39	14522
855.524	14610
855.658	14469
855.792	14552
855.926	14552
856.06	14446
856.194	14541
856.327	14522
856.461	14461
856.595	14431
856.729	14461
856.862	14659
856.996	14495
857.13	14560
857.263	14560
857.397	14640
857.53	14507
857.664	14541
857.797	14678
857.931	14617
858.064	14480
858.197	14632
858.331	14495
858.464	14530
858.597	14381
858.731	14476
858.864	14450
858.997	14366
859.13	14457
859.263	14537
859.396	14564
859.529	14431
859.662	14457
859.795	14446
859.928	14442
860.061	14731
860.194	14575
860.327	14518
860.46	14621
860.592	14522
860.725	14575
860.858	14590
860.99	14488
861.123	14389
861.256	14427
861.388	14518
861.521	15420
861.653	14408
861.786	14309
861.918	14434
862.05	14381
862.183	14495
862.315	14381
862.447	14465
862.58	14408
862.712	14256
862.844	14244
862.976	14317
863.108	14263
863.24	14724
863.372	14100
863.504	14267
863.636	14309
863.768	14298
863.9	14267
864.032	14134
864.164	14225
864.296	14347
864.428	14301
864.559	14305
864.691	14267
864.823	14377
864.954	14252
865.086	14355
865.217	14301
865.349	14111
865.48	14172
865.612	14229
865.743	14328
865.875	14278
866.006	14214
866.137	14298
866.269	14309
866.4	14278
866.531	14256
866.662	14191
866.793	14214
866.924	14199
867.055	14259
867.186	14282
867.317	14206
867.448	14218
867.579	14172
867.71	14130
867.841	14103
867.972	14240
868.103	14275
868.233	14294
868.364	14237
868.495	14286
868.625	14423
868.756	14522
868.886	14400
869.017	14575
869.147	14651
869.278	14594
869.408	14522
869.539	14427
869.669	14511
869.799	14541
869.929	14610
870.06	14575
870.19	14845
870.32	14750
870.45	14826
870.58	14921
870.71	14975
870.84	14956
870.97	14857
871.1	14842
871.23	14979
871.36	15047
871.489	14887
871.619	15051
871.749	15074
871.879	15085
872.008	15218
872.138	15176
872.267	15032
872.397	14960
872.526	14925
872.656	14941
872.785	14921
872.915	15097
873.044	15131
873.173	15089
873.303	15123
873.432	15100
873.561	15176
873.69	15127
873.819	15157
873.948	15173
874.077	15173
874.206	15066
874.335	15184
874.464	15275
874.593	15367
874.722	15462
874.851	15408
874.979	15389
875.108	15363
875.237	15405
875.365	15351
875.494	15511
875.623	15511
875.751	15321
875.88	15534
876.008	15507
876.136	15549
876.265	15827
876.393	15975
876.521	15892
876.65	15876
876.778	15861
876.906	15766
877.034	15869
877.162	15838
877.29	15663
877.418	15930
877.546	15865
877.674	15873
877.802	15915
877.93	15884
878.058	15892
878.185	15698
878.313	15857
878.441	15842
878.568	15766
878.696	15781
878.824	15899
878.951	15838
879.079	15991
879.206	16181
879.333	16025
879.461	15987
879.588	16120
879.715	16112
879.842	16196
879.97	16036
880.097	15793
880.224	15759
880.351	15762
880.478	15739
880.605	15618
880.732	15724
880.859	15903
880.986	15762
881.112	15728
881.239	15599
881.366	15511
881.493	15367
881.619	15401
881.746	15412
881.872	15363
881.999	15287
882.125	15367
882.252	15473
882.378	15393
882.505	15580
882.631	15256
882.757	15123
882.883	15310
883.01	15230
883.136	15188
883.262	15024
883.388	15055
883.514	15173
883.64	15188
883.766	15085
883.892	15013
884.018	14982
884.143	15195
884.269	15287
884.395	14914
884.52	14842
884.646	14861
884.772	14845
884.897	14762
885.023	14891
885.148	15051
885.274	14956
885.399	15047
885.524	14883
885.65	14838
885.775	14933
885.9	14765
886.025	14944
886.15	14975
886.275	14864
886.4	14754
886.525	14834
886.65	14845
886.775	14823
886.9	14990
887.025	15093
887.149	14868
887.274	14670
887.399	14750
887.523	14655
887.648	14606
887.773	14583
887.897	14712
888.021	14754
888.146	14670
888.27	14849
888.395	14857
888.519	14853
888.643	14773
888.767	14693
888.891	14640
889.015	14579
889.139	14651
889.263	14571
889.387	14674
889.511	14785
889.635	14648
889.759	14587
889.883	14617
890.006	14545
890.13	14712
890.254	14568
890.377	14518
890.501	14476
890.624	14339
890.748	14556
890.871	14317
890.995	14221
891.118	14138
891.241	14229
891.364	14282
891.488	14404
891.611	14240
891.734	14305
891.857	14317
891.98	14324
892.103	14259
892.226	14351
892.349	14244
892.471	14172
892.594	14183
892.717	14225
892.839	14248
892.962	14313
893.085	14294
893.207	14248
893.33	14164
893.452	14145
893.575	14271
893.697	14271
893.819	14396
893.941	14492
894.064	14358
894.186	14176
894.308	14218
894.43	14362
894.552	14434
894.674	14434
894.796	14229
894.918	14282
895.04	14256
895.161	14404
895.283	14427
895.405	14263
895.526	14427
895.648	14317
895.769	14358
895.891	14374
896.012	14499
896.134	14377
896.255	14427
896.376	14438
896.498	14389
896.619	14454
896.74	14404
896.861	14454
896.982	14693
897.103	14990
897.224	14651
897.345	14743
897.466	14636
897.587	14735
897.708	14823
897.828	14743
897.949	14610
898.07	14610
898.19	14621
898.311	14739
898.431	14693
898.552	14754
898.672	14849
898.792	14826
898.913	14727
899.033	14769
899.153	14610
899.273	14549
899.393	14575
899.513	14682
899.633	14667
899.753	14678
899.873	14583
899.993	14724
900.113	14636
900.232	14678
900.352	14590
900.472	14575
900.591	14526
900.711	14492
900.83	14415
900.95	14648
901.069	14678
901.189	14473
901.308	14267
901.427	14153
901.546	14240
901.665	14256
901.784	14195
901.904	14046
902.023	14031
902.141	13864
902.26	13750
902.379	13879
902.498	13715
902.617	13734
902.735	13803
902.854	13765
902.973	13689
903.091	13468
903.21	13495
903.328	13521
903.446	13369
903.565	13346
903.683	13316
903.801	13183
903.919	13297
904.038	13263
904.156	13171
904.274	13145
904.392	13129
904.51	13137
904.627	13031
904.745	13183
904.863	13129
904.981	12890
905.098	12878
905.216	12791
905.334	12863
905.451	12745
905.569	12779
905.686	12825
905.803	12814
905.921	12662
906.038	12719
906.155	12642
906.272	12601
906.389	12464
906.506	12414
906.623	12429
906.74	12384
906.857	12216
906.974	12247
907.091	12384
907.208	12502
907.324	12372
907.441	12251
907.557	12175
907.674	12201
907.79	12064
907.907	12057
908.023	12091
908.139	12171
908.256	12019
908.372	12098
908.488	11958
908.604	11942
908.72	11847
908.836	11866
908.952	11916
909.068	11901
909.184	11908
909.3	11916
909.415	11965
909.531	11878
909.647	11691
909.762	11665
909.878	11661
909.993	11691
910.108	11649
910.224	11676
910.339	11695
910.454	11539
910.57	11539
910.685	11501
910.8	11794
910.915	11672
911.03	11570
911.145	11486
911.259	11398
911.374	11372
911.489	11311
911.604	11353
911.718	11166
911.833	11189
911.947	11067
912.062	10972
912.176	11124
912.291	11223
912.405	11098
912.519	11395
912.633	11368
912.748	11265
912.862	11197
912.976	11025
913.09	10949
913.204	11029
913.318	11102
913.431	11128
913.545	11109
913.659	11094
913.772	11022
913.886	10980
914	10949
914.113	11052
914.226	11090
914.34	11022
914.453	10866
914.566	11006
914.68	10908
914.793	10854
914.906	10637
915.019	10599
915.132	10599
915.245	10660
915.358	10630
915.47	10710
915.583	10710
915.696	10717
915.809	10778
915.921	10778
916.034	10630
916.146	10573
916.259	10630
916.371	10714
916.483	10649
916.595	10558
916.708	10622
916.82	10577
916.932	10523
917.044	10615
917.156	10588
917.268	10440
917.38	10531
917.491	10436
917.603	10447
917.715	10626
917.826	10550
917.938	10459
918.049	10398
918.161	10447
918.272	10615
918.384	10554
918.495	10459
918.606	10360
918.717	10280
918.828	10371
918.939	10379
919.05	10261
919.161	10295
919.272	10181
919.383	10223
919.494	10428
919.604	10516
919.715	10341
919.826	10318
919.936	10356
920.047	10466
920.157	10402
920.267	10573
920.378	10421
920.488	10234
920.598	10550
920.708	10767
920.818	10527
920.928	10516
921.038	10603
921.148	10698
921.258	10341
921.368	10284
921.477	10249
921.587	10169
921.697	10071
921.806	10246
921.916	10143
922.025	9994
922.134	9895
922.244	9823
922.353	9949
922.462	9827
922.571	9747
922.68	9663
922.789	9587
922.898	9614
923.007	9542
923.116	9686
923.224	9633
923.333	9618
923.442	9507
923.55	9515
923.659	9466
923.767	9538
923.876	9492
923.984	9595
924.092	9332
924.201	9450
924.309	9454
924.417	9492
924.525	9428
924.633	9428
924.741	10314
924.849	9214
924.956	9416
925.064	9207
925.172	9165
925.279	9165
925.387	9268
925.494	9253
925.602	9367
925.709	9344
925.816	9192
925.924	9302
926.031	9317
926.138	9230
926.245	9317
926.352	9127
926.459	9355
926.566	9374
926.673	9218
926.779	9127
926.886	9097
926.993	8967
927.099	9001
927.206	8925
927.312	8861
927.419	9039
927.525	8921
927.631	9066
927.737	8842
927.843	8857
927.95	8735
928.056	8883
928.162	8815
928.267	8944
928.373	9382
928.479	9017
928.585	8701
928.69	8876
928.796	8819
928.901	8815
929.007	8632
929.112	8819
929.218	8697
929.323	8667
929.428	8682
929.533	8758
929.638	8644
929.743	8602
929.848	8716
929.953	8674
930.058	8590
930.163	8400
930.267	8400
930.372	8670
930.477	8431
930.581	8689
930.685	8518
930.79	8339
930.894	8423
930.998	8351
931.103	8457
931.207	8100
931.311	8088
931.415	8103
931.519	7959
931.623	7856
