Data from test_V78500241_202.txt Node
Date: Fri Mar 25 14:35:07 CST 2022
User: usil
Spectrometer: V785-0024
Trigger mode: 0
Integration Time (sec): 4.000000E-1
Scans to average: 1
Nonlinearity correction enabled: false
Boxcar width: 0
Storing dark spectrum: false
XAxis mode: Wavelengths
Number of Pixels in Spectrum: 1024
>>>>>Begin Spectral Data<<<<<
801.071	27994
801.214	28040
801.356	27755
801.499	27686
801.641	27599
801.783	27526
801.926	27553
802.068	27401
802.211	27317
802.353	27313
802.496	27249
802.638	26940
802.78	27039
802.923	26998
803.065	26819
803.208	26982
803.35	27047
803.492	26998
803.635	27051
803.777	27116
803.919	27169
804.061	27401
804.204	27218
804.346	26937
804.488	26929
804.63	27123
804.773	26940
804.915	27169
805.057	27043
805.199	26902
805.341	27161
805.483	27093
805.626	27112
805.768	26933
805.91	27089
806.052	27108
806.194	27005
806.336	27199
806.478	27146
806.62	27184
806.762	27226
806.904	27370
807.046	27603
807.188	27500
807.33	27549
807.472	27595
807.614	27500
807.756	27595
807.898	27538
808.04	27427
808.182	27469
808.324	27671
808.465	27804
808.607	28059
808.749	28287
808.891	28382
809.033	28607
809.174	28436
809.316	28177
809.458	28105
809.6	27930
809.741	27956
809.883	27911
810.025	27892
810.166	28040
810.308	27922
810.45	27808
810.591	27827
810.733	27690
810.875	27603
811.016	27561
811.158	27500
811.299	27488
811.441	27561
811.582	27603
811.724	27351
811.865	27469
812.007	27561
812.148	27507
812.29	27367
812.431	27633
812.573	27713
812.714	27911
812.855	27892
812.997	27998
813.138	28086
813.279	28040
813.421	28097
813.562	27762
813.703	27686
813.845	27492
813.986	27389
814.127	27127
814.268	26944
814.41	26918
814.551	27081
814.692	27005
814.833	26891
814.974	27005
815.115	26918
815.256	26815
815.397	26952
815.539	26762
815.68	26754
815.821	26663
815.962	26727
816.103	26629
816.244	26552
816.385	26362
816.526	26434
816.666	26275
816.807	26100
816.948	26134
817.089	26294
817.23	26168
817.371	26221
817.512	26161
817.653	26111
817.793	26027
817.934	26092
818.075	26058
818.216	26092
818.356	26027
818.497	25890
818.638	25658
818.778	25909
818.919	25833
819.06	25944
819.2	26012
819.341	25974
819.481	26054
819.622	26183
819.762	26305
819.903	26138
820.043	26046
820.184	26005
820.324	26100
820.465	26168
820.605	26016
820.746	25951
820.886	25788
821.026	25993
821.167	26016
821.307	26012
821.447	25947
821.588	25757
821.728	25666
821.868	25571
822.008	25445
822.149	25343
822.289	25354
822.429	25076
822.569	25061
822.709	25072
822.849	24798
822.99	24928
823.13	24753
823.27	24871
823.41	24585
823.55	24490
823.69	24601
823.83	24639
823.97	24551
824.11	24353
824.25	24426
824.389	24414
824.529	24467
824.669	24391
824.809	24517
824.949	24582
825.089	24433
825.228	24483
825.368	24121
825.508	24102
825.648	24190
825.787	24357
825.927	24228
826.067	24091
826.206	24110
826.346	24235
826.485	24258
826.625	24182
826.765	24334
826.904	24167
827.044	24102
827.183	23980
827.323	23802
827.462	23958
827.601	23878
827.741	23855
827.88	23954
828.02	23832
828.159	23699
828.298	23821
828.437	23851
828.577	23836
828.716	23904
828.855	23771
828.994	23600
829.134	23512
829.273	23630
829.412	23558
829.551	23459
829.69	23474
829.829	23543
829.968	23577
830.107	23707
830.246	23531
830.385	23421
830.524	23368
830.663	23391
830.802	23296
830.941	23220
831.08	23159
831.219	23216
831.357	23143
831.496	23398
831.635	23124
831.774	23075
831.913	22991
832.051	22873
832.19	23010
832.329	22953
832.467	22759
832.606	22672
832.744	22786
832.883	22763
833.022	22660
833.16	22774
833.299	22805
833.437	22774
833.576	22664
833.714	22839
833.852	22957
833.991	22942
834.129	22831
834.267	22835
834.406	22706
834.544	22729
834.682	22691
834.821	22771
834.959	22828
835.097	22767
835.235	22820
835.373	22675
835.511	22725
835.65	22596
835.788	22630
835.926	22451
836.064	22287
836.202	22413
836.34	22527
836.478	22626
836.615	22504
836.753	22451
836.891	22599
837.029	22481
837.167	22717
837.305	22478
837.443	22459
837.58	22261
837.718	22508
837.856	22390
837.993	22299
838.131	22325
838.269	22284
838.406	22238
838.544	22363
838.681	22036
838.819	22051
838.956	21857
839.094	21629
839.231	21873
839.369	21949
839.506	22196
839.643	22124
839.781	21816
839.918	21762
840.055	21709
840.193	21667
840.33	21762
840.467	21743
840.604	21789
840.742	21960
840.879	21504
841.016	21580
841.153	21629
841.29	21785
841.427	21682
841.564	21743
841.701	21606
841.838	21610
841.975	21660
842.112	21561
842.249	21610
842.385	21454
842.522	21561
842.659	21488
842.796	21431
842.933	21363
843.069	21397
843.206	21389
843.343	21367
843.479	21412
843.616	21568
843.752	21127
843.889	21218
844.025	21340
844.162	21218
844.298	21359
844.435	21100
844.571	21100
844.708	21089
844.844	21344
844.98	21226
845.117	21302
845.253	21123
845.389	21127
845.525	21313
845.661	21504
845.798	21705
845.934	21831
846.07	21880
846.206	21895
846.342	21800
846.478	21500
846.614	21074
846.75	20899
846.886	20735
847.022	20811
847.158	20689
847.294	20682
847.429	20609
847.565	20568
847.701	20819
847.837	20408
847.972	20343
848.108	20408
848.244	20389
848.379	20271
848.515	20237
848.65	20164
848.786	20096
848.921	20088
849.057	20161
849.192	20244
849.328	20237
849.463	20210
849.598	20176
849.734	20119
849.869	20008
850.004	19894
850.14	19970
850.275	20016
850.41	19860
850.545	19868
850.68	19940
850.815	19909
850.95	19974
851.085	20001
851.22	19989
851.355	19734
851.49	19837
851.625	19845
851.76	19734
851.895	19788
852.03	19845
852.165	19799
852.299	19959
852.434	19856
852.569	19852
852.703	19814
852.838	19917
852.973	20039
853.107	19845
853.242	19757
853.376	19769
853.511	19434
853.645	19677
853.78	19830
853.914	19674
854.048	19685
854.183	19734
854.317	19635
854.451	19898
854.585	19746
854.72	19689
854.854	19826
854.988	19639
855.122	19609
855.256	19632
855.39	19624
855.524	19681
855.658	19822
855.792	19563
855.926	19712
856.06	19742
856.194	19700
856.327	19750
856.461	19616
856.595	19620
856.729	19499
856.862	19814
856.996	19685
857.13	19685
857.263	19818
857.397	19715
857.53	19616
857.664	19788
857.797	19738
857.931	19696
858.064	19712
858.197	19715
858.331	19575
858.464	19518
858.597	19491
858.731	19624
858.864	19578
858.997	19647
859.13	19613
859.263	19655
859.396	19746
859.529	19632
859.662	19487
859.795	19624
859.928	19708
860.061	19734
860.194	19780
860.327	19658
860.46	19582
860.592	19666
860.725	19727
860.858	19712
860.99	19628
861.123	19533
861.256	19514
861.388	19559
861.521	20176
861.653	19597
861.786	19308
861.918	19483
862.05	19605
862.183	19643
862.315	19788
862.447	19651
862.58	19548
862.712	19373
862.844	19335
862.976	19434
863.108	19270
863.24	19586
863.372	19225
863.504	19327
863.636	19369
863.768	19263
863.9	19308
864.032	19278
864.164	19377
864.296	19316
864.428	19369
864.559	19403
864.691	19476
864.823	19301
864.954	19293
865.086	19331
865.217	19202
865.349	19145
865.48	19221
865.612	19236
865.743	19247
865.875	19164
866.006	19114
866.137	19282
866.269	19346
866.4	19228
866.531	19103
866.662	19217
866.793	19221
866.924	19152
867.055	19202
867.186	19145
867.317	19251
867.448	19148
867.579	19107
867.71	19122
867.841	19137
867.972	19217
868.103	19126
868.233	19080
868.364	19282
868.495	19213
868.625	19381
868.756	19578
868.886	19270
869.017	19434
869.147	19502
869.278	19491
869.408	19419
869.539	19445
869.669	19445
869.799	19400
869.929	19502
870.06	19464
870.19	19677
870.32	19681
870.45	19616
870.58	19696
870.71	19830
870.84	19856
870.97	19693
871.1	19753
871.23	19993
871.36	19974
871.489	19921
871.619	19955
871.749	20027
871.879	19921
872.008	20138
872.138	19940
872.267	19928
872.397	19887
872.526	19761
872.656	19822
872.785	19837
872.915	20039
873.044	20153
873.173	20073
873.303	20016
873.432	19989
873.561	20138
873.69	20005
873.819	20058
873.948	20149
874.077	20005
874.206	19928
874.335	20008
874.464	20119
874.593	20218
874.722	20084
874.851	20267
874.979	20393
875.108	20381
875.237	20294
875.365	20183
875.494	20134
875.623	20355
875.751	20126
875.88	20358
876.008	20473
876.136	20396
876.265	20682
876.393	20842
876.521	20689
876.65	20876
876.778	20731
876.906	20693
877.034	20621
877.162	20739
877.29	20541
877.418	20682
877.546	20743
877.674	20712
877.802	20750
877.93	20659
878.058	20598
878.185	20590
878.313	20750
878.441	20739
878.568	20499
878.696	20644
878.824	20845
878.951	20872
879.079	21176
879.206	21245
879.333	21127
879.461	21188
879.588	21226
879.715	21329
879.842	21458
879.97	20963
880.097	20807
880.224	20602
880.351	20800
880.478	20636
880.605	20659
880.732	20655
880.859	20861
880.986	20712
881.112	20625
881.239	20476
881.366	20324
881.493	20271
881.619	20172
881.746	20282
881.872	20218
881.999	20218
882.125	20157
882.252	20252
882.378	20229
882.505	20317
882.631	20058
882.757	19970
882.883	20100
883.01	19940
883.136	19947
883.262	19868
883.388	19788
883.514	20008
883.64	20069
883.766	19974
883.892	19761
884.018	19879
884.143	19906
884.269	19902
884.395	19696
884.52	19651
884.646	19757
884.772	19597
884.897	19575
885.023	19776
885.148	19750
885.274	19814
885.399	19769
885.524	19609
885.65	19700
885.775	19594
885.9	19693
886.025	19647
886.15	19666
886.275	19480
886.4	19464
886.525	19624
886.65	19499
886.775	19388
886.9	19696
887.025	19712
887.149	19567
887.274	19350
887.399	19297
887.523	19426
887.648	19228
887.773	19282
887.897	19369
888.021	19453
888.146	19282
888.27	19350
888.395	19259
888.519	19327
888.643	19362
888.767	19312
888.891	19202
889.015	19179
889.139	19099
889.263	19137
889.387	19244
889.511	19228
889.635	19206
889.759	19072
889.883	19042
890.006	19156
890.13	19133
890.254	18913
890.377	18996
890.501	18867
890.624	18707
890.748	18924
890.871	18753
890.995	18601
891.118	18521
891.241	18787
891.364	18753
891.488	18833
891.611	18711
891.734	18749
891.857	18795
891.98	18700
892.103	18753
892.226	18711
892.349	18707
892.471	18475
892.594	18635
892.717	18688
892.839	18646
892.962	18570
893.085	18707
893.207	18532
893.33	18616
893.452	18410
893.575	18776
893.697	18540
893.819	18772
893.941	18837
894.064	18707
894.186	18536
894.308	18570
894.43	18631
894.552	18787
894.674	18665
894.796	18532
894.918	18635
895.04	18570
895.161	18669
895.283	18616
895.405	18585
895.526	18612
895.648	18620
895.769	18635
895.891	18707
896.012	18719
896.134	18578
896.255	18669
896.376	18623
896.498	18604
896.619	18608
896.74	18684
896.861	18696
896.982	19069
897.103	19103
897.224	18962
897.345	18924
897.466	18901
897.587	18840
897.708	18947
897.828	18878
897.949	18890
898.07	18722
898.19	18696
898.311	19080
898.431	18943
898.552	18833
898.672	18989
898.792	18993
898.913	18897
899.033	18798
899.153	18738
899.273	18669
899.393	18620
899.513	18631
899.633	18642
899.753	18661
899.873	18536
899.993	18604
900.113	18642
900.232	18669
900.352	18593
900.472	18509
900.591	18490
900.711	18509
900.83	18407
900.95	18509
901.069	18570
901.189	18460
901.308	18209
901.427	17996
901.546	18125
901.665	18174
901.784	18182
901.904	17893
902.023	17923
902.141	17745
902.26	17646
902.379	17665
902.498	17630
902.617	17512
902.735	17554
902.854	17562
902.973	17474
903.091	17364
903.21	17102
903.328	17189
903.446	17200
903.565	17037
903.683	17056
903.801	16930
903.919	16991
904.038	16961
904.156	16889
904.274	16847
904.392	16828
904.51	16831
904.627	16862
904.745	16946
904.863	16862
904.981	16580
905.098	16485
905.216	16497
905.334	16455
905.451	16558
905.569	16417
905.686	16508
905.803	16504
905.921	16211
906.038	16356
906.155	16257
906.272	16131
906.389	16112
906.506	15907
906.623	16071
906.74	15972
906.857	15838
906.974	15892
907.091	16086
907.208	16128
907.324	16032
907.441	15857
907.557	15762
907.674	15774
907.79	15564
907.907	15591
908.023	15625
908.139	15755
908.256	15599
908.372	15534
908.488	15561
908.604	15435
908.72	15405
908.836	15378
908.952	15291
909.068	15454
909.184	15435
909.3	15355
909.415	15481
909.531	15363
909.647	15214
909.762	15005
909.878	15100
909.993	15081
910.108	15039
910.224	15077
910.339	15017
910.454	15032
910.57	14925
910.685	14826
910.8	15085
910.915	15058
911.03	14895
911.145	14693
911.259	14659
911.374	14727
911.489	14514
911.604	14617
911.718	14537
911.833	14393
911.947	14355
912.062	14248
912.176	14404
912.291	14355
912.405	14404
912.519	14602
912.633	14594
912.748	14552
912.862	14465
912.976	14240
913.09	14088
913.204	14191
913.318	14240
913.431	14400
913.545	14317
913.659	14389
913.772	14183
913.886	14134
914	14073
914.113	14199
914.226	14172
914.34	14134
914.453	13978
914.566	14035
914.68	13936
914.793	13887
914.906	13818
915.019	13776
915.132	13731
915.245	13856
915.358	13765
915.47	13738
915.583	13712
915.696	13750
915.809	13875
915.921	13913
916.034	13704
916.146	13575
916.259	13582
916.371	13655
916.483	13719
916.595	13601
916.708	13636
916.82	13571
916.932	13540
917.044	13537
917.156	13510
917.268	13441
917.38	13438
917.491	13460
917.603	13426
917.715	13495
917.826	13476
917.938	13358
918.049	13320
918.161	13320
918.272	13506
918.384	13502
918.495	13388
918.606	13209
918.717	13095
918.828	13331
918.939	13194
919.05	13179
919.161	13213
919.272	12996
919.383	13023
919.494	13236
919.604	13343
919.715	13145
919.826	13141
919.936	13114
920.047	13297
920.157	13194
920.267	13362
920.378	13133
920.488	13179
920.598	13274
920.708	13381
920.818	13259
920.928	13255
921.038	13419
921.148	13407
921.258	13175
921.368	13023
921.477	12924
921.587	12951
921.697	12829
921.806	12993
921.916	12764
922.025	12582
922.134	12559
922.244	12642
922.353	12532
922.462	12418
922.571	12422
922.68	12281
922.789	12251
922.898	12209
923.007	12159
923.116	12201
923.224	12152
923.333	12251
923.442	12102
923.55	12011
923.659	12167
923.767	12129
923.876	11999
923.984	12117
924.092	11973
924.201	12064
924.309	11973
924.417	12041
924.525	11939
924.633	11893
924.741	12886
924.849	11741
924.956	11912
925.064	11764
925.172	11634
925.279	11748
925.387	11760
925.494	11767
925.602	11832
925.709	11866
925.816	11615
925.924	11707
926.031	11783
926.138	11703
926.245	11634
926.352	11592
926.459	11688
926.566	11691
926.673	11627
926.779	11520
926.886	11459
926.993	11345
927.099	11261
927.206	11227
927.312	11261
927.419	11360
927.525	11349
927.631	11318
927.737	11223
927.843	11193
927.95	11124
928.056	11181
928.162	11181
928.267	11239
928.373	11832
928.479	11280
928.585	10980
928.69	11204
928.796	11170
928.901	11052
929.007	10881
929.112	11128
929.218	11014
929.323	10862
929.428	10873
929.533	10999
929.638	10831
929.743	10820
929.848	10858
929.953	10885
930.058	10752
930.163	10668
930.267	10687
930.372	10820
930.477	10634
930.581	10881
930.685	10702
930.79	10451
930.894	10512
930.998	10459
931.103	10626
931.207	10192
931.311	10276
931.415	10166
931.519	9865
931.623	9945
