Data from test_V78500241_2035.txt Node
Date: Fri Mar 25 14:47:52 CST 2022
User: usil
Spectrometer: V785-0024
Trigger mode: 0
Integration Time (sec): 4.000000E-1
Scans to average: 1
Nonlinearity correction enabled: false
Boxcar width: 0
Storing dark spectrum: false
XAxis mode: Wavelengths
Number of Pixels in Spectrum: 1024
>>>>>Begin Spectral Data<<<<<
801.071	22226
801.214	21968
801.356	21770
801.499	21644
801.641	21511
801.783	21576
801.926	21538
802.068	21344
802.211	21367
802.353	21154
802.496	20986
802.638	20990
802.78	20960
802.923	20800
803.065	20838
803.208	20823
803.35	20807
803.492	20906
803.635	20944
803.777	20796
803.919	20918
804.061	21294
804.204	21020
804.346	20872
804.488	20625
804.63	20918
804.773	20648
804.915	20826
805.057	20868
805.199	20720
805.341	20773
805.483	20815
805.626	20762
805.768	20625
805.91	20659
806.052	20636
806.194	20663
806.336	20906
806.478	20887
806.62	20724
806.762	20864
806.904	20994
807.046	21195
807.188	21135
807.33	21184
807.472	21123
807.614	20971
807.756	20937
807.898	20994
808.04	20785
808.182	20743
808.324	20792
808.465	20876
808.607	20937
808.749	21085
808.891	21226
809.033	21211
809.174	21157
809.316	21127
809.458	21138
809.6	21100
809.741	21127
809.883	21119
810.025	21138
810.166	21249
810.308	21249
810.45	21070
810.591	21142
810.733	21036
810.875	20960
811.016	20804
811.158	20727
811.299	20971
811.441	21009
811.582	20990
811.724	20921
811.865	20864
812.007	20800
812.148	20902
812.29	20941
812.431	21036
812.573	21165
812.714	21332
812.855	21439
812.997	21435
813.138	21641
813.279	21523
813.421	21488
813.562	21416
813.703	21214
813.845	21055
813.986	20777
814.127	20594
814.268	20434
814.41	20526
814.551	20438
814.692	20431
814.833	20309
814.974	20389
815.115	20396
815.256	20206
815.397	20290
815.539	20229
815.68	20180
815.821	20073
815.962	20187
816.103	20168
816.244	20107
816.385	19925
816.526	19833
816.666	19811
816.807	19632
816.948	19723
817.089	19727
817.23	19704
817.371	19499
817.512	19453
817.653	19601
817.793	19552
817.934	19476
818.075	19601
818.216	19632
818.356	19510
818.497	19400
818.638	19228
818.778	19259
818.919	19240
819.06	19240
819.2	19400
819.341	19346
819.481	19552
819.622	19582
819.762	19818
819.903	19613
820.043	19563
820.184	19434
820.324	19476
820.465	19681
820.605	19521
820.746	19567
820.886	19369
821.026	19499
821.167	19468
821.307	19567
821.447	19594
821.588	19419
821.728	19320
821.868	19019
822.008	19042
822.149	18947
822.289	18886
822.429	18661
822.569	18620
822.709	18719
822.849	18361
822.99	18330
823.13	18353
823.27	18350
823.41	18319
823.55	18216
823.69	18216
823.83	18315
823.97	18201
824.11	18076
824.25	17939
824.389	18076
824.529	18060
824.669	17996
824.809	18174
824.949	18171
825.089	18079
825.228	18041
825.368	17885
825.508	17912
825.648	17737
825.787	17836
825.927	17874
826.067	17843
826.206	17775
826.346	17870
826.485	17923
826.625	17836
826.765	17840
826.904	17813
827.044	17486
827.183	17570
827.323	17444
827.462	17547
827.601	17600
827.741	17421
827.88	17516
828.02	17414
828.159	17532
828.298	17497
828.437	17649
828.577	17467
828.716	17611
828.855	17520
828.994	17292
829.134	17242
829.273	17242
829.412	17280
829.551	17181
829.69	17162
829.829	17280
829.968	17284
830.107	17296
830.246	17311
830.385	17216
830.524	17113
830.663	17067
830.802	17006
830.941	16900
831.08	16930
831.219	16942
831.357	17018
831.496	17067
831.635	16816
831.774	16805
831.913	16771
832.051	16573
832.19	16706
832.329	16759
832.467	16580
832.606	16478
832.744	16584
832.883	16519
833.022	16508
833.16	16561
833.299	16626
833.437	16592
833.576	16622
833.714	16588
833.852	16668
833.991	16694
834.129	16790
834.267	16607
834.406	16630
834.544	16660
834.682	16653
834.821	16721
834.959	16725
835.097	16565
835.235	16793
835.373	16668
835.511	16584
835.65	16527
835.788	16516
835.926	16352
836.064	16295
836.202	16436
836.34	16611
836.478	16660
836.615	16497
836.753	16531
836.891	16630
837.029	16615
837.167	16535
837.305	16531
837.443	16417
837.58	16333
837.718	16516
837.856	16394
837.993	16417
838.131	16382
838.269	16314
838.406	16303
838.544	16306
838.681	16097
838.819	16067
838.956	16032
839.094	15918
839.231	16025
839.369	16246
839.506	16394
839.643	16211
839.781	16036
839.918	15873
840.055	15949
840.193	15949
840.33	15922
840.467	15930
840.604	15941
840.742	16158
840.879	15907
841.016	16013
841.153	15823
841.29	16086
841.427	16010
841.564	16002
841.701	16029
841.838	15842
841.975	15785
842.112	15892
842.249	15793
842.385	15812
842.522	15953
842.659	15793
842.796	15728
842.933	15759
843.069	15701
843.206	15728
843.343	15800
843.479	15793
843.616	15709
843.752	15576
843.889	15549
844.025	15679
844.162	15523
844.298	15671
844.435	15496
844.571	15595
844.708	15656
844.844	15709
844.98	15625
845.117	15641
845.253	15488
845.389	15412
845.525	15481
845.661	15435
845.798	15382
845.934	15279
846.07	15317
846.206	15291
846.342	15428
846.478	15386
846.614	15157
846.75	15085
846.886	15062
847.022	15104
847.158	15104
847.294	15024
847.429	15116
847.565	15039
847.701	15321
847.837	14857
847.972	14853
848.108	14921
848.244	14765
848.379	14651
848.515	14739
848.65	14697
848.786	14629
848.921	14617
849.057	14830
849.192	14842
849.328	14724
849.463	14739
849.598	14670
849.734	14556
849.869	14526
850.004	14552
850.14	14613
850.275	14602
850.41	14492
850.545	14351
850.68	14320
850.815	14469
850.95	14442
851.085	14590
851.22	14537
851.355	14533
851.49	14385
851.625	14473
851.76	14457
851.895	14358
852.03	14225
852.165	14480
852.299	14442
852.434	14571
852.569	14552
852.703	14446
852.838	14625
852.973	14632
853.107	14583
853.242	14533
853.376	14320
853.511	14294
853.645	14252
853.78	14454
853.914	14370
854.048	14370
854.183	14328
854.317	14355
854.451	14499
854.585	14271
854.72	14374
854.854	14385
854.988	14309
855.122	14313
855.256	14229
855.39	14320
855.524	14408
855.658	14434
855.792	14263
855.926	14385
856.06	14385
856.194	14427
856.327	14278
856.461	14313
856.595	14347
856.729	14332
856.862	14488
856.996	14446
857.13	14454
857.263	14480
857.397	14431
857.53	14286
857.664	14412
857.797	14377
857.931	14473
858.064	14313
858.197	14431
858.331	14244
858.464	14328
858.597	14271
858.731	14339
858.864	14370
858.997	14263
859.13	14290
859.263	14298
859.396	14328
859.529	14355
859.662	14282
859.795	14263
859.928	14355
860.061	14503
860.194	14575
860.327	14381
860.46	14381
860.592	14438
860.725	14507
860.858	14442
860.99	14412
861.123	14275
861.256	14244
861.388	14358
861.521	14979
861.653	14248
861.786	14168
861.918	14157
862.05	14225
862.183	14309
862.315	14377
862.447	14336
862.58	14282
862.712	14142
862.844	14073
862.976	14119
863.108	14111
863.24	14393
863.372	14088
863.504	14084
863.636	13997
863.768	14145
863.9	13993
864.032	14031
864.164	14088
864.296	14153
864.428	14221
864.559	14145
864.691	14286
864.823	14138
864.954	14065
865.086	14180
865.217	14145
865.349	14020
865.48	14084
865.612	14016
865.743	14221
865.875	14058
866.006	14157
866.137	14084
866.269	14111
866.4	14157
866.531	14180
866.662	13970
866.793	14027
866.924	14039
867.055	14138
867.186	14142
867.317	14031
867.448	14062
867.579	14046
867.71	14012
867.841	14031
867.972	14039
868.103	14069
868.233	14073
868.364	14183
868.495	14168
868.625	14317
868.756	14374
868.886	14290
869.017	14278
869.147	14389
869.278	14476
869.408	14336
869.539	14393
869.669	14457
869.799	14358
869.929	14568
870.06	14533
870.19	14682
870.32	14651
870.45	14678
870.58	14697
870.71	14845
870.84	14861
870.97	14720
871.1	14701
871.23	14880
871.36	14876
871.489	14811
871.619	14910
871.749	14895
871.879	14948
872.008	15055
872.138	14887
872.267	14948
872.397	14845
872.526	14735
872.656	14727
872.785	14861
872.915	14925
873.044	15009
873.173	15043
873.303	15020
873.432	14941
873.561	15081
873.69	14963
873.819	14944
873.948	15104
874.077	15036
874.206	15005
874.335	14998
874.464	15100
874.593	15268
874.722	15226
874.851	15367
874.979	15310
875.108	15420
875.237	15260
875.365	15233
875.494	15287
875.623	15401
875.751	15237
875.88	15306
876.008	15420
876.136	15553
876.265	15720
876.393	15823
876.521	15793
876.65	15869
876.778	15629
876.906	15739
877.034	15644
877.162	15622
877.29	15641
877.418	15724
877.546	15667
877.674	15789
877.802	15751
877.93	15770
878.058	15652
878.185	15629
878.313	15701
878.441	15747
878.568	15561
878.696	15781
878.824	15713
878.951	15884
879.079	15884
879.206	16093
879.333	15941
879.461	15724
879.588	15876
879.715	15812
879.842	15991
879.97	15789
880.097	15572
880.224	15549
880.351	15675
880.478	15599
880.605	15492
880.732	15481
880.859	15713
880.986	15587
881.112	15584
881.239	15462
881.366	15374
881.493	15275
881.619	15211
881.746	15279
881.872	15287
881.999	15260
882.125	15207
882.252	15264
882.378	15325
882.505	15405
882.631	15214
882.757	14990
882.883	15047
883.01	15089
883.136	14891
883.262	15055
883.388	14902
883.514	15058
883.64	15112
883.766	14971
883.892	14796
884.018	14933
884.143	15009
884.269	15146
884.395	14872
884.52	14712
884.646	14746
884.772	14697
884.897	14560
885.023	14754
885.148	14765
885.274	14895
885.399	14872
885.524	14796
885.65	14682
885.775	14769
885.9	14819
886.025	14750
886.15	14807
886.275	14762
886.4	14636
886.525	14781
886.65	14579
886.775	14686
886.9	14807
887.025	14994
887.149	14754
887.274	14469
887.399	14530
887.523	14629
887.648	14533
887.773	14488
887.897	14610
888.021	14568
888.146	14560
888.27	14659
888.395	14724
888.519	14602
888.643	14674
888.767	14590
888.891	14606
889.015	14343
889.139	14476
889.263	14400
889.387	14606
889.511	14720
889.635	14701
889.759	14415
889.883	14469
890.006	14465
890.13	14571
890.254	14381
890.377	14408
890.501	14225
890.624	14256
890.748	14423
890.871	14172
890.995	14096
891.118	14130
891.241	14145
891.364	14180
891.488	14214
891.611	14164
891.734	14107
891.857	14149
891.98	14202
892.103	14191
892.226	14221
892.349	14020
892.471	13955
892.594	14119
892.717	14096
892.839	14096
892.962	14191
893.085	14214
893.207	14065
893.33	14107
893.452	14058
893.575	14221
893.697	14084
893.819	14336
893.941	14377
894.064	14355
894.186	14164
894.308	14187
894.43	14271
894.552	14324
894.674	14294
894.796	14168
894.918	14180
895.04	14161
895.161	14206
895.283	14317
895.405	14176
895.526	14214
895.648	14278
895.769	14256
895.891	14195
896.012	14374
896.134	14358
896.255	14301
896.376	14240
896.498	14343
896.619	14328
896.74	14286
896.861	14469
896.982	14621
897.103	14762
897.224	14625
897.345	14606
897.466	14514
897.587	14598
897.708	14644
897.828	14682
897.949	14617
898.07	14461
898.19	14617
898.311	14765
898.431	14568
898.552	14621
898.672	14842
898.792	14724
898.913	14598
899.033	14674
899.153	14587
899.273	14476
899.393	14541
899.513	14526
899.633	14457
899.753	14564
899.873	14465
899.993	14629
900.113	14423
900.232	14537
900.352	14499
900.472	14465
900.591	14286
900.711	14381
900.83	14332
900.95	14442
901.069	14499
901.189	14377
901.308	14149
901.427	14069
901.546	14069
901.665	14123
901.784	14092
901.904	13978
902.023	13898
902.141	13670
902.26	13662
902.379	13738
902.498	13578
902.617	13575
902.735	13696
902.854	13582
902.973	13525
903.091	13324
903.21	13320
903.328	13400
903.446	13228
903.565	13145
903.683	13133
903.801	13129
903.919	13126
904.038	13137
904.156	12951
904.274	13057
904.392	13008
904.51	12981
904.627	13023
904.745	13091
904.863	13027
904.981	12829
905.098	12726
905.216	12673
905.334	12757
905.451	12700
905.569	12673
905.686	12722
905.803	12734
905.921	12471
906.038	12585
906.155	12547
906.272	12300
906.389	12471
906.506	12292
906.623	12357
906.74	12285
906.857	12152
906.974	12243
907.091	12346
907.208	12509
907.324	12369
907.441	12144
907.557	11999
907.674	12003
907.79	11950
907.907	11954
908.023	12019
908.139	12060
908.256	11889
908.372	11931
908.488	11897
908.604	11874
908.72	11786
908.836	11802
908.952	11802
909.068	11824
909.184	11939
909.3	11775
909.415	11840
909.531	11840
909.647	11596
909.762	11638
909.878	11490
909.993	11592
910.108	11554
910.224	11486
910.339	11490
910.454	11497
910.57	11311
910.685	11398
910.8	11627
910.915	11535
911.03	11524
911.145	11284
911.259	11212
911.374	11246
911.489	11166
911.604	11143
911.718	11006
911.833	11052
911.947	10995
912.062	10763
912.176	11045
912.291	11086
912.405	11006
912.519	11208
912.633	11197
912.748	11079
912.862	11056
912.976	10934
913.09	10778
913.204	10881
913.318	10927
913.431	10930
913.545	10896
913.659	11041
913.772	10831
913.886	10812
914	10729
914.113	10858
914.226	11003
914.34	10824
914.453	10748
914.566	10881
914.68	10801
914.793	10679
914.906	10542
915.019	10497
915.132	10417
915.245	10493
915.358	10459
915.47	10554
915.583	10577
915.696	10580
915.809	10649
915.921	10744
916.034	10596
916.146	10470
916.259	10421
916.371	10580
916.483	10519
916.595	10462
916.708	10462
916.82	10504
916.932	10489
917.044	10440
917.156	10436
917.268	10375
917.38	10333
917.491	10325
917.603	10443
917.715	10459
917.826	10409
917.938	10299
918.049	10227
918.161	10371
918.272	10417
918.384	10523
918.495	10398
918.606	10223
918.717	10051
918.828	10287
918.939	10325
919.05	10177
919.161	10181
919.272	10017
919.383	10059
919.494	10246
919.604	10440
919.715	10287
919.826	10169
919.936	10207
920.047	10322
920.157	10318
920.267	10436
920.378	10242
920.488	10204
920.598	10386
920.708	10611
920.818	10500
920.928	10500
921.038	10554
921.148	10546
921.258	10322
921.368	10249
921.477	10116
921.587	10032
921.697	9975
921.806	10181
921.916	9964
922.025	9827
922.134	9736
922.244	9774
922.353	9835
922.462	9732
922.571	9656
922.68	9458
922.789	9466
922.898	9545
923.007	9370
923.116	9545
923.224	9507
923.333	9405
923.442	9447
923.55	9408
923.659	9401
923.767	9348
923.876	9420
923.984	9485
924.092	9268
924.201	9386
924.309	9306
924.417	9332
924.525	9291
924.633	9329
924.741	10249
924.849	9165
924.956	9249
925.064	9100
925.172	9055
925.279	9089
925.387	9176
925.494	9226
925.602	9275
925.709	9180
925.816	9161
925.924	9188
926.031	9249
926.138	9112
926.245	9237
926.352	9150
926.459	9161
926.566	9249
926.673	9089
926.779	9066
926.886	9009
926.993	8979
927.099	8807
927.206	8788
927.312	8792
927.419	8861
927.525	8861
927.631	8895
927.737	8788
927.843	8731
927.95	8632
928.056	8735
928.162	8754
928.267	8804
928.373	9447
928.479	8948
928.585	8606
928.69	8750
928.796	8773
928.901	8674
929.007	8530
929.112	8640
929.218	8712
929.323	8590
929.428	8651
929.533	8716
929.638	8514
929.743	8507
929.848	8575
929.953	8610
930.058	8465
930.163	8309
930.267	8305
930.372	8454
930.477	8313
930.581	8568
930.685	8408
930.79	8240
930.894	8381
930.998	8324
931.103	8450
931.207	8073
931.311	7989
931.415	7982
931.519	7772
931.623	7792
