Data from test_V78500241_1938.txt Node
Date: Fri Mar 25 14:47:12 CST 2022
User: usil
Spectrometer: V785-0024
Trigger mode: 0
Integration Time (sec): 4.000000E-1
Scans to average: 1
Nonlinearity correction enabled: false
Boxcar width: 0
Storing dark spectrum: false
XAxis mode: Wavelengths
Number of Pixels in Spectrum: 1024
>>>>>Begin Spectral Data<<<<<
801.071	22048
801.214	21964
801.356	21637
801.499	21622
801.641	21485
801.783	21443
801.926	21397
802.068	21336
802.211	21507
802.353	21252
802.496	21009
802.638	21066
802.78	20811
802.923	20769
803.065	20743
803.208	20712
803.35	20815
803.492	20891
803.635	20899
803.777	20678
803.919	20925
804.061	21142
804.204	20914
804.346	20754
804.488	20644
804.63	20697
804.773	20606
804.915	20731
805.057	20777
805.199	20670
805.341	20727
805.483	20895
805.626	20811
805.768	20587
805.91	20750
806.052	20754
806.194	20651
806.336	20842
806.478	20674
806.62	20640
806.762	20876
806.904	20830
807.046	21195
807.188	21051
807.33	20876
807.472	21104
807.614	20899
807.756	20883
807.898	20804
808.04	20765
808.182	20587
808.324	20743
808.465	20914
808.607	21024
808.749	21036
808.891	21142
809.033	21066
809.174	21154
809.316	21138
809.458	21104
809.6	20956
809.741	21066
809.883	21207
810.025	21359
810.166	21195
810.308	21169
810.45	21135
810.591	21150
810.733	20963
810.875	20876
811.016	20800
811.158	20682
811.299	20914
811.441	20861
811.582	20880
811.724	20910
811.865	20830
812.007	20807
812.148	20895
812.29	20921
812.431	20967
812.573	21207
812.714	21131
812.855	21287
812.997	21450
813.138	21542
813.279	21329
813.421	21252
813.562	21279
813.703	20986
813.845	20979
813.986	20716
814.127	20537
814.268	20526
814.41	20454
814.551	20294
814.692	20374
814.833	20362
814.974	20317
815.115	20275
815.256	20183
815.397	20317
815.539	20134
815.68	20039
815.821	20168
815.962	20229
816.103	20130
816.244	19860
816.385	19940
816.526	19757
816.666	19609
816.807	19518
816.948	19571
817.089	19700
817.23	19628
817.371	19552
817.512	19567
817.653	19400
817.793	19407
817.934	19548
818.075	19491
818.216	19430
818.356	19510
818.497	19365
818.638	19148
818.778	19179
818.919	19213
819.06	19312
819.2	19312
819.341	19255
819.481	19327
819.622	19411
819.762	19639
819.903	19712
820.043	19559
820.184	19506
820.324	19453
820.465	19506
820.605	19533
820.746	19453
820.886	19236
821.026	19453
821.167	19521
821.307	19616
821.447	19403
821.588	19247
821.728	19297
821.868	19053
822.008	18905
822.149	18833
822.289	18856
822.429	18570
822.569	18506
822.709	18544
822.849	18353
822.99	18319
823.13	18334
823.27	18254
823.41	18182
823.55	18213
823.69	18232
823.83	18121
823.97	18167
824.11	17984
824.25	17935
824.389	17980
824.529	18087
824.669	17923
824.809	18114
824.949	18091
825.089	18072
825.228	18038
825.368	17802
825.508	17794
825.648	17832
825.787	17813
825.927	17836
826.067	17707
826.206	17710
826.346	17756
826.485	17851
826.625	17726
826.765	17973
826.904	17863
827.044	17592
827.183	17433
827.323	17547
827.462	17596
827.601	17505
827.741	17509
827.88	17448
828.02	17433
828.159	17429
828.298	17570
828.437	17524
828.577	17512
828.716	17573
828.855	17440
828.994	17250
829.134	17364
829.273	17307
829.412	17208
829.551	17231
829.69	17231
829.829	17269
829.968	17398
830.107	17349
830.246	17231
830.385	17143
830.524	17216
830.663	17060
830.802	16991
830.941	16850
831.08	16881
831.219	17064
831.357	16930
831.496	16957
831.635	17003
831.774	16866
831.913	16778
832.051	16679
832.19	16679
832.329	16733
832.467	16546
832.606	16512
832.744	16580
832.883	16573
833.022	16497
833.16	16561
833.299	16649
833.437	16531
833.576	16721
833.714	16622
833.852	16675
833.991	16596
834.129	16771
834.267	16596
834.406	16599
834.544	16641
834.682	16603
834.821	16702
834.959	16847
835.097	16713
835.235	16725
835.373	16626
835.511	16626
835.65	16615
835.788	16611
835.926	16402
836.064	16341
836.202	16428
836.34	16542
836.478	16649
836.615	16455
836.753	16542
836.891	16618
837.029	16626
837.167	16424
837.305	16466
837.443	16409
837.58	16447
837.718	16493
837.856	16413
837.993	16417
838.131	16413
838.269	16348
838.406	16409
838.544	16291
838.681	16131
838.819	16097
838.956	16002
839.094	15926
839.231	15945
839.369	16082
839.506	16261
839.643	16223
839.781	15949
839.918	15979
840.055	16059
840.193	16017
840.33	15979
840.467	15911
840.604	15949
840.742	16291
840.879	15827
841.016	15827
841.153	15873
841.29	16059
841.427	16002
841.564	15964
841.701	16010
841.838	15983
841.975	15827
842.112	15854
842.249	15660
842.385	15701
842.522	15880
842.659	15739
842.796	15713
842.933	15713
843.069	15553
843.206	15641
843.343	15842
843.479	15808
843.616	15690
843.752	15526
843.889	15564
844.025	15728
844.162	15523
844.298	15629
844.435	15534
844.571	15469
844.708	15507
844.844	15694
844.98	15743
845.117	15625
845.253	15435
845.389	15538
845.525	15454
845.661	15416
845.798	15355
845.934	15462
846.07	15287
846.206	15370
846.342	15367
846.478	15408
846.614	15241
846.75	15047
846.886	15222
847.022	15157
847.158	15089
847.294	15146
847.429	15131
847.565	15131
847.701	15313
847.837	14929
847.972	14849
848.108	14960
848.244	14937
848.379	14804
848.515	14708
848.65	14651
848.786	14693
848.921	14701
849.057	14792
849.192	14823
849.328	14731
849.463	14762
849.598	14644
849.734	14590
849.869	14621
850.004	14587
850.14	14473
850.275	14545
850.41	14362
850.545	14549
850.68	14362
850.815	14503
850.95	14469
851.085	14590
851.22	14621
851.355	14541
851.49	14438
851.625	14370
851.76	14480
851.895	14370
852.03	14355
852.165	14465
852.299	14476
852.434	14484
852.569	14450
852.703	14476
852.838	14579
852.973	14697
853.107	14556
853.242	14412
853.376	14415
853.511	14240
853.645	14339
853.78	14476
853.914	14393
854.048	14301
854.183	14301
854.317	14320
854.451	14461
854.585	14404
854.72	14290
854.854	14446
854.988	14339
855.122	14328
855.256	14275
855.39	14305
855.524	14484
855.658	14393
855.792	14400
855.926	14427
856.06	14438
856.194	14374
856.327	14332
856.461	14366
856.595	14252
856.729	14339
856.862	14415
856.996	14408
857.13	14434
857.263	14362
857.397	14431
857.53	14355
857.664	14492
857.797	14461
857.931	14552
858.064	14362
858.197	14427
858.331	14309
858.464	14305
858.597	14320
858.731	14404
858.864	14343
858.997	14286
859.13	14438
859.263	14290
859.396	14438
859.529	14358
859.662	14218
859.795	14385
859.928	14434
860.061	14549
860.194	14533
860.327	14431
860.46	14381
860.592	14457
860.725	14568
860.858	14419
860.99	14351
861.123	14358
861.256	14301
861.388	14362
861.521	15055
861.653	14305
861.786	14206
861.918	14176
862.05	14286
862.183	14256
862.315	14347
862.447	14343
862.58	14298
862.712	14183
862.844	14119
862.976	14172
863.108	14164
863.24	14545
863.372	14073
863.504	14058
863.636	14180
863.768	14210
863.9	14202
864.032	14103
864.164	14145
864.296	14153
864.428	14202
864.559	14161
864.691	14225
864.823	14153
864.954	14164
865.086	14206
865.217	14088
865.349	14039
865.48	14081
865.612	14100
865.743	14324
865.875	14107
866.006	14054
866.137	14062
866.269	14062
866.4	14138
866.531	14107
866.662	14096
866.793	14062
866.924	14084
867.055	14126
867.186	14164
867.317	14050
867.448	14092
867.579	14046
867.71	14058
867.841	13997
867.972	14050
868.103	14100
868.233	14180
868.364	14130
868.495	14233
868.625	14336
868.756	14358
868.886	14301
869.017	14339
869.147	14522
869.278	14450
869.408	14404
869.539	14389
869.669	14488
869.799	14507
869.929	14499
870.06	14408
870.19	14693
870.32	14674
870.45	14648
870.58	14724
870.71	14765
870.84	14933
870.97	14872
871.1	14754
871.23	14872
871.36	14883
871.489	14857
871.619	14849
871.749	14883
871.879	15043
872.008	15032
872.138	14944
872.267	14887
872.397	14765
872.526	14716
872.656	14804
872.785	14883
872.915	14906
873.044	15017
873.173	15047
873.303	15043
873.432	15070
873.561	15108
873.69	15077
873.819	15127
873.948	15089
874.077	14975
874.206	14925
874.335	15028
874.464	15199
874.593	15317
874.722	15237
874.851	15408
874.979	15275
875.108	15439
875.237	15332
875.365	15237
875.494	15256
875.623	15424
875.751	15249
875.88	15252
876.008	15526
876.136	15488
876.265	15747
876.393	15956
876.521	15846
876.65	15808
876.778	15759
876.906	15728
877.034	15861
877.162	15713
877.29	15728
877.418	15663
877.546	15652
877.674	15713
877.802	15717
877.93	15789
878.058	15686
878.185	15629
878.313	15781
878.441	15755
878.568	15507
878.696	15686
878.824	15739
878.951	15709
879.079	15846
879.206	16048
879.333	15831
879.461	15762
879.588	15873
879.715	15918
879.842	15994
879.97	15720
880.097	15622
880.224	15523
880.351	15679
880.478	15629
880.605	15606
880.732	15603
880.859	15800
880.986	15603
881.112	15648
881.239	15420
881.366	15325
881.493	15252
881.619	15287
881.746	15321
881.872	15275
881.999	15260
882.125	15218
882.252	15241
882.378	15283
882.505	15382
882.631	15230
882.757	15013
882.883	15116
883.01	15104
883.136	15032
883.262	14876
883.388	14963
883.514	15135
883.64	15047
883.766	14975
883.892	14948
884.018	14899
884.143	15074
884.269	15127
884.395	14758
884.52	14750
884.646	14773
884.772	14670
884.897	14670
885.023	14754
885.148	14918
885.274	14937
885.399	14876
885.524	14701
885.65	14735
885.775	14739
885.9	14720
886.025	14845
886.15	14887
886.275	14727
886.4	14651
886.525	14693
886.65	14800
886.775	14682
886.9	14899
887.025	15039
887.149	14826
887.274	14655
887.399	14613
887.523	14648
887.648	14549
887.773	14457
887.897	14678
888.021	14636
888.146	14480
888.27	14598
888.395	14743
888.519	14644
888.643	14689
888.767	14655
888.891	14617
889.015	14518
889.139	14507
889.263	14476
889.387	14541
889.511	14648
889.635	14507
889.759	14393
889.883	14484
890.006	14404
890.13	14571
890.254	14385
890.377	14305
890.501	14263
890.624	14286
890.748	14317
890.871	14225
890.995	14130
891.118	14001
891.241	14134
891.364	14050
891.488	14358
891.611	14168
891.734	14176
891.857	14157
891.98	14202
892.103	14263
892.226	14164
892.349	14077
892.471	14020
892.594	14043
892.717	14168
892.839	14138
892.962	14214
893.085	14267
893.207	14073
893.33	14183
893.452	14081
893.575	14199
893.697	14172
893.819	14298
893.941	14366
894.064	14317
894.186	14153
894.308	14126
894.43	14278
894.552	14370
894.674	14233
894.796	14145
894.918	14298
895.04	14126
895.161	14225
895.283	14195
895.405	14195
895.526	14183
895.648	14252
895.769	14275
895.891	14248
896.012	14396
896.134	14339
896.255	14305
896.376	14199
896.498	14290
896.619	14358
896.74	14252
896.861	14385
896.982	14594
897.103	14727
897.224	14632
897.345	14522
897.466	14568
897.587	14545
897.708	14689
897.828	14613
897.949	14495
898.07	14404
898.19	14507
898.311	14746
898.431	14587
898.552	14632
898.672	14743
898.792	14716
898.913	14727
899.033	14575
899.153	14415
899.273	14400
899.393	14507
899.513	14495
899.633	14469
899.753	14549
899.873	14480
899.993	14533
900.113	14480
900.232	14552
900.352	14461
900.472	14438
900.591	14324
900.711	14362
900.83	14309
900.95	14480
901.069	14450
901.189	14351
901.308	14103
901.427	14054
901.546	14039
901.665	14065
901.784	14142
901.904	13917
902.023	13875
902.141	13677
902.26	13616
902.379	13708
902.498	13609
902.617	13502
902.735	13613
902.854	13643
902.973	13552
903.091	13400
903.21	13312
903.328	13365
903.446	13206
903.565	13255
903.683	13217
903.801	13107
903.919	13164
904.038	13164
904.156	13031
904.274	13107
904.392	12939
904.51	12977
904.627	12996
904.745	13038
904.863	13065
904.981	12825
905.098	12650
905.216	12658
905.334	12749
905.451	12749
905.569	12669
905.686	12669
905.803	12650
905.921	12502
906.038	12555
906.155	12532
906.272	12407
906.389	12513
906.506	12209
906.623	12308
906.74	12330
906.857	12152
906.974	12144
907.091	12342
907.208	12441
907.324	12304
907.441	12201
907.557	12087
907.674	12140
907.79	11992
907.907	12011
908.023	12087
908.139	12068
908.256	11984
908.372	12030
908.488	11965
908.604	11863
908.72	11752
908.836	11809
908.952	11756
909.068	11855
909.184	11969
909.3	11813
909.415	11863
909.531	11805
909.647	11570
909.762	11562
909.878	11551
909.993	11524
910.108	11516
910.224	11497
910.339	11535
910.454	11433
910.57	11398
910.685	11330
910.8	11623
910.915	11562
911.03	11459
911.145	11254
911.259	11265
911.374	11296
911.489	11151
911.604	11128
911.718	11003
911.833	11048
911.947	10900
912.062	10793
912.176	11029
912.291	11003
912.405	10987
912.519	11208
912.633	11292
912.748	11086
912.862	11060
912.976	10965
913.09	10774
913.204	10877
913.318	10896
913.431	10984
913.545	10934
913.659	10995
913.772	10896
913.886	10767
914	10839
914.113	10942
914.226	10904
914.34	10843
914.453	10706
914.566	10782
914.68	10698
914.793	10687
914.906	10474
915.019	10421
915.132	10405
915.245	10500
915.358	10493
915.47	10599
915.583	10516
915.696	10611
915.809	10649
915.921	10675
916.034	10523
916.146	10497
916.259	10474
916.371	10516
916.483	10478
916.595	10459
916.708	10428
916.82	10470
916.932	10417
917.044	10432
917.156	10459
917.268	10299
917.38	10394
917.491	10413
917.603	10443
917.715	10344
917.826	10504
917.938	10363
918.049	10276
918.161	10360
918.272	10554
918.384	10459
918.495	10352
918.606	10257
918.717	10158
918.828	10246
918.939	10246
919.05	10109
919.161	10181
919.272	10101
919.383	10055
919.494	10306
919.604	10428
919.715	10227
919.826	10211
919.936	10169
920.047	10318
920.157	10310
920.267	10455
920.378	10306
920.488	10249
920.598	10481
920.708	10584
920.818	10371
920.928	10417
921.038	10626
921.148	10565
921.258	10318
921.368	10207
921.477	10067
921.587	10086
921.697	9975
921.806	10158
921.916	10006
922.025	9804
922.134	9797
922.244	9759
922.353	9816
922.462	9690
922.571	9625
922.68	9515
922.789	9393
922.898	9511
923.007	9405
923.116	9485
923.224	9454
923.333	9469
923.442	9428
923.55	9317
923.659	9424
923.767	9386
923.876	9405
923.984	9405
924.092	9344
924.201	9386
924.309	9355
924.417	9363
924.525	9294
924.633	9370
924.741	10257
924.849	9165
924.956	9218
925.064	9123
925.172	9119
925.279	9089
925.387	9176
925.494	9169
925.602	9237
925.709	9253
925.816	9055
925.924	9085
926.031	9203
926.138	9165
926.245	9157
926.352	9028
926.459	9180
926.566	9214
926.673	9093
926.779	8967
926.886	8960
926.993	8887
927.099	8838
927.206	8800
927.312	8758
927.419	8899
927.525	8906
927.631	8864
927.737	8785
927.843	8731
927.95	8621
928.056	8632
928.162	8781
928.267	8842
928.373	9401
928.479	8861
928.585	8625
928.69	8663
928.796	8823
928.901	8613
929.007	8549
929.112	8659
929.218	8629
929.323	8655
929.428	8507
929.533	8670
929.638	8450
929.743	8590
929.848	8629
929.953	8594
930.058	8473
930.163	8339
930.267	8298
930.372	8454
930.477	8317
930.581	8556
930.685	8370
930.79	8301
930.894	8256
930.998	8279
931.103	8457
931.207	8050
931.311	8024
931.415	7989
931.519	7753
931.623	7761
