Data from test_V78500241_94.txt Node
Date: Fri Mar 25 14:34:22 CST 2022
User: usil
Spectrometer: V785-0024
Trigger mode: 0
Integration Time (sec): 4.000000E-1
Scans to average: 1
Nonlinearity correction enabled: false
Boxcar width: 0
Storing dark spectrum: false
XAxis mode: Wavelengths
Number of Pixels in Spectrum: 1024
>>>>>Begin Spectral Data<<<<<
801.071	28888
801.214	28736
801.356	28672
801.499	28649
801.641	28485
801.783	28219
801.926	28280
802.068	28177
802.211	28181
802.353	28268
802.496	28105
802.638	28074
802.78	27926
802.923	27895
803.065	27914
803.208	27953
803.35	27968
803.492	27983
803.635	28048
803.777	27914
803.919	28025
804.061	28226
804.204	28116
804.346	27941
804.488	27987
804.63	27960
804.773	27953
804.915	27979
805.057	28128
805.199	27956
805.341	28074
805.483	28128
805.626	28158
805.768	28032
805.91	28070
806.052	28044
806.194	28044
806.336	28375
806.478	28139
806.62	28082
806.762	28375
806.904	28478
807.046	28580
807.188	28542
807.33	28485
807.472	28584
807.614	28763
807.756	28611
807.898	28557
808.04	28656
808.182	28752
808.324	28816
808.465	28999
808.607	29185
808.749	29524
808.891	29619
809.033	29630
809.174	29547
809.316	29353
809.458	29261
809.6	29151
809.741	29044
809.883	28908
810.025	29048
810.166	29083
810.308	29025
810.45	28858
810.591	28771
810.733	28626
810.875	28554
811.016	28348
811.158	28538
811.299	28607
811.441	28645
811.582	28790
811.724	28451
811.865	28561
812.007	28440
812.148	28329
812.29	28580
812.431	28611
812.573	28740
812.714	28888
812.855	28809
812.997	28984
813.138	29132
813.279	29003
813.421	28862
813.562	28835
813.703	28767
813.845	28596
813.986	28428
814.127	28147
814.268	28124
814.41	28044
814.551	28078
814.692	28162
814.833	27880
814.974	27918
815.115	27991
815.256	27903
815.397	27941
815.539	27766
815.68	27884
815.821	27686
815.962	27675
816.103	27660
816.244	27576
816.385	27363
816.526	27481
816.666	27351
816.807	27237
816.948	27131
817.089	27188
817.23	27173
817.371	27093
817.512	27119
817.653	26979
817.793	27017
817.934	27077
818.075	27077
818.216	27096
818.356	27108
818.497	27093
818.638	26826
818.778	26883
818.919	26838
819.06	26914
819.2	26864
819.341	27112
819.481	26998
819.622	27161
819.762	27363
819.903	27135
820.043	27195
820.184	27093
820.324	27123
820.465	27233
820.605	27119
820.746	27093
820.886	26929
821.026	27028
821.167	26963
821.307	27142
821.447	26979
821.588	26819
821.728	26609
821.868	26571
822.008	26412
822.149	26396
822.289	26495
822.429	26229
822.569	25982
822.709	26043
822.849	25860
822.99	25925
823.13	25921
823.27	25811
823.41	25582
823.55	25502
823.69	25643
823.83	25571
823.97	25628
824.11	25369
824.25	25381
824.389	25400
824.529	25529
824.669	25369
824.809	25483
824.949	25400
825.089	25422
825.228	25381
825.368	25251
825.508	25236
825.648	25251
825.787	25247
825.927	25171
826.067	25270
826.206	25126
826.346	25209
826.485	25213
826.625	25160
826.765	25175
826.904	25278
827.044	24981
827.183	24996
827.323	24951
827.462	24981
827.601	24863
827.741	24806
827.88	24935
828.02	24817
828.159	24848
828.298	24905
828.437	24954
828.577	24863
828.716	24882
828.855	24719
828.994	24627
829.134	24509
829.273	24597
829.412	24490
829.551	24460
829.69	24612
829.829	24597
829.968	24570
830.107	24578
830.246	24528
830.385	24437
830.524	24433
830.663	24315
830.802	24182
830.941	24186
831.08	24038
831.219	24140
831.357	24167
831.496	24201
831.635	24114
831.774	24003
831.913	23904
832.051	23897
832.19	23737
832.329	23779
832.467	23866
832.606	23748
832.744	23684
832.883	23604
833.022	23642
833.16	23798
833.299	23703
833.437	23729
833.576	23691
833.714	23676
833.852	23942
833.991	23745
834.129	23832
834.267	23866
834.406	23779
834.544	23710
834.682	23813
834.821	23707
834.959	23855
835.097	23809
835.235	23870
835.373	23714
835.511	23756
835.65	23627
835.788	23638
835.926	23216
836.064	23467
836.202	23391
836.34	23638
836.478	23611
836.615	23478
836.753	23440
836.891	23604
837.029	23490
837.167	23501
837.305	23421
837.443	23311
837.58	23303
837.718	23429
837.856	23448
837.993	23349
838.131	23448
838.269	23269
838.406	23292
838.544	23052
838.681	23003
838.819	22942
838.956	22668
839.094	22809
839.231	22961
839.369	22854
839.506	23094
839.643	22953
839.781	22782
839.918	22755
840.055	22790
840.193	22672
840.33	22607
840.467	22691
840.604	22649
840.742	22930
840.879	22493
841.016	22618
841.153	22557
841.29	22774
841.427	22596
841.564	22668
841.701	22535
841.838	22569
841.975	22500
842.112	22455
842.249	22409
842.385	22348
842.522	22474
842.659	22394
842.796	22390
842.933	22398
843.069	22196
843.206	22371
843.343	22421
843.479	22394
843.616	22424
843.752	22131
843.889	22173
844.025	22169
844.162	22219
844.298	22116
844.435	22120
844.571	22006
844.708	22154
844.844	22207
844.98	22242
845.117	22238
845.253	22017
845.389	22257
845.525	22333
845.661	22599
845.798	22790
845.934	22919
846.07	23128
846.206	23044
846.342	22835
846.478	22535
846.614	22017
846.75	21724
846.886	21724
847.022	21557
847.158	21587
847.294	21534
847.429	21545
847.565	21523
847.701	21675
847.837	21275
847.972	21173
848.108	21332
848.244	21287
848.379	21096
848.515	21077
848.65	21043
848.786	20994
848.921	21062
849.057	21131
849.192	21070
849.328	21077
849.463	21032
849.598	21017
849.734	21028
849.869	20849
850.004	20830
850.14	20868
850.275	20834
850.41	20708
850.545	20811
850.68	20765
850.815	20834
850.95	20796
851.085	20887
851.22	20899
851.355	20781
851.49	20830
851.625	20826
851.76	20796
851.895	20682
852.03	20598
852.165	20659
852.299	20754
852.434	20876
852.569	20781
852.703	20682
852.838	20720
852.973	20853
853.107	20914
853.242	20648
853.376	20670
853.511	20526
853.645	20454
853.78	20701
853.914	20674
854.048	20446
854.183	20575
854.317	20621
854.451	20762
854.585	20651
854.72	20480
854.854	20758
854.988	20503
855.122	20533
855.256	20385
855.39	20575
855.524	20621
855.658	20693
855.792	20495
855.926	20488
856.06	20636
856.194	20594
856.327	20495
856.461	20454
856.595	20511
856.729	20393
856.862	20606
856.996	20571
857.13	20579
857.263	20514
857.397	20575
857.53	20480
857.664	20587
857.797	20522
857.931	20667
858.064	20484
858.197	20537
858.331	20514
858.464	20476
858.597	20484
858.731	20381
858.864	20404
858.997	20404
859.13	20518
859.263	20530
859.396	20568
859.529	20454
859.662	20476
859.795	20457
859.928	20526
860.061	20613
860.194	20530
860.327	20434
860.46	20469
860.592	20511
860.725	20568
860.858	20575
860.99	20278
861.123	20347
861.256	20374
861.388	20469
861.521	21264
861.653	20381
861.786	20332
861.918	20313
862.05	20336
862.183	20457
862.315	20564
862.447	20533
862.58	20473
862.712	20199
862.844	20092
862.976	20301
863.108	20195
863.24	20514
863.372	20126
863.504	20278
863.636	20115
863.768	20187
863.9	20130
864.032	20054
864.164	20130
864.296	20218
864.428	20278
864.559	20138
864.691	20210
864.823	20187
864.954	20157
865.086	19982
865.217	20012
865.349	19959
865.48	20157
865.612	20035
865.743	20187
865.875	20115
866.006	20020
866.137	20138
866.269	20031
866.4	20134
866.531	20024
866.662	19826
866.793	20001
866.924	19917
867.055	20012
867.186	19986
867.317	19887
867.448	19959
867.579	19902
867.71	19932
867.841	19963
867.972	19986
868.103	19928
868.233	19940
868.364	19967
868.495	20027
868.625	20237
868.756	20240
868.886	20062
869.017	20138
869.147	20252
869.278	20240
869.408	20157
869.539	20172
869.669	20275
869.799	20157
869.929	20180
870.06	20290
870.19	20503
870.32	20465
870.45	20503
870.58	20640
870.71	20739
870.84	20670
870.97	20514
871.1	20640
871.23	20682
871.36	20716
871.489	20693
871.619	20762
871.749	20735
871.879	20880
872.008	20921
872.138	20849
872.267	20754
872.397	20769
872.526	20629
872.656	20594
872.785	20537
872.915	20735
873.044	20830
873.173	20823
873.303	20800
873.432	20910
873.561	20956
873.69	20796
873.819	20842
873.948	20925
874.077	20906
874.206	20785
874.335	20815
874.464	21062
874.593	21051
874.722	21116
874.851	21058
874.979	21108
875.108	21230
875.237	21100
875.365	21089
875.494	21043
875.623	21096
875.751	21146
875.88	21119
876.008	21154
876.136	21291
876.265	21656
876.393	21682
876.521	21793
876.65	21682
876.778	21477
876.906	21462
877.034	21511
877.162	21367
877.29	21382
877.418	21534
877.546	21534
877.674	21526
877.802	21576
877.93	21603
878.058	21511
878.185	21359
878.313	21477
878.441	21618
878.568	21428
878.696	21583
878.824	21739
878.951	21778
879.079	21888
879.206	22097
879.333	22177
879.461	22124
879.588	22154
879.715	22268
879.842	22478
879.97	21911
880.097	21751
880.224	21663
880.351	21553
880.478	21500
880.605	21428
880.732	21530
880.859	21595
880.986	21431
881.112	21450
881.239	21370
881.366	21222
881.493	21268
881.619	21146
881.746	21154
881.872	21074
881.999	20960
882.125	21058
882.252	21081
882.378	21058
882.505	21192
882.631	21047
882.757	20804
882.883	20887
883.01	20876
883.136	20697
883.262	20765
883.388	20651
883.514	20861
883.64	20765
883.766	20849
883.892	20522
884.018	20579
884.143	20773
884.269	20838
884.395	20590
884.52	20457
884.646	20450
884.772	20385
884.897	20423
885.023	20396
885.148	20465
885.274	20552
885.399	20465
885.524	20469
885.65	20419
885.775	20419
885.9	20320
886.025	20549
886.15	20457
886.275	20339
886.4	20199
886.525	20404
886.65	20313
886.775	20267
886.9	20495
887.025	20488
887.149	20290
887.274	20221
887.399	20077
887.523	20065
887.648	20012
887.773	19989
887.897	20202
888.021	20008
888.146	20084
888.27	20100
888.395	20161
888.519	20187
888.643	20039
888.767	20122
888.891	19925
889.015	19841
889.139	19921
889.263	19833
889.387	19963
889.511	20012
889.635	20081
889.759	19864
889.883	19780
890.006	19807
890.13	19906
890.254	19670
890.377	19795
890.501	19495
890.624	19514
890.748	19628
890.871	19476
890.995	19396
891.118	19381
891.241	19415
891.364	19411
891.488	19521
891.611	19529
891.734	19407
891.857	19449
891.98	19449
892.103	19552
892.226	19422
892.349	19304
892.471	19278
892.594	19289
892.717	19365
892.839	19339
892.962	19354
893.085	19400
893.207	19278
893.33	19164
893.452	19232
893.575	19358
893.697	19312
893.819	19499
893.941	19430
894.064	19335
894.186	19232
894.308	19232
894.43	19343
894.552	19571
894.674	19255
894.796	19198
894.918	19247
895.04	19247
895.161	19316
895.283	19278
895.405	19206
895.526	19301
895.648	19263
895.769	19274
895.891	19350
896.012	19438
896.134	19331
896.255	19327
896.376	19327
896.498	19415
896.619	19422
896.74	19373
896.861	19453
896.982	19738
897.103	19822
897.224	19647
897.345	19582
897.466	19571
897.587	19563
897.708	19647
897.828	19525
897.949	19529
898.07	19365
898.19	19502
898.311	19734
898.431	19460
898.552	19495
898.672	19578
898.792	19712
898.913	19540
899.033	19434
899.153	19304
899.273	19251
899.393	19343
899.513	19350
899.633	19183
899.753	19259
899.873	19232
899.993	19251
900.113	19285
900.232	19228
900.352	19164
900.472	19099
900.591	18966
900.711	19171
900.83	19038
900.95	19236
901.069	19194
901.189	19088
901.308	18939
901.427	18768
901.546	18673
901.665	18673
901.784	18635
901.904	18460
902.023	18388
902.141	18247
902.26	18182
902.379	18292
902.498	18304
902.617	18007
902.735	18289
902.854	18190
902.973	18064
903.091	18049
903.21	17874
903.328	17847
903.446	17729
903.565	17649
903.683	17684
903.801	17562
903.919	17676
904.038	17611
904.156	17353
904.274	17520
904.392	17509
904.51	17486
904.627	17452
904.745	17452
904.863	17528
904.981	17204
905.098	16995
905.216	17159
905.334	17086
905.451	17147
905.569	17006
905.686	17086
905.803	17041
905.921	16877
906.038	17090
906.155	16843
906.272	16820
906.389	16763
906.506	16626
906.623	16664
906.74	16561
906.857	16478
906.974	16493
907.091	16634
907.208	16713
907.324	16626
907.441	16474
907.557	16382
907.674	16230
907.79	16242
907.907	16223
908.023	16318
908.139	16253
908.256	16272
908.372	16143
908.488	16177
908.604	16002
908.72	15884
908.836	15964
908.952	15816
909.068	15983
909.184	16093
909.3	15907
909.415	15861
909.531	15880
909.647	15648
909.762	15534
909.878	15606
909.993	15644
910.108	15568
910.224	15591
910.339	15622
910.454	15530
910.57	15428
910.685	15367
910.8	15724
910.915	15633
911.03	15367
911.145	15294
911.259	15195
911.374	15230
911.489	15355
911.604	15161
911.718	15119
911.833	15024
911.947	14963
912.062	14872
912.176	14929
912.291	14925
912.405	14986
912.519	15077
912.633	15104
912.748	14979
912.862	14899
912.976	14842
913.09	14708
913.204	14716
913.318	14777
913.431	14887
913.545	14781
913.659	14906
913.772	14663
913.886	14701
914	14636
914.113	14720
914.226	14765
914.34	14705
914.453	14518
914.566	14602
914.68	14484
914.793	14499
914.906	14355
915.019	14259
915.132	14134
915.245	14248
915.358	14339
915.47	14282
915.583	14294
915.696	14240
915.809	14282
915.921	14408
916.034	14244
916.146	14119
916.259	14107
916.371	14107
916.483	14210
916.595	14107
916.708	14115
916.82	14096
916.932	14035
917.044	13989
917.156	13989
917.268	13864
917.38	13928
917.491	13974
917.603	13917
917.715	14046
917.826	14065
917.938	13826
918.049	13791
918.161	13917
918.272	14065
918.384	13898
918.495	13925
918.606	13719
918.717	13681
918.828	13693
918.939	13750
919.05	13578
919.161	13776
919.272	13514
919.383	13544
919.494	13605
919.604	13852
919.715	13651
919.826	13594
919.936	13578
920.047	13662
920.157	13658
920.267	13822
920.378	13658
920.488	13544
920.598	13769
920.708	13989
920.818	13700
920.928	13822
921.038	13833
921.148	13883
921.258	13514
921.368	13438
921.477	13430
921.587	13453
921.697	13225
921.806	13331
921.916	13221
922.025	13107
922.134	13084
922.244	12928
922.353	13034
922.462	12856
922.571	12871
922.68	12745
922.789	12654
922.898	12688
923.007	12597
923.116	12700
923.224	12665
923.333	12601
923.442	12479
923.55	12532
923.659	12578
923.767	12506
923.876	12418
923.984	12467
924.092	12429
924.201	12456
924.309	12490
924.417	12361
924.525	12323
924.633	12384
924.741	13209
924.849	12224
924.956	12327
925.064	12125
925.172	12121
925.279	12140
925.387	12140
925.494	12083
925.602	12315
925.709	12235
925.816	12030
925.924	12007
926.031	12136
926.138	12095
926.245	12125
926.352	11950
926.459	12114
926.566	12201
926.673	12026
926.779	11885
926.886	11813
926.993	11752
927.099	11752
927.206	11672
927.312	11615
927.419	11802
927.525	11726
927.631	11707
927.737	11547
927.843	11543
927.95	11391
928.056	11543
928.162	11512
928.267	11657
928.373	12148
928.479	11665
928.585	11383
928.69	11467
928.796	11566
928.901	11455
929.007	11311
929.112	11326
929.218	11345
929.323	11330
929.428	11273
929.533	11391
929.638	11189
929.743	11254
929.848	11299
929.953	11212
930.058	11178
930.163	10995
930.267	10934
930.372	11083
930.477	11003
930.581	11124
930.685	10991
930.79	10858
930.894	10980
930.998	10790
931.103	10919
931.207	10653
931.311	10512
931.415	10481
931.519	10257
931.623	10325
