Data from test_V78500241_129.txt Node
Date: Fri Mar 25 14:34:37 CST 2022
User: usil
Spectrometer: V785-0024
Trigger mode: 0
Integration Time (sec): 4.000000E-1
Scans to average: 1
Nonlinearity correction enabled: false
Boxcar width: 0
Storing dark spectrum: false
XAxis mode: Wavelengths
Number of Pixels in Spectrum: 1024
>>>>>Begin Spectral Data<<<<<
801.071	30007
801.214	29988
801.356	29608
801.499	29554
801.641	29296
801.783	29383
801.926	29296
802.068	29284
802.211	29189
802.353	29159
802.496	29098
802.638	29033
802.78	28957
802.923	28896
803.065	28930
803.208	28904
803.35	28991
803.492	29105
803.635	29258
803.777	29105
803.919	29315
804.061	29554
804.204	29303
804.346	29204
804.488	29121
804.63	29235
804.773	29216
804.915	29296
805.057	29467
805.199	29318
805.341	29524
805.483	29585
805.626	29729
805.768	29577
805.91	29722
806.052	29885
806.194	29794
806.336	30144
806.478	30178
806.62	30178
806.762	30673
806.904	30833
807.046	31304
807.188	31434
807.33	31772
807.472	32370
807.614	32693
807.756	33485
807.898	34268
808.04	35474
808.182	37133
808.324	38868
808.465	41067
808.607	43479
808.749	45823
808.891	46847
809.033	46812
809.174	45553
809.316	43529
809.458	40999
809.6	38377
809.741	36498
809.883	34976
810.025	34090
810.166	33188
810.308	32575
810.45	32153
810.591	31655
810.733	31278
810.875	30977
811.016	30753
811.158	30467
811.299	30601
811.441	30441
811.582	30407
811.724	30098
811.865	30140
812.007	30034
812.148	29954
812.29	29927
812.431	30114
812.573	30148
812.714	30262
812.855	30201
812.997	30163
813.138	30407
813.279	30205
813.421	30163
813.562	30083
813.703	29756
813.845	29657
813.986	29375
814.127	29174
814.268	29109
814.41	28934
814.551	28999
814.692	29056
814.833	28850
814.974	28911
815.115	28980
815.256	28744
815.397	28816
815.539	28611
815.68	28664
815.821	28565
815.962	28565
816.103	28599
816.244	28417
816.385	28215
816.526	28196
816.666	27926
816.807	27964
816.948	28025
817.089	28025
817.23	27953
817.371	27960
817.512	27819
817.653	27800
817.793	27728
817.934	27842
818.075	27770
818.216	27785
818.356	27682
818.497	27633
818.638	27443
818.778	27488
818.919	27477
819.06	27549
819.2	27625
819.341	27618
819.481	27717
819.622	27884
819.762	28006
819.903	27903
820.043	27785
820.184	27762
820.324	27709
820.465	27812
820.605	27572
820.746	27644
820.886	27427
821.026	27553
821.167	27504
821.307	27587
821.447	27424
821.588	27294
821.728	27211
821.868	27074
822.008	26929
822.149	26861
822.289	26781
822.429	26716
822.569	26568
822.709	26655
822.849	26469
822.99	26347
823.13	26180
823.27	26237
823.41	26077
823.55	26092
823.69	26221
823.83	26202
823.97	26164
824.11	26012
824.25	25902
824.389	25864
824.529	26035
824.669	25966
824.809	26134
824.949	25890
825.089	25890
825.228	25868
825.368	25613
825.508	25731
825.648	25750
825.787	25734
825.927	25841
826.067	25613
826.206	25799
826.346	25727
826.485	25643
826.625	25674
826.765	25788
826.904	25807
827.044	25540
827.183	25415
827.323	25316
827.462	25365
827.601	25384
827.741	25365
827.88	25308
828.02	25137
828.159	25335
828.298	25384
828.437	25411
828.577	25293
828.716	25377
828.855	25198
828.994	25114
829.134	25080
829.273	25080
829.412	25042
829.551	25107
829.69	25080
829.829	24924
829.968	25004
830.107	24943
830.246	25091
830.385	25000
830.524	24981
830.663	24795
830.802	24715
830.941	24589
831.08	24642
831.219	24627
831.357	24726
831.496	24791
831.635	24502
831.774	24570
831.913	24475
832.051	24388
832.19	24350
832.329	24566
832.467	24216
832.606	24380
832.744	24300
832.883	24403
833.022	24437
833.16	24475
833.299	24616
833.437	24703
833.576	24757
833.714	24798
833.852	25015
833.991	25148
834.129	25244
834.267	25175
834.406	25042
834.544	24992
834.682	24954
834.821	24837
834.959	24726
835.097	24715
835.235	24604
835.373	24589
835.511	24547
835.65	24308
835.788	24251
835.926	23961
836.064	23908
836.202	23942
836.34	24045
836.478	24144
836.615	24011
836.753	23931
836.891	24155
837.029	24083
837.167	23977
837.305	23851
837.443	23999
837.58	23710
837.718	23851
837.856	23904
837.993	23809
838.131	23790
838.269	23627
838.406	23653
838.544	23661
838.681	23501
838.819	23455
838.956	23292
839.094	23200
839.231	23334
839.369	23379
839.506	23520
839.643	23471
839.781	23185
839.918	23136
840.055	23132
840.193	23174
840.33	23159
840.467	23147
840.604	23140
840.742	23353
840.879	22942
841.016	23121
841.153	23010
841.29	23162
841.427	23208
841.564	23056
841.701	23090
841.838	23159
841.975	22908
842.112	22946
842.249	22896
842.385	22835
842.522	23090
842.659	22927
842.796	22980
842.933	23010
843.069	22752
843.206	22900
843.343	23003
843.479	23010
843.616	23086
843.752	22816
843.889	22816
844.025	22991
844.162	22869
844.298	23132
844.435	23151
844.571	23128
844.708	23455
844.844	23836
844.98	24106
845.117	24646
845.253	25164
845.389	26507
845.525	29140
845.661	33241
845.798	38221
845.934	42049
846.07	43693
846.206	42631
846.342	39283
846.478	34295
846.614	29927
846.75	26948
846.886	25350
847.022	24266
847.158	23531
847.294	23185
847.429	22896
847.565	22569
847.701	22942
847.837	22112
847.972	22166
848.108	22116
848.244	22032
848.379	21892
848.515	21797
848.65	21759
848.786	21698
848.921	21751
849.057	21709
849.192	21789
849.328	21709
849.463	21663
849.598	21545
849.734	21488
849.869	21443
850.004	21507
850.14	21412
850.275	21401
850.41	21256
850.545	21408
850.68	21363
850.815	21412
850.95	21287
851.085	21435
851.22	21412
851.355	21370
851.49	21093
851.625	21401
851.76	21161
851.895	21154
852.03	21302
852.165	21302
852.299	21386
852.434	21454
852.569	21420
852.703	21439
852.838	21378
852.973	21447
853.107	21580
853.242	21389
853.376	21260
853.511	21329
853.645	21264
853.78	21408
853.914	21424
854.048	21405
854.183	21344
854.317	21408
854.451	21618
854.585	21504
854.72	21310
854.854	21507
854.988	21275
855.122	21237
855.256	21138
855.39	21287
855.524	21408
855.658	21332
855.792	21184
855.926	21218
856.06	21157
856.194	21325
856.327	21070
856.461	21066
856.595	21066
856.729	21142
856.862	21317
856.996	21123
857.13	21055
857.263	21161
857.397	21207
857.53	21058
857.664	20982
857.797	21093
857.931	21135
858.064	21104
858.197	21093
858.331	20975
858.464	20952
858.597	20880
858.731	20872
858.864	21085
858.997	20944
859.13	20971
859.263	20975
859.396	20960
859.529	20937
859.662	20823
859.795	21051
859.928	20975
860.061	21096
860.194	21062
860.327	21036
860.46	20944
860.592	21055
860.725	21119
860.858	21055
860.99	20857
861.123	20823
861.256	20826
861.388	20933
861.521	21591
861.653	20796
861.786	20880
861.918	20746
862.05	20971
862.183	21001
862.315	20982
862.447	21028
862.58	20948
862.712	20724
862.844	20617
862.976	20762
863.108	20644
863.24	20971
863.372	20686
863.504	20735
863.636	20537
863.768	20621
863.9	20659
864.032	20564
864.164	20575
864.296	20606
864.428	20606
864.559	20754
864.691	20712
864.823	20701
864.954	20613
865.086	20587
865.217	20415
865.349	20480
865.48	20518
865.612	20587
865.743	20613
865.875	20621
866.006	20434
866.137	20423
866.269	20503
866.4	20507
866.531	20336
866.662	20339
866.793	20351
866.924	20480
867.055	20389
867.186	20541
867.317	20415
867.448	20339
867.579	20313
867.71	20305
867.841	20263
867.972	20339
868.103	20450
868.233	20408
868.364	20537
868.495	20602
868.625	20640
868.756	20674
868.886	20503
869.017	20629
869.147	20754
869.278	20788
869.408	20701
869.539	20663
869.669	20773
869.799	20568
869.929	20807
870.06	20750
870.19	20899
870.32	20906
870.45	21028
870.58	21127
870.71	21199
870.84	21211
870.97	21165
871.1	21214
871.23	21348
871.36	21150
871.489	21173
871.619	21310
871.749	21291
871.879	21397
872.008	21443
872.138	21367
872.267	21355
872.397	21233
872.526	21199
872.656	21336
872.785	21252
872.915	21378
873.044	21564
873.173	21504
873.303	21507
873.432	21648
873.561	21766
873.69	21629
873.819	21538
873.948	21690
874.077	21686
874.206	21580
874.335	21694
874.464	21778
874.593	21922
874.722	21816
874.851	21892
874.979	21998
875.108	22090
875.237	22044
875.365	21915
875.494	22086
875.623	22162
875.751	22147
875.88	22287
876.008	22344
876.136	22478
876.265	22660
876.393	22854
876.521	22805
876.65	22858
876.778	22831
876.906	22866
877.034	22946
877.162	22892
877.29	22976
877.418	22972
877.546	23185
877.674	23227
877.802	23258
877.93	23330
878.058	23395
878.185	23524
878.313	23840
878.441	24182
878.568	24235
878.696	24817
878.824	25270
878.951	26218
879.079	27386
879.206	28908
879.333	30452
879.461	31571
879.588	32560
879.715	32606
879.842	31868
879.97	30490
880.097	28793
880.224	27443
880.351	26762
880.478	26145
880.605	25662
880.732	25392
880.859	25415
880.986	25148
881.112	25008
881.239	24837
881.366	24700
881.493	24551
881.619	24483
881.746	24471
881.872	24540
881.999	24555
882.125	24551
882.252	24760
882.378	24688
882.505	24779
882.631	24578
882.757	24376
882.883	24654
883.01	24540
883.136	24403
883.262	24338
883.388	24247
883.514	24433
883.64	24460
883.766	24513
883.892	24148
884.018	24247
884.143	24410
884.269	24460
884.395	24308
884.52	24155
884.646	24152
884.772	24038
884.897	24087
885.023	24095
885.148	24258
885.274	24148
885.399	24167
885.524	23859
885.65	23851
885.775	23752
885.9	23562
886.025	23748
886.15	23528
886.275	23311
886.4	23102
886.525	23102
886.65	22995
886.775	23022
886.9	23029
887.025	22957
887.149	22630
887.274	22436
887.399	22447
887.523	22257
887.648	22223
887.773	22219
887.897	22188
888.021	22002
888.146	22082
888.27	22131
888.395	22109
888.519	21930
888.643	22006
888.767	21983
888.891	21724
889.015	21504
889.139	21667
889.263	21458
889.387	21610
889.511	21732
889.635	21591
889.759	21408
889.883	21336
890.006	21367
890.13	21504
890.254	21252
890.377	21397
890.501	21165
890.624	21024
890.748	21085
890.871	20910
890.995	20670
891.118	20777
891.241	20743
891.364	20743
891.488	20838
891.611	20701
891.734	20670
891.857	20823
891.98	20670
892.103	20655
892.226	20712
892.349	20473
892.471	20286
892.594	20484
892.717	20461
892.839	20492
892.962	20351
893.085	20374
893.207	20412
893.33	20267
893.452	20248
893.575	20317
893.697	20275
893.819	20385
893.941	20480
894.064	20324
894.186	20142
894.308	20282
894.43	20275
894.552	20362
894.674	20202
894.796	20149
894.918	20107
895.04	20020
895.161	20107
895.283	20142
895.405	20073
895.526	20126
895.648	19982
895.769	19951
895.891	20050
896.012	20126
896.134	19993
896.255	19989
896.376	20001
896.498	20027
896.619	20130
896.74	20111
896.861	20138
896.982	20301
897.103	20473
897.224	20233
897.345	20164
897.466	20237
897.587	20142
897.708	20370
897.828	20278
897.949	20054
898.07	20054
898.19	20073
898.311	20278
898.431	20138
898.552	20096
898.672	20157
898.792	20164
898.913	20138
899.033	19955
899.153	19936
899.273	19784
899.393	19833
899.513	19879
899.633	19856
899.753	19784
899.873	19868
899.993	19921
900.113	19674
900.232	19795
900.352	19708
900.472	19616
900.591	19586
900.711	19712
900.83	19499
900.95	19681
901.069	19765
901.189	19567
901.308	19411
901.427	19240
901.546	19179
901.665	19244
901.784	19221
901.904	18943
902.023	18848
902.141	18757
902.26	18551
902.379	18681
902.498	18623
902.617	18585
902.735	18513
902.854	18631
902.973	18578
903.091	18388
903.21	18296
903.328	18213
903.446	18289
903.565	18102
903.683	18129
903.801	17908
903.919	18041
904.038	17954
904.156	17821
904.274	17790
904.392	17680
904.51	17707
904.627	17805
904.745	17798
904.863	17805
904.981	17547
905.098	17452
905.216	17425
905.334	17459
905.451	17360
905.569	17303
905.686	17440
905.803	17284
905.921	17296
906.038	17261
906.155	17147
906.272	17071
906.389	17170
906.506	16892
906.623	16987
906.74	16968
906.857	16828
906.974	16873
907.091	16824
907.208	17041
907.324	16889
907.441	16847
907.557	16618
907.674	16634
907.79	16546
907.907	16379
908.023	16664
908.139	16569
908.256	16531
908.372	16474
908.488	16466
908.604	16318
908.72	16287
908.836	16257
908.952	16196
909.068	16204
909.184	16375
909.3	16287
909.415	16348
909.531	16219
909.647	15983
909.762	16006
909.878	16040
909.993	16059
910.108	15998
910.224	15895
910.339	15880
910.454	15812
910.57	15842
910.685	15774
910.8	15903
910.915	15854
911.03	15774
911.145	15572
911.259	15675
911.374	15641
911.489	15450
911.604	15466
911.718	15211
911.833	15332
911.947	15214
912.062	15150
912.176	15256
912.291	15393
912.405	15359
912.519	15504
912.633	15439
912.748	15241
912.862	15302
912.976	15108
913.09	15070
913.204	15093
913.318	15161
913.431	15291
913.545	15302
913.659	15218
913.772	15066
913.886	15055
914	14948
914.113	14944
914.226	15009
914.34	14963
914.453	14861
914.566	14979
914.68	14811
914.793	14872
914.906	14610
915.019	14587
915.132	14484
915.245	14598
915.358	14686
915.47	14583
915.583	14579
915.696	14606
915.809	14678
915.921	14739
916.034	14507
916.146	14454
916.259	14454
916.371	14590
916.483	14629
916.595	14495
916.708	14495
916.82	14549
916.932	14446
917.044	14476
917.156	14385
917.268	14256
917.38	14355
917.491	14286
917.603	14427
917.715	14286
917.826	14358
917.938	14313
918.049	14161
918.161	14092
918.272	14240
918.384	14298
918.495	14164
918.606	14092
918.717	13982
918.828	14043
918.939	14001
919.05	13936
919.161	13917
919.272	13731
919.383	13928
919.494	13894
919.604	14081
919.715	13940
919.826	13860
919.936	13940
920.047	14039
920.157	13845
920.267	14180
920.378	13928
920.488	13906
920.598	13982
920.708	14164
920.818	13989
920.928	13993
921.038	14149
921.148	14130
921.258	13883
921.368	13795
921.477	13670
921.587	13624
921.697	13521
921.806	13575
921.916	13487
922.025	13415
922.134	13217
922.244	13251
922.353	13373
922.462	13194
922.571	13129
922.68	13038
922.789	12924
922.898	12932
923.007	12886
923.116	13008
923.224	12871
923.333	12878
923.442	12825
923.55	12684
923.659	12833
923.767	12863
923.876	12627
923.984	12764
924.092	12623
924.201	12707
924.309	12620
924.417	12604
924.525	12570
924.633	12658
924.741	13460
924.849	12429
924.956	12540
925.064	12414
925.172	12357
925.279	12391
925.387	12414
925.494	12350
925.602	12467
925.709	12429
925.816	12281
925.924	12388
926.031	12433
926.138	12384
926.245	12319
926.352	12273
926.459	12441
926.566	12395
926.673	12228
926.779	12102
926.886	12125
926.993	12076
927.099	11893
927.206	11882
927.312	11912
927.419	11999
927.525	12011
927.631	11950
927.737	11904
927.843	11790
927.95	11665
928.056	11714
928.162	11741
928.267	11802
928.373	12391
928.479	11988
928.585	11703
928.69	11737
928.796	11843
928.901	11649
929.007	11524
929.112	11691
929.218	11585
929.323	11512
929.428	11490
929.533	11551
929.638	11379
929.743	11516
929.848	11562
929.953	11478
930.058	11311
930.163	11227
930.267	11261
930.372	11417
930.477	11212
930.581	11353
930.685	11311
930.79	11151
930.894	11052
930.998	11090
931.103	11235
931.207	10824
931.311	10763
931.415	10733
931.519	10504
931.623	10478
