Data from test_V78500241_1076.txt Node
Date: Fri Mar 25 14:41:12 CST 2022
User: usil
Spectrometer: V785-0024
Trigger mode: 0
Integration Time (sec): 4.000000E-1
Scans to average: 1
Nonlinearity correction enabled: false
Boxcar width: 0
Storing dark spectrum: false
XAxis mode: Wavelengths
Number of Pixels in Spectrum: 1024
>>>>>Begin Spectral Data<<<<<
801.071	22740
801.214	22717
801.356	22367
801.499	22200
801.641	22097
801.783	22086
801.926	21960
802.068	22055
802.211	21930
802.353	21945
802.496	21766
802.638	21679
802.78	21557
802.923	21557
803.065	21454
803.208	21431
803.35	21496
803.492	21572
803.635	21644
803.777	21397
803.919	21587
804.061	21854
804.204	21534
804.346	21348
804.488	21245
804.63	21408
804.773	21279
804.915	21466
805.057	21587
805.199	21348
805.341	21466
805.483	21408
805.626	21416
805.768	21344
805.91	21374
806.052	21386
806.194	21332
806.336	21523
806.478	21431
806.62	21469
806.762	21545
806.904	21553
807.046	21785
807.188	21926
807.33	21743
807.472	21918
807.614	21720
807.756	21850
807.898	21774
808.04	21583
808.182	21800
808.324	21762
808.465	21941
808.607	22276
808.749	22360
808.891	22280
809.033	22546
809.174	22257
809.316	22185
809.458	22162
809.6	22036
809.741	22112
809.883	22048
810.025	22029
810.166	22131
810.308	22139
810.45	21998
810.591	21937
810.733	21724
810.875	21739
811.016	21500
811.158	21572
811.299	21713
811.441	21686
811.582	21682
811.724	21526
811.865	21625
812.007	21625
812.148	21595
812.29	21545
812.431	21736
812.573	21850
812.714	21994
812.855	22010
812.997	22162
813.138	22291
813.279	22185
813.421	22226
813.562	22025
813.703	21991
813.845	21747
813.986	21462
814.127	21310
814.268	21298
814.41	21272
814.551	21161
814.692	21313
814.833	21055
814.974	20944
815.115	21116
815.256	20979
815.397	21017
815.539	21081
815.68	20918
815.821	20773
815.962	20849
816.103	20868
816.244	20769
816.385	20712
816.526	20659
816.666	20488
816.807	20366
816.948	20507
817.089	20434
817.23	20366
817.371	20358
817.512	20229
817.653	20324
817.793	20199
817.934	20320
818.075	20381
818.216	20305
818.356	20176
818.497	20107
818.638	19860
818.778	19974
818.919	19978
819.06	20031
819.2	20046
819.341	20210
819.481	19989
819.622	20301
819.762	20514
819.903	20480
820.043	20377
820.184	20317
820.324	20343
820.465	20237
820.605	20256
820.746	20202
820.886	20020
821.026	20370
821.167	20168
821.307	20366
821.447	20221
821.588	20069
821.728	19955
821.868	19833
822.008	19624
822.149	19700
822.289	19624
822.429	19373
822.569	19301
822.709	19327
822.849	19266
822.99	19217
823.13	19209
823.27	19160
823.41	18989
823.55	18890
823.69	19156
823.83	19015
823.97	18985
824.11	18859
824.25	18703
824.389	18757
824.529	18745
824.669	18764
824.809	18802
824.949	18924
825.089	18878
825.228	18871
825.368	18494
825.508	18566
825.648	18559
825.787	18730
825.927	18608
826.067	18521
826.206	18448
826.346	18597
826.485	18544
826.625	18585
826.765	18677
826.904	18578
827.044	18300
827.183	18308
827.323	18220
827.462	18300
827.601	18243
827.741	18144
827.88	18251
828.02	18190
828.159	18247
828.298	18232
828.437	18311
828.577	18235
828.716	18433
828.855	18102
828.994	17920
829.134	17935
829.273	18057
829.412	17996
829.551	17977
829.69	17969
829.829	18053
829.968	17973
830.107	18053
830.246	17999
830.385	17916
830.524	17863
830.663	17729
830.802	17642
830.941	17630
831.08	17554
831.219	17680
831.357	17695
831.496	17756
831.635	17630
831.774	17455
831.913	17516
832.051	17391
832.19	17318
832.329	17448
832.467	17307
832.606	17212
832.744	17322
832.883	17261
833.022	17250
833.16	17284
833.299	17284
833.437	17292
833.576	17368
833.714	17376
833.852	17421
833.991	17425
834.129	17421
834.267	17440
834.406	17299
834.544	17299
834.682	17452
834.821	17372
834.959	17471
835.097	17235
835.235	17535
835.373	17414
835.511	17383
835.65	17280
835.788	17318
835.926	17086
836.064	17083
836.202	17102
836.34	17166
836.478	17356
836.615	17288
836.753	17292
836.891	17391
837.029	17288
837.167	17197
837.305	17254
837.443	17094
837.58	17124
837.718	17083
837.856	17143
837.993	16972
838.131	17132
838.269	16923
838.406	17025
838.544	16927
838.681	16908
838.819	16831
838.956	16733
839.094	16660
839.231	16596
839.369	16809
839.506	17117
839.643	16965
839.781	16672
839.918	16668
840.055	16622
840.193	16706
840.33	16653
840.467	16603
840.604	16561
840.742	16942
840.879	16516
841.016	16596
841.153	16565
841.29	16679
841.427	16717
841.564	16649
841.701	16694
841.838	16523
841.975	16615
842.112	16607
842.249	16451
842.385	16459
842.522	16599
842.659	16409
842.796	16436
842.933	16523
843.069	16405
843.206	16428
843.343	16417
843.479	16535
843.616	16417
843.752	16173
843.889	16204
844.025	16333
844.162	16238
844.298	16322
844.435	16173
844.571	16265
844.708	16211
844.844	16306
844.98	16314
845.117	16375
845.253	16131
845.389	16230
845.525	16291
845.661	16421
845.798	16386
845.934	16550
846.07	16470
846.206	16660
846.342	16622
846.478	16291
846.614	16036
846.75	15915
846.886	15850
847.022	15941
847.158	15778
847.294	15816
847.429	15812
847.565	15679
847.701	15949
847.837	15523
847.972	15435
848.108	15568
848.244	15534
848.379	15408
848.515	15439
848.65	15317
848.786	15378
848.921	15348
849.057	15504
849.192	15481
849.328	15428
849.463	15344
849.598	15355
849.734	15298
849.869	15169
850.004	15188
850.14	15211
850.275	15112
850.41	15112
850.545	14982
850.68	15081
850.815	15093
850.95	15089
851.085	15241
851.22	15218
851.355	15150
851.49	15036
851.625	15089
851.76	15100
851.895	14975
852.03	15108
852.165	15135
852.299	15157
852.434	15211
852.569	15207
852.703	15142
852.838	15093
852.973	15165
853.107	15264
853.242	15058
853.376	15013
853.511	14849
853.645	14963
853.78	15039
853.914	14963
854.048	14914
854.183	15036
854.317	14998
854.451	15077
854.585	14929
854.72	14929
854.854	14979
854.988	14979
855.122	15001
855.256	14811
855.39	14918
855.524	15020
855.658	15089
855.792	15028
855.926	15001
856.06	15005
856.194	15089
856.327	14967
856.461	14975
856.595	14872
856.729	14891
856.862	15150
856.996	15020
857.13	15047
857.263	15062
857.397	15013
857.53	14986
857.664	15024
857.797	15043
857.931	15032
858.064	15058
858.197	15047
858.331	14899
858.464	14956
858.597	14933
858.731	14994
858.864	15036
858.997	14914
859.13	14960
859.263	14910
859.396	15032
859.529	14925
859.662	14971
859.795	14853
859.928	15055
860.061	15058
860.194	15192
860.327	14944
860.46	15028
860.592	15093
860.725	15097
860.858	15176
860.99	14994
861.123	14872
861.256	14975
861.388	14895
861.521	15743
861.653	14960
861.786	14777
861.918	14739
862.05	14956
862.183	14857
862.315	14952
862.447	14952
862.58	14849
862.712	14674
862.844	14701
862.976	14788
863.108	14830
863.24	15218
863.372	14640
863.504	14781
863.636	14693
863.768	14811
863.9	14705
864.032	14796
864.164	14575
864.296	14762
864.428	14826
864.559	14864
864.691	14773
864.823	14788
864.954	14773
865.086	14739
865.217	14735
865.349	14617
865.48	14758
865.612	14716
865.743	14891
865.875	14735
866.006	14667
866.137	14792
866.269	14731
866.4	14712
866.531	14686
866.662	14610
866.793	14762
866.924	14712
867.055	14842
867.186	14693
867.317	14697
867.448	14575
867.579	14514
867.71	14636
867.841	14648
867.972	14720
868.103	14651
868.233	14632
868.364	14727
868.495	14823
868.625	14944
868.756	14979
868.886	14876
869.017	14979
869.147	15085
869.278	15066
869.408	15074
869.539	14952
869.669	14994
869.799	14956
869.929	15077
870.06	15058
870.19	15256
870.32	15230
870.45	15264
870.58	15272
870.71	15397
870.84	15504
870.97	15325
871.1	15355
871.23	15496
871.36	15553
871.489	15519
871.619	15526
871.749	15538
871.879	15568
872.008	15656
872.138	15584
872.267	15485
872.397	15504
872.526	15511
872.656	15260
872.785	15397
872.915	15572
873.044	15766
873.173	15682
873.303	15641
873.432	15599
873.561	15682
873.69	15584
873.819	15618
873.948	15713
874.077	15515
874.206	15644
874.335	15580
874.464	15667
874.593	15812
874.722	15838
874.851	15949
874.979	15964
875.108	15991
875.237	15915
875.365	15797
875.494	15895
875.623	15979
875.751	15915
875.88	15888
876.008	16036
876.136	16230
876.265	16226
876.393	16603
876.521	16424
876.65	16421
876.778	16402
876.906	16207
877.034	16280
877.162	16299
877.29	16276
877.418	16299
877.546	16344
877.674	16367
877.802	16318
877.93	16322
878.058	16230
878.185	16325
878.313	16440
878.441	16352
878.568	16207
878.696	16242
878.824	16352
878.951	16489
879.079	16744
879.206	16736
879.333	16763
879.461	16687
879.588	16721
879.715	16816
879.842	16862
879.97	16656
880.097	16299
880.224	16268
880.351	16265
880.478	16299
880.605	16310
880.732	16280
880.859	16550
880.986	16303
881.112	16356
881.239	16147
881.366	15964
881.493	15953
881.619	15857
881.746	15899
881.872	15934
881.999	15869
882.125	15850
882.252	15987
882.378	15918
882.505	16036
882.631	15876
882.757	15705
882.883	15857
883.01	15736
883.136	15682
883.262	15538
883.388	15595
883.514	15770
883.64	15800
883.766	15675
883.892	15526
884.018	15549
884.143	15644
884.269	15785
884.395	15382
884.52	15408
884.646	15408
884.772	15298
884.897	15321
885.023	15458
885.148	15603
885.274	15519
885.399	15500
885.524	15447
885.65	15397
885.775	15405
885.9	15359
886.025	15542
886.15	15462
886.275	15310
886.4	15275
886.525	15310
886.65	15397
886.775	15397
886.9	15511
887.025	15622
887.149	15428
887.274	15226
887.399	15085
887.523	15127
887.648	15207
887.773	15066
887.897	15287
888.021	15370
888.146	15051
888.27	15302
888.395	15294
888.519	15173
888.643	15195
888.767	15249
888.891	15180
889.015	14960
889.139	15070
889.263	15047
889.387	15070
889.511	15264
889.635	15241
889.759	14967
889.883	15009
890.006	14918
890.13	15039
890.254	15009
890.377	15009
890.501	14758
890.624	14743
890.748	14914
890.871	14758
890.995	14587
891.118	14632
891.241	14758
891.364	14735
891.488	14788
891.611	14758
891.734	14754
891.857	14765
891.98	14697
892.103	14762
892.226	14754
892.349	14697
892.471	14590
892.594	14769
892.717	14686
892.839	14659
892.962	14750
893.085	14838
893.207	14746
893.33	14552
893.452	14556
893.575	14705
893.697	14606
893.819	14887
893.941	14868
894.064	14785
894.186	14537
894.308	14629
894.43	14853
894.552	14876
894.674	14689
894.796	14731
894.918	14765
895.04	14785
895.161	14807
895.283	14796
895.405	14674
895.526	14754
895.648	14781
895.769	14868
895.891	14864
896.012	14933
896.134	14765
896.255	14899
896.376	14781
896.498	14796
896.619	14899
896.74	14796
896.861	14960
896.982	15142
897.103	15332
897.224	15066
897.345	15039
897.466	15104
897.587	15093
897.708	15260
897.828	15097
897.949	15104
898.07	14952
898.19	15131
898.311	15401
898.431	15116
898.552	15260
898.672	15233
898.792	15298
898.913	15233
899.033	15127
899.153	15013
899.273	14826
899.393	14925
899.513	15009
899.633	15058
899.753	15051
899.873	14914
899.993	15146
900.113	14967
900.232	14937
900.352	15005
900.472	14952
900.591	14864
900.711	14838
900.83	14895
900.95	14971
901.069	15055
901.189	14857
901.308	14617
901.427	14526
901.546	14522
901.665	14613
901.784	14632
901.904	14457
902.023	14396
902.141	14138
902.26	14199
902.379	14199
902.498	14145
902.617	14054
902.735	14107
902.854	14081
902.973	14035
903.091	13791
903.21	13761
903.328	13826
903.446	13738
903.565	13776
903.683	13674
903.801	13525
903.919	13639
904.038	13662
904.156	13491
904.274	13548
904.392	13468
904.51	13453
904.627	13407
904.745	13537
904.863	13491
904.981	13312
905.098	13171
905.216	13145
905.334	13259
905.451	13164
905.569	13065
905.686	13175
905.803	13198
905.921	12981
906.038	13072
906.155	12996
906.272	12859
906.389	12886
906.506	12783
906.623	12673
906.74	12783
906.857	12608
906.974	12612
907.091	12810
907.208	12886
907.324	12783
907.441	12738
907.557	12597
907.674	12410
907.79	12456
907.907	12460
908.023	12494
908.139	12494
908.256	12407
908.372	12369
908.488	12384
908.604	12262
908.72	12197
908.836	12273
908.952	12292
909.068	12224
909.184	12327
909.3	12251
909.415	12285
909.531	12273
909.647	12049
909.762	11939
909.878	11942
909.993	12083
910.108	12072
910.224	12003
910.339	11999
910.454	11950
910.57	11863
910.685	11817
910.8	12060
910.915	12003
911.03	11882
911.145	11684
911.259	11695
911.374	11680
911.489	11604
911.604	11512
911.718	11429
911.833	11482
911.947	11326
912.062	11334
912.176	11391
912.291	11471
912.405	11330
912.519	11642
912.633	11581
912.748	11528
912.862	11429
912.976	11391
913.09	11204
913.204	11326
913.318	11383
913.431	11433
913.545	11414
913.659	11440
913.772	11280
913.886	11216
914	11170
914.113	11296
914.226	11307
914.34	11185
914.453	11094
914.566	11254
914.68	11109
914.793	11090
914.906	10831
915.019	10908
915.132	10847
915.245	11014
915.358	10980
915.47	10995
915.583	10976
915.696	10889
915.809	11003
915.921	11094
916.034	10930
916.146	10904
916.259	10850
916.371	10949
916.483	10923
916.595	10797
916.708	10957
916.82	10915
916.932	10877
917.044	10843
917.156	10748
917.268	10679
917.38	10748
917.491	10729
917.603	10797
917.715	10835
917.826	10877
917.938	10721
918.049	10702
918.161	10774
918.272	10900
918.384	10900
918.495	10790
918.606	10580
918.717	10554
918.828	10672
918.939	10611
919.05	10580
919.161	10599
919.272	10394
919.383	10409
919.494	10664
919.604	10816
919.715	10611
919.826	10607
919.936	10519
920.047	10744
920.157	10687
920.267	10786
920.378	10664
920.488	10611
920.598	10755
920.708	11052
920.818	10782
920.928	10847
921.038	10984
921.148	10915
921.258	10668
921.368	10561
921.477	10504
921.587	10421
921.697	10329
921.806	10546
921.916	10337
922.025	10169
922.134	10147
922.244	10116
922.353	10200
922.462	9972
922.571	9979
922.68	9880
922.789	9861
922.898	9827
923.007	9835
923.116	9895
923.224	9835
923.333	9892
923.442	9675
923.55	9682
923.659	9732
923.767	9835
923.876	9705
923.984	9766
924.092	9614
924.201	9663
924.309	9686
924.417	9690
924.525	9675
924.633	9671
924.741	10649
924.849	9408
924.956	9652
925.064	9469
925.172	9412
925.279	9428
925.387	9587
925.494	9492
925.602	9663
925.709	9549
925.816	9405
925.924	9538
926.031	9564
926.138	9496
926.245	9492
926.352	9397
926.459	9511
926.566	9485
926.673	9473
926.779	9332
926.886	9336
926.993	9176
927.099	9214
927.206	9108
927.312	9131
927.419	9207
927.525	9195
927.631	9226
927.737	9176
927.843	9047
927.95	8975
928.056	9036
928.162	9108
928.267	9108
928.373	9717
928.479	9142
928.585	8994
928.69	9070
928.796	9108
928.901	8998
929.007	8853
929.112	9020
929.218	8960
929.323	8838
929.428	8906
929.533	9028
929.638	8838
929.743	8845
929.848	8906
929.953	8857
930.058	8735
930.163	8587
930.267	8693
930.372	8739
930.477	8625
930.581	8823
930.685	8743
930.79	8571
930.894	8648
930.998	8610
931.103	8727
931.207	8377
931.311	8374
931.415	8240
931.519	8035
931.623	8123
