Data from test_V78500241_3245.txt Node
Date: Fri Mar 25 14:56:18 CST 2022
User: usil
Spectrometer: V785-0024
Trigger mode: 0
Integration Time (sec): 4.000000E-1
Scans to average: 1
Nonlinearity correction enabled: false
Boxcar width: 0
Storing dark spectrum: false
XAxis mode: Wavelengths
Number of Pixels in Spectrum: 1024
>>>>>Begin Spectral Data<<<<<
801.071	22010
801.214	21922
801.356	21656
801.499	21538
801.641	21363
801.783	21313
801.926	21473
802.068	21351
802.211	21226
802.353	21077
802.496	20979
802.638	20895
802.78	20750
802.923	20667
803.065	20625
803.208	20655
803.35	20716
803.492	20845
803.635	20826
803.777	20712
803.919	20708
804.061	21093
804.204	20796
804.346	20651
804.488	20541
804.63	20644
804.773	20651
804.915	20583
805.057	20750
805.199	20674
805.341	20674
805.483	20720
805.626	20606
805.768	20575
805.91	20606
806.052	20545
806.194	20457
806.336	20724
806.478	20549
806.62	20503
806.762	20716
806.904	20777
807.046	21058
807.188	20906
807.33	20918
807.472	21055
807.614	20941
807.756	20876
807.898	20739
808.04	20663
808.182	20617
808.324	20625
808.465	20735
808.607	20880
808.749	21017
808.891	21093
809.033	21195
809.174	21096
809.316	21020
809.458	20857
809.6	20937
809.741	21032
809.883	21085
810.025	21116
810.166	21127
810.308	21150
810.45	21089
810.591	20998
810.733	20853
810.875	20853
811.016	20655
811.158	20609
811.299	20792
811.441	20887
811.582	20887
811.724	20804
811.865	20754
812.007	20735
812.148	20845
812.29	20663
812.431	20845
812.573	20971
812.714	21150
812.855	21184
812.997	21294
813.138	21420
813.279	21378
813.421	21207
813.562	21138
813.703	21005
813.845	20765
813.986	20530
814.127	20366
814.268	20225
814.41	20301
814.551	20244
814.692	20248
814.833	20199
814.974	20183
815.115	20244
815.256	20199
815.397	20092
815.539	20126
815.68	19970
815.821	19967
815.962	19997
816.103	20008
816.244	19860
816.385	19712
816.526	19670
816.666	19594
816.807	19430
816.948	19529
817.089	19453
817.23	19460
817.371	19453
817.512	19282
817.653	19400
817.793	19343
817.934	19460
818.075	19476
818.216	19373
818.356	19392
818.497	19095
818.638	19129
818.778	19126
818.919	19072
819.06	19225
819.2	19183
819.341	19289
819.481	19221
819.622	19438
819.762	19556
819.903	19487
820.043	19434
820.184	19297
820.324	19339
820.465	19403
820.605	19422
820.746	19449
820.886	19331
821.026	19392
821.167	19400
821.307	19354
821.447	19369
821.588	19225
821.728	18993
821.868	18977
822.008	18829
822.149	18829
822.289	18848
822.429	18532
822.569	18490
822.709	18414
822.849	18357
822.99	18327
823.13	18353
823.27	18308
823.41	18102
823.55	18053
823.69	18144
823.83	18110
823.97	18019
824.11	17866
824.25	17843
824.389	17866
824.529	18015
824.669	17897
824.809	18038
824.949	17870
825.089	17813
825.228	17984
825.368	17687
825.508	17611
825.648	17619
825.787	17668
825.927	17649
826.067	17596
826.206	17627
826.346	17733
826.485	17615
826.625	17535
826.765	17695
826.904	17657
827.044	17429
827.183	17337
827.323	17296
827.462	17444
827.601	17402
827.741	17235
827.88	17326
828.02	17204
828.159	17410
828.298	17383
828.437	17265
828.577	17151
828.716	17512
828.855	17242
828.994	17098
829.134	17143
829.273	17102
829.412	16957
829.551	16976
829.69	16965
829.829	17121
829.968	17197
830.107	17105
830.246	17113
830.385	16949
830.524	16972
830.663	16778
830.802	16801
830.941	16736
831.08	16615
831.219	16717
831.357	16713
831.496	16892
831.635	16725
831.774	16664
831.913	16569
832.051	16455
832.19	16561
832.329	16573
832.467	16443
832.606	16481
832.744	16306
832.883	16382
833.022	16371
833.16	16379
833.299	16367
833.437	16367
833.576	16390
833.714	16390
833.852	16455
833.991	16577
834.129	16554
834.267	16474
834.406	16493
834.544	16531
834.682	16500
834.821	16424
834.959	16588
835.097	16409
835.235	16626
835.373	16394
835.511	16371
835.65	16375
835.788	16402
835.926	16268
836.064	16192
836.202	16291
836.34	16360
836.478	16459
836.615	16394
836.753	16367
836.891	16436
837.029	16409
837.167	16402
837.305	16261
837.443	16344
837.58	16276
837.718	16322
837.856	16314
837.993	16181
838.131	16200
838.269	16261
838.406	16173
838.544	16067
838.681	15945
838.819	15892
838.956	15736
839.094	15736
839.231	15831
839.369	16048
839.506	16169
839.643	15972
839.781	15880
839.918	15724
840.055	15819
840.193	15842
840.33	15717
840.467	15812
840.604	15861
840.742	16059
840.879	15553
841.016	15663
841.153	15641
841.29	15926
841.427	15774
841.564	15876
841.701	15816
841.838	15701
841.975	15667
842.112	15671
842.249	15671
842.385	15515
842.522	15770
842.659	15587
842.796	15526
842.933	15500
843.069	15545
843.206	15428
843.343	15587
843.479	15629
843.616	15454
843.752	15336
843.889	15435
844.025	15420
844.162	15252
844.298	15431
844.435	15272
844.571	15336
844.708	15393
844.844	15534
844.98	15458
845.117	15477
845.253	15332
845.389	15146
845.525	15260
845.661	15230
845.798	15116
845.934	15233
846.07	15085
846.206	15192
846.342	15264
846.478	15138
846.614	14982
846.75	14921
846.886	14967
847.022	15047
847.158	14918
847.294	14788
847.429	15020
847.565	14883
847.701	15165
847.837	14735
847.972	14773
848.108	14731
848.244	14739
848.379	14598
848.515	14484
848.65	14431
848.786	14541
848.921	14583
849.057	14590
849.192	14636
849.328	14503
849.463	14511
849.598	14408
849.734	14427
849.869	14423
850.004	14374
850.14	14389
850.275	14336
850.41	14145
850.545	14256
850.68	14225
850.815	14404
850.95	14336
851.085	14465
851.22	14317
851.355	14339
851.49	14240
851.625	14263
851.76	14229
851.895	14168
852.03	14199
852.165	14233
852.299	14286
852.434	14336
852.569	14366
852.703	14248
852.838	14332
852.973	14438
853.107	14450
853.242	14259
853.376	14199
853.511	14073
853.645	14111
853.78	14221
853.914	14123
854.048	14149
854.183	14180
854.317	14153
854.451	14351
854.585	14172
854.72	14031
854.854	14195
854.988	14073
855.122	14195
855.256	13986
855.39	14119
855.524	14278
855.658	14145
855.792	14168
855.926	14229
856.06	14119
856.194	14313
856.327	14161
856.461	14077
856.595	13982
856.729	14195
856.862	14183
856.996	14221
857.13	14172
857.263	14191
857.397	14225
857.53	14123
857.664	14263
857.797	14187
857.931	14309
858.064	14244
858.197	14282
858.331	14157
858.464	14161
858.597	14054
858.731	14134
858.864	14130
858.997	14103
859.13	14145
859.263	14225
859.396	14263
859.529	14149
859.662	14119
859.795	14096
859.928	14202
860.061	14282
860.194	14210
860.327	14210
860.46	14081
860.592	14172
860.725	14343
860.858	14225
860.99	14138
861.123	14088
861.256	14096
861.388	14153
861.521	14998
861.653	14020
861.786	13978
861.918	13974
862.05	14046
862.183	14077
862.315	14290
862.447	14096
862.58	14069
862.712	13974
862.844	13780
862.976	14039
863.108	13997
863.24	14267
863.372	13845
863.504	13925
863.636	13871
863.768	13963
863.9	13970
864.032	13791
864.164	13959
864.296	14031
864.428	13951
864.559	14107
864.691	14024
864.823	14008
864.954	13963
865.086	13944
865.217	13776
865.349	13795
865.48	13856
865.612	13894
865.743	14065
865.875	13898
866.006	13940
866.137	13936
866.269	13944
866.4	13860
866.531	13909
866.662	13917
866.793	13841
866.924	13940
867.055	13940
867.186	13970
867.317	13902
867.448	13864
867.579	13841
867.71	13826
867.841	13814
867.972	13913
868.103	13921
868.233	13932
868.364	13917
868.495	14001
868.625	14180
868.756	14252
868.886	14024
869.017	14183
869.147	14275
869.278	14233
869.408	14130
869.539	14180
869.669	14374
869.799	14214
869.929	14351
870.06	14290
870.19	14480
870.32	14484
870.45	14518
870.58	14606
870.71	14724
870.84	14689
870.97	14598
871.1	14492
871.23	14716
871.36	14811
871.489	14636
871.619	14758
871.749	14773
871.879	14796
872.008	14921
872.138	14785
872.267	14765
872.397	14773
872.526	14606
872.656	14640
872.785	14629
872.915	14765
873.044	14941
873.173	14785
873.303	14864
873.432	14868
873.561	14842
873.69	14853
873.819	14864
873.948	14887
874.077	14731
874.206	14716
874.335	14849
874.464	14925
874.593	15116
874.722	14971
874.851	15203
874.979	15070
875.108	15180
875.237	15058
875.365	15062
875.494	15161
875.623	15214
875.751	15161
875.88	15123
876.008	15249
876.136	15382
876.265	15644
876.393	15690
876.521	15576
876.65	15690
876.778	15580
876.906	15568
877.034	15450
877.162	15500
877.29	15557
877.418	15599
877.546	15622
877.674	15603
877.802	15564
877.93	15538
878.058	15538
878.185	15485
878.313	15511
878.441	15568
878.568	15325
878.696	15538
878.824	15625
878.951	15576
879.079	15698
879.206	15797
879.333	15720
879.461	15618
879.588	15675
879.715	15770
879.842	15819
879.97	15641
880.097	15443
880.224	15469
880.351	15466
880.478	15412
880.605	15424
880.732	15348
880.859	15770
880.986	15458
881.112	15469
881.239	15344
881.366	15230
881.493	15146
881.619	15013
881.746	15020
881.872	15058
881.999	14979
882.125	15024
882.252	15161
882.378	15135
882.505	15173
882.631	15028
882.757	14883
882.883	14960
883.01	14849
883.136	14823
883.262	14823
883.388	14701
883.514	14929
883.64	15001
883.766	14876
883.892	14621
884.018	14689
884.143	14826
884.269	14986
884.395	14731
884.52	14655
884.646	14655
884.772	14636
884.897	14507
885.023	14640
885.148	14720
885.274	14655
885.399	14735
885.524	14587
885.65	14648
885.775	14617
885.9	14602
886.025	14705
886.15	14674
886.275	14495
886.4	14507
886.525	14575
886.65	14431
886.775	14541
886.9	14724
887.025	14792
887.149	14625
887.274	14469
887.399	14320
887.523	14423
887.648	14408
887.773	14355
887.897	14537
888.021	14514
888.146	14408
888.27	14526
888.395	14556
888.519	14492
888.643	14431
888.767	14469
888.891	14362
889.015	14267
889.139	14324
889.263	14275
889.387	14351
889.511	14499
889.635	14389
889.759	14309
889.883	14358
890.006	14381
890.13	14404
890.254	14218
890.377	14119
890.501	14084
890.624	14107
890.748	14145
890.871	14043
890.995	13913
891.118	13902
891.241	13951
891.364	13947
891.488	14157
891.611	13959
891.734	14005
891.857	14035
891.98	13936
892.103	14050
892.226	14054
892.349	13883
892.471	13830
892.594	14027
892.717	14050
892.839	13940
892.962	14046
893.085	14115
893.207	13951
893.33	14008
893.452	13955
893.575	14058
893.697	13917
893.819	14225
893.941	14271
894.064	14145
894.186	13959
894.308	13921
894.43	14107
894.552	14244
894.674	14180
894.796	13944
894.918	13986
895.04	14065
895.161	14084
895.283	14187
895.405	13982
895.526	14145
895.648	14088
895.769	14084
895.891	14214
896.012	14176
896.134	14168
896.255	14214
896.376	14172
896.498	14221
896.619	14180
896.74	14161
896.861	14385
896.982	14442
897.103	14568
897.224	14526
897.345	14473
897.466	14301
897.587	14518
897.708	14560
897.828	14492
897.949	14393
898.07	14263
898.19	14404
898.311	14587
898.431	14473
898.552	14484
898.672	14644
898.792	14583
898.913	14514
899.033	14522
899.153	14351
899.273	14332
899.393	14370
899.513	14374
899.633	14309
899.753	14396
899.873	14324
899.993	14396
900.113	14351
900.232	14442
900.352	14275
900.472	14218
900.591	14332
900.711	14218
900.83	14199
900.95	14343
901.069	14309
901.189	14172
901.308	14035
901.427	14020
901.546	13947
901.665	13909
901.784	13944
901.904	13845
902.023	13704
902.141	13655
902.26	13369
902.379	13559
902.498	13518
902.617	13392
902.735	13499
902.854	13472
902.973	13346
903.091	13168
903.21	13175
903.328	13137
903.446	13133
903.565	12916
903.683	13057
903.801	12996
903.919	13008
904.038	12989
904.156	12882
904.274	13050
904.392	12901
904.51	12829
904.627	12954
904.745	12928
904.863	12958
904.981	12738
905.098	12589
905.216	12589
905.334	12616
905.451	12669
905.569	12532
905.686	12551
905.803	12627
905.921	12407
906.038	12506
906.155	12376
906.272	12330
906.389	12350
906.506	12194
906.623	12155
906.74	12152
906.857	11992
906.974	12091
907.091	12194
907.208	12262
907.324	12232
907.441	12053
907.557	11931
907.674	11885
907.79	11832
907.907	11794
908.023	11939
908.139	11969
908.256	11878
908.372	11805
908.488	11836
908.604	11661
908.72	11707
908.836	11733
908.952	11630
909.068	11562
909.184	11802
909.3	11581
909.415	11756
909.531	11646
909.647	11501
909.762	11474
909.878	11383
909.993	11551
910.108	11421
910.224	11421
910.339	11376
910.454	11379
910.57	11299
910.685	11288
910.8	11455
910.915	11471
911.03	11372
911.145	11117
911.259	11178
911.374	11102
911.489	10999
911.604	11018
911.718	10843
911.833	10972
911.947	10786
912.062	10725
912.176	10866
912.291	10877
912.405	10850
912.519	11094
912.633	11140
912.748	10965
912.862	10908
912.976	10805
913.09	10691
913.204	10748
913.318	10847
913.431	10904
913.545	10862
913.659	10904
913.772	10790
913.886	10714
914	10561
914.113	10782
914.226	10774
914.34	10755
914.453	10542
914.566	10733
914.68	10698
914.793	10558
914.906	10428
915.019	10360
915.132	10322
915.245	10363
915.358	10394
915.47	10466
915.583	10394
915.696	10413
915.809	10519
915.921	10542
916.034	10371
916.146	10371
916.259	10329
916.371	10485
916.483	10333
916.595	10360
916.708	10344
916.82	10394
916.932	10280
917.044	10333
917.156	10352
917.268	10230
917.38	10268
917.491	10135
917.603	10219
917.715	10322
917.826	10344
917.938	10242
918.049	10135
918.161	10261
918.272	10455
918.384	10436
918.495	10284
918.606	10120
918.717	10097
918.828	10071
918.939	10116
919.05	10021
919.161	10128
919.272	9915
919.383	9926
919.494	10154
919.604	10314
919.715	10227
919.826	10120
919.936	10101
920.047	10207
920.157	10154
920.267	10303
920.378	10238
920.488	10086
920.598	10379
920.708	10470
920.818	10352
920.928	10394
921.038	10489
921.148	10493
921.258	10150
921.368	10055
921.477	10048
921.587	9968
921.697	9838
921.806	10040
921.916	9892
922.025	9766
922.134	9781
922.244	9652
922.353	9819
922.462	9629
922.571	9572
922.68	9382
922.789	9325
922.898	9397
923.007	9355
923.116	9416
923.224	9447
923.333	9382
923.442	9268
923.55	9275
923.659	9306
923.767	9401
923.876	9272
923.984	9298
924.092	9264
924.201	9279
924.309	9237
924.417	9283
924.525	9192
924.633	9237
924.741	10086
924.849	9066
924.956	9253
925.064	9081
925.172	9005
925.279	8979
925.387	9074
925.494	8986
925.602	9188
925.709	9119
925.816	9051
925.924	9032
926.031	9207
926.138	9184
926.245	9142
926.352	9039
926.459	9043
926.566	9116
926.673	9032
926.779	8914
926.886	8933
926.993	8792
927.099	8773
927.206	8659
927.312	8727
927.419	8849
927.525	8773
927.631	8819
927.737	8720
927.843	8640
927.95	8598
928.056	8651
928.162	8655
928.267	8739
928.373	9184
928.479	8731
928.585	8480
928.69	8655
928.796	8746
928.901	8625
929.007	8446
929.112	8594
929.218	8499
929.323	8484
929.428	8484
929.533	8579
929.638	8480
929.743	8488
929.848	8537
929.953	8457
930.058	8438
930.163	8370
930.267	8279
930.372	8419
930.477	8248
930.581	8434
930.685	8351
930.79	8244
930.894	8210
930.998	8214
931.103	8332
931.207	7997
931.311	7906
931.415	7890
931.519	7792
931.623	7712
