Data from test_V78500241_2281.txt Node
Date: Fri Mar 25 14:49:35 CST 2022
User: usil
Spectrometer: V785-0024
Trigger mode: 0
Integration Time (sec): 4.000000E-1
Scans to average: 1
Nonlinearity correction enabled: false
Boxcar width: 0
Storing dark spectrum: false
XAxis mode: Wavelengths
Number of Pixels in Spectrum: 1024
>>>>>Begin Spectral Data<<<<<
801.071	22131
801.214	22067
801.356	21846
801.499	21610
801.641	21568
801.783	21462
801.926	21561
802.068	21447
802.211	21481
802.353	21256
802.496	21100
802.638	21005
802.78	20998
802.923	20838
803.065	20857
803.208	20849
803.35	20910
803.492	20979
803.635	21013
803.777	20971
803.919	20952
804.061	21279
804.204	20967
804.346	20845
804.488	20689
804.63	20765
804.773	20716
804.915	20773
805.057	20887
805.199	20769
805.341	20899
805.483	20811
805.626	20857
805.768	20743
805.91	20762
806.052	20823
806.194	20640
806.336	20861
806.478	20746
806.62	20792
806.762	20800
806.904	20994
807.046	21226
807.188	21066
807.33	21199
807.472	21173
807.614	21047
807.756	21005
807.898	20979
808.04	20845
808.182	20724
808.324	20956
808.465	20872
808.607	21039
808.749	21188
808.891	21363
809.033	21321
809.174	21260
809.316	21184
809.458	21195
809.6	21138
809.741	21359
809.883	21214
810.025	21389
810.166	21397
810.308	21477
810.45	21169
810.591	21272
810.733	21131
810.875	21032
811.016	20944
811.158	20823
811.299	21028
811.441	21211
811.582	21047
811.724	21024
811.865	20857
812.007	21009
812.148	20929
812.29	21013
812.431	21104
812.573	21249
812.714	21405
812.855	21416
812.997	21561
813.138	21606
813.279	21671
813.421	21511
813.562	21321
813.703	21306
813.845	21066
813.986	20902
814.127	20678
814.268	20503
814.41	20469
814.551	20537
814.692	20545
814.833	20454
814.974	20549
815.115	20484
815.256	20301
815.397	20317
815.539	20408
815.68	20214
815.821	20199
815.962	20225
816.103	20183
816.244	20115
816.385	20008
816.526	19989
816.666	19803
816.807	19723
816.948	19772
817.089	19795
817.23	19689
817.371	19639
817.512	19613
817.653	19662
817.793	19502
817.934	19651
818.075	19529
818.216	19590
818.356	19567
818.497	19422
818.638	19259
818.778	19407
818.919	19282
819.06	19270
819.2	19430
819.341	19529
819.481	19552
819.622	19586
819.762	19849
819.903	19849
820.043	19635
820.184	19666
820.324	19586
820.465	19597
820.605	19571
820.746	19639
820.886	19590
821.026	19613
821.167	19521
821.307	19696
821.447	19620
821.588	19449
821.728	19400
821.868	19263
822.008	19031
822.149	19103
822.289	19042
822.429	18711
822.569	18692
822.709	18730
822.849	18627
822.99	18471
823.13	18479
823.27	18498
823.41	18327
823.55	18262
823.69	18395
823.83	18353
823.97	18129
824.11	18068
824.25	18106
824.389	18133
824.529	18209
824.669	18125
824.809	18098
824.949	18197
825.089	18110
825.228	18129
825.368	17965
825.508	17931
825.648	17912
825.787	17927
825.927	17893
826.067	17969
826.206	17748
826.346	17931
826.485	17874
826.625	17904
826.765	17885
826.904	17840
827.044	17638
827.183	17634
827.323	17627
827.462	17813
827.601	17554
827.741	17558
827.88	17646
828.02	17383
828.159	17554
828.298	17585
828.437	17646
828.577	17478
828.716	17699
828.855	17596
828.994	17311
829.134	17311
829.273	17429
829.412	17216
829.551	17341
829.69	17326
829.829	17326
829.968	17376
830.107	17356
830.246	17322
830.385	17330
830.524	17227
830.663	17200
830.802	17071
830.941	17052
831.08	16908
831.219	17159
831.357	17006
831.496	17235
831.635	16972
831.774	16881
831.913	16694
832.051	16767
832.19	16816
832.329	16694
832.467	16653
832.606	16516
832.744	16542
832.883	16607
833.022	16558
833.16	16656
833.299	16607
833.437	16622
833.576	16653
833.714	16637
833.852	16713
833.991	16626
834.129	16755
834.267	16763
834.406	16634
834.544	16713
834.682	16736
834.821	16626
834.959	16744
835.097	16596
835.235	16809
835.373	16725
835.511	16634
835.65	16615
835.788	16550
835.926	16440
836.064	16405
836.202	16344
836.34	16542
836.478	16588
836.615	16508
836.753	16493
836.891	16645
837.029	16596
837.167	16607
837.305	16417
837.443	16455
837.58	16363
837.718	16493
837.856	16516
837.993	16261
838.131	16462
838.269	16363
838.406	16253
838.544	16238
838.681	16055
838.819	16116
838.956	16006
839.094	16021
839.231	15975
839.369	16059
839.506	16318
839.643	16226
839.781	15998
839.918	15869
840.055	15972
840.193	15994
840.33	15983
840.467	15934
840.604	15975
840.742	16143
840.879	15785
841.016	15861
841.153	15895
841.29	16067
841.427	15949
841.564	15953
841.701	15918
841.838	15861
841.975	15857
842.112	15854
842.249	15804
842.385	15774
842.522	15850
842.659	15808
842.796	15736
842.933	15736
843.069	15675
843.206	15610
843.343	15770
843.479	15728
843.616	15816
843.752	15500
843.889	15519
844.025	15717
844.162	15561
844.298	15538
844.435	15519
844.571	15458
844.708	15603
844.844	15644
844.98	15694
845.117	15709
845.253	15511
845.389	15485
845.525	15469
845.661	15348
845.798	15226
845.934	15287
846.07	15272
846.206	15363
846.342	15488
846.478	15363
846.614	15150
846.75	15047
846.886	15108
847.022	15108
847.158	15108
847.294	15157
847.429	15093
847.565	15089
847.701	15363
847.837	14842
847.972	14731
848.108	14925
848.244	14990
848.379	14762
848.515	14708
848.65	14610
848.786	14796
848.921	14743
849.057	14883
849.192	14796
849.328	14667
849.463	14705
849.598	14777
849.734	14613
849.869	14617
850.004	14503
850.14	14533
850.275	14560
850.41	14431
850.545	14396
850.68	14434
850.815	14351
850.95	14526
851.085	14651
851.22	14594
851.355	14473
851.49	14385
851.625	14507
851.76	14457
851.895	14294
852.03	14339
852.165	14514
852.299	14400
852.434	14533
852.569	14473
852.703	14427
852.838	14450
852.973	14594
853.107	14648
853.242	14469
853.376	14324
853.511	14161
853.645	14195
853.78	14423
853.914	14336
854.048	14244
854.183	14355
854.317	14263
854.451	14469
854.585	14298
854.72	14328
854.854	14400
854.988	14233
855.122	14370
855.256	14199
855.39	14294
855.524	14419
855.658	14377
855.792	14332
855.926	14404
856.06	14389
856.194	14484
856.327	14351
856.461	14332
856.595	14218
856.729	14240
856.862	14423
856.996	14362
857.13	14347
857.263	14518
857.397	14499
857.53	14343
857.664	14362
857.797	14427
857.931	14419
858.064	14252
858.197	14442
858.331	14362
858.464	14252
858.597	14176
858.731	14343
858.864	14355
858.997	14336
859.13	14370
859.263	14339
859.396	14442
859.529	14271
859.662	14324
859.795	14278
859.928	14389
860.061	14492
860.194	14533
860.327	14457
860.46	14317
860.592	14336
860.725	14305
860.858	14503
860.99	14248
861.123	14252
861.256	14252
861.388	14305
861.521	14944
861.653	14229
861.786	14096
861.918	14237
862.05	14355
862.183	14278
862.315	14309
862.447	14313
862.58	14267
862.712	14054
862.844	14077
862.976	14058
863.108	14103
863.24	14358
863.372	14005
863.504	14115
863.636	14012
863.768	14123
863.9	14115
864.032	13997
864.164	14046
864.296	14145
864.428	14263
864.559	14225
864.691	14130
864.823	14168
864.954	14233
865.086	14191
865.217	14024
865.349	13974
865.48	14088
865.612	14035
865.743	14180
865.875	14161
866.006	14046
866.137	14145
866.269	14206
866.4	14054
866.531	14062
866.662	13970
866.793	14001
866.924	14054
867.055	14103
867.186	14123
867.317	13970
867.448	14088
867.579	13974
867.71	14039
867.841	13955
867.972	13997
868.103	14096
868.233	14092
868.364	14046
868.495	14107
868.625	14309
868.756	14454
868.886	14298
869.017	14320
869.147	14442
869.278	14393
869.408	14320
869.539	14339
869.669	14419
869.799	14393
869.929	14396
870.06	14400
870.19	14659
870.32	14533
870.45	14617
870.58	14716
870.71	14868
870.84	14796
870.97	14815
871.1	14625
871.23	14979
871.36	14982
871.489	14857
871.619	14891
871.749	14842
871.879	15001
872.008	14956
872.138	14880
872.267	14887
872.397	14804
872.526	14777
872.656	14701
872.785	14815
872.915	14952
873.044	15020
873.173	14921
873.303	14937
873.432	15104
873.561	14979
873.69	15013
873.819	14990
873.948	15070
874.077	14887
874.206	14872
874.335	14998
874.464	15074
874.593	15294
874.722	15256
874.851	15279
874.979	15370
875.108	15264
875.237	15138
875.365	15230
875.494	15230
875.623	15329
875.751	15150
875.88	15329
876.008	15386
876.136	15599
876.265	15671
876.393	15918
876.521	15793
876.65	15857
876.778	15709
876.906	15717
877.034	15641
877.162	15717
877.29	15644
877.418	15660
877.546	15762
877.674	15686
877.802	15747
877.93	15717
878.058	15526
878.185	15622
878.313	15667
878.441	15633
878.568	15507
878.696	15614
878.824	15751
878.951	15770
879.079	15861
879.206	15979
879.333	15873
879.461	15610
879.588	15713
879.715	15838
879.842	16044
879.97	15766
880.097	15599
880.224	15462
880.351	15572
880.478	15507
880.605	15477
880.732	15526
880.859	15827
880.986	15622
881.112	15587
881.239	15492
881.366	15291
881.493	15230
881.619	15123
881.746	15264
881.872	15108
881.999	15226
882.125	15070
882.252	15241
882.378	15214
882.505	15294
882.631	15051
882.757	14971
882.883	14990
883.01	15020
883.136	14975
883.262	14834
883.388	14849
883.514	14986
883.64	15138
883.766	14842
883.892	14765
884.018	14819
884.143	14906
884.269	15142
884.395	14788
884.52	14773
884.646	14712
884.772	14598
884.897	14606
885.023	14712
885.148	14872
885.274	14853
885.399	14716
885.524	14765
885.65	14720
885.775	14731
885.9	14697
886.025	14804
886.15	14754
886.275	14682
886.4	14613
886.525	14632
886.65	14632
886.775	14674
886.9	14765
887.025	14937
887.149	14708
887.274	14598
887.399	14484
887.523	14526
887.648	14465
887.773	14461
887.897	14697
888.021	14644
888.146	14518
888.27	14678
888.395	14598
888.519	14625
888.643	14731
888.767	14682
888.891	14408
889.015	14415
889.139	14393
889.263	14495
889.387	14549
889.511	14598
889.635	14613
889.759	14457
889.883	14446
890.006	14381
890.13	14492
890.254	14305
890.377	14309
890.501	14142
890.624	14237
890.748	14358
890.871	14229
890.995	14134
891.118	13982
891.241	14164
891.364	14046
891.488	14294
891.611	14145
891.734	14123
891.857	14138
891.98	14062
892.103	14100
892.226	14187
892.349	14168
892.471	13951
892.594	14069
892.717	14107
892.839	14103
892.962	14073
893.085	14130
893.207	14073
893.33	13959
893.452	14054
893.575	14134
893.697	14096
893.819	14267
893.941	14317
894.064	14195
894.186	14153
894.308	14103
894.43	14214
894.552	14358
894.674	14206
894.796	14096
894.918	14134
895.04	14172
895.161	14244
895.283	14263
895.405	14187
895.526	14153
895.648	14240
895.769	14328
895.891	14210
896.012	14336
896.134	14377
896.255	14248
896.376	14313
896.498	14339
896.619	14404
896.74	14202
896.861	14320
896.982	14686
897.103	14823
897.224	14590
897.345	14552
897.466	14454
897.587	14632
897.708	14667
897.828	14613
897.949	14522
898.07	14400
898.19	14533
898.311	14644
898.431	14568
898.552	14697
898.672	14762
898.792	14655
898.913	14644
899.033	14560
899.153	14495
899.273	14434
899.393	14457
899.513	14503
899.633	14465
899.753	14545
899.873	14476
899.993	14484
900.113	14461
900.232	14503
900.352	14545
900.472	14362
900.591	14336
900.711	14457
900.83	14381
900.95	14419
901.069	14377
901.189	14271
901.308	14062
901.427	14058
901.546	14100
901.665	14035
901.784	14039
901.904	13940
902.023	13830
902.141	13613
902.26	13628
902.379	13708
902.498	13495
902.617	13514
902.735	13670
902.854	13670
902.973	13571
903.091	13392
903.21	13362
903.328	13331
903.446	13251
903.565	13270
903.683	13156
903.801	13088
903.919	13110
904.038	13076
904.156	13015
904.274	13126
904.392	12932
904.51	13000
904.627	12920
904.745	13065
904.863	13038
904.981	12768
905.098	12601
905.216	12738
905.334	12707
905.451	12734
905.569	12570
905.686	12738
905.803	12627
905.921	12525
906.038	12604
906.155	12494
906.272	12399
906.389	12452
906.506	12289
906.623	12289
906.74	12201
906.857	12205
906.974	12167
907.091	12338
907.208	12353
907.324	12338
907.441	12220
907.557	12007
907.674	11946
907.79	11969
907.907	11950
908.023	12045
908.139	12022
908.256	11973
908.372	11904
908.488	11996
908.604	11847
908.72	11699
908.836	11840
908.952	11767
909.068	11809
909.184	11855
909.3	11741
909.415	11832
909.531	11741
909.647	11653
909.762	11535
909.878	11592
909.993	11520
910.108	11501
910.224	11455
910.339	11646
910.454	11417
910.57	11368
910.685	11311
910.8	11657
910.915	11532
911.03	11414
911.145	11307
911.259	11212
911.374	11208
911.489	11143
911.604	11121
911.718	11022
911.833	11022
911.947	10908
912.062	10828
912.176	11010
912.291	11022
912.405	11018
912.519	11109
912.633	11201
912.748	11029
912.862	11067
912.976	10797
913.09	10771
913.204	10930
913.318	10858
913.431	10904
913.545	10949
913.659	10999
913.772	10923
913.886	10774
914	10831
914.113	10854
914.226	10866
914.34	10885
914.453	10664
914.566	10843
914.68	10683
914.793	10675
914.906	10497
915.019	10409
915.132	10424
915.245	10527
915.358	10474
915.47	10538
915.583	10580
915.696	10637
915.809	10664
915.921	10656
916.034	10500
916.146	10421
916.259	10417
916.371	10573
916.483	10603
916.595	10398
916.708	10428
916.82	10447
916.932	10481
917.044	10409
917.156	10379
917.268	10272
917.38	10367
917.491	10287
917.603	10394
917.715	10443
917.826	10352
917.938	10246
918.049	10238
918.161	10284
918.272	10459
918.384	10466
918.495	10337
918.606	10173
918.717	10234
918.828	10227
918.939	10268
919.05	10173
919.161	10131
919.272	9975
919.383	10105
919.494	10333
919.604	10443
919.715	10238
919.826	10188
919.936	10173
920.047	10261
920.157	10268
920.267	10421
920.378	10268
920.488	10268
920.598	10478
920.708	10504
920.818	10516
920.928	10413
921.038	10554
921.148	10561
921.258	10325
921.368	10147
921.477	10173
921.587	10048
921.697	9941
921.806	10143
921.916	9998
922.025	9854
922.134	9736
922.244	9751
922.353	9789
922.462	9679
922.571	9641
922.68	9534
922.789	9408
922.898	9492
923.007	9348
923.116	9549
923.224	9496
923.333	9526
923.442	9485
923.55	9378
923.659	9405
923.767	9420
923.876	9317
923.984	9397
924.092	9397
924.201	9325
924.309	9329
924.417	9370
924.525	9264
924.633	9291
924.741	10322
924.849	9173
924.956	9275
925.064	9138
925.172	9062
925.279	9062
925.387	9119
925.494	9180
925.602	9256
925.709	9203
925.816	9058
925.924	9142
926.031	9203
926.138	9142
926.245	9264
926.352	9116
926.459	9249
926.566	9298
926.673	9100
926.779	9005
926.886	9009
926.993	8849
927.099	8807
927.206	8826
927.312	8815
927.419	8891
927.525	8834
927.631	8834
927.737	8746
927.843	8762
927.95	8705
928.056	8655
928.162	8720
928.267	8849
928.373	9454
928.479	8823
928.585	8613
928.69	8743
928.796	8766
928.901	8629
929.007	8530
929.112	8644
929.218	8689
929.323	8632
929.428	8564
929.533	8659
929.638	8480
929.743	8594
929.848	8644
929.953	8537
930.058	8408
930.163	8324
930.267	8355
930.372	8461
930.477	8294
930.581	8503
930.685	8396
930.79	8259
930.894	8358
930.998	8237
931.103	8419
931.207	8096
931.311	7967
931.415	7982
931.519	7761
931.623	7769
