Data from test_V78500241_3415.txt Node
Date: Fri Mar 25 14:57:29 CST 2022
User: usil
Spectrometer: V785-0024
Trigger mode: 0
Integration Time (sec): 4.000000E-1
Scans to average: 1
Nonlinearity correction enabled: false
Boxcar width: 0
Storing dark spectrum: false
XAxis mode: Wavelengths
Number of Pixels in Spectrum: 1024
>>>>>Begin Spectral Data<<<<<
801.071	22063
801.214	21823
801.356	21606
801.499	21542
801.641	21538
801.783	21260
801.926	21420
802.068	21260
802.211	21142
802.353	21119
802.496	20891
802.638	20826
802.78	20754
802.923	20777
803.065	20549
803.208	20705
803.35	20632
803.492	20762
803.635	20781
803.777	20655
803.919	20777
804.061	20952
804.204	20727
804.346	20579
804.488	20530
804.63	20686
804.773	20549
804.915	20575
805.057	20674
805.199	20522
805.341	20552
805.483	20579
805.626	20659
805.768	20522
805.91	20629
806.052	20598
806.194	20495
806.336	20708
806.478	20549
806.62	20469
806.762	20564
806.904	20830
807.046	21047
807.188	20876
807.33	20925
807.472	20925
807.614	20796
807.756	20872
807.898	20716
808.04	20526
808.182	20552
808.324	20670
808.465	20655
808.607	20800
808.749	20960
808.891	20975
809.033	21104
809.174	20876
809.316	20883
809.458	20918
809.6	20777
809.741	21024
809.883	21020
810.025	21024
810.166	21089
810.308	21058
810.45	20937
810.591	20804
810.733	20682
810.875	20746
811.016	20632
811.158	20499
811.299	20781
811.441	20800
811.582	20731
811.724	20689
811.865	20579
812.007	20667
812.148	20678
812.29	20697
812.431	20792
812.573	20921
812.714	21123
812.855	21188
812.997	21131
813.138	21348
813.279	21272
813.421	21058
813.562	21055
813.703	20895
813.845	20807
813.986	20583
814.127	20317
814.268	20172
814.41	20210
814.551	20309
814.692	20115
814.833	20024
814.974	20180
815.115	20039
815.256	19963
815.397	20107
815.539	20062
815.68	19932
815.821	19913
815.962	19925
816.103	19921
816.244	19769
816.385	19643
816.526	19670
816.666	19563
816.807	19373
816.948	19415
817.089	19453
817.23	19343
817.371	19434
817.512	19362
817.653	19301
817.793	19221
817.934	19255
818.075	19304
818.216	19312
818.356	19350
818.497	19141
818.638	19015
818.778	19069
818.919	19019
819.06	19061
819.2	19129
819.341	19171
819.481	19285
819.622	19247
819.762	19514
819.903	19457
820.043	19430
820.184	19221
820.324	19228
820.465	19304
820.605	19384
820.746	19221
820.886	19255
821.026	19190
821.167	19236
821.307	19331
821.447	19297
821.588	19050
821.728	19129
821.868	18848
822.008	18829
822.149	18791
822.289	18597
822.429	18479
822.569	18353
822.709	18391
822.849	18144
822.99	18216
823.13	18205
823.27	18228
823.41	18076
823.55	17988
823.69	17977
823.83	18091
823.97	17866
824.11	17756
824.25	17760
824.389	17805
824.529	17802
824.669	17756
824.809	17901
824.949	17878
825.089	17999
825.228	17794
825.368	17535
825.508	17509
825.648	17619
825.787	17592
825.927	17680
826.067	17535
826.206	17535
826.346	17505
826.485	17581
826.625	17615
826.765	17695
826.904	17532
827.044	17337
827.183	17292
827.323	17269
827.462	17280
827.601	17288
827.741	17178
827.88	17265
828.02	17220
828.159	17189
828.298	17242
828.437	17246
828.577	17208
828.716	17398
828.855	17166
828.994	17033
829.134	16961
829.273	17022
829.412	16995
829.551	16911
829.69	17094
829.829	17132
829.968	17010
830.107	17113
830.246	17079
830.385	16809
830.524	16965
830.663	17014
830.802	16767
830.941	16550
831.08	16660
831.219	16668
831.357	16687
831.496	16824
831.635	16641
831.774	16535
831.913	16527
832.051	16451
832.19	16432
832.329	16447
832.467	16314
832.606	16280
832.744	16257
832.883	16261
833.022	16276
833.16	16253
833.299	16310
833.437	16382
833.576	16356
833.714	16485
833.852	16485
833.991	16424
834.129	16527
834.267	16443
834.406	16325
834.544	16443
834.682	16432
834.821	16360
834.959	16561
835.097	16329
835.235	16436
835.373	16344
835.511	16436
835.65	16310
835.788	16291
835.926	16177
836.064	16074
836.202	16029
836.34	16325
836.478	16367
836.615	16287
836.753	16352
836.891	16344
837.029	16295
837.167	16192
837.305	16284
837.443	16207
837.58	16200
837.718	16287
837.856	16242
837.993	16150
838.131	16280
838.269	16124
838.406	16200
838.544	16025
838.681	16021
838.819	15895
838.956	15770
839.094	15724
839.231	15762
839.369	15861
839.506	16040
839.643	16013
839.781	15800
839.918	15724
840.055	15766
840.193	15781
840.33	15675
840.467	15739
840.604	15743
840.742	16059
840.879	15660
841.016	15622
841.153	15580
841.29	15774
841.427	15743
841.564	15869
841.701	15732
841.838	15686
841.975	15663
842.112	15610
842.249	15610
842.385	15401
842.522	15705
842.659	15545
842.796	15538
842.933	15519
843.069	15473
843.206	15416
843.343	15618
843.479	15614
843.616	15466
843.752	15378
843.889	15329
844.025	15511
844.162	15313
844.298	15435
844.435	15233
844.571	15268
844.708	15469
844.844	15473
844.98	15424
845.117	15526
845.253	15275
845.389	15154
845.525	15294
845.661	15161
845.798	15131
845.934	15180
846.07	15119
846.206	15169
846.342	15241
846.478	15127
846.614	14921
846.75	14785
846.886	14952
847.022	14979
847.158	14937
847.294	14868
847.429	14982
847.565	14785
847.701	15154
847.837	14716
847.972	14621
848.108	14743
848.244	14682
848.379	14552
848.515	14492
848.65	14450
848.786	14503
848.921	14427
849.057	14648
849.192	14621
849.328	14560
849.463	14560
849.598	14473
849.734	14480
849.869	14370
850.004	14153
850.14	14278
850.275	14267
850.41	14191
850.545	14149
850.68	14218
850.815	14377
850.95	14278
851.085	14457
851.22	14419
851.355	14309
851.49	14286
851.625	14199
851.76	14187
851.895	14172
852.03	14191
852.165	14176
852.299	14218
852.434	14294
852.569	14286
852.703	14214
852.838	14343
852.973	14381
853.107	14389
853.242	14324
853.376	14168
853.511	14043
853.645	14088
853.78	14263
853.914	14161
854.048	14176
854.183	14168
854.317	14073
854.451	14282
854.585	14031
854.72	14039
854.854	14176
854.988	14111
855.122	14107
855.256	13989
855.39	14145
855.524	14043
855.658	14191
855.792	14214
855.926	14134
856.06	14145
856.194	14252
856.327	14176
856.461	14016
856.595	14073
856.729	14081
856.862	14271
856.996	14256
857.13	14282
857.263	14244
857.397	14320
857.53	14084
857.664	14172
857.797	14157
857.931	14301
858.064	14157
858.197	14294
858.331	14126
858.464	14126
858.597	14084
858.731	14062
858.864	14138
858.997	14103
859.13	14199
859.263	14206
859.396	14286
859.529	14130
859.662	13944
859.795	14145
859.928	14206
860.061	14271
860.194	14301
860.327	14202
860.46	14187
860.592	14206
860.725	14286
860.858	14244
860.99	14157
861.123	14077
861.256	14107
861.388	14107
861.521	14845
861.653	14130
861.786	13887
861.918	14046
862.05	14043
862.183	14081
862.315	14111
862.447	14161
862.58	14046
862.712	13963
862.844	13887
862.976	14005
863.108	13947
863.24	14377
863.372	13833
863.504	13913
863.636	13913
863.768	14001
863.9	13811
864.032	13909
864.164	13807
864.296	14020
864.428	14020
864.559	14008
864.691	14008
864.823	13936
864.954	13890
865.086	13921
865.217	13959
865.349	13849
865.48	13970
865.612	13940
865.743	14054
865.875	13902
866.006	14020
866.137	13852
866.269	13993
866.4	13860
866.531	13871
866.662	13871
866.793	13875
866.924	13913
867.055	13928
867.186	13818
867.317	13731
867.448	13902
867.579	13845
867.71	13852
867.841	13780
867.972	13856
868.103	13959
868.233	13963
868.364	13856
868.495	14016
868.625	14142
868.756	14267
868.886	14115
869.017	14088
869.147	14358
869.278	14229
869.408	14199
869.539	14062
869.669	14282
869.799	14168
869.929	14339
870.06	14172
870.19	14480
870.32	14408
870.45	14476
870.58	14484
870.71	14659
870.84	14682
870.97	14495
871.1	14503
871.23	14758
871.36	14682
871.489	14594
871.619	14606
871.749	14777
871.879	14705
872.008	14807
872.138	14724
872.267	14735
872.397	14579
872.526	14621
872.656	14682
872.785	14613
872.915	14727
873.044	14891
873.173	14899
873.303	14826
873.432	14796
873.561	14883
873.69	14769
873.819	14781
873.948	14887
874.077	14800
874.206	14834
874.335	14754
874.464	14952
874.593	15146
874.722	15138
874.851	15165
874.979	15176
875.108	15245
875.237	15112
875.365	15066
875.494	15077
875.623	15203
875.751	15036
875.88	15119
876.008	15233
876.136	15329
876.265	15606
876.393	15778
876.521	15698
876.65	15584
876.778	15511
876.906	15420
877.034	15557
877.162	15549
877.29	15492
877.418	15526
877.546	15671
877.674	15553
877.802	15553
877.93	15564
878.058	15435
878.185	15416
878.313	15397
878.441	15462
878.568	15439
878.696	15466
878.824	15538
878.951	15625
879.079	15713
879.206	15816
879.333	15713
879.461	15610
879.588	15637
879.715	15778
879.842	15884
879.97	15625
880.097	15313
880.224	15336
880.351	15374
880.478	15382
880.605	15313
880.732	15317
880.859	15553
880.986	15374
881.112	15367
881.239	15195
881.366	15233
881.493	15074
881.619	14979
881.746	15104
881.872	15020
881.999	15051
882.125	14960
882.252	15077
882.378	15157
882.505	15287
882.631	15001
882.757	14868
882.883	14845
883.01	14845
883.136	14834
883.262	14727
883.388	14621
883.514	14948
883.64	14986
883.766	14883
883.892	14686
884.018	14617
884.143	14830
884.269	14971
884.395	14617
884.52	14503
884.646	14545
884.772	14514
884.897	14514
885.023	14575
885.148	14610
885.274	14708
885.399	14636
885.524	14621
885.65	14507
885.775	14590
885.9	14575
886.025	14598
886.15	14724
886.275	14549
886.4	14564
886.525	14526
886.65	14423
886.775	14461
886.9	14750
887.025	14815
887.149	14579
887.274	14507
887.399	14377
887.523	14358
887.648	14298
887.773	14294
887.897	14514
888.021	14423
888.146	14389
888.27	14495
888.395	14560
888.519	14492
888.643	14442
888.767	14495
888.891	14305
889.015	14149
889.139	14271
889.263	14263
889.387	14469
889.511	14541
889.635	14393
889.759	14229
889.883	14393
890.006	14298
890.13	14461
890.254	14248
890.377	14237
890.501	14142
890.624	14119
890.748	14111
890.871	13963
890.995	13925
891.118	13841
891.241	13997
891.364	13997
891.488	14115
891.611	13868
891.734	14031
891.857	13887
891.98	13959
892.103	14024
892.226	13989
892.349	13932
892.471	13860
892.594	14054
892.717	13856
892.839	13986
892.962	13921
893.085	14001
893.207	13982
893.33	13875
893.452	13860
893.575	14031
893.697	13974
893.819	14081
893.941	14153
894.064	14153
894.186	13947
894.308	13902
894.43	14130
894.552	14123
894.674	14096
894.796	13845
894.918	14043
895.04	13982
895.161	14050
895.283	14092
895.405	13963
895.526	14062
895.648	14115
895.769	14130
895.891	14191
896.012	14191
896.134	14123
896.255	14214
896.376	14073
896.498	14202
896.619	14210
896.74	14195
896.861	14187
896.982	14533
897.103	14579
897.224	14442
897.345	14347
897.466	14446
897.587	14339
897.708	14488
897.828	14434
897.949	14427
898.07	14225
898.19	14374
898.311	14530
898.431	14419
898.552	14602
898.672	14480
898.792	14587
898.913	14610
899.033	14488
899.153	14328
899.273	14275
899.393	14404
899.513	14412
899.633	14374
899.753	14286
899.873	14355
899.993	14469
900.113	14305
900.232	14381
900.352	14328
900.472	14157
900.591	14206
900.711	14271
900.83	14210
900.95	14206
901.069	14267
901.189	14180
901.308	13982
901.427	13909
901.546	13833
901.665	13898
901.784	13932
901.904	13875
902.023	13658
902.141	13582
902.26	13480
902.379	13616
902.498	13518
902.617	13430
902.735	13419
902.854	13320
902.973	13430
903.091	13168
903.21	13168
903.328	13206
903.446	13084
903.565	13103
903.683	13042
903.801	12913
903.919	12981
904.038	13000
904.156	12913
904.274	12901
904.392	12833
904.51	12833
904.627	12791
904.745	12928
904.863	12966
904.981	12722
905.098	12582
905.216	12540
905.334	12509
905.451	12544
905.569	12525
905.686	12585
905.803	12570
905.921	12414
906.038	12418
906.155	12380
906.272	12254
906.389	12277
906.506	12136
906.623	12136
906.74	12102
906.857	12011
906.974	12030
907.091	12155
907.208	12285
907.324	12178
907.441	12083
907.557	11920
907.674	11973
907.79	11920
907.907	11828
908.023	11946
908.139	11950
908.256	11809
908.372	11802
908.488	11882
908.604	11642
908.72	11642
908.836	11699
908.952	11661
909.068	11615
909.184	11722
909.3	11672
909.415	11722
909.531	11661
909.647	11440
909.762	11448
909.878	11433
909.993	11486
910.108	11452
910.224	11379
910.339	11448
910.454	11322
910.57	11159
910.685	11231
910.8	11532
910.915	11505
911.03	11299
911.145	11170
911.259	11136
911.374	11159
911.489	10995
911.604	11014
911.718	10869
911.833	10904
911.947	10782
912.062	10675
912.176	10915
912.291	10835
912.405	10809
912.519	11090
912.633	11102
912.748	10949
912.862	10915
912.976	10698
913.09	10637
913.204	10683
913.318	10790
913.431	10915
913.545	10900
913.659	10919
913.772	10729
913.886	10618
914	10641
914.113	10755
914.226	10824
914.34	10839
914.453	10561
914.566	10717
914.68	10687
914.793	10596
914.906	10459
915.019	10333
915.132	10322
915.245	10352
915.358	10447
915.47	10428
915.583	10470
915.696	10455
915.809	10527
915.921	10550
916.034	10367
916.146	10363
916.259	10417
916.371	10424
916.483	10394
916.595	10265
916.708	10303
916.82	10344
916.932	10348
917.044	10238
917.156	10287
917.268	10177
917.38	10181
917.491	10196
917.603	10314
917.715	10413
917.826	10348
917.938	10280
918.049	10082
918.161	10200
918.272	10333
918.384	10344
918.495	10246
918.606	10082
918.717	10021
918.828	10128
918.939	10135
919.05	9983
919.161	10143
919.272	9842
919.383	9968
919.494	10143
919.604	10314
919.715	10188
919.826	10116
919.936	10150
920.047	10188
920.157	10078
920.267	10341
920.378	10166
920.488	10086
920.598	10402
920.708	10478
920.818	10314
920.928	10367
921.038	10519
921.148	10440
921.258	10131
921.368	10044
921.477	10059
921.587	10044
921.697	9903
921.806	9979
921.916	9922
922.025	9698
922.134	9701
922.244	9694
922.353	9720
922.462	9648
922.571	9473
922.68	9348
922.789	9378
922.898	9473
923.007	9374
923.116	9443
923.224	9355
923.333	9359
923.442	9321
923.55	9241
923.659	9355
923.767	9306
923.876	9211
923.984	9310
924.092	9192
924.201	9142
924.309	9275
924.417	9287
924.525	9207
924.633	9287
924.741	10143
924.849	9058
924.956	9199
925.064	8971
925.172	8960
925.279	9005
925.387	9039
925.494	9055
925.602	9112
925.709	9104
925.816	8948
925.924	9001
926.031	9192
926.138	9001
926.245	9093
926.352	8982
926.459	9116
926.566	9150
926.673	8960
926.779	8914
926.886	8895
926.993	8766
927.099	8758
927.206	8731
927.312	8727
927.419	8838
927.525	8766
927.631	8826
927.737	8712
927.843	8587
927.95	8541
928.056	8667
928.162	8655
928.267	8670
928.373	9275
928.479	8788
928.585	8522
928.69	8602
928.796	8636
928.901	8579
929.007	8450
929.112	8522
929.218	8556
929.323	8503
929.428	8442
929.533	8682
929.638	8415
929.743	8415
929.848	8492
929.953	8431
930.058	8423
930.163	8233
930.267	8301
930.372	8465
930.477	8206
930.581	8427
930.685	8355
930.79	8111
930.894	8206
930.998	8187
931.103	8271
931.207	7989
931.311	7883
931.415	7792
931.519	7693
931.623	7685
