Data from test_V78500241_2910.txt Node
Date: Fri Mar 25 14:53:58 CST 2022
User: usil
Spectrometer: V785-0024
Trigger mode: 0
Integration Time (sec): 4.000000E-1
Scans to average: 1
Nonlinearity correction enabled: false
Boxcar width: 0
Storing dark spectrum: false
XAxis mode: Wavelengths
Number of Pixels in Spectrum: 1024
>>>>>Begin Spectral Data<<<<<
801.071	22242
801.214	21983
801.356	21652
801.499	21679
801.641	21530
801.783	21450
801.926	21374
802.068	21370
802.211	21412
802.353	21321
802.496	21039
802.638	21013
802.78	21013
802.923	20918
803.065	20686
803.208	20701
803.35	20830
803.492	20929
803.635	20895
803.777	20849
803.919	20830
804.061	21127
804.204	20739
804.346	20648
804.488	20693
804.63	20701
804.773	20583
804.915	20785
805.057	20720
805.199	20583
805.341	20765
805.483	20853
805.626	20731
805.768	20549
805.91	20659
806.052	20811
806.194	20518
806.336	20781
806.478	20674
806.62	20617
806.762	20727
806.904	20952
807.046	21062
807.188	20971
807.33	21062
807.472	21066
807.614	21028
807.756	21013
807.898	20872
808.04	20739
808.182	20758
808.324	20815
808.465	20781
808.607	20925
808.749	21192
808.891	21154
809.033	21188
809.174	21138
809.316	21005
809.458	21142
809.6	21047
809.741	21093
809.883	21180
810.025	21275
810.166	21207
810.308	21207
810.45	21241
810.591	21096
810.733	20849
810.875	20823
811.016	20754
811.158	20530
811.299	20982
811.441	21039
811.582	21005
811.724	20819
811.865	20823
812.007	20845
812.148	20743
812.29	20785
812.431	21028
812.573	21077
812.714	21207
812.855	21256
812.997	21351
813.138	21492
813.279	21435
813.421	21336
813.562	21306
813.703	21157
813.845	20986
813.986	20701
814.127	20442
814.268	20530
814.41	20396
814.551	20355
814.692	20431
814.833	20339
814.974	20339
815.115	20313
815.256	20248
815.397	20187
815.539	20244
815.68	20119
815.821	19989
815.962	20119
816.103	20111
816.244	19921
816.385	19944
816.526	19864
816.666	19700
816.807	19453
816.948	19685
817.089	19613
817.23	19506
817.371	19521
817.512	19487
817.653	19392
817.793	19438
817.934	19407
818.075	19506
818.216	19480
818.356	19403
818.497	19460
818.638	19202
818.778	19213
818.919	19274
819.06	19236
819.2	19236
819.341	19362
819.481	19384
819.622	19499
819.762	19681
819.903	19605
820.043	19506
820.184	19411
820.324	19354
820.465	19594
820.605	19449
820.746	19453
820.886	19312
821.026	19438
821.167	19373
821.307	19510
821.447	19358
821.588	19304
821.728	19202
821.868	19038
822.008	18779
822.149	18924
822.289	18977
822.429	18574
822.569	18563
822.709	18582
822.849	18399
822.99	18380
823.13	18357
823.27	18350
823.41	18167
823.55	18102
823.69	18064
823.83	18186
823.97	18114
824.11	17958
824.25	17916
824.389	18030
824.529	18041
824.669	17931
824.809	18057
824.949	18064
825.089	17939
825.228	17958
825.368	17779
825.508	17771
825.648	17729
825.787	17786
825.927	17764
826.067	17653
826.206	17589
826.346	17718
826.485	17653
826.625	17752
826.765	17840
826.904	17821
827.044	17471
827.183	17459
827.323	17459
827.462	17433
827.601	17372
827.741	17368
827.88	17452
828.02	17330
828.159	17509
828.298	17478
828.437	17391
828.577	17322
828.716	17600
828.855	17269
828.994	17212
829.134	17216
829.273	17147
829.412	17117
829.551	17071
829.69	17132
829.829	17235
829.968	17311
830.107	17330
830.246	17121
830.385	17124
830.524	16991
830.663	17086
830.802	16930
830.941	16847
831.08	16763
831.219	16942
831.357	16923
831.496	16968
831.635	16729
831.774	16763
831.913	16656
832.051	16615
832.19	16675
832.329	16675
832.467	16478
832.606	16516
832.744	16478
832.883	16523
833.022	16459
833.16	16554
833.299	16546
833.437	16504
833.576	16546
833.714	16527
833.852	16466
833.991	16459
834.129	16634
834.267	16443
834.406	16527
834.544	16504
834.682	16664
834.821	16577
834.959	16713
835.097	16428
835.235	16687
835.373	16462
835.511	16542
835.65	16535
835.788	16470
835.926	16306
836.064	16257
836.202	16166
836.34	16352
836.478	16546
836.615	16417
836.753	16447
836.891	16523
837.029	16523
837.167	16447
837.305	16322
837.443	16428
837.58	16314
837.718	16257
837.856	16310
837.993	16276
838.131	16310
838.269	16238
838.406	16268
838.544	16215
838.681	16029
838.819	15998
838.956	15823
839.094	15869
839.231	15873
839.369	16040
839.506	16226
839.643	16154
839.781	15960
839.918	15865
840.055	15774
840.193	15922
840.33	15785
840.467	15850
840.604	15759
840.742	16131
840.879	15580
841.016	15755
841.153	15751
841.29	15979
841.427	15800
841.564	15903
841.701	15899
841.838	15797
841.975	15774
842.112	15732
842.249	15614
842.385	15671
842.522	15835
842.659	15747
842.796	15564
842.933	15690
843.069	15523
843.206	15553
843.343	15797
843.479	15618
843.616	15584
843.752	15450
843.889	15389
844.025	15443
844.162	15275
844.298	15542
844.435	15378
844.571	15367
844.708	15473
844.844	15587
844.98	15576
845.117	15572
845.253	15355
845.389	15321
845.525	15370
845.661	15268
845.798	15211
845.934	15252
846.07	15176
846.206	15279
846.342	15378
846.478	15207
846.614	15081
846.75	14982
846.886	14998
847.022	15005
847.158	15024
847.294	15066
847.429	15013
847.565	14952
847.701	15256
847.837	14834
847.972	14781
848.108	14811
848.244	14739
848.379	14674
848.515	14575
848.65	14549
848.786	14648
848.921	14514
849.057	14590
849.192	14617
849.328	14575
849.463	14621
849.598	14480
849.734	14339
849.869	14473
850.004	14412
850.14	14461
850.275	14290
850.41	14301
850.545	14317
850.68	14324
850.815	14305
850.95	14393
851.085	14499
851.22	14476
851.355	14355
851.49	14370
851.625	14309
851.76	14336
851.895	14191
852.03	14286
852.165	14237
852.299	14389
852.434	14564
852.569	14393
852.703	14381
852.838	14507
852.973	14499
853.107	14484
853.242	14336
853.376	14240
853.511	14081
853.645	14221
853.78	14396
853.914	14187
854.048	14195
854.183	14183
854.317	14252
854.451	14351
854.585	14237
854.72	14199
854.854	14275
854.988	14172
855.122	14142
855.256	14134
855.39	14157
855.524	14313
855.658	14309
855.792	14294
855.926	14252
856.06	14324
856.194	14389
856.327	14206
856.461	14206
856.595	14142
856.729	14252
856.862	14259
856.996	14358
857.13	14214
857.263	14275
857.397	14400
857.53	14233
857.664	14191
857.797	14404
857.931	14320
858.064	14313
858.197	14298
858.331	14259
858.464	14168
858.597	14119
858.731	14183
858.864	14202
858.997	14214
859.13	14343
859.263	14263
859.396	14343
859.529	14233
859.662	14202
859.795	14157
859.928	14240
860.061	14339
860.194	14313
860.327	14290
860.46	14191
860.592	14400
860.725	14347
860.858	14366
860.99	14237
861.123	14161
861.256	14183
861.388	14225
861.521	14834
861.653	14096
861.786	14020
861.918	14100
862.05	14202
862.183	14168
862.315	14180
862.447	14389
862.58	14161
862.712	14031
862.844	13986
862.976	13959
863.108	14084
863.24	14358
863.372	13967
863.504	13944
863.636	14043
863.768	13997
863.9	14012
864.032	13898
864.164	13993
864.296	13967
864.428	14084
864.559	14107
864.691	14081
864.823	14016
864.954	13974
865.086	14027
865.217	14081
865.349	13887
865.48	13940
865.612	14012
865.743	14100
865.875	13974
866.006	13902
866.137	14001
866.269	13947
866.4	14008
866.531	13967
866.662	13959
866.793	13921
866.924	13913
867.055	13959
867.186	13982
867.317	13909
867.448	13925
867.579	13936
867.71	13906
867.841	13864
867.972	13986
868.103	13974
868.233	13978
868.364	14012
868.495	14065
868.625	14164
868.756	14305
868.886	14210
869.017	14206
869.147	14301
869.278	14298
869.408	14237
869.539	14206
869.669	14240
869.799	14286
869.929	14362
870.06	14282
870.19	14617
870.32	14552
870.45	14484
870.58	14556
870.71	14716
870.84	14792
870.97	14560
871.1	14697
871.23	14823
871.36	14796
871.489	14674
871.619	14743
871.749	14857
871.879	14857
872.008	14979
872.138	14807
872.267	14758
872.397	14746
872.526	14716
872.656	14693
872.785	14762
872.915	14773
873.044	14883
873.173	14876
873.303	14880
873.432	14887
873.561	14990
873.69	14906
873.819	14864
873.948	14857
874.077	14933
874.206	14807
874.335	14986
874.464	15039
874.593	15207
874.722	15108
874.851	15184
874.979	15214
875.108	15275
875.237	15150
875.365	15119
875.494	15127
875.623	15279
875.751	15116
875.88	15207
876.008	15443
876.136	15386
876.265	15686
876.393	15747
876.521	15751
876.65	15720
876.778	15671
876.906	15591
877.034	15526
877.162	15663
877.29	15595
877.418	15629
877.546	15686
877.674	15633
877.802	15595
877.93	15591
878.058	15492
878.185	15576
878.313	15587
878.441	15564
878.568	15370
878.696	15603
878.824	15549
878.951	15644
879.079	15743
879.206	15880
879.333	15774
879.461	15641
879.588	15739
879.715	15766
879.842	15911
879.97	15762
880.097	15507
880.224	15458
880.351	15511
880.478	15424
880.605	15359
880.732	15378
880.859	15686
880.986	15542
881.112	15473
881.239	15268
881.366	15218
881.493	15123
881.619	15180
881.746	15165
881.872	15077
881.999	15066
882.125	15165
882.252	15138
882.378	15222
882.505	15272
882.631	15097
882.757	14876
882.883	14956
883.01	14937
883.136	14883
883.262	14823
883.388	14811
883.514	14902
883.64	14933
883.766	14910
883.892	14735
884.018	14689
884.143	14921
884.269	15024
884.395	14796
884.52	14632
884.646	14594
884.772	14537
884.897	14587
885.023	14610
885.148	14712
885.274	14811
885.399	14781
885.524	14602
885.65	14640
885.775	14674
885.9	14598
886.025	14689
886.15	14705
886.275	14659
886.4	14568
886.525	14648
886.65	14549
886.775	14571
886.9	14785
887.025	14853
887.149	14594
887.274	14526
887.399	14419
887.523	14450
887.648	14332
887.773	14339
887.897	14465
888.021	14556
888.146	14476
888.27	14560
888.395	14610
888.519	14469
888.643	14678
888.767	14571
888.891	14320
889.015	14355
889.139	14385
889.263	14210
889.387	14393
889.511	14522
889.635	14381
889.759	14366
889.883	14282
890.006	14469
890.13	14393
890.254	14218
890.377	14320
890.501	14191
890.624	14096
890.748	14111
890.871	14088
890.995	13940
891.118	13997
891.241	13963
891.364	13997
891.488	14092
891.611	14081
891.734	14069
891.857	14084
891.98	14046
892.103	14103
892.226	14065
892.349	14039
892.471	13791
892.594	14050
892.717	14031
892.839	14012
892.962	14046
893.085	14119
893.207	14005
893.33	13921
893.452	13986
893.575	14149
893.697	14020
893.819	14263
893.941	14290
894.064	14218
894.186	13925
894.308	14073
894.43	14123
894.552	14244
894.674	14191
894.796	13959
894.918	14100
895.04	14195
895.161	14176
895.283	14161
895.405	14100
895.526	14073
895.648	14119
895.769	14229
895.891	14153
896.012	14294
896.134	14191
896.255	14233
896.376	14199
896.498	14282
896.619	14244
896.74	14172
896.861	14199
896.982	14587
897.103	14689
897.224	14530
897.345	14514
897.466	14317
897.587	14358
897.708	14598
897.828	14533
897.949	14396
898.07	14374
898.19	14492
898.311	14511
898.431	14579
898.552	14629
898.672	14689
898.792	14670
898.913	14598
899.033	14385
899.153	14511
899.273	14343
899.393	14412
899.513	14461
899.633	14408
899.753	14415
899.873	14400
899.993	14602
900.113	14404
900.232	14431
900.352	14438
900.472	14347
900.591	14180
900.711	14351
900.83	14206
900.95	14374
901.069	14385
901.189	14191
901.308	14073
901.427	13837
901.546	13860
901.665	14054
901.784	13993
901.904	13791
902.023	13769
902.141	13639
902.26	13441
902.379	13578
902.498	13472
902.617	13499
902.735	13483
902.854	13457
902.973	13441
903.091	13255
903.21	13289
903.328	13350
903.446	13236
903.565	13160
903.683	13046
903.801	12970
903.919	13031
904.038	13072
904.156	12947
904.274	13034
904.392	13000
904.51	12954
904.627	12966
904.745	12970
904.863	12962
904.981	12715
905.098	12631
905.216	12662
905.334	12635
905.451	12715
905.569	12608
905.686	12639
905.803	12589
905.921	12509
906.038	12551
906.155	12418
906.272	12319
906.389	12315
906.506	12220
906.623	12251
906.74	12205
906.857	12053
906.974	12152
907.091	12292
907.208	12338
907.324	12239
907.441	12091
907.557	11984
907.674	11920
907.79	11802
907.907	12019
908.023	12034
908.139	11950
908.256	11889
908.372	11790
908.488	11912
908.604	11729
908.72	11691
908.836	11699
908.952	11665
909.068	11703
909.184	11828
909.3	11779
909.415	11729
909.531	11714
909.647	11497
909.762	11467
909.878	11528
909.993	11505
910.108	11516
910.224	11463
910.339	11520
910.454	11322
910.57	11280
910.685	11311
910.8	11566
910.915	11459
911.03	11360
911.145	11235
911.259	11098
911.374	11220
911.489	11178
911.604	11041
911.718	10900
911.833	10904
911.947	10885
912.062	10687
912.176	10927
912.291	10984
912.405	10980
912.519	11064
912.633	11105
912.748	10953
912.862	10987
912.976	10885
913.09	10702
913.204	10721
913.318	10778
913.431	10957
913.545	10835
913.659	10976
913.772	10767
913.886	10774
914	10675
914.113	10812
914.226	10805
914.34	10843
914.453	10538
914.566	10793
914.68	10637
914.793	10630
914.906	10504
915.019	10409
915.132	10356
915.245	10421
915.358	10485
915.47	10363
915.583	10390
915.696	10462
915.809	10588
915.921	10504
916.034	10428
916.146	10318
916.259	10405
916.371	10459
916.483	10485
916.595	10356
916.708	10413
916.82	10333
916.932	10337
917.044	10322
917.156	10284
917.268	10253
917.38	10329
917.491	10242
917.603	10227
917.715	10303
917.826	10356
917.938	10268
918.049	10162
918.161	10242
918.272	10451
918.384	10402
918.495	10303
918.606	10143
918.717	10128
918.828	10181
918.939	10162
919.05	10101
919.161	10147
919.272	9941
919.383	10071
919.494	10215
919.604	10348
919.715	10181
919.826	10105
919.936	10154
920.047	10234
920.157	10162
920.267	10337
920.378	10200
920.488	10071
920.598	10322
920.708	10466
920.818	10375
920.928	10352
921.038	10550
921.148	10519
921.258	10185
921.368	10074
921.477	9994
921.587	10029
921.697	9899
921.806	10059
921.916	9911
922.025	9785
922.134	9728
922.244	9698
922.353	9755
922.462	9610
922.571	9599
922.68	9408
922.789	9397
922.898	9481
923.007	9454
923.116	9450
923.224	9397
923.333	9374
923.442	9348
923.55	9283
923.659	9348
923.767	9287
923.876	9359
923.984	9332
924.092	9214
924.201	9249
924.309	9306
924.417	9302
924.525	9260
924.633	9211
924.741	10173
924.849	9089
924.956	9302
925.064	9009
925.172	8994
925.279	9043
925.387	9104
925.494	9089
925.602	9188
925.709	9146
925.816	9013
925.924	9089
926.031	9131
926.138	9112
926.245	9104
926.352	8979
926.459	9142
926.566	9275
926.673	8998
926.779	8906
926.886	8971
926.993	8727
927.099	8777
927.206	8811
927.312	8705
927.419	8826
927.525	8788
927.631	8819
927.737	8720
927.843	8644
927.95	8590
928.056	8663
928.162	8625
928.267	8712
928.373	9378
928.479	8796
928.585	8583
928.69	8705
928.796	8712
928.901	8568
929.007	8514
929.112	8590
929.218	8514
929.323	8507
929.428	8507
929.533	8613
929.638	8488
929.743	8465
929.848	8537
929.953	8488
930.058	8446
930.163	8290
930.267	8271
930.372	8438
930.477	8202
930.581	8511
930.685	8355
930.79	8221
930.894	8233
930.998	8252
931.103	8385
931.207	8050
931.311	7940
931.415	7928
931.519	7727
931.623	7742
