Data from test_V78500241_2267.txt Node
Date: Fri Mar 25 14:49:29 CST 2022
User: usil
Spectrometer: V785-0024
Trigger mode: 0
Integration Time (sec): 4.000000E-1
Scans to average: 1
Nonlinearity correction enabled: false
Boxcar width: 0
Storing dark spectrum: false
XAxis mode: Wavelengths
Number of Pixels in Spectrum: 1024
>>>>>Begin Spectral Data<<<<<
801.071	22192
801.214	22006
801.356	21785
801.499	21739
801.641	21549
801.783	21561
801.926	21500
802.068	21481
802.211	21264
802.353	21416
802.496	21070
802.638	20998
802.78	21028
802.923	20979
803.065	20765
803.208	20838
803.35	20906
803.492	21020
803.635	20963
803.777	20735
803.919	20952
804.061	21275
804.204	20918
804.346	20758
804.488	20712
804.63	20777
804.773	20697
804.915	20804
805.057	20956
805.199	20937
805.341	20842
805.483	20948
805.626	20849
805.768	20750
805.91	20826
806.052	20777
806.194	20697
806.336	21013
806.478	20720
806.62	20739
806.762	20883
806.904	21005
807.046	21291
807.188	21036
807.33	21077
807.472	21131
807.614	21104
807.756	21123
807.898	20864
808.04	20902
808.182	20788
808.324	20956
808.465	20952
808.607	21005
808.749	21180
808.891	21466
809.033	21439
809.174	21329
809.316	21062
809.458	21207
809.6	21279
809.741	21321
809.883	21272
810.025	21294
810.166	21264
810.308	21275
810.45	21260
810.591	21192
810.733	21062
810.875	20967
811.016	20948
811.158	20762
811.299	20986
811.441	21108
811.582	21176
811.724	20952
811.865	21024
812.007	20956
812.148	20956
812.29	20906
812.431	21112
812.573	21275
812.714	21294
812.855	21393
812.997	21603
813.138	21660
813.279	21523
813.421	21447
813.562	21393
813.703	21226
813.845	21028
813.986	20876
814.127	20693
814.268	20476
814.41	20473
814.551	20461
814.692	20370
814.833	20507
814.974	20358
815.115	20473
815.256	20377
815.397	20278
815.539	20301
815.68	20343
815.821	20282
815.962	20259
816.103	20252
816.244	20020
816.385	19951
816.526	19982
816.666	19852
816.807	19613
816.948	19753
817.089	19807
817.23	19811
817.371	19575
817.512	19708
817.653	19670
817.793	19540
817.934	19677
818.075	19643
818.216	19674
818.356	19590
818.497	19445
818.638	19308
818.778	19247
818.919	19247
819.06	19221
819.2	19407
819.341	19464
819.481	19518
819.622	19738
819.762	19830
819.903	19841
820.043	19753
820.184	19548
820.324	19575
820.465	19826
820.605	19594
820.746	19616
820.886	19464
821.026	19544
821.167	19483
821.307	19540
821.447	19510
821.588	19373
821.728	19278
821.868	19114
822.008	19129
822.149	18966
822.289	18962
822.429	18760
822.569	18787
822.709	18677
822.849	18433
822.99	18521
823.13	18498
823.27	18475
823.41	18334
823.55	18330
823.69	18186
823.83	18251
823.97	18273
824.11	18152
824.25	18038
824.389	18072
824.529	18019
824.669	18133
824.809	18174
824.949	18171
825.089	18133
825.228	18091
825.368	17904
825.508	17901
825.648	17874
825.787	17870
825.927	17935
826.067	17889
826.206	17824
826.346	17863
826.485	17920
826.625	17870
826.765	17843
826.904	17843
827.044	17737
827.183	17509
827.323	17520
827.462	17630
827.601	17528
827.741	17528
827.88	17558
828.02	17440
828.159	17474
828.298	17615
828.437	17585
828.577	17528
828.716	17604
828.855	17592
828.994	17303
829.134	17334
829.273	17379
829.412	17277
829.551	17185
829.69	17299
829.829	17360
829.968	17379
830.107	17318
830.246	17216
830.385	17151
830.524	17235
830.663	17094
830.802	16953
830.941	16911
831.08	16904
831.219	16957
831.357	17010
831.496	17151
831.635	16828
831.774	16790
831.913	16668
832.051	16660
832.19	16592
832.329	16649
832.467	16596
832.606	16542
832.744	16554
832.883	16485
833.022	16577
833.16	16466
833.299	16637
833.437	16626
833.576	16656
833.714	16691
833.852	16653
833.991	16573
834.129	16729
834.267	16656
834.406	16641
834.544	16706
834.682	16535
834.821	16634
834.959	16793
835.097	16615
835.235	16679
835.373	16599
835.511	16656
835.65	16584
835.788	16478
835.926	16341
836.064	16322
836.202	16341
836.34	16516
836.478	16554
836.615	16466
836.753	16535
836.891	16588
837.029	16436
837.167	16481
837.305	16474
837.443	16462
837.58	16329
837.718	16474
837.856	16360
837.993	16261
838.131	16367
838.269	16261
838.406	16299
838.544	16249
838.681	16158
838.819	16051
838.956	15899
839.094	15880
839.231	15972
839.369	15998
839.506	16306
839.643	16139
839.781	15941
839.918	15873
840.055	15991
840.193	15915
840.33	15941
840.467	15937
840.604	15953
840.742	16204
840.879	15873
841.016	15800
841.153	15857
841.29	16074
841.427	15975
841.564	15972
841.701	15899
841.838	15812
841.975	15865
842.112	15922
842.249	15705
842.385	15610
842.522	15865
842.659	15724
842.796	15713
842.933	15679
843.069	15694
843.206	15671
843.343	15850
843.479	15682
843.616	15751
843.752	15500
843.889	15519
844.025	15561
844.162	15443
844.298	15584
844.435	15439
844.571	15443
844.708	15584
844.844	15671
844.98	15732
845.117	15629
845.253	15389
845.389	15412
845.525	15542
845.661	15359
845.798	15279
845.934	15302
846.07	15211
846.206	15351
846.342	15416
846.478	15218
846.614	15157
846.75	15066
846.886	15032
847.022	15074
847.158	15070
847.294	15036
847.429	15009
847.565	15013
847.701	15313
847.837	14735
847.972	14800
848.108	14937
848.244	14876
848.379	14678
848.515	14682
848.65	14708
848.786	14701
848.921	14644
849.057	14720
849.192	14765
849.328	14708
849.463	14625
849.598	14571
849.734	14602
849.869	14552
850.004	14461
850.14	14465
850.275	14404
850.41	14339
850.545	14396
850.68	14412
850.815	14423
850.95	14450
851.085	14598
851.22	14488
851.355	14476
851.49	14377
851.625	14400
851.76	14362
851.895	14256
852.03	14301
852.165	14332
852.299	14358
852.434	14480
852.569	14431
852.703	14465
852.838	14457
852.973	14571
853.107	14526
853.242	14511
853.376	14225
853.511	14221
853.645	14229
853.78	14412
853.914	14290
854.048	14233
854.183	14290
854.317	14298
854.451	14492
854.585	14298
854.72	14294
854.854	14377
854.988	14229
855.122	14301
855.256	14123
855.39	14221
855.524	14355
855.658	14332
855.792	14343
855.926	14328
856.06	14400
856.194	14389
856.327	14263
856.461	14149
856.595	14206
856.729	14229
856.862	14351
856.996	14427
857.13	14358
857.263	14404
857.397	14393
857.53	14263
857.664	14404
857.797	14305
857.931	14518
858.064	14412
858.197	14374
858.331	14336
858.464	14119
858.597	14206
858.731	14172
858.864	14286
858.997	14286
859.13	14271
859.263	14309
859.396	14408
859.529	14214
859.662	14164
859.795	14244
859.928	14290
860.061	14545
860.194	14476
860.327	14328
860.46	14214
860.592	14355
860.725	14393
860.858	14499
860.99	14259
861.123	14210
861.256	14233
861.388	14336
861.521	14823
861.653	14077
861.786	14107
861.918	14096
862.05	14252
862.183	14282
862.315	14317
862.447	14343
862.58	14263
862.712	14024
862.844	13978
862.976	14107
863.108	14027
863.24	14290
863.372	14020
863.504	14008
863.636	13997
863.768	14092
863.9	14073
864.032	13932
864.164	14050
864.296	14096
864.428	14126
864.559	14126
864.691	14149
864.823	14107
864.954	14046
865.086	14153
865.217	14081
865.349	13974
865.48	14031
865.612	14142
865.743	14130
865.875	14016
866.006	14054
866.137	14073
866.269	14081
866.4	14024
866.531	13959
866.662	13982
866.793	14005
866.924	14081
867.055	14096
867.186	14062
867.317	13970
867.448	13947
867.579	14016
867.71	13974
867.841	14001
867.972	14149
868.103	14012
868.233	14027
868.364	14065
868.495	14103
868.625	14275
868.756	14381
868.886	14176
869.017	14339
869.147	14404
869.278	14381
869.408	14393
869.539	14275
869.669	14347
869.799	14336
869.929	14427
870.06	14419
870.19	14602
870.32	14629
870.45	14594
870.58	14701
870.71	14777
870.84	14769
870.97	14727
871.1	14754
871.23	14895
871.36	14891
871.489	14746
871.619	14948
871.749	14960
871.879	14895
872.008	14975
872.138	14914
872.267	14883
872.397	14754
872.526	14686
872.656	14716
872.785	14830
872.915	14902
873.044	14986
873.173	14883
873.303	15017
873.432	14960
873.561	15017
873.69	15013
873.819	15009
873.948	15051
874.077	14929
874.206	14994
874.335	14944
874.464	15127
874.593	15184
874.722	15192
874.851	15374
874.979	15207
875.108	15313
875.237	15268
875.365	15093
875.494	15195
875.623	15344
875.751	15161
875.88	15355
876.008	15340
876.136	15545
876.265	15698
876.393	15827
876.521	15690
876.65	15701
876.778	15625
876.906	15663
877.034	15641
877.162	15641
877.29	15675
877.418	15606
877.546	15576
877.674	15606
877.802	15557
877.93	15599
878.058	15580
878.185	15656
878.313	15564
878.441	15690
878.568	15553
878.696	15667
878.824	15743
878.951	15690
879.079	15850
879.206	16017
879.333	15861
879.461	15724
879.588	15747
879.715	15956
879.842	16090
879.97	15751
880.097	15519
880.224	15568
880.351	15523
880.478	15625
880.605	15492
880.732	15462
880.859	15671
880.986	15564
881.112	15500
881.239	15348
881.366	15329
881.493	15173
881.619	15150
881.746	15249
881.872	15127
881.999	15203
882.125	15203
882.252	15287
882.378	15218
882.505	15287
882.631	15077
882.757	14960
882.883	15104
883.01	14998
883.136	14975
883.262	14807
883.388	14868
883.514	14975
883.64	15184
883.766	14948
883.892	14811
884.018	14864
884.143	14975
884.269	15154
884.395	14765
884.52	14663
884.646	14712
884.772	14708
884.897	14530
885.023	14727
885.148	14849
885.274	14880
885.399	14849
885.524	14720
885.65	14758
885.775	14861
885.9	14625
886.025	14788
886.15	14781
886.275	14765
886.4	14461
886.525	14670
886.65	14644
886.775	14602
886.9	14899
887.025	14902
887.149	14758
887.274	14568
887.399	14545
887.523	14461
887.648	14381
887.773	14511
887.897	14613
888.021	14598
888.146	14480
888.27	14594
888.395	14705
888.519	14549
888.643	14579
888.767	14579
888.891	14473
889.015	14457
889.139	14377
889.263	14347
889.387	14412
889.511	14610
889.635	14518
889.759	14358
889.883	14419
890.006	14419
890.13	14484
890.254	14286
890.377	14343
890.501	14180
890.624	14172
890.748	14225
890.871	14138
890.995	13993
891.118	14008
891.241	14012
891.364	14134
891.488	14263
891.611	14088
891.734	14126
891.857	14111
891.98	14176
892.103	14225
892.226	14218
892.349	14088
892.471	13913
892.594	14081
892.717	14024
892.839	14035
892.962	14119
893.085	14069
893.207	14145
893.33	14027
893.452	14035
893.575	14077
893.697	14031
893.819	14263
893.941	14294
894.064	14214
894.186	14077
894.308	14043
894.43	14161
894.552	14385
894.674	14172
894.796	14012
894.918	14077
895.04	14119
895.161	14320
895.283	14218
895.405	14142
895.526	14153
895.648	14191
895.769	14229
895.891	14282
896.012	14328
896.134	14309
896.255	14286
896.376	14225
896.498	14256
896.619	14301
896.74	14252
896.861	14343
896.982	14552
897.103	14678
897.224	14587
897.345	14552
897.466	14427
897.587	14503
897.708	14613
897.828	14556
897.949	14488
898.07	14317
898.19	14480
898.311	14667
898.431	14655
898.552	14583
898.672	14739
898.792	14594
898.913	14636
899.033	14507
899.153	14480
899.273	14374
899.393	14438
899.513	14450
899.633	14476
899.753	14488
899.873	14400
899.993	14488
900.113	14457
900.232	14465
900.352	14393
900.472	14450
900.591	14332
900.711	14366
900.83	14313
900.95	14469
901.069	14454
901.189	14221
901.308	14149
901.427	14062
901.546	13993
901.665	14111
901.784	14031
901.904	13890
902.023	13795
902.141	13655
902.26	13537
902.379	13651
902.498	13537
902.617	13624
902.735	13537
902.854	13586
902.973	13510
903.091	13297
903.21	13297
903.328	13278
903.446	13225
903.565	13187
903.683	13171
903.801	13038
903.919	13129
904.038	13209
904.156	13015
904.274	13061
904.392	12970
904.51	12928
904.627	12966
904.745	13057
904.863	12871
904.981	12764
905.098	12616
905.216	12741
905.334	12654
905.451	12654
905.569	12582
905.686	12726
905.803	12650
905.921	12574
906.038	12604
906.155	12445
906.272	12380
906.389	12330
906.506	12289
906.623	12277
906.74	12277
906.857	12129
906.974	12087
907.091	12338
907.208	12475
907.324	12330
907.441	12144
907.557	11980
907.674	12034
907.79	11912
907.907	12041
908.023	11984
908.139	12022
908.256	11885
908.372	11950
908.488	11950
908.604	11863
908.72	11707
908.836	11760
908.952	11722
909.068	11771
909.184	11866
909.3	11775
909.415	11832
909.531	11756
909.647	11524
909.762	11528
909.878	11501
909.993	11493
910.108	11524
910.224	11482
910.339	11558
910.454	11421
910.57	11379
910.685	11337
910.8	11589
910.915	11520
911.03	11444
911.145	11208
911.259	11227
911.374	11212
911.489	11113
911.604	11124
911.718	11014
911.833	10991
911.947	10934
912.062	10797
912.176	11010
912.291	10942
912.405	10972
912.519	11178
912.633	11193
912.748	11052
912.862	10946
912.976	10889
913.09	10717
913.204	10774
913.318	10949
913.431	10911
913.545	10923
913.659	10987
913.772	10866
913.886	10774
914	10672
914.113	10847
914.226	10824
914.34	10805
914.453	10733
914.566	10805
914.68	10782
914.793	10645
914.906	10538
915.019	10485
915.132	10417
915.245	10405
915.358	10421
915.47	10485
915.583	10531
915.696	10512
915.809	10622
915.921	10702
916.034	10546
916.146	10451
916.259	10341
916.371	10565
916.483	10504
916.595	10405
916.708	10390
916.82	10417
916.932	10344
917.044	10344
917.156	10417
917.268	10333
917.38	10325
917.491	10261
917.603	10284
917.715	10455
917.826	10443
917.938	10314
918.049	10230
918.161	10284
918.272	10451
918.384	10485
918.495	10303
918.606	10227
918.717	10131
918.828	10227
918.939	10211
919.05	10082
919.161	10196
919.272	10048
919.383	10139
919.494	10219
919.604	10443
919.715	10207
919.826	10173
919.936	10124
920.047	10242
920.157	10219
920.267	10481
920.378	10230
920.488	10325
920.598	10409
920.708	10569
920.818	10447
920.928	10360
921.038	10565
921.148	10569
921.258	10299
921.368	10139
921.477	10131
921.587	10059
921.697	9945
921.806	10090
921.916	9979
922.025	9850
922.134	9800
922.244	9732
922.353	9854
922.462	9671
922.571	9648
922.68	9416
922.789	9530
922.898	9519
923.007	9428
923.116	9492
923.224	9488
923.333	9481
923.442	9401
923.55	9348
923.659	9435
923.767	9473
923.876	9241
923.984	9408
924.092	9386
924.201	9310
924.309	9321
924.417	9310
924.525	9313
924.633	9310
924.741	10242
924.849	9123
924.956	9192
925.064	9062
925.172	9100
925.279	9100
925.387	9142
925.494	9043
925.602	9325
925.709	9184
925.816	9043
925.924	9154
926.031	9264
926.138	9161
926.245	9112
926.352	9005
926.459	9249
926.566	9165
926.673	9020
926.779	8971
926.886	8902
926.993	8853
927.099	8796
927.206	8845
927.312	8800
927.419	8975
927.525	8902
927.631	8952
927.737	8769
927.843	8705
927.95	8617
928.056	8701
928.162	8773
928.267	8834
928.373	9382
928.479	8876
928.585	8648
928.69	8667
928.796	8739
928.901	8629
929.007	8526
929.112	8629
929.218	8651
929.323	8530
929.428	8583
929.533	8689
929.638	8537
929.743	8511
929.848	8594
929.953	8575
930.058	8499
930.163	8358
930.267	8339
930.372	8461
930.477	8225
930.581	8594
930.685	8377
930.79	8309
930.894	8351
930.998	8305
931.103	8305
931.207	8043
931.311	8031
931.415	8020
931.519	7753
931.623	7753
