Data from test_V78500241_3566.txt Node
Date: Fri Mar 25 14:58:32 CST 2022
User: usil
Spectrometer: V785-0024
Trigger mode: 0
Integration Time (sec): 4.000000E-1
Scans to average: 1
Nonlinearity correction enabled: false
Boxcar width: 0
Storing dark spectrum: false
XAxis mode: Wavelengths
Number of Pixels in Spectrum: 1024
>>>>>Begin Spectral Data<<<<<
801.071	22002
801.214	21766
801.356	21599
801.499	21340
801.641	21447
801.783	21256
801.926	21237
802.068	21214
802.211	21256
802.353	20986
802.496	20811
802.638	20914
802.78	20712
802.923	20716
803.065	20423
803.208	20602
803.35	20689
803.492	20648
803.635	20667
803.777	20575
803.919	20670
804.061	20960
804.204	20590
804.346	20594
804.488	20522
804.63	20625
804.773	20465
804.915	20651
805.057	20625
805.199	20362
805.341	20636
805.483	20629
805.626	20571
805.768	20370
805.91	20438
806.052	20579
806.194	20374
806.336	20659
806.478	20473
806.62	20431
806.762	20545
806.904	20754
807.046	21005
807.188	20883
807.33	20762
807.472	20921
807.614	20819
807.756	20655
807.898	20667
808.04	20636
808.182	20609
808.324	20629
808.465	20594
808.607	20762
808.749	20853
808.891	20979
809.033	20998
809.174	20960
809.316	20861
809.458	20830
809.6	20956
809.741	20941
809.883	20933
810.025	20994
810.166	21085
810.308	20868
810.45	20963
810.591	21013
810.733	20762
810.875	20739
811.016	20678
811.158	20499
811.299	20636
811.441	20804
811.582	20724
811.724	20712
811.865	20583
812.007	20556
812.148	20556
812.29	20697
812.431	20792
812.573	20868
812.714	20975
812.855	21074
812.997	21203
813.138	21367
813.279	21275
813.421	21127
813.562	20998
813.703	20899
813.845	20804
813.986	20492
814.127	20317
814.268	20248
814.41	20301
814.551	20172
814.692	20176
814.833	20122
814.974	20115
815.115	20286
815.256	20062
815.397	19993
815.539	20092
815.68	19909
815.821	19883
815.962	19951
816.103	19826
816.244	19674
816.385	19674
816.526	19628
816.666	19521
816.807	19206
816.948	19373
817.089	19419
817.23	19430
817.371	19259
817.512	19274
817.653	19282
817.793	19259
817.934	19384
818.075	19392
818.216	19270
818.356	19209
818.497	19046
818.638	18901
818.778	19015
818.919	19042
819.06	19148
819.2	19057
819.341	19171
819.481	19118
819.622	19400
819.762	19480
819.903	19320
820.043	19373
820.184	19221
820.324	19278
820.465	19381
820.605	19183
820.746	19232
820.886	19129
821.026	19266
821.167	19327
821.307	19266
821.447	19213
821.588	19156
821.728	19080
821.868	18886
822.008	18715
822.149	18703
822.289	18734
822.429	18418
822.569	18448
822.709	18357
822.849	18201
822.99	18270
823.13	18159
823.27	18095
823.41	18110
823.55	18007
823.69	18057
823.83	18015
823.97	17977
824.11	17737
824.25	17760
824.389	17817
824.529	17794
824.669	17703
824.809	17935
824.949	17821
825.089	17733
825.228	17794
825.368	17535
825.508	17585
825.648	17600
825.787	17642
825.927	17535
826.067	17459
826.206	17520
826.346	17547
826.485	17611
826.625	17535
826.765	17585
826.904	17562
827.044	17318
827.183	17315
827.323	17315
827.462	17307
827.601	17280
827.741	17185
827.88	17223
828.02	16987
828.159	17155
828.298	17292
828.437	17368
828.577	17277
828.716	17414
828.855	17239
828.994	16927
829.134	16923
829.273	16991
829.412	17056
829.551	16968
829.69	17022
829.829	16991
829.968	17045
830.107	17098
830.246	17159
830.385	16980
830.524	16847
830.663	16774
830.802	16615
830.941	16607
831.08	16683
831.219	16740
831.357	16622
831.496	16885
831.635	16630
831.774	16485
831.913	16527
832.051	16363
832.19	16436
832.329	16470
832.467	16318
832.606	16272
832.744	16295
832.883	16306
833.022	16379
833.16	16287
833.299	16344
833.437	16348
833.576	16246
833.714	16466
833.852	16443
833.991	16398
834.129	16402
834.267	16447
834.406	16440
834.544	16405
834.682	16371
834.821	16451
834.959	16527
835.097	16318
835.235	16493
835.373	16424
835.511	16303
835.65	16257
835.788	16223
835.926	16097
836.064	16051
836.202	16109
836.34	16303
836.478	16417
836.615	16276
836.753	16379
836.891	16287
837.029	16257
837.167	16265
837.305	16196
837.443	16169
837.58	16181
837.718	16249
837.856	16124
837.993	16097
838.131	16219
838.269	16147
838.406	16192
838.544	16074
838.681	15937
838.819	15876
838.956	15694
839.094	15797
839.231	15838
839.369	15907
839.506	16128
839.643	16051
839.781	15781
839.918	15629
840.055	15781
840.193	15781
840.33	15739
840.467	15618
840.604	15755
840.742	15918
840.879	15584
841.016	15717
841.153	15660
841.29	15831
841.427	15667
841.564	15793
841.701	15667
841.838	15629
841.975	15660
842.112	15717
842.249	15553
842.385	15534
842.522	15701
842.659	15637
842.796	15386
842.933	15568
843.069	15462
843.206	15492
843.343	15580
843.479	15534
843.616	15466
843.752	15351
843.889	15233
844.025	15329
844.162	15260
844.298	15416
844.435	15317
844.571	15302
844.708	15313
844.844	15428
844.98	15564
845.117	15424
845.253	15230
845.389	15241
845.525	15199
845.661	15310
845.798	15112
845.934	15070
846.07	15070
846.206	15093
846.342	15317
846.478	15116
846.614	14963
846.75	14960
846.886	14834
847.022	14948
847.158	14800
847.294	14925
847.429	15017
847.565	14765
847.701	15169
847.837	14613
847.972	14590
848.108	14712
848.244	14602
848.379	14518
848.515	14408
848.65	14431
848.786	14427
848.921	14526
849.057	14549
849.192	14659
849.328	14465
849.463	14537
849.598	14476
849.734	14457
849.869	14366
850.004	14320
850.14	14377
850.275	14259
850.41	14218
850.545	14214
850.68	14161
850.815	14309
850.95	14187
851.085	14320
851.22	14389
851.355	14229
851.49	14278
851.625	14275
851.76	14218
851.895	14164
852.03	14176
852.165	14259
852.299	14267
852.434	14374
852.569	14305
852.703	14317
852.838	14313
852.973	14434
853.107	14298
853.242	14214
853.376	14142
853.511	13993
853.645	14168
853.78	14187
853.914	14168
854.048	14103
854.183	14126
854.317	14130
854.451	14248
854.585	14145
854.72	14065
854.854	14172
854.988	14005
855.122	14065
855.256	14020
855.39	14081
855.524	14256
855.658	14225
855.792	14134
855.926	14191
856.06	14126
856.194	14252
856.327	14157
856.461	14073
856.595	14130
856.729	14027
856.862	14275
856.996	14164
857.13	14123
857.263	14221
857.397	14240
857.53	14100
857.664	14183
857.797	14161
857.931	14202
858.064	14225
858.197	14328
858.331	14119
858.464	14119
858.597	14031
858.731	14164
858.864	14103
858.997	14008
859.13	14183
859.263	14180
859.396	14187
859.529	14024
859.662	14111
859.795	14084
859.928	14084
860.061	14271
860.194	14366
860.327	14111
860.46	14035
860.592	14275
860.725	14282
860.858	14195
860.99	14107
861.123	14149
861.256	14031
861.388	14153
861.521	15005
861.653	13970
861.786	13887
861.918	13955
862.05	14020
862.183	14001
862.315	14119
862.447	14176
862.58	14073
862.712	13940
862.844	13845
862.976	14027
863.108	13925
863.24	14339
863.372	13841
863.504	13856
863.636	13811
863.768	13947
863.9	13963
864.032	13852
864.164	13963
864.296	14092
864.428	14005
864.559	14008
864.691	13989
864.823	13959
864.954	13989
865.086	13864
865.217	13898
865.349	13860
865.48	13822
865.612	13849
865.743	13970
865.875	13898
866.006	13921
866.137	13826
866.269	13959
866.4	13902
866.531	13776
866.662	13734
866.793	13784
866.924	13879
867.055	13894
867.186	13860
867.317	13871
867.448	13845
867.579	13780
867.71	13856
867.841	13772
867.972	13887
868.103	13845
868.233	13860
868.364	13875
868.495	14008
868.625	14107
868.756	14202
868.886	14088
869.017	14123
869.147	14282
869.278	14259
869.408	14191
869.539	14286
869.669	14256
869.799	14233
869.929	14237
870.06	14176
870.19	14488
870.32	14408
870.45	14511
870.58	14556
870.71	14629
870.84	14610
870.97	14617
871.1	14526
871.23	14693
871.36	14735
871.489	14667
871.619	14777
871.749	14830
871.879	14743
872.008	14906
872.138	14811
872.267	14674
872.397	14575
872.526	14507
872.656	14499
872.785	14632
872.915	14830
873.044	14853
873.173	14876
873.303	14762
873.432	14800
873.561	14902
873.69	14724
873.819	14838
873.948	14952
874.077	14815
874.206	14800
874.335	14758
874.464	14956
874.593	15039
874.722	15009
874.851	15119
874.979	15184
875.108	15207
875.237	15055
875.365	15024
875.494	15077
875.623	15230
875.751	15062
875.88	15093
876.008	15214
876.136	15325
876.265	15450
876.393	15724
876.521	15572
876.65	15641
876.778	15504
876.906	15481
877.034	15488
877.162	15584
877.29	15519
877.418	15587
877.546	15553
877.674	15542
877.802	15428
877.93	15530
878.058	15439
878.185	15511
878.313	15534
878.441	15488
878.568	15431
878.696	15428
878.824	15553
878.951	15625
879.079	15698
879.206	15888
879.333	15667
879.461	15511
879.588	15614
879.715	15713
879.842	15827
879.97	15576
880.097	15344
880.224	15336
880.351	15431
880.478	15374
880.605	15424
880.732	15348
880.859	15587
880.986	15462
881.112	15378
881.239	15302
881.366	15119
881.493	15024
881.619	15112
881.746	15009
881.872	15100
881.999	14998
882.125	15032
882.252	15077
882.378	15013
882.505	15104
882.631	14948
882.757	14834
882.883	14899
883.01	14963
883.136	14845
883.262	14754
883.388	14792
883.514	14929
883.64	14933
883.766	14807
883.892	14754
884.018	14678
884.143	14895
884.269	15039
884.395	14689
884.52	14594
884.646	14575
884.772	14503
884.897	14537
885.023	14663
885.148	14625
885.274	14762
885.399	14743
885.524	14590
885.65	14610
885.775	14594
885.9	14602
886.025	14686
886.15	14712
886.275	14488
886.4	14537
886.525	14564
886.65	14537
886.775	14541
886.9	14750
887.025	14792
887.149	14606
887.274	14488
887.399	14415
887.523	14370
887.648	14305
887.773	14317
887.897	14507
888.021	14492
888.146	14446
888.27	14629
888.395	14537
888.519	14473
888.643	14541
888.767	14522
888.891	14355
889.015	14301
889.139	14332
889.263	14309
889.387	14389
889.511	14492
889.635	14442
889.759	14298
889.883	14252
890.006	14290
890.13	14339
890.254	14180
890.377	14244
890.501	14111
890.624	14123
890.748	14168
890.871	13955
890.995	14020
891.118	14016
891.241	14012
891.364	14020
891.488	14126
891.611	14138
891.734	13913
891.857	14119
891.98	13970
892.103	14020
892.226	14210
892.349	13917
892.471	13845
892.594	13963
892.717	14031
892.839	13963
892.962	14008
893.085	14043
893.207	13940
893.33	13928
893.452	13944
893.575	14035
893.697	13989
893.819	14100
893.941	14202
894.064	14183
894.186	13986
894.308	13944
894.43	14145
894.552	14199
894.674	14218
894.796	13890
894.918	14065
895.04	14119
895.161	14214
895.283	14126
895.405	13955
895.526	14180
895.648	14157
895.769	14259
895.891	14240
896.012	14130
896.134	14233
896.255	14195
896.376	14126
896.498	14187
896.619	14157
896.74	14130
896.861	14339
896.982	14484
897.103	14769
897.224	14377
897.345	14366
897.466	14370
897.587	14450
897.708	14583
897.828	14484
897.949	14404
898.07	14267
898.19	14423
898.311	14613
898.431	14427
898.552	14518
898.672	14598
898.792	14640
898.913	14507
899.033	14400
899.153	14336
899.273	14317
899.393	14324
899.513	14366
899.633	14339
899.753	14385
899.873	14374
899.993	14408
900.113	14362
900.232	14465
900.352	14313
900.472	14336
900.591	14172
900.711	14332
900.83	14180
900.95	14343
901.069	14404
901.189	14252
901.308	13997
901.427	13917
901.546	13913
901.665	13959
901.784	14005
901.904	13837
902.023	13746
902.141	13521
902.26	13487
902.379	13472
902.498	13457
902.617	13434
902.735	13491
902.854	13419
902.973	13411
903.091	13247
903.21	13133
903.328	13202
903.446	13145
903.565	13046
903.683	13088
903.801	13012
903.919	13126
904.038	13069
904.156	12935
904.274	12935
904.392	12829
904.51	12897
904.627	12878
904.745	12985
904.863	12905
904.981	12642
905.098	12612
905.216	12566
905.334	12574
905.451	12681
905.569	12593
905.686	12631
905.803	12578
905.921	12361
906.038	12528
906.155	12437
906.272	12308
906.389	12262
906.506	12194
906.623	12239
906.74	12213
906.857	11992
906.974	11992
907.091	12197
907.208	12353
907.324	12273
907.441	12068
907.557	11958
907.674	11969
907.79	11874
907.907	11912
908.023	11973
908.139	11965
908.256	11893
908.372	11866
908.488	11802
908.604	11733
908.72	11680
908.836	11756
908.952	11672
909.068	11710
909.184	11863
909.3	11688
909.415	11695
909.531	11745
909.647	11444
909.762	11372
909.878	11433
909.993	11566
910.108	11440
910.224	11421
910.339	11505
910.454	11383
910.57	11322
910.685	11242
910.8	11474
910.915	11459
911.03	11379
911.145	11246
911.259	11113
911.374	11109
911.489	11003
911.604	11090
911.718	10919
911.833	10873
911.947	10763
912.062	10805
912.176	10896
912.291	10908
912.405	10850
912.519	11048
912.633	11113
912.748	10915
912.862	10976
912.976	10824
913.09	10687
913.204	10771
913.318	10831
913.431	10885
913.545	10866
913.659	10889
913.772	10744
913.886	10675
914	10618
914.113	10763
914.226	10839
914.34	10748
914.453	10645
914.566	10786
914.68	10656
914.793	10649
914.906	10462
915.019	10325
915.132	10341
915.245	10352
915.358	10417
915.47	10428
915.583	10485
915.696	10504
915.809	10577
915.921	10599
916.034	10428
916.146	10337
916.259	10382
916.371	10436
916.483	10402
916.595	10386
916.708	10409
916.82	10371
916.932	10379
917.044	10303
917.156	10287
917.268	10268
917.38	10215
917.491	10227
917.603	10249
917.715	10257
917.826	10287
917.938	10215
918.049	10166
918.161	10280
918.272	10390
918.384	10367
918.495	10341
918.606	10116
918.717	10067
918.828	10112
918.939	10265
919.05	10093
919.161	10078
919.272	9998
919.383	10010
919.494	10150
919.604	10432
919.715	10196
919.826	10086
919.936	10116
920.047	10150
920.157	10169
920.267	10352
920.378	10147
920.488	10143
920.598	10314
920.708	10443
920.818	10318
920.928	10360
921.038	10417
921.148	10481
921.258	10158
921.368	10128
921.477	10025
921.587	9975
921.697	9956
921.806	10048
921.916	9888
922.025	9713
922.134	9686
922.244	9701
922.353	9770
922.462	9675
922.571	9580
922.68	9435
922.789	9325
922.898	9401
923.007	9416
923.116	9500
923.224	9340
923.333	9401
923.442	9329
923.55	9321
923.659	9275
923.767	9389
923.876	9264
923.984	9359
924.092	9260
924.201	9268
924.309	9268
924.417	9325
924.525	9188
924.633	9249
924.741	9945
924.849	9013
924.956	9241
925.064	9039
925.172	8967
925.279	9020
925.387	9062
925.494	9093
925.602	9180
925.709	9058
925.816	9058
925.924	9051
926.031	9119
926.138	9051
926.245	9192
926.352	9081
926.459	9081
926.566	9104
926.673	8982
926.779	8982
926.886	8902
926.993	8777
927.099	8766
927.206	8746
927.312	8735
927.419	8864
927.525	8826
927.631	8815
927.737	8769
927.843	8682
927.95	8533
928.056	8606
928.162	8705
928.267	8720
928.373	9348
928.479	8750
928.585	8514
928.69	8648
928.796	8720
928.901	8564
929.007	8499
929.112	8610
929.218	8533
929.323	8575
929.428	8492
929.533	8640
929.638	8408
929.743	8480
929.848	8503
929.953	8469
930.058	8469
930.163	8240
930.267	8301
930.372	8415
930.477	8294
930.581	8488
930.685	8298
930.79	8202
930.894	8252
930.998	8252
931.103	8324
931.207	7997
931.311	8008
931.415	7928
931.519	7685
931.623	7723
