Data from test_V78500241_750.txt Node
Date: Fri Mar 25 14:38:56 CST 2022
User: usil
Spectrometer: V785-0024
Trigger mode: 0
Integration Time (sec): 4.000000E-1
Scans to average: 1
Nonlinearity correction enabled: false
Boxcar width: 0
Storing dark spectrum: false
XAxis mode: Wavelengths
Number of Pixels in Spectrum: 1024
>>>>>Begin Spectral Data<<<<<
801.071	27096
801.214	26967
801.356	26735
801.499	26568
801.641	26332
801.783	26495
801.926	26495
802.068	26313
802.211	26210
802.353	26202
802.496	25833
802.638	26001
802.78	25928
802.923	25799
803.065	25974
803.208	25970
803.35	25986
803.492	25997
803.635	26012
803.777	25940
803.919	26043
804.061	26396
804.204	26062
804.346	26180
804.488	25925
804.63	26145
804.773	26058
804.915	26149
805.057	26423
805.199	26404
805.341	26385
805.483	26442
805.626	26644
805.768	26769
805.91	26842
806.052	26914
806.194	27062
806.336	27401
806.478	27359
806.62	27542
806.762	27850
806.904	28226
807.046	28942
807.188	29121
807.33	29478
807.472	30167
807.614	30738
807.756	31632
807.898	32906
808.04	34223
808.182	36570
808.324	39218
808.465	42110
808.607	45526
808.749	48429
808.891	50419
809.033	50571
809.174	48947
809.316	45785
809.458	42490
809.6	38902
809.741	36102
809.883	33979
810.025	32282
810.166	31137
810.308	30319
810.45	29794
810.591	29246
810.733	28577
810.875	28223
811.016	28002
811.158	27686
811.299	27644
811.441	27542
811.582	27325
811.724	27123
811.865	26887
812.007	26792
812.148	26754
812.29	26716
812.431	26731
812.573	26998
812.714	26982
812.855	26937
812.997	26899
813.138	27260
813.279	26906
813.421	26819
813.562	26830
813.703	26720
813.845	26385
813.986	26142
814.127	25849
814.268	25776
814.41	25803
814.551	25651
814.692	25708
814.833	25400
814.974	25495
815.115	25358
815.256	25232
815.397	25259
815.539	25312
815.68	25209
815.821	25080
815.962	25206
816.103	25061
816.244	24913
816.385	24973
816.526	24745
816.666	24521
816.807	24540
816.948	24551
817.089	24536
817.23	24483
817.371	24369
817.512	24346
817.653	24270
817.793	24426
817.934	24262
818.075	24277
818.216	24194
818.356	24296
818.497	24114
818.638	23931
818.778	24155
818.919	23954
819.06	24022
819.2	24087
819.341	24194
819.481	24266
819.622	24342
819.762	24403
819.903	24410
820.043	24445
820.184	24323
820.324	24311
820.465	24133
820.605	24117
820.746	24026
820.886	23942
821.026	24129
821.167	24068
821.307	24060
821.447	23980
821.588	23969
821.728	23707
821.868	23608
822.008	23535
822.149	23379
822.289	23471
822.429	23223
822.569	23075
822.709	23181
822.849	22862
822.99	22972
823.13	22687
823.27	22805
823.41	22649
823.55	22569
823.69	22626
823.83	22774
823.97	22596
824.11	22424
824.25	22348
824.389	22424
824.529	22504
824.669	22417
824.809	22603
824.949	22443
825.089	22398
825.228	22371
825.368	22150
825.508	22314
825.648	22284
825.787	22386
825.927	22128
826.067	22226
826.206	22162
826.346	22185
826.485	22398
826.625	22196
826.765	22280
826.904	22253
827.044	22032
827.183	21964
827.323	21778
827.462	21854
827.601	21903
827.741	21766
827.88	21895
828.02	21747
828.159	21789
828.298	21743
828.437	21911
828.577	21800
828.716	22002
828.855	21675
828.994	21523
829.134	21534
829.273	21595
829.412	21397
829.551	21458
829.69	21469
829.829	21469
829.968	21568
830.107	21633
830.246	21477
830.385	21458
830.524	21325
830.663	21294
830.802	21211
830.941	21154
831.08	21077
831.219	21283
831.357	21161
831.496	21359
831.635	21211
831.774	21051
831.913	20986
832.051	21001
832.19	20960
832.329	20895
832.467	21013
832.606	21005
832.744	21001
832.883	20979
833.022	21142
833.16	21241
833.299	21344
833.437	21435
833.576	21561
833.714	21808
833.852	21998
833.991	22017
834.129	22158
834.267	22124
834.406	22143
834.544	22074
834.682	22029
834.821	21724
834.959	21816
835.097	21477
835.235	21557
835.373	21245
835.511	21233
835.65	21043
835.788	20933
835.926	20785
836.064	20602
836.202	20663
836.34	20765
836.478	20845
836.615	20556
836.753	20693
836.891	20857
837.029	20693
837.167	20549
837.305	20575
837.443	20480
837.58	20461
837.718	20583
837.856	20609
837.993	20332
838.131	20556
838.269	20408
838.406	20324
838.544	20271
838.681	20073
838.819	20119
838.956	20008
839.094	19993
839.231	20024
839.369	20008
839.506	20233
839.643	20259
839.781	19978
839.918	19845
840.055	19871
840.193	19887
840.33	19940
840.467	19845
840.604	19898
840.742	20199
840.879	19601
841.016	19898
841.153	19811
841.29	20001
841.427	19932
841.564	19970
841.701	19898
841.838	19757
841.975	19788
842.112	19849
842.249	19837
842.385	19685
842.522	19898
842.659	19780
842.796	19791
842.933	19696
843.069	19635
843.206	19795
843.343	19887
843.479	19826
843.616	19738
843.752	19624
843.889	19822
844.025	19993
844.162	19712
844.298	20073
844.435	20214
844.571	20240
844.708	20689
844.844	21089
844.98	21450
845.117	22219
845.253	23181
845.389	25076
845.525	28675
845.661	34835
845.798	41866
845.934	47048
846.07	48958
846.206	47414
846.342	42639
846.478	35478
846.614	29642
846.75	25658
846.886	23227
847.022	21964
847.158	20941
847.294	20579
847.429	20187
847.565	19864
847.701	19875
847.837	19358
847.972	19152
848.108	19244
848.244	19122
848.379	18806
848.515	18814
848.65	18760
848.786	18810
848.921	18783
849.057	18795
849.192	18776
849.328	18696
849.463	18696
849.598	18608
849.734	18631
849.869	18547
850.004	18372
850.14	18414
850.275	18441
850.41	18270
850.545	18319
850.68	18384
850.815	18251
850.95	18273
851.085	18608
851.22	18414
851.355	18441
851.49	18334
851.625	18319
851.76	18243
851.895	18228
852.03	18258
852.165	18429
852.299	18418
852.434	18486
852.569	18445
852.703	18448
852.838	18532
852.973	18582
853.107	18646
853.242	18441
853.376	18475
853.511	18296
853.645	18422
853.78	18589
853.914	18597
854.048	18601
854.183	18604
854.317	18661
854.451	18757
854.585	18631
854.72	18544
854.854	18677
854.988	18506
855.122	18380
855.256	18346
855.39	18448
855.524	18441
855.658	18361
855.792	18369
855.926	18361
856.06	18334
856.194	18433
856.327	18350
856.461	18281
856.595	18182
856.729	18224
856.862	18315
856.996	18186
857.13	18270
857.263	18334
857.397	18228
857.53	18197
857.664	18171
857.797	18171
857.931	18258
858.064	18060
858.197	18163
858.331	18136
858.464	18049
858.597	17999
858.731	18034
858.864	18114
858.997	18026
859.13	18079
859.263	17965
859.396	18194
859.529	18041
859.662	17931
859.795	17889
859.928	17961
860.061	18216
860.194	18239
860.327	18019
860.46	18072
860.592	17992
860.725	18182
860.858	18057
860.99	18057
861.123	17882
861.256	17889
861.388	17965
861.521	18692
861.653	17817
861.786	17855
861.918	17855
862.05	17901
862.183	17805
862.315	17980
862.447	18019
862.58	18011
862.712	17729
862.844	17748
862.976	17805
863.108	17699
863.24	18171
863.372	17676
863.504	17646
863.636	17619
863.768	17726
863.9	17710
864.032	17585
864.164	17653
864.296	17775
864.428	17794
864.559	17722
864.691	17722
864.823	17695
864.954	17661
865.086	17676
865.217	17634
865.349	17562
865.48	17619
865.612	17611
865.743	17726
865.875	17554
866.006	17646
866.137	17646
866.269	17638
866.4	17604
866.531	17585
866.662	17543
866.793	17634
866.924	17608
867.055	17611
867.186	17684
867.317	17539
867.448	17539
867.579	17623
867.71	17562
867.841	17474
867.972	17581
868.103	17581
868.233	17680
868.364	17543
868.495	17623
868.625	17718
868.756	17912
868.886	17798
869.017	17726
869.147	18087
869.278	17931
869.408	17866
869.539	17897
869.669	17935
869.799	17901
869.929	17950
870.06	18091
870.19	18155
870.32	18144
870.45	18239
870.58	18216
870.71	18460
870.84	18315
870.97	18433
871.1	18350
871.23	18384
871.36	18490
871.489	18399
871.619	18490
871.749	18616
871.879	18635
872.008	18760
872.138	18585
872.267	18654
872.397	18528
872.526	18513
872.656	18509
872.785	18467
872.915	18589
873.044	18783
873.173	18764
873.303	18688
873.432	18757
873.561	18863
873.69	18875
873.819	18966
873.948	18954
874.077	18951
874.206	18909
874.335	18916
874.464	19126
874.593	19194
874.722	19312
874.851	19312
874.979	19445
875.108	19449
875.237	19335
875.365	19453
875.494	19381
875.623	19704
875.751	19563
875.88	19731
876.008	19677
876.136	19909
876.265	20275
876.393	20317
876.521	20370
876.65	20404
876.778	20400
876.906	20419
877.034	20347
877.162	20507
877.29	20712
877.418	20606
877.546	20857
877.674	20918
877.802	21093
877.93	21127
878.058	21287
878.185	21488
878.313	21846
878.441	22177
878.568	22382
878.696	23212
878.824	23855
878.951	25065
879.079	26754
879.206	28729
879.333	30821
879.461	32571
879.588	33675
879.715	33785
879.842	32971
879.97	31019
880.097	28831
880.224	27081
880.351	25997
880.478	24943
880.605	24391
880.732	23992
880.859	23920
880.986	23646
881.112	23497
881.239	23220
881.366	23181
881.493	23143
881.619	23018
881.746	23029
881.872	23086
881.999	23200
882.125	22999
882.252	23311
882.378	23280
882.505	23322
882.631	23181
882.757	23193
882.883	23155
883.01	23318
883.136	23048
883.262	22968
883.388	22968
883.514	23113
883.64	22999
883.766	22965
883.892	22915
884.018	23014
884.143	23037
884.269	23117
884.395	22923
884.52	22774
884.646	22949
884.772	22816
884.897	22828
885.023	22908
885.148	22911
885.274	22816
885.399	22755
885.524	22538
885.65	22470
885.775	22314
885.9	22226
886.025	22048
886.15	21918
886.275	21648
886.4	21424
886.525	21458
886.65	21302
886.775	21184
886.9	21291
887.025	21188
887.149	20826
887.274	20613
887.399	20568
887.523	20454
887.648	20313
887.773	20214
887.897	20271
888.021	20077
888.146	20016
888.27	20062
888.395	20130
888.519	19928
888.643	19852
888.767	19845
888.891	19662
889.015	19613
889.139	19597
889.263	19483
889.387	19472
889.511	19613
889.635	19529
889.759	19278
889.883	19202
890.006	19270
890.13	19270
890.254	18985
890.377	19019
890.501	18810
890.624	18859
890.748	18901
890.871	18814
890.995	18623
891.118	18483
891.241	18559
891.364	18566
891.488	18582
891.611	18498
891.734	18433
891.857	18426
891.98	18460
892.103	18467
892.226	18403
892.349	18224
892.471	18091
892.594	18190
892.717	18190
892.839	18182
892.962	18110
893.085	18140
893.207	18140
893.33	17901
893.452	17939
893.575	17946
893.697	17885
893.819	18197
893.941	18136
894.064	18038
894.186	17870
894.308	17824
894.43	17851
894.552	18026
894.674	17904
894.796	17668
894.918	17809
895.04	17767
895.161	17897
895.283	17729
895.405	17653
895.526	17714
895.648	17646
895.769	17687
895.891	17600
896.012	17752
896.134	17798
896.255	17634
896.376	17566
896.498	17687
896.619	17764
896.74	17604
896.861	17710
896.982	17923
897.103	18057
897.224	17958
897.345	17790
897.466	17767
897.587	17802
897.708	17958
897.828	17889
897.949	17737
898.07	17585
898.19	17668
898.311	17847
898.431	17760
898.552	17695
898.672	17832
898.792	17840
898.913	17855
899.033	17741
899.153	17562
899.273	17547
899.393	17615
899.513	17505
899.633	17535
899.753	17634
899.873	17551
899.993	17619
900.113	17554
900.232	17543
900.352	17558
900.472	17501
900.591	17387
900.711	17444
900.83	17368
900.95	17414
901.069	17539
901.189	17311
901.308	17010
901.427	16946
901.546	17048
901.665	16919
901.784	17010
901.904	16843
902.023	16687
902.141	16577
902.26	16451
902.379	16428
902.498	16413
902.617	16440
902.735	16371
902.854	16440
902.973	16352
903.091	16063
903.21	16112
903.328	15934
903.446	16006
903.565	15835
903.683	15854
903.801	15728
903.919	15797
904.038	15846
904.156	15644
904.274	15633
904.392	15671
904.51	15561
904.627	15633
904.745	15599
904.863	15717
904.981	15416
905.098	15226
905.216	15351
905.334	15260
905.451	15207
905.569	15241
905.686	15306
905.803	15264
905.921	15009
906.038	15077
906.155	14986
906.272	14963
906.389	14971
906.506	14823
906.623	14796
906.74	14754
906.857	14606
906.974	14746
907.091	14769
907.208	14906
907.324	14834
907.441	14746
907.557	14503
907.674	14469
907.79	14469
907.907	14488
908.023	14465
908.139	14564
908.256	14457
908.372	14438
908.488	14393
908.604	14275
908.72	14218
908.836	14115
908.952	14145
909.068	14278
909.184	14305
909.3	14218
909.415	14301
909.531	14187
909.647	14027
909.762	14024
909.878	13906
909.993	14008
910.108	13967
910.224	13898
910.339	13978
910.454	13864
910.57	13830
910.685	13708
910.8	13986
910.915	13890
911.03	13852
911.145	13666
911.259	13605
911.374	13578
911.489	13506
911.604	13460
911.718	13339
911.833	13335
911.947	13304
912.062	13183
912.176	13400
912.291	13362
912.405	13350
912.519	13460
912.633	13597
912.748	13403
912.862	13221
912.976	13282
913.09	13107
913.204	13213
913.318	13164
913.431	13316
913.545	13217
913.659	13350
913.772	13209
913.886	12996
914	13038
914.113	13050
914.226	13114
914.34	13122
914.453	12962
914.566	13145
914.68	13080
914.793	12913
914.906	12844
915.019	12791
915.132	12738
915.245	12719
915.358	12817
915.47	12844
915.583	12829
915.696	12738
915.809	12859
915.921	12901
916.034	12730
916.146	12787
916.259	12707
916.371	12837
916.483	12814
916.595	12726
916.708	12662
916.82	12703
916.932	12635
917.044	12669
917.156	12738
917.268	12589
917.38	12570
917.491	12532
917.603	12536
917.715	12574
917.826	12589
917.938	12475
918.049	12365
918.161	12445
918.272	12540
918.384	12623
918.495	12433
918.606	12251
918.717	12224
918.828	12315
918.939	12266
919.05	12228
919.161	12285
919.272	12091
919.383	12144
919.494	12361
919.604	12422
919.715	12220
919.826	12205
919.936	12338
920.047	12266
920.157	12327
920.267	12544
920.378	12304
920.488	12258
920.598	12456
920.708	12540
920.818	12422
920.928	12399
921.038	12528
921.148	12566
921.258	12273
921.368	12178
921.477	11973
921.587	12034
921.697	11901
921.806	12057
921.916	11866
922.025	11783
922.134	11638
922.244	11608
922.353	11813
922.462	11524
922.571	11547
922.68	11376
922.789	11322
922.898	11433
923.007	11246
923.116	11379
923.224	11406
923.333	11307
923.442	11242
923.55	11231
923.659	11277
923.767	11235
923.876	11151
923.984	11223
924.092	11197
924.201	11143
924.309	11201
924.417	11208
924.525	11079
924.633	11102
924.741	11805
924.849	10850
924.956	11029
925.064	10953
925.172	10881
925.279	10854
925.387	10946
925.494	10900
925.602	11041
925.709	10949
925.816	10847
925.924	10934
926.031	10938
926.138	10816
926.245	10881
926.352	10721
926.459	10953
926.566	10961
926.673	10812
926.779	10725
926.886	10683
926.993	10542
927.099	10481
927.206	10459
927.312	10516
927.419	10645
927.525	10474
927.631	10584
927.737	10356
927.843	10466
927.95	10242
928.056	10462
928.162	10375
928.267	10519
928.373	11075
928.479	10447
928.585	10276
928.69	10333
928.796	10375
928.901	10268
929.007	10090
929.112	10211
929.218	10173
929.323	10261
929.428	10158
929.533	10310
929.638	10032
929.743	10139
929.848	10246
929.953	10101
930.058	10021
930.163	9956
930.267	9949
930.372	9994
930.477	9918
930.581	10074
930.685	10040
930.79	9827
930.894	9842
930.998	9865
931.103	9975
931.207	9523
931.311	9561
931.415	9530
931.519	9256
931.623	9245
