Data from test_V78500241_279.txt Node
Date: Fri Mar 25 14:35:39 CST 2022
User: usil
Spectrometer: V785-0024
Trigger mode: 0
Integration Time (sec): 4.000000E-1
Scans to average: 1
Nonlinearity correction enabled: false
Boxcar width: 0
Storing dark spectrum: false
XAxis mode: Wavelengths
Number of Pixels in Spectrum: 1024
>>>>>Begin Spectral Data<<<<<
801.071	27275
801.214	27138
801.356	26849
801.499	26986
801.641	26720
801.783	26701
801.926	26880
802.068	26838
802.211	26469
802.353	26617
802.496	26389
802.638	26339
802.78	26355
802.923	26149
803.065	26214
803.208	26202
803.35	26328
803.492	26271
803.635	26210
803.777	26210
803.919	26393
804.061	26644
804.204	26313
804.346	26252
804.488	26130
804.63	26210
804.773	26115
804.915	26153
805.057	26381
805.199	26183
805.341	26343
805.483	26301
805.626	26298
805.768	26294
805.91	26240
806.052	26324
806.194	26233
806.336	26469
806.478	26332
806.62	26206
806.762	26358
806.904	26453
807.046	26674
807.188	26617
807.33	26667
807.472	26834
807.614	26609
807.756	26556
807.898	26499
808.04	26526
808.182	26355
808.324	26484
808.465	26415
808.607	26674
808.749	26937
808.891	26971
809.033	26990
809.174	27017
809.316	26876
809.458	26887
809.6	26902
809.741	26883
809.883	26838
810.025	27077
810.166	27028
810.308	26960
810.45	26887
810.591	26861
810.733	26785
810.875	26667
811.016	26602
811.158	26530
811.299	26689
811.441	26781
811.582	26579
811.724	26609
811.865	26701
812.007	26556
812.148	26644
812.29	26674
812.431	26792
812.573	26925
812.714	26902
812.855	27157
812.997	27298
813.138	27310
813.279	27302
813.421	27066
813.562	27093
813.703	27001
813.845	26712
813.986	26366
814.127	26286
814.268	26233
814.41	26419
814.551	26180
814.692	26149
814.833	26138
814.974	26054
815.115	26191
815.256	26043
815.397	26054
815.539	25966
815.68	25917
815.821	25906
815.962	25963
816.103	25803
816.244	25887
816.385	25628
816.526	25662
816.666	25499
816.807	25324
816.948	25514
817.089	25521
817.23	25350
817.371	25232
817.512	25400
817.653	25236
817.793	25179
817.934	25225
818.075	25251
818.216	25327
818.356	25206
818.497	25190
818.638	24954
818.778	25107
818.919	24935
819.06	24992
819.2	25171
819.341	25244
819.481	25152
819.622	25350
819.762	25426
819.903	25400
820.043	25468
820.184	25415
820.324	25335
820.465	25373
820.605	25327
820.746	25278
820.886	25156
821.026	25206
821.167	25126
821.307	25247
821.447	25244
821.588	25027
821.728	24954
821.868	24787
822.008	24665
822.149	24585
822.289	24665
822.429	24338
822.569	24296
822.709	24365
822.849	24117
822.99	24224
823.13	24129
823.27	24049
823.41	23775
823.55	23950
823.69	24038
823.83	23813
823.97	23847
824.11	23756
824.25	23653
824.389	23665
824.529	23661
824.669	23726
824.809	23798
824.949	23676
825.089	23657
825.228	23649
825.368	23417
825.508	23474
825.648	23307
825.787	23425
825.927	23562
826.067	23566
826.206	23326
826.346	23429
826.485	23398
826.625	23383
826.765	23501
826.904	23395
827.044	23322
827.183	23212
827.323	23170
827.462	23189
827.601	23022
827.741	23117
827.88	23170
828.02	23041
828.159	23124
828.298	23121
828.437	23178
828.577	23102
828.716	23239
828.855	23018
828.994	22927
829.134	22854
829.273	22892
829.412	22694
829.551	22763
829.69	22717
829.829	22946
829.968	22854
830.107	22809
830.246	22885
830.385	22687
830.524	22683
830.663	22668
830.802	22554
830.941	22451
831.08	22440
831.219	22379
831.357	22402
831.496	22622
831.635	22382
831.774	22356
831.913	22242
832.051	22211
832.19	22143
832.329	22200
832.467	22070
832.606	21994
832.744	22097
832.883	22017
833.022	21876
833.16	22051
833.299	22086
833.437	22002
833.576	22051
833.714	22078
833.852	22124
833.991	22021
834.129	22101
834.267	22143
834.406	22025
834.544	22105
834.682	22070
834.821	22044
834.959	22226
835.097	22101
835.235	22063
835.373	22021
835.511	22063
835.65	21873
835.788	21918
835.926	21675
836.064	21701
836.202	21652
836.34	21960
836.478	21880
836.615	21800
836.753	21865
836.891	21937
837.029	21876
837.167	21728
837.305	21800
837.443	21747
837.58	21720
837.718	21747
837.856	21686
837.993	21618
838.131	21770
838.269	21587
838.406	21606
838.544	21610
838.681	21416
838.819	21294
838.956	21173
839.094	21237
839.231	21405
839.369	21382
839.506	21492
839.643	21447
839.781	21184
839.918	21032
840.055	21089
840.193	21024
840.33	21043
840.467	21093
840.604	21135
840.742	21359
840.879	21005
841.016	21009
841.153	20979
841.29	21142
841.427	21028
841.564	21085
841.701	21131
841.838	20906
841.975	20929
842.112	21055
842.249	20834
842.385	20887
842.522	21066
842.659	20842
842.796	20781
842.933	20773
843.069	20792
843.206	20613
843.343	20872
843.479	20830
843.616	20796
843.752	20621
843.889	20564
844.025	20731
844.162	20575
844.298	20602
844.435	20564
844.571	20560
844.708	20575
844.844	20651
844.98	20689
845.117	20632
845.253	20450
845.389	20484
845.525	20492
845.661	20450
845.798	20423
845.934	20446
846.07	20514
846.206	20495
846.342	20530
846.478	20404
846.614	20142
846.75	20126
846.886	20073
847.022	20195
847.158	20001
847.294	20107
847.429	20039
847.565	20062
847.701	20229
847.837	19704
847.972	19655
848.108	19837
848.244	19738
848.379	19571
848.515	19540
848.65	19529
848.786	19491
848.921	19651
849.057	19635
849.192	19689
849.328	19582
849.463	19540
849.598	19521
849.734	19468
849.869	19426
850.004	19228
850.14	19301
850.275	19358
850.41	19293
850.545	19183
850.68	19274
850.815	19331
850.95	19263
851.085	19476
851.22	19358
851.355	19324
851.49	19301
851.625	19183
851.76	19194
851.895	19099
852.03	19228
852.165	19289
852.299	19339
852.434	19297
852.569	19297
852.703	19327
852.838	19183
852.973	19350
853.107	19419
853.242	19179
853.376	19194
853.511	18985
853.645	19118
853.78	19263
853.914	19065
854.048	19027
854.183	19080
854.317	19171
854.451	19175
854.585	19072
854.72	18973
854.854	19118
854.988	19084
855.122	19099
855.256	19019
855.39	19175
855.524	19168
855.658	19072
855.792	19164
855.926	19088
856.06	19099
856.194	19133
856.327	19061
856.461	19031
856.595	19072
856.729	18966
856.862	19221
856.996	19050
857.13	19179
857.263	19175
857.397	19240
857.53	19076
857.664	19088
857.797	19114
857.931	19225
858.064	19164
858.197	19118
858.331	19053
858.464	18996
858.597	18951
858.731	18924
858.864	18977
858.997	18833
859.13	19069
859.263	18924
859.396	19053
859.529	19034
859.662	18966
859.795	19084
859.928	19027
860.061	19175
860.194	19194
860.327	19114
860.46	19091
860.592	19031
860.725	19107
860.858	19171
860.99	18977
861.123	18924
861.256	18833
861.388	19004
861.521	19559
861.653	18924
861.786	18890
861.918	18867
862.05	18962
862.183	19012
862.315	19110
862.447	19110
862.58	19015
862.712	18738
862.844	18715
862.976	18844
863.108	18844
863.24	19232
863.372	18734
863.504	18673
863.636	18726
863.768	18681
863.9	18749
864.032	18669
864.164	18703
864.296	18642
864.428	18825
864.559	18719
864.691	18905
864.823	18684
864.954	18658
865.086	18654
865.217	18692
865.349	18604
865.48	18673
865.612	18658
865.743	18776
865.875	18658
866.006	18616
866.137	18642
866.269	18585
866.4	18635
866.531	18570
866.662	18574
866.793	18574
866.924	18509
867.055	18582
867.186	18669
867.317	18532
867.448	18407
867.579	18521
867.71	18597
867.841	18437
867.972	18574
868.103	18509
868.233	18540
868.364	18566
868.495	18730
868.625	18817
868.756	18901
868.886	18760
869.017	18764
869.147	18901
869.278	19015
869.408	18730
869.539	18863
869.669	18901
869.799	18882
869.929	18875
870.06	18837
870.19	19141
870.32	19084
870.45	19187
870.58	19225
870.71	19251
870.84	19270
870.97	19126
871.1	19202
871.23	19434
871.36	19316
871.489	19419
871.619	19312
871.749	19396
871.879	19415
872.008	19502
872.138	19491
872.267	19434
872.397	19266
872.526	19209
872.656	19308
872.785	19202
872.915	19289
873.044	19567
873.173	19362
873.303	19472
873.432	19510
873.561	19483
873.69	19487
873.819	19362
873.948	19537
874.077	19396
874.206	19434
874.335	19457
874.464	19639
874.593	19677
874.722	19563
874.851	19822
874.979	19765
875.108	19727
875.237	19662
875.365	19601
875.494	19715
875.623	19788
875.751	19731
875.88	19822
876.008	19864
876.136	19932
876.265	20084
876.393	20343
876.521	20168
876.65	20191
876.778	20187
876.906	20077
877.034	20046
877.162	20115
877.29	20157
877.418	20073
877.546	20157
877.674	19997
877.802	20145
877.93	20092
878.058	20149
878.185	19997
878.313	20183
878.441	20050
878.568	19917
878.696	19860
878.824	20153
878.951	20058
879.079	20271
879.206	20339
879.333	20347
879.461	20237
879.588	20244
879.715	20290
879.842	20476
879.97	20252
880.097	19951
880.224	19944
880.351	19959
880.478	20001
880.605	19883
880.732	19883
880.859	20240
880.986	20046
881.112	19894
881.239	19936
881.366	19864
881.493	19556
881.619	19567
881.746	19601
881.872	19502
881.999	19495
882.125	19464
882.252	19563
882.378	19556
882.505	19693
882.631	19525
882.757	19358
882.883	19362
883.01	19324
883.136	19171
883.262	19206
883.388	19179
883.514	19297
883.64	19335
883.766	19133
883.892	19099
884.018	19145
884.143	19263
884.269	19312
884.395	19057
884.52	18875
884.646	18951
884.772	18973
884.897	18947
885.023	18962
885.148	19034
885.274	19057
885.399	19069
885.524	19031
885.65	18958
885.775	18973
885.9	18916
886.025	19038
886.15	19019
886.275	18928
886.4	18875
886.525	18928
886.65	18886
886.775	18905
886.9	18996
887.025	19129
887.149	18993
887.274	18787
887.399	18635
887.523	18696
887.648	18627
887.773	18703
887.897	18677
888.021	18798
888.146	18642
888.27	18791
888.395	18844
888.519	18817
888.643	18700
888.767	18688
888.891	18684
889.015	18498
889.139	18559
889.263	18475
889.387	18528
889.511	18741
889.635	18578
889.759	18517
889.883	18521
890.006	18475
890.13	18658
890.254	18422
890.377	18384
890.501	18308
890.624	18182
890.748	18327
890.871	18129
890.995	18201
891.118	17973
891.241	18102
891.364	18136
891.488	18311
891.611	18155
891.734	18133
891.857	18201
891.98	18102
892.103	18182
892.226	18205
892.349	18098
892.471	17980
892.594	17958
892.717	18140
892.839	18114
892.962	18083
893.085	18117
893.207	18087
893.33	17961
893.452	17984
893.575	18121
893.697	18049
893.819	18270
893.941	18247
894.064	18205
894.186	18114
894.308	17942
894.43	18068
894.552	18251
894.674	18125
894.796	18003
894.918	18140
895.04	18095
895.161	18068
895.283	18140
895.405	18022
895.526	18152
895.648	18045
895.769	18011
895.891	18079
896.012	18174
896.134	18114
896.255	18178
896.376	18159
896.498	18110
896.619	18254
896.74	18224
896.861	18277
896.982	18517
897.103	18650
897.224	18513
897.345	18498
897.466	18380
897.587	18418
897.708	18536
897.828	18376
897.949	18342
898.07	18220
898.19	18292
898.311	18384
898.431	18452
898.552	18247
898.672	18441
898.792	18448
898.913	18262
899.033	18224
899.153	18178
899.273	17954
899.393	18133
899.513	17999
899.633	18087
899.753	18098
899.873	18110
899.993	18079
900.113	18041
900.232	18121
900.352	18038
900.472	18117
900.591	17882
900.711	17969
900.83	17805
900.95	18003
901.069	18026
901.189	17935
901.308	17722
901.427	17562
901.546	17714
901.665	17471
901.784	17596
901.904	17440
902.023	17322
902.141	17166
902.26	17159
902.379	17113
902.498	17064
902.617	17041
902.735	17113
902.854	17102
902.973	17006
903.091	16801
903.21	16774
903.328	16683
903.446	16592
903.565	16512
903.683	16717
903.801	16443
903.919	16683
904.038	16546
904.156	16306
904.274	16432
904.392	16363
904.51	16303
904.627	16443
904.745	16413
904.863	16459
904.981	16105
905.098	16032
905.216	16021
905.334	15983
905.451	16002
905.569	15960
905.686	16002
905.803	15998
905.921	15778
906.038	15846
906.155	15857
906.272	15747
906.389	15724
906.506	15595
906.623	15587
906.74	15572
906.857	15473
906.974	15454
907.091	15557
907.208	15774
907.324	15644
907.441	15428
907.557	15401
907.674	15313
907.79	15260
907.907	15226
908.023	15313
908.139	15294
908.256	15268
908.372	15127
908.488	15119
908.604	15001
908.72	14990
908.836	14990
908.952	14880
909.068	14857
909.184	15074
909.3	14963
909.415	14975
909.531	14967
909.647	14834
909.762	14648
909.878	14587
909.993	14590
910.108	14636
910.224	14632
910.339	14579
910.454	14488
910.57	14625
910.685	14537
910.8	14655
910.915	14651
911.03	14526
911.145	14313
911.259	14328
911.374	14355
911.489	14248
911.604	14119
911.718	13997
911.833	14062
911.947	13898
912.062	13814
912.176	14001
912.291	13989
912.405	14027
912.519	14187
912.633	14168
912.748	14077
912.862	13993
912.976	14027
913.09	13689
913.204	13803
913.318	13852
913.431	13898
913.545	13986
913.659	13959
913.772	13807
913.886	13795
914	13734
914.113	13742
914.226	13837
914.34	13765
914.453	13700
914.566	13757
914.68	13651
914.793	13575
914.906	13457
915.019	13304
915.132	13339
915.245	13373
915.358	13362
915.47	13476
915.583	13358
915.696	13438
915.809	13476
915.921	13571
916.034	13312
916.146	13247
916.259	13225
916.371	13365
916.483	13392
916.595	13190
916.708	13324
916.82	13236
916.932	13122
917.044	13274
917.156	13202
917.268	13053
917.38	13114
917.491	13129
917.603	13080
917.715	13198
917.826	13164
917.938	13042
918.049	13004
918.161	13133
918.272	13206
918.384	13122
918.495	12985
918.606	12833
918.717	12730
918.828	12867
918.939	12916
919.05	12844
919.161	12840
919.272	12608
919.383	12669
919.494	12840
919.604	13050
919.715	12829
919.826	12741
919.936	12776
920.047	12947
920.157	12837
920.267	12966
920.378	12863
920.488	12837
920.598	12962
920.708	13103
920.818	12939
920.928	12928
921.038	13046
921.148	13080
921.258	12768
921.368	12665
921.477	12582
921.587	12551
921.697	12407
921.806	12635
921.916	12429
922.025	12254
922.134	12213
922.244	12201
922.353	12353
922.462	12106
922.571	12110
922.68	11965
922.789	11923
922.898	11889
923.007	11859
923.116	11954
923.224	11904
923.333	11847
923.442	11726
923.55	11748
923.659	11775
923.767	11821
923.876	11642
923.984	11809
924.092	11703
924.201	11699
924.309	11668
924.417	11760
924.525	11653
924.633	11634
924.741	12555
924.849	11444
924.956	11611
925.064	11417
925.172	11341
925.279	11383
925.387	11448
925.494	11471
925.602	11596
925.709	11471
925.816	11391
925.924	11296
926.031	11486
926.138	11455
926.245	11436
926.352	11265
926.459	11433
926.566	11459
926.673	11360
926.779	11136
926.886	11174
926.993	11109
927.099	11022
927.206	11022
927.312	11022
927.419	11113
927.525	11045
927.631	11037
927.737	11025
927.843	10885
927.95	10733
928.056	10923
928.162	10805
928.267	10961
928.373	11406
928.479	11067
928.585	10752
928.69	10850
928.796	10850
928.901	10740
929.007	10523
929.112	10748
929.218	10759
929.323	10565
929.428	10615
929.533	10759
929.638	10607
929.743	10561
929.848	10664
929.953	10641
930.058	10504
930.163	10394
930.267	10405
930.372	10535
930.477	10375
930.581	10512
930.685	10390
930.79	10291
930.894	10223
930.998	10139
931.103	10280
931.207	9983
931.311	9922
931.415	9861
931.519	9717
931.623	9713
