Data from test_V78500241_823.txt Node
Date: Fri Mar 25 14:39:26 CST 2022
User: usil
Spectrometer: V785-0024
Trigger mode: 0
Integration Time (sec): 4.000000E-1
Scans to average: 1
Nonlinearity correction enabled: false
Boxcar width: 0
Storing dark spectrum: false
XAxis mode: Wavelengths
Number of Pixels in Spectrum: 1024
>>>>>Begin Spectral Data<<<<<
801.071	26145
801.214	26107
801.356	25833
801.499	25746
801.641	25856
801.783	25639
801.926	25643
802.068	25594
802.211	25460
802.353	25304
802.496	25118
802.638	25103
802.78	25099
802.923	24970
803.065	24981
803.208	24989
803.35	24996
803.492	25179
803.635	25209
803.777	25213
803.919	25217
804.061	25407
804.204	25175
804.346	25133
804.488	25152
804.63	25202
804.773	25141
804.915	25247
805.057	25346
805.199	25240
805.341	25464
805.483	25567
805.626	25548
805.768	25696
805.91	25708
806.052	25780
806.194	25704
806.336	26168
806.478	26115
806.62	26183
806.762	26347
806.904	26765
807.046	27272
807.188	27317
807.33	27618
807.472	28105
807.614	28588
807.756	29246
807.898	29901
808.04	30901
808.182	32309
808.324	34139
808.465	36365
808.607	38667
808.749	40713
808.891	41832
809.033	42030
809.174	40767
809.316	38678
809.458	36384
809.6	33899
809.741	32084
809.883	30681
810.025	29653
810.166	28831
810.308	28379
810.45	27800
810.591	27454
810.733	26971
810.875	26842
811.016	26400
811.158	26381
811.299	26317
811.441	26138
811.582	26168
811.724	25982
811.865	25925
812.007	25868
812.148	25837
812.29	25742
812.431	25864
812.573	25959
812.714	26084
812.855	26244
812.997	26142
813.138	26214
813.279	26153
813.421	25875
813.562	25902
813.703	25677
813.845	25499
813.986	25263
814.127	24897
814.268	24821
814.41	24821
814.551	24837
814.692	24878
814.833	24730
814.974	24566
815.115	24608
815.256	24566
815.397	24566
815.539	24547
815.68	24494
815.821	24315
815.962	24498
816.103	24403
816.244	24194
816.385	24174
816.526	24178
816.666	23923
816.807	23676
816.948	23836
817.089	23897
817.23	23866
817.371	23668
817.512	23779
817.653	23653
817.793	23661
817.934	23672
818.075	23642
818.216	23570
818.356	23501
818.497	23478
818.638	23376
818.778	23440
818.919	23391
819.06	23258
819.2	23429
819.341	23520
819.481	23406
819.622	23630
819.762	23882
819.903	23718
820.043	23543
820.184	23672
820.324	23596
820.465	23657
820.605	23505
820.746	23596
820.886	23398
821.026	23490
821.167	23364
821.307	23444
821.447	23299
821.588	23334
821.728	23178
821.868	23006
822.008	22847
822.149	22839
822.289	22717
822.429	22485
822.569	22535
822.709	22459
822.849	22379
822.99	22219
823.13	22211
823.27	22090
823.41	21953
823.55	21987
823.69	22090
823.83	21945
823.97	22154
824.11	21945
824.25	21759
824.389	21739
824.529	21956
824.669	21789
824.809	21945
824.949	21899
825.089	21892
825.228	21827
825.368	21603
825.508	21663
825.648	21580
825.787	21667
825.927	21774
826.067	21572
826.206	21618
826.346	21663
826.485	21614
826.625	21587
826.765	21633
826.904	21633
827.044	21504
827.183	21363
827.323	21313
827.462	21264
827.601	21272
827.741	21214
827.88	21302
828.02	21055
828.159	21237
828.298	21230
828.437	21310
828.577	21116
828.716	21348
828.855	21135
828.994	21051
829.134	21039
829.273	21036
829.412	21047
829.551	20933
829.69	20929
829.829	20929
829.968	21032
830.107	21020
830.246	21058
830.385	20857
830.524	20902
830.663	20762
830.802	20727
830.941	20606
831.08	20552
831.219	20667
831.357	20667
831.496	20724
831.635	20495
831.774	20454
831.913	20469
832.051	20389
832.19	20442
832.329	20533
832.467	20377
832.606	20214
832.744	20286
832.883	20503
833.022	20469
833.16	20598
833.299	20613
833.437	20632
833.576	20765
833.714	20937
833.852	21127
833.991	21077
834.129	21180
834.267	21123
834.406	21093
834.544	21020
834.682	20910
834.821	20781
834.959	21009
835.097	20655
835.235	20609
835.373	20606
835.511	20465
835.65	20351
835.788	20294
835.926	20149
836.064	20115
836.202	19978
836.34	20142
836.478	20180
836.615	20062
836.753	20103
836.891	20153
837.029	20168
837.167	20157
837.305	20043
837.443	19925
837.58	20012
837.718	20043
837.856	20005
837.993	19814
838.131	19879
838.269	19780
838.406	19811
838.544	19849
838.681	19529
838.819	19548
838.956	19381
839.094	19350
839.231	19388
839.369	19491
839.506	19780
839.643	19540
839.781	19438
839.918	19327
840.055	19392
840.193	19304
840.33	19171
840.467	19411
840.604	19289
840.742	19677
840.879	19209
841.016	19228
841.153	19266
841.29	19358
841.427	19301
841.564	19339
841.701	19369
841.838	19297
841.975	19255
842.112	19259
842.249	19061
842.385	19080
842.522	19350
842.659	19148
842.796	19156
842.933	19114
843.069	19137
843.206	19069
843.343	19190
843.479	19095
843.616	19019
843.752	19050
843.889	19133
844.025	19240
844.162	19076
844.298	19297
844.435	19335
844.571	19552
844.708	19693
844.844	20024
844.98	20229
845.117	20758
845.253	21283
845.389	22516
845.525	24817
845.661	28630
845.798	33469
845.934	37179
846.07	38697
846.206	37978
846.342	34732
846.478	30064
846.614	25966
846.75	23083
846.886	21519
847.022	20484
847.158	19750
847.294	19426
847.429	19133
847.565	18909
847.701	19084
847.837	18502
847.972	18353
848.108	18399
848.244	18445
848.379	18292
848.515	18254
848.65	18091
848.786	18133
848.921	18087
849.057	18266
849.192	18102
849.328	18216
849.463	18022
849.598	18060
849.734	17958
849.869	17901
850.004	17764
850.14	17764
850.275	17779
850.41	17661
850.545	17672
850.68	17783
850.815	17893
850.95	17722
851.085	17870
851.22	17927
851.355	17642
851.49	17661
851.625	17676
851.76	17718
851.895	17748
852.03	17615
852.165	17672
852.299	17805
852.434	17726
852.569	17851
852.703	17847
852.838	17882
852.973	17992
853.107	17912
853.242	17703
853.376	17653
853.511	17596
853.645	17710
853.78	17912
853.914	17809
854.048	17783
854.183	17661
854.317	17870
854.451	18129
854.585	17878
854.72	17726
854.854	17878
854.988	17828
855.122	17783
855.256	17661
855.39	17680
855.524	17817
855.658	17802
855.792	17634
855.926	17554
856.06	17646
856.194	17767
856.327	17611
856.461	17566
856.595	17596
856.729	17463
856.862	17802
856.996	17676
857.13	17566
857.263	17691
857.397	17615
857.53	17436
857.664	17611
857.797	17714
857.931	17676
858.064	17589
858.197	17646
858.331	17440
858.464	17436
858.597	17448
858.731	17581
858.864	17452
858.997	17471
859.13	17585
859.263	17501
859.396	17524
859.529	17630
859.662	17372
859.795	17414
859.928	17478
860.061	17547
860.194	17661
860.327	17379
860.46	17436
860.592	17551
860.725	17551
860.858	17600
860.99	17299
861.123	17379
861.256	17349
861.388	17391
861.521	17992
861.653	17303
861.786	17216
861.918	17269
862.05	17299
862.183	17417
862.315	17341
862.447	17592
862.58	17376
862.712	17216
862.844	17079
862.976	17193
863.108	17231
863.24	17505
863.372	17003
863.504	17086
863.636	17056
863.768	17242
863.9	17117
864.032	17147
864.164	17124
864.296	17159
864.428	17284
864.559	17216
864.691	17220
864.823	17075
864.954	17136
865.086	17159
865.217	17025
865.349	17113
865.48	17060
865.612	17006
865.743	17322
865.875	17056
866.006	17143
866.137	17102
866.269	17056
866.4	17105
866.531	17083
866.662	16957
866.793	17060
866.924	16987
867.055	17124
867.186	17086
867.317	16949
867.448	16873
867.579	16946
867.71	16934
867.841	16896
867.972	17079
868.103	17075
868.233	17010
868.364	17041
868.495	17094
868.625	17239
868.756	17421
868.886	17098
869.017	17284
869.147	17444
869.278	17383
869.408	17296
869.539	17250
869.669	17421
869.799	17368
869.929	17554
870.06	17486
870.19	17680
870.32	17638
870.45	17714
870.58	17752
870.71	17809
870.84	17893
870.97	17661
871.1	17733
871.23	17878
871.36	17958
871.489	17836
871.619	17904
871.749	18049
871.879	18026
872.008	18064
872.138	18022
872.267	17984
872.397	17882
872.526	17901
872.656	17946
872.785	17878
872.915	18030
873.044	18121
873.173	18057
873.303	18235
873.432	18155
873.561	18357
873.69	18129
873.819	18220
873.948	18323
874.077	18323
874.206	18232
874.335	18311
874.464	18517
874.593	18635
874.722	18570
874.851	18620
874.979	18585
875.108	18703
875.237	18601
875.365	18506
875.494	18604
875.623	18863
875.751	18783
875.88	18875
876.008	18935
876.136	19129
876.265	19278
876.393	19476
876.521	19495
876.65	19514
876.778	19521
876.906	19537
877.034	19460
877.162	19487
877.29	19582
877.418	19742
877.546	19658
877.674	19811
877.802	19822
877.93	19913
878.058	20062
878.185	20244
878.313	20374
878.441	20727
878.568	20777
878.696	21211
878.824	21945
878.951	22603
879.079	23878
879.206	25373
879.333	26667
879.461	28051
879.588	28599
879.715	28645
879.842	28105
879.97	26720
880.097	25187
880.224	23878
880.351	23239
880.478	22584
880.605	22135
880.732	21888
880.859	21827
880.986	21591
881.112	21519
881.239	21233
881.366	21195
881.493	21157
881.619	21150
881.746	21112
881.872	21096
881.999	21173
882.125	21116
882.252	21283
882.378	21252
882.505	21336
882.631	21116
882.757	21100
882.883	21142
883.01	20982
883.136	21043
883.262	20792
883.388	20921
883.514	20986
883.64	21127
883.766	20994
883.892	20785
884.018	20872
884.143	20971
884.269	21074
884.395	20872
884.52	20632
884.646	20758
884.772	20648
884.897	20788
885.023	20708
885.148	20727
885.274	20743
885.399	20727
885.524	20488
885.65	20590
885.775	20366
885.9	20305
886.025	20259
886.15	20202
886.275	20012
886.4	19917
886.525	19868
886.65	19719
886.775	19544
886.9	19731
887.025	19685
887.149	19449
887.274	19278
887.399	19152
887.523	19019
887.648	18939
887.773	18890
887.897	18989
888.021	19000
888.146	18730
888.27	18981
888.395	18875
888.519	18817
888.643	18688
888.767	18661
888.891	18570
889.015	18372
889.139	18490
889.263	18407
889.387	18532
889.511	18555
889.635	18426
889.759	18319
889.883	18289
890.006	18270
890.13	18422
890.254	18087
890.377	18213
890.501	17988
890.624	17885
890.748	18034
890.871	17817
890.995	17600
891.118	17608
891.241	17722
891.364	17687
891.488	17722
891.611	17676
891.734	17672
891.857	17566
891.98	17695
892.103	17520
892.226	17539
892.349	17516
892.471	17360
892.594	17452
892.717	17372
892.839	17459
892.962	17345
893.085	17497
893.207	17292
893.33	17265
893.452	17197
893.575	17391
893.697	17223
893.819	17364
893.941	17391
894.064	17322
894.186	17022
894.308	17181
894.43	17284
894.552	17387
894.674	17269
894.796	17235
894.918	17151
895.04	17079
895.161	17178
895.283	17181
895.405	17041
895.526	17151
895.648	17155
895.769	17079
895.891	17102
896.012	17136
896.134	17193
896.255	17170
896.376	16938
896.498	17075
896.619	17090
896.74	17025
896.861	17147
896.982	17398
897.103	17634
897.224	17353
897.345	17193
897.466	17189
897.587	17273
897.708	17360
897.828	17372
897.949	17288
898.07	17181
898.19	17288
898.311	17379
898.431	17265
898.552	17376
898.672	17486
898.792	17429
898.913	17254
899.033	17239
899.153	17216
899.273	17010
899.393	17223
899.513	17075
899.633	17132
899.753	17151
899.873	16980
899.993	17220
900.113	17140
900.232	17102
900.352	17086
900.472	17010
900.591	16908
900.711	16892
900.83	16900
900.95	16991
901.069	16965
901.189	16900
901.308	16641
901.427	16538
901.546	16694
901.665	16634
901.784	16500
901.904	16409
902.023	16253
902.141	16158
902.26	16048
902.379	16173
902.498	16078
902.617	16059
902.735	16040
902.854	15987
902.973	15972
903.091	15724
903.21	15701
903.328	15720
903.446	15656
903.565	15614
903.683	15572
903.801	15325
903.919	15454
904.038	15370
904.156	15294
904.274	15389
904.392	15310
904.51	15199
904.627	15226
904.745	15298
904.863	15329
904.981	15047
905.098	14963
905.216	14944
905.334	14937
905.451	14902
905.569	14868
905.686	14941
905.803	14906
905.921	14712
906.038	14861
906.155	14746
906.272	14613
906.389	14526
906.506	14370
906.623	14484
906.74	14461
906.857	14305
906.974	14366
907.091	14469
907.208	14499
907.324	14434
907.441	14381
907.557	14119
907.674	14244
907.79	14096
907.907	13989
908.023	14214
908.139	14107
908.256	14046
908.372	13986
908.488	13989
908.604	13947
908.72	13811
908.836	13917
908.952	13746
909.068	13860
909.184	13887
909.3	13780
909.415	13845
909.531	13830
909.647	13666
909.762	13605
909.878	13681
909.993	13651
910.108	13719
910.224	13628
910.339	13666
910.454	13506
910.57	13430
910.685	13430
910.8	13666
910.915	13563
911.03	13426
911.145	13270
911.259	13327
911.374	13141
911.489	13145
911.604	13137
911.718	12966
911.833	13000
911.947	12875
912.062	12795
912.176	12993
912.291	12939
912.405	13069
912.519	13187
912.633	13149
912.748	13141
912.862	12920
912.976	12844
913.09	12772
913.204	12806
913.318	12810
913.431	12973
913.545	12856
913.659	12958
913.772	12844
913.886	12726
914	12662
914.113	12867
914.226	12814
914.34	12810
914.453	12681
914.566	12722
914.68	12692
914.793	12601
914.906	12486
915.019	12433
915.132	12361
915.245	12445
915.358	12475
915.47	12418
915.583	12353
915.696	12464
915.809	12627
915.921	12604
916.034	12327
916.146	12327
916.259	12315
916.371	12429
916.483	12296
916.595	12361
916.708	12338
916.82	12407
916.932	12338
917.044	12304
917.156	12251
917.268	12235
917.38	12239
917.491	12125
917.603	12224
917.715	12292
917.826	12304
917.938	12091
918.049	11988
918.161	12182
918.272	12304
918.384	12319
918.495	12197
918.606	12053
918.717	11946
918.828	11980
918.939	11946
919.05	11851
919.161	11912
919.272	11756
919.383	11779
919.494	11984
919.604	12133
919.715	11931
919.826	11923
919.936	11939
920.047	12060
920.157	11931
920.267	12076
920.378	11954
920.488	11965
920.598	12152
920.708	12190
920.818	12095
920.928	12136
921.038	12220
921.148	12243
921.258	11908
921.368	11870
921.477	11817
921.587	11703
921.697	11649
921.806	11722
921.916	11638
922.025	11391
922.134	11448
922.244	11387
922.353	11463
922.462	11360
922.571	11208
922.68	11178
922.789	11086
922.898	11124
923.007	11041
923.116	11079
923.224	11025
923.333	11056
923.442	10953
923.55	10927
923.659	10987
923.767	11071
923.876	10862
923.984	11064
924.092	10786
924.201	10942
924.309	10881
924.417	10831
924.525	10786
924.633	10869
924.741	11783
924.849	10634
924.956	10843
925.064	10694
925.172	10577
925.279	10584
925.387	10721
925.494	10622
925.602	10816
925.709	10710
925.816	10603
925.924	10683
926.031	10649
926.138	10603
926.245	10660
926.352	10618
926.459	10710
926.566	10660
926.673	10615
926.779	10535
926.886	10447
926.993	10253
927.099	10337
927.206	10246
927.312	10363
927.419	10356
927.525	10280
927.631	10310
927.737	10223
927.843	10169
927.95	10116
928.056	10120
928.162	10173
928.267	10185
928.373	10812
928.479	10253
928.585	10074
928.69	10150
928.796	10200
928.901	10059
929.007	9949
929.112	10112
929.218	9991
929.323	9983
929.428	9960
929.533	10055
929.638	9934
929.743	9956
929.848	9903
929.953	9937
930.058	9808
930.163	9686
930.267	9701
930.372	9884
930.477	9595
930.581	9956
930.685	9759
930.79	9591
930.894	9618
930.998	9557
931.103	9766
931.207	9370
931.311	9336
931.415	9268
931.519	9020
931.623	9146
