Data from test_V78500241_3282.txt Node
Date: Fri Mar 25 14:56:34 CST 2022
User: usil
Spectrometer: V785-0024
Trigger mode: 0
Integration Time (sec): 4.000000E-1
Scans to average: 1
Nonlinearity correction enabled: false
Boxcar width: 0
Storing dark spectrum: false
XAxis mode: Wavelengths
Number of Pixels in Spectrum: 1024
>>>>>Begin Spectral Data<<<<<
801.071	21934
801.214	21979
801.356	21530
801.499	21606
801.641	21416
801.783	21450
801.926	21370
802.068	21317
802.211	21150
802.353	21165
802.496	21036
802.638	20861
802.78	20792
802.923	20788
803.065	20598
803.208	20632
803.35	20526
803.492	20785
803.635	20815
803.777	20663
803.919	20735
804.061	21036
804.204	20708
804.346	20644
804.488	20590
804.63	20636
804.773	20518
804.915	20636
805.057	20686
805.199	20629
805.341	20617
805.483	20731
805.626	20663
805.768	20594
805.91	20552
806.052	20606
806.194	20583
806.336	20674
806.478	20442
806.62	20495
806.762	20636
806.904	20678
807.046	21024
807.188	20765
807.33	20994
807.472	20925
807.614	20864
807.756	20796
807.898	20640
808.04	20655
808.182	20629
808.324	20556
808.465	20705
808.607	20880
808.749	20933
808.891	20941
809.033	21039
809.174	20960
809.316	20914
809.458	20963
809.6	20975
809.741	20944
809.883	21081
810.025	21150
810.166	21150
810.308	21108
810.45	20982
810.591	20971
810.733	20689
810.875	20693
811.016	20575
811.158	20579
811.299	20701
811.441	20883
811.582	20796
811.724	20701
811.865	20621
812.007	20613
812.148	20739
812.29	20670
812.431	20769
812.573	21074
812.714	21036
812.855	21169
812.997	21192
813.138	21389
813.279	21317
813.421	21150
813.562	21036
813.703	20986
813.845	20857
813.986	20568
814.127	20427
814.268	20374
814.41	20366
814.551	20244
814.692	20275
814.833	20138
814.974	20233
815.115	20183
815.256	20119
815.397	20119
815.539	20077
815.68	19959
815.821	19864
815.962	19944
816.103	19955
816.244	19898
816.385	19708
816.526	19662
816.666	19495
816.807	19377
816.948	19369
817.089	19533
817.23	19460
817.371	19449
817.512	19339
817.653	19255
817.793	19324
817.934	19274
818.075	19365
818.216	19324
818.356	19327
818.497	19251
818.638	19076
818.778	19091
818.919	19031
819.06	19065
819.2	19171
819.341	19179
819.481	19160
819.622	19320
819.762	19552
819.903	19521
820.043	19369
820.184	19430
820.324	19339
820.465	19422
820.605	19358
820.746	19266
820.886	19232
821.026	19312
821.167	19304
821.307	19320
821.447	19190
821.588	19175
821.728	19061
821.868	18951
822.008	18688
822.149	18620
822.289	18681
822.429	18483
822.569	18277
822.709	18388
822.849	18159
822.99	18289
823.13	18224
823.27	18186
823.41	18110
823.55	17965
823.69	18159
823.83	18087
823.97	17965
824.11	17939
824.25	17783
824.389	17866
824.529	17901
824.669	17824
824.809	17851
824.949	17836
825.089	17889
825.228	17813
825.368	17794
825.508	17573
825.648	17600
825.787	17600
825.927	17699
826.067	17554
826.206	17615
826.346	17684
826.485	17676
826.625	17570
826.765	17707
826.904	17661
827.044	17402
827.183	17448
827.323	17372
827.462	17337
827.601	17299
827.741	17311
827.88	17296
828.02	17250
828.159	17296
828.298	17284
828.437	17349
828.577	17170
828.716	17474
828.855	17223
828.994	17162
829.134	17098
829.273	17079
829.412	17033
829.551	17132
829.69	17204
829.829	17003
829.968	17140
830.107	17079
830.246	17121
830.385	17140
830.524	17018
830.663	16869
830.802	16706
830.941	16774
831.08	16618
831.219	16835
831.357	16858
831.496	16843
831.635	16763
831.774	16615
831.913	16691
832.051	16550
832.19	16481
832.329	16527
832.467	16451
832.606	16462
832.744	16344
832.883	16409
833.022	16413
833.16	16379
833.299	16519
833.437	16348
833.576	16417
833.714	16462
833.852	16386
833.991	16405
834.129	16516
834.267	16462
834.406	16478
834.544	16546
834.682	16436
834.821	16398
834.959	16649
835.097	16470
835.235	16561
835.373	16500
835.511	16542
835.65	16386
835.788	16314
835.926	16177
836.064	16226
836.202	16219
836.34	16344
836.478	16500
836.615	16348
836.753	16375
836.891	16424
837.029	16344
837.167	16295
837.305	16276
837.443	16329
837.58	16265
837.718	16428
837.856	16303
837.993	16242
838.131	16242
838.269	16124
838.406	16166
838.544	16177
838.681	15987
838.819	15869
838.956	15850
839.094	15789
839.231	15717
839.369	15823
839.506	16135
839.643	16013
839.781	15816
839.918	15709
840.055	15770
840.193	15717
840.33	15736
840.467	15800
840.604	15709
840.742	16090
840.879	15644
841.016	15724
841.153	15679
841.29	15865
841.427	15713
841.564	15819
841.701	15766
841.838	15785
841.975	15660
842.112	15720
842.249	15701
842.385	15625
842.522	15759
842.659	15610
842.796	15542
842.933	15614
843.069	15511
843.206	15534
843.343	15663
843.479	15618
843.616	15557
843.752	15386
843.889	15336
844.025	15580
844.162	15367
844.298	15344
844.435	15473
844.571	15264
844.708	15310
844.844	15454
844.98	15496
845.117	15523
845.253	15245
845.389	15256
845.525	15291
845.661	15340
845.798	15154
845.934	15169
846.07	15127
846.206	15192
846.342	15222
846.478	15104
846.614	15024
846.75	14876
846.886	14971
847.022	15036
847.158	14925
847.294	15001
847.429	14933
847.565	14857
847.701	15138
847.837	14682
847.972	14594
848.108	14731
848.244	14686
848.379	14549
848.515	14358
848.65	14400
848.786	14488
848.921	14533
849.057	14610
849.192	14552
849.328	14556
849.463	14514
849.598	14560
849.734	14518
849.869	14427
850.004	14336
850.14	14362
850.275	14278
850.41	14142
850.545	14233
850.68	14229
850.815	14412
850.95	14305
851.085	14465
851.22	14324
851.355	14320
851.49	14267
851.625	14290
851.76	14305
851.895	14138
852.03	14145
852.165	14298
852.299	14347
852.434	14237
852.569	14339
852.703	14294
852.838	14351
852.973	14450
853.107	14446
853.242	14218
853.376	14176
853.511	14054
853.645	14058
853.78	14259
853.914	14183
854.048	14138
854.183	14088
854.317	14221
854.451	14415
854.585	14149
854.72	14244
854.854	14263
854.988	14161
855.122	14183
855.256	13951
855.39	14103
855.524	14278
855.658	14286
855.792	14157
855.926	14187
856.06	14278
856.194	14298
856.327	14210
856.461	14115
856.595	14069
856.729	14183
856.862	14149
856.996	14164
857.13	14271
857.263	14218
857.397	14244
857.53	14187
857.664	14233
857.797	14195
857.931	14237
858.064	14256
858.197	14298
858.331	14164
858.464	14069
858.597	14084
858.731	14157
858.864	14157
858.997	14195
859.13	14088
859.263	14180
859.396	14221
859.529	14221
859.662	14123
859.795	14024
859.928	14183
860.061	14313
860.194	14374
860.327	14195
860.46	14183
860.592	14298
860.725	14313
860.858	14259
860.99	14157
861.123	14107
861.256	14138
861.388	14142
861.521	14910
861.653	14027
861.786	14001
861.918	14073
862.05	14008
862.183	14092
862.315	14157
862.447	14210
862.58	14088
862.712	14073
862.844	13837
862.976	13997
863.108	14020
863.24	14286
863.372	13830
863.504	13947
863.636	13940
863.768	13940
863.9	14031
864.032	13947
864.164	13974
864.296	13932
864.428	14046
864.559	14046
864.691	13974
864.823	14092
864.954	13963
865.086	13959
865.217	13830
865.349	13940
865.48	13913
865.612	13936
865.743	14039
865.875	13944
866.006	13879
866.137	13913
866.269	13955
866.4	13940
866.531	13837
866.662	13845
866.793	13883
866.924	13883
867.055	13864
867.186	13947
867.317	13932
867.448	13944
867.579	13852
867.71	13868
867.841	13928
867.972	13917
868.103	13898
868.233	13868
868.364	13993
868.495	14005
868.625	14138
868.756	14320
868.886	14065
869.017	14115
869.147	14278
869.278	14290
869.408	14142
869.539	14199
869.669	14377
869.799	14263
869.929	14290
870.06	14263
870.19	14541
870.32	14396
870.45	14492
870.58	14648
870.71	14697
870.84	14769
870.97	14594
871.1	14636
871.23	14743
871.36	14720
871.489	14697
871.619	14781
871.749	14693
871.879	14895
872.008	14853
872.138	14811
872.267	14731
872.397	14670
872.526	14651
872.656	14655
872.785	14617
872.915	14792
873.044	14956
873.173	14758
873.303	14815
873.432	14826
873.561	14963
873.69	14895
873.819	14819
873.948	14902
874.077	14842
874.206	14830
874.335	14826
874.464	14967
874.593	15100
874.722	14963
874.851	15192
874.979	15180
875.108	15237
875.237	15051
875.365	15077
875.494	15062
875.623	15207
875.751	15051
875.88	15165
876.008	15249
876.136	15435
876.265	15576
876.393	15690
876.521	15641
876.65	15652
876.778	15549
876.906	15496
877.034	15450
877.162	15572
877.29	15485
877.418	15625
877.546	15610
877.674	15538
877.802	15511
877.93	15553
878.058	15523
878.185	15549
878.313	15523
878.441	15675
878.568	15408
878.696	15435
878.824	15526
878.951	15641
879.079	15682
879.206	15892
879.333	15739
879.461	15606
879.588	15709
879.715	15781
879.842	15808
879.97	15698
880.097	15424
880.224	15351
880.351	15492
880.478	15359
880.605	15424
880.732	15477
880.859	15614
880.986	15443
881.112	15458
881.239	15252
881.366	15226
881.493	15188
881.619	15131
881.746	15081
881.872	15055
881.999	15089
882.125	15058
882.252	15154
882.378	15062
882.505	15135
882.631	15043
882.757	14921
882.883	14982
883.01	14815
883.136	14864
883.262	14674
883.388	14773
883.514	14872
883.64	14990
883.766	14895
883.892	14674
884.018	14674
884.143	14880
884.269	14906
884.395	14636
884.52	14552
884.646	14594
884.772	14431
884.897	14488
885.023	14644
885.148	14689
885.274	14765
885.399	14686
885.524	14670
885.65	14655
885.775	14640
885.9	14598
886.025	14743
886.15	14743
886.275	14564
886.4	14476
886.525	14503
886.65	14495
886.775	14533
886.9	14750
887.025	14849
887.149	14629
887.274	14423
887.399	14434
887.523	14366
887.648	14313
887.773	14286
887.897	14533
888.021	14518
888.146	14412
888.27	14450
888.395	14549
888.519	14488
888.643	14415
888.767	14499
888.891	14324
889.015	14202
889.139	14366
889.263	14343
889.387	14457
889.511	14518
889.635	14374
889.759	14275
889.883	14286
890.006	14259
890.13	14415
890.254	14275
890.377	14240
890.501	14176
890.624	14092
890.748	14149
890.871	13989
890.995	14005
891.118	13837
891.241	14016
891.364	13993
891.488	14081
891.611	13974
891.734	13989
891.857	14077
891.98	14050
892.103	14107
892.226	13989
892.349	13989
892.471	13856
892.594	13982
892.717	13974
892.839	13959
892.962	13993
893.085	14054
893.207	13959
893.33	13936
893.452	13887
893.575	14096
893.697	13974
893.819	14142
893.941	14206
894.064	14195
894.186	14043
894.308	13978
894.43	14161
894.552	14172
894.674	14084
894.796	13959
894.918	14058
895.04	14096
895.161	14119
895.283	14092
895.405	14088
895.526	14103
895.648	14103
895.769	14214
895.891	14168
896.012	14229
896.134	14172
896.255	14252
896.376	14157
896.498	14206
896.619	14218
896.74	14259
896.861	14252
896.982	14537
897.103	14701
897.224	14461
897.345	14408
897.466	14446
897.587	14400
897.708	14560
897.828	14469
897.949	14461
898.07	14336
898.19	14355
898.311	14511
898.431	14476
898.552	14507
898.672	14594
898.792	14731
898.913	14667
899.033	14480
899.153	14427
899.273	14252
899.393	14336
899.513	14362
899.633	14389
899.753	14381
899.873	14343
899.993	14419
900.113	14442
900.232	14339
900.352	14336
900.472	14381
900.591	14157
900.711	14275
900.83	14214
900.95	14286
901.069	14320
901.189	14145
901.308	13879
901.427	14031
901.546	13921
901.665	13959
901.784	14001
901.904	13814
902.023	13791
902.141	13552
902.26	13533
902.379	13544
902.498	13457
902.617	13403
902.735	13487
902.854	13540
902.973	13377
903.091	13247
903.21	13164
903.328	13145
903.446	13042
903.565	12993
903.683	13129
903.801	12966
903.919	12962
904.038	13008
904.156	12897
904.274	12916
904.392	12905
904.51	12798
904.627	12878
904.745	12913
904.863	12939
904.981	12673
905.098	12582
905.216	12555
905.334	12555
905.451	12608
905.569	12597
905.686	12623
905.803	12616
905.921	12399
906.038	12589
906.155	12452
906.272	12334
906.389	12292
906.506	12163
906.623	12167
906.74	12220
906.857	12041
906.974	12045
907.091	12201
907.208	12243
907.324	12190
907.441	11984
907.557	11954
907.674	11874
907.79	11775
907.907	11840
908.023	11904
908.139	11927
908.256	11863
908.372	11809
908.488	11783
908.604	11802
908.72	11676
908.836	11726
908.952	11646
909.068	11722
909.184	11760
909.3	11703
909.415	11691
909.531	11646
909.647	11330
909.762	11402
909.878	11368
909.993	11493
910.108	11436
910.224	11337
910.339	11493
910.454	11391
910.57	11292
910.685	11223
910.8	11512
910.915	11471
911.03	11364
911.145	11166
911.259	11132
911.374	11197
911.489	11041
911.604	11022
911.718	10866
911.833	10984
911.947	10721
912.062	10603
912.176	10915
912.291	10968
912.405	10816
912.519	10976
912.633	11041
912.748	11014
912.862	10854
912.976	10820
913.09	10672
913.204	10759
913.318	10778
913.431	10930
913.545	10881
913.659	10999
913.772	10763
913.886	10611
914	10615
914.113	10733
914.226	10797
914.34	10793
914.453	10618
914.566	10740
914.68	10683
914.793	10615
914.906	10443
915.019	10337
915.132	10306
915.245	10398
915.358	10390
915.47	10432
915.583	10489
915.696	10481
915.809	10481
915.921	10527
916.034	10432
916.146	10375
916.259	10352
916.371	10485
916.483	10470
916.595	10227
916.708	10318
916.82	10333
916.932	10242
917.044	10325
917.156	10306
917.268	10234
917.38	10314
917.491	10177
917.603	10185
917.715	10341
917.826	10367
917.938	10219
918.049	10143
918.161	10227
918.272	10371
918.384	10382
918.495	10204
918.606	10173
918.717	10040
918.828	10112
918.939	10173
919.05	10097
919.161	10055
919.272	9937
919.383	9876
919.494	10162
919.604	10409
919.715	10128
919.826	10048
919.936	10097
920.047	10249
920.157	10242
920.267	10299
920.378	10166
920.488	10185
920.598	10356
920.708	10474
920.818	10299
920.928	10375
921.038	10462
921.148	10417
921.258	10185
921.368	10067
921.477	9937
921.587	10013
921.697	9854
921.806	10017
921.916	9915
922.025	9675
922.134	9701
922.244	9564
922.353	9800
922.462	9587
922.571	9580
922.68	9428
922.789	9397
922.898	9378
923.007	9332
923.116	9443
923.224	9431
923.333	9416
923.442	9302
923.55	9336
923.659	9294
923.767	9332
923.876	9199
923.984	9405
924.092	9230
924.201	9313
924.309	9287
924.417	9336
924.525	9207
924.633	9199
924.741	10112
924.849	8963
924.956	9131
925.064	9047
925.172	8929
925.279	9017
925.387	9142
925.494	9077
925.602	9154
925.709	9112
925.816	8990
925.924	9032
926.031	9127
926.138	9055
926.245	9119
926.352	8967
926.459	9211
926.566	9173
926.673	8982
926.779	8887
926.886	8902
926.993	8796
927.099	8785
927.206	8750
927.312	8781
927.419	8819
927.525	8792
927.631	8834
927.737	8766
927.843	8686
927.95	8503
928.056	8667
928.162	8648
928.267	8754
928.373	9245
928.479	8735
928.585	8537
928.69	8674
928.796	8727
928.901	8579
929.007	8454
929.112	8571
929.218	8560
929.323	8495
929.428	8415
929.533	8629
929.638	8396
929.743	8442
929.848	8537
929.953	8495
930.058	8473
930.163	8275
930.267	8263
930.372	8427
930.477	8282
930.581	8518
930.685	8298
930.79	8161
930.894	8286
930.998	8126
931.103	8358
931.207	8054
931.311	7989
931.415	7890
931.519	7753
931.623	7719
