Data from test_V78500241_2009.txt Node
Date: Fri Mar 25 14:47:42 CST 2022
User: usil
Spectrometer: V785-0024
Trigger mode: 0
Integration Time (sec): 4.000000E-1
Scans to average: 1
Nonlinearity correction enabled: false
Boxcar width: 0
Storing dark spectrum: false
XAxis mode: Wavelengths
Number of Pixels in Spectrum: 1024
>>>>>Begin Spectral Data<<<<<
801.071	22135
801.214	21907
801.356	21854
801.499	21622
801.641	21435
801.783	21458
801.926	21439
802.068	21431
802.211	21241
802.353	21329
802.496	21024
802.638	21100
802.78	20944
802.923	20861
803.065	20815
803.208	20765
803.35	20765
803.492	20899
803.635	20880
803.777	20811
803.919	20880
804.061	21207
804.204	20849
804.346	20708
804.488	20739
804.63	20746
804.773	20769
804.915	20754
805.057	20731
805.199	20720
805.341	20819
805.483	20941
805.626	20857
805.768	20739
805.91	20735
806.052	20708
806.194	20609
806.336	20834
806.478	20720
806.62	20701
806.762	20686
806.904	21081
807.046	21222
807.188	21119
807.33	21043
807.472	21184
807.614	20952
807.756	21043
807.898	20891
808.04	20777
808.182	20727
808.324	20735
808.465	20956
808.607	20982
808.749	21005
808.891	21226
809.033	21275
809.174	21100
809.316	21081
809.458	21024
809.6	21089
809.741	21173
809.883	21264
810.025	21313
810.166	21237
810.308	21207
810.45	21226
810.591	21077
810.733	20998
810.875	20811
811.016	20899
811.158	20739
811.299	20906
811.441	20986
811.582	20975
811.724	20883
811.865	21009
812.007	20838
812.148	20826
812.29	20872
812.431	20982
812.573	21230
812.714	21241
812.855	21386
812.997	21374
813.138	21507
813.279	21557
813.421	21306
813.562	21218
813.703	21085
813.845	21028
813.986	20899
814.127	20575
814.268	20522
814.41	20526
814.551	20381
814.692	20419
814.833	20301
814.974	20370
815.115	20423
815.256	20282
815.397	20275
815.539	20298
815.68	20237
815.821	20103
815.962	20206
816.103	20058
816.244	20122
816.385	19849
816.526	19807
816.666	19670
816.807	19704
816.948	19613
817.089	19723
817.23	19647
817.371	19620
817.512	19460
817.653	19495
817.793	19514
817.934	19434
818.075	19590
818.216	19453
818.356	19411
818.497	19324
818.638	19217
818.778	19171
818.919	19282
819.06	19312
819.2	19308
819.341	19388
819.481	19453
819.622	19681
819.762	19670
819.903	19651
820.043	19655
820.184	19544
820.324	19571
820.465	19643
820.605	19525
820.746	19529
820.886	19438
821.026	19502
821.167	19460
821.307	19552
821.447	19483
821.588	19419
821.728	19259
821.868	19122
822.008	18833
822.149	18894
822.289	18848
822.429	18730
822.569	18620
822.709	18555
822.849	18517
822.99	18460
823.13	18350
823.27	18403
823.41	18243
823.55	18239
823.69	18114
823.83	18346
823.97	18174
824.11	18003
824.25	17859
824.389	17992
824.529	18087
824.669	17973
824.809	18186
824.949	18068
825.089	18110
825.228	17954
825.368	17775
825.508	17851
825.648	17813
825.787	17828
825.927	17851
826.067	17779
826.206	17752
826.346	17821
826.485	17817
826.625	17771
826.765	17847
826.904	17916
827.044	17627
827.183	17551
827.323	17448
827.462	17589
827.601	17516
827.741	17452
827.88	17509
828.02	17376
828.159	17509
828.298	17478
828.437	17600
828.577	17383
828.716	17611
828.855	17383
828.994	17216
829.134	17216
829.273	17364
829.412	17147
829.551	17128
829.69	17189
829.829	17231
829.968	17258
830.107	17227
830.246	17216
830.385	17121
830.524	17162
830.663	17136
830.802	17010
830.941	16820
831.08	16885
831.219	16995
831.357	17018
831.496	17098
831.635	16759
831.774	16793
831.913	16653
832.051	16675
832.19	16691
832.329	16729
832.467	16656
832.606	16478
832.744	16546
832.883	16694
833.022	16561
833.16	16637
833.299	16588
833.437	16603
833.576	16645
833.714	16672
833.852	16577
833.991	16691
834.129	16721
834.267	16740
834.406	16672
834.544	16592
834.682	16618
834.821	16596
834.959	16710
835.097	16569
835.235	16660
835.373	16596
835.511	16634
835.65	16550
835.788	16599
835.926	16382
836.064	16413
836.202	16424
836.34	16580
836.478	16664
836.615	16440
836.753	16580
836.891	16706
837.029	16542
837.167	16417
837.305	16451
837.443	16398
837.58	16409
837.718	16481
837.856	16402
837.993	16249
838.131	16329
838.269	16295
838.406	16261
838.544	16306
838.681	16192
838.819	16147
838.956	15876
839.094	15926
839.231	16036
839.369	16090
839.506	16295
839.643	16226
839.781	15895
839.918	15979
840.055	16029
840.193	15915
840.33	15895
840.467	16059
840.604	15998
840.742	16177
840.879	15682
841.016	15850
841.153	15842
841.29	16036
841.427	15983
841.564	15998
841.701	15903
841.838	15926
841.975	15884
842.112	15945
842.249	15705
842.385	15705
842.522	15953
842.659	15781
842.796	15736
842.933	15736
843.069	15747
843.206	15591
843.343	15888
843.479	15751
843.616	15671
843.752	15519
843.889	15530
844.025	15709
844.162	15538
844.298	15576
844.435	15576
844.571	15511
844.708	15511
844.844	15667
844.98	15580
845.117	15549
845.253	15538
845.389	15424
845.525	15355
845.661	15355
845.798	15317
845.934	15256
846.07	15260
846.206	15386
846.342	15416
846.478	15363
846.614	15108
846.75	15020
846.886	15032
847.022	15237
847.158	15142
847.294	15036
847.429	15108
847.565	15058
847.701	15275
847.837	14883
847.972	14743
848.108	14921
848.244	14880
848.379	14708
848.515	14651
848.65	14648
848.786	14800
848.921	14708
849.057	14727
849.192	14758
849.328	14651
849.463	14750
849.598	14648
849.734	14621
849.869	14556
850.004	14526
850.14	14522
850.275	14526
850.41	14305
850.545	14355
850.68	14427
850.815	14415
850.95	14408
851.085	14629
851.22	14514
851.355	14518
851.49	14492
851.625	14298
851.76	14431
851.895	14324
852.03	14271
852.165	14522
852.299	14450
852.434	14541
852.569	14545
852.703	14571
852.838	14499
852.973	14727
853.107	14533
853.242	14366
853.376	14393
853.511	14320
853.645	14229
853.78	14473
853.914	14317
854.048	14317
854.183	14332
854.317	14301
854.451	14499
854.585	14248
854.72	14336
854.854	14438
854.988	14252
855.122	14320
855.256	14191
855.39	14271
855.524	14366
855.658	14362
855.792	14305
855.926	14374
856.06	14358
856.194	14427
856.327	14259
856.461	14313
856.595	14278
856.729	14202
856.862	14473
856.996	14320
857.13	14343
857.263	14377
857.397	14533
857.53	14282
857.664	14419
857.797	14473
857.931	14492
858.064	14313
858.197	14419
858.331	14377
858.464	14324
858.597	14248
858.731	14347
858.864	14290
858.997	14336
859.13	14290
859.263	14324
859.396	14328
859.529	14278
859.662	14313
859.795	14256
859.928	14389
860.061	14518
860.194	14434
860.327	14233
860.46	14267
860.592	14358
860.725	14370
860.858	14355
860.99	14358
861.123	14248
861.256	14282
861.388	14404
861.521	14967
861.653	14275
861.786	14096
861.918	14263
862.05	14248
862.183	14389
862.315	14290
862.447	14278
862.58	14256
862.712	14145
862.844	14077
862.976	14115
863.108	14119
863.24	14427
863.372	13932
863.504	14065
863.636	14145
863.768	14084
863.9	14115
864.032	14027
864.164	14100
864.296	14107
864.428	14119
864.559	14214
864.691	14256
864.823	14115
864.954	14191
865.086	14191
865.217	14107
865.349	14054
865.48	14172
865.612	14191
865.743	14320
865.875	14058
866.006	14001
866.137	14062
866.269	14016
866.4	14050
866.531	13989
866.662	14065
866.793	14065
866.924	14073
867.055	14119
867.186	14081
867.317	14039
867.448	13944
867.579	14020
867.71	14081
867.841	13974
867.972	14016
868.103	14046
868.233	14107
868.364	14012
868.495	14149
868.625	14317
868.756	14400
868.886	14237
869.017	14225
869.147	14518
869.278	14427
869.408	14336
869.539	14336
869.669	14484
869.799	14381
869.929	14415
870.06	14461
870.19	14568
870.32	14693
870.45	14667
870.58	14731
870.71	14872
870.84	14868
870.97	14739
871.1	14731
871.23	14891
871.36	14906
871.489	14800
871.619	14941
871.749	14883
871.879	15047
872.008	15039
872.138	14929
872.267	14925
872.397	14891
872.526	14750
872.656	14781
872.785	14823
872.915	14979
873.044	15047
873.173	15051
873.303	15047
873.432	15013
873.561	15055
873.69	14998
873.819	14868
873.948	15157
874.077	15131
874.206	14941
874.335	15036
874.464	15119
874.593	15329
874.722	15203
874.851	15279
874.979	15275
875.108	15332
875.237	15256
875.365	15237
875.494	15169
875.623	15332
875.751	15287
875.88	15332
876.008	15397
876.136	15534
876.265	15743
876.393	15732
876.521	15778
876.65	15701
876.778	15774
876.906	15656
877.034	15652
877.162	15682
877.29	15690
877.418	15633
877.546	15660
877.674	15614
877.802	15789
877.93	15686
878.058	15644
878.185	15576
878.313	15736
878.441	15682
878.568	15614
878.696	15629
878.824	15667
878.951	15819
879.079	15892
879.206	16025
879.333	15915
879.461	15732
879.588	15842
879.715	15979
879.842	15968
879.97	15850
880.097	15561
880.224	15648
880.351	15610
880.478	15526
880.605	15496
880.732	15572
880.859	15842
880.986	15526
881.112	15587
881.239	15469
881.366	15294
881.493	15291
881.619	15157
881.746	15222
881.872	15176
881.999	15127
882.125	15226
882.252	15348
882.378	15184
882.505	15344
882.631	15135
882.757	15123
882.883	15116
883.01	15150
883.136	15104
883.262	14998
883.388	14952
883.514	15104
883.64	15173
883.766	15024
883.892	14937
884.018	14963
884.143	15062
884.269	15112
884.395	14895
884.52	14773
884.646	14762
884.772	14712
884.897	14655
885.023	14765
885.148	14895
885.274	14925
885.399	14849
885.524	14785
885.65	14758
885.775	14773
885.9	14727
886.025	14883
886.15	14777
886.275	14807
886.4	14667
886.525	14754
886.65	14712
886.775	14800
886.9	14914
887.025	15043
887.149	14876
887.274	14682
887.399	14613
887.523	14594
887.648	14408
887.773	14514
887.897	14731
888.021	14636
888.146	14514
888.27	14743
888.395	14731
888.519	14610
888.643	14682
888.767	14727
888.891	14571
889.015	14457
889.139	14473
889.263	14427
889.387	14613
889.511	14731
889.635	14598
889.759	14446
889.883	14556
890.006	14518
890.13	14613
890.254	14332
890.377	14400
890.501	14271
890.624	14256
890.748	14298
890.871	14210
890.995	14096
891.118	14073
891.241	14199
891.364	14183
891.488	14263
891.611	14145
891.734	14199
891.857	14252
891.98	14214
892.103	14199
892.226	14351
892.349	14164
892.471	14001
892.594	14103
892.717	14145
892.839	14172
892.962	14145
893.085	14252
893.207	14176
893.33	14123
893.452	14145
893.575	14252
893.697	14157
893.819	14252
893.941	14370
894.064	14290
894.186	14065
894.308	14126
894.43	14271
894.552	14358
894.674	14294
894.796	14202
894.918	14191
895.04	14164
895.161	14298
895.283	14336
895.405	14275
895.526	14252
895.648	14237
895.769	14252
895.891	14438
896.012	14377
896.134	14332
896.255	14309
896.376	14271
896.498	14362
896.619	14415
896.74	14294
896.861	14305
896.982	14739
897.103	14727
897.224	14575
897.345	14533
897.466	14495
897.587	14564
897.708	14777
897.828	14701
897.949	14549
898.07	14480
898.19	14571
898.311	14644
898.431	14583
898.552	14648
898.672	14773
898.792	14773
898.913	14682
899.033	14670
899.153	14552
899.273	14393
899.393	14530
899.513	14465
899.633	14552
899.753	14564
899.873	14613
899.993	14632
900.113	14465
900.232	14590
900.352	14522
900.472	14434
900.591	14282
900.711	14347
900.83	14328
900.95	14552
901.069	14423
901.189	14389
901.308	14103
901.427	14050
901.546	14115
901.665	13967
901.784	14054
901.904	13913
902.023	13890
902.141	13708
902.26	13723
902.379	13723
902.498	13533
902.617	13681
902.735	13670
902.854	13567
902.973	13613
903.091	13362
903.21	13343
903.328	13346
903.446	13274
903.565	13255
903.683	13228
903.801	13091
903.919	13255
904.038	13145
904.156	13004
904.274	13160
904.392	13004
904.51	12935
904.627	12966
904.745	13019
904.863	13027
904.981	12875
905.098	12722
905.216	12677
905.334	12703
905.451	12719
905.569	12669
905.686	12726
905.803	12696
905.921	12582
906.038	12658
906.155	12593
906.272	12506
906.389	12441
906.506	12346
906.623	12403
906.74	12213
906.857	12266
906.974	12201
907.091	12399
907.208	12445
907.324	12342
907.441	12194
907.557	12068
907.674	11980
907.79	11916
907.907	12019
908.023	12121
908.139	12091
908.256	11980
908.372	11950
908.488	11904
908.604	11817
908.72	11813
908.836	11745
908.952	11836
909.068	11840
909.184	11927
909.3	11832
909.415	11885
909.531	11798
909.647	11547
909.762	11627
909.878	11505
909.993	11573
910.108	11573
910.224	11543
910.339	11581
910.454	11482
910.57	11452
910.685	11349
910.8	11703
910.915	11452
911.03	11493
911.145	11337
911.259	11212
911.374	11303
911.489	11208
911.604	11208
911.718	11056
911.833	10991
911.947	10942
912.062	10927
912.176	11010
912.291	11025
912.405	11006
912.519	11204
912.633	11288
912.748	11090
912.862	11010
912.976	10915
913.09	10717
913.204	10831
913.318	10949
913.431	11041
913.545	11094
913.659	11067
913.772	10980
913.886	10831
914	10797
914.113	10866
914.226	10927
914.34	10858
914.453	10706
914.566	10900
914.68	10729
914.793	10679
914.906	10588
915.019	10451
915.132	10504
915.245	10443
915.358	10569
915.47	10588
915.583	10660
915.696	10622
915.809	10615
915.921	10721
916.034	10569
916.146	10519
916.259	10523
916.371	10565
916.483	10546
916.595	10519
916.708	10451
916.82	10493
916.932	10447
917.044	10440
917.156	10409
917.268	10341
917.38	10360
917.491	10390
917.603	10382
917.715	10363
917.826	10451
917.938	10382
918.049	10272
918.161	10344
918.272	10554
918.384	10497
918.495	10303
918.606	10238
918.717	10215
918.828	10246
918.939	10318
919.05	10173
919.161	10215
919.272	10086
919.383	10147
919.494	10272
919.604	10470
919.715	10318
919.826	10188
919.936	10211
920.047	10314
920.157	10238
920.267	10504
920.378	10363
920.488	10173
920.598	10390
920.708	10634
920.818	10459
920.928	10379
921.038	10599
921.148	10531
921.258	10314
921.368	10188
921.477	10074
921.587	10086
921.697	9991
921.806	10150
921.916	10059
922.025	9865
922.134	9816
922.244	9785
922.353	9842
922.462	9759
922.571	9663
922.68	9561
922.789	9469
922.898	9477
923.007	9393
923.116	9504
923.224	9439
923.333	9469
923.442	9428
923.55	9348
923.659	9431
923.767	9462
923.876	9378
923.984	9401
924.092	9317
924.201	9412
924.309	9439
924.417	9408
924.525	9310
924.633	9401
924.741	10348
924.849	9184
924.956	9355
925.064	9207
925.172	9085
925.279	9123
925.387	9119
925.494	9188
925.602	9287
925.709	9214
925.816	9093
925.924	9169
926.031	9310
926.138	9199
926.245	9161
926.352	9074
926.459	9287
926.566	9279
926.673	9142
926.779	8998
926.886	8998
926.993	8842
927.099	8826
927.206	8811
927.312	8823
927.419	8910
927.525	8899
927.631	8891
927.737	8845
927.843	8785
927.95	8667
928.056	8743
928.162	8724
928.267	8781
928.373	9443
928.479	8925
928.585	8682
928.69	8781
928.796	8826
928.901	8686
929.007	8602
929.112	8720
929.218	8640
929.323	8636
929.428	8606
929.533	8674
929.638	8518
929.743	8613
929.848	8537
929.953	8549
930.058	8454
930.163	8381
930.267	8336
930.372	8469
930.477	8309
930.581	8602
930.685	8541
930.79	8294
930.894	8362
930.998	8339
931.103	8381
931.207	8092
931.311	8012
931.415	7997
931.519	7845
931.623	7780
