Data from test_V78500241_630.txt Node
Date: Fri Mar 25 14:38:06 CST 2022
User: usil
Spectrometer: V785-0024
Trigger mode: 0
Integration Time (sec): 4.000000E-1
Scans to average: 1
Nonlinearity correction enabled: false
Boxcar width: 0
Storing dark spectrum: false
XAxis mode: Wavelengths
Number of Pixels in Spectrum: 1024
>>>>>Begin Spectral Data<<<<<
801.071	27838
801.214	27759
801.356	27458
801.499	27389
801.641	27332
801.783	27306
801.926	27260
802.068	27165
802.211	26986
802.353	27047
802.496	26842
802.638	26750
802.78	26765
802.923	26807
803.065	26735
803.208	26674
803.35	26788
803.492	26895
803.635	26929
803.777	26887
803.919	26925
804.061	27321
804.204	27009
804.346	27066
804.488	26834
804.63	27066
804.773	26971
804.915	26963
805.057	27252
805.199	27077
805.341	27298
805.483	27424
805.626	27427
805.768	27291
805.91	27538
806.052	27637
806.194	27625
806.336	27926
806.478	27884
806.62	28204
806.762	28432
806.904	28675
807.046	29162
807.188	29303
807.33	29627
807.472	30224
807.614	30608
807.756	31308
807.898	32092
808.04	33374
808.182	34972
808.324	36951
808.465	39271
808.607	41927
808.749	44240
808.891	45515
809.033	45682
809.174	44240
809.316	42159
809.458	39332
809.6	36661
809.741	34702
809.883	32861
810.025	31788
810.166	31027
810.308	30361
810.45	29851
810.591	29577
810.733	29056
810.875	28733
811.016	28386
811.158	28371
811.299	28200
811.441	28200
811.582	28048
811.724	27842
811.865	27778
812.007	27629
812.148	27580
812.29	27595
812.431	27614
812.573	27732
812.714	27762
812.855	27743
812.997	28025
813.138	28067
813.279	27892
813.421	27667
813.562	27743
813.703	27523
813.845	27199
813.986	26864
814.127	26712
814.268	26712
814.41	26769
814.551	26594
814.692	26617
814.833	26488
814.974	26446
815.115	26408
815.256	26358
815.397	26221
815.539	26400
815.68	26164
815.821	26153
815.962	26191
816.103	26134
816.244	25978
816.385	25868
816.526	25826
816.666	25674
816.807	25662
816.948	25415
817.089	25506
817.23	25571
817.371	25407
817.512	25476
817.653	25335
817.793	25312
817.934	25335
818.075	25441
818.216	25274
818.356	25343
818.497	25217
818.638	25133
818.778	25175
818.919	25141
819.06	25156
819.2	25259
819.341	25377
819.481	25350
819.622	25327
819.762	25613
819.903	25464
820.043	25392
820.184	25426
820.324	25388
820.465	25411
820.605	25327
820.746	25301
820.886	25076
821.026	25266
821.167	25206
821.307	25263
821.447	25129
821.588	24890
821.728	24844
821.868	24787
822.008	24654
822.149	24585
822.289	24475
822.429	24239
822.569	24205
822.709	24114
822.849	24083
822.99	24053
823.13	23863
823.27	23958
823.41	23794
823.55	23615
823.69	23916
823.83	23760
823.97	23748
824.11	23512
824.25	23535
824.389	23528
824.529	23615
824.669	23452
824.809	23687
824.949	23627
825.089	23619
825.228	23520
825.368	23288
825.508	23417
825.648	23303
825.787	23383
825.927	23379
826.067	23220
826.206	23383
826.346	23292
826.485	23307
826.625	23246
826.765	23364
826.904	23360
827.044	23033
827.183	22965
827.323	22885
827.462	22968
827.601	23067
827.741	22820
827.88	23117
828.02	22820
828.159	22961
828.298	22915
828.437	22938
828.577	22729
828.716	23037
828.855	22877
828.994	22694
829.134	22790
829.273	22771
829.412	22546
829.551	22649
829.69	22584
829.829	22603
829.968	22675
830.107	22702
830.246	22694
830.385	22592
830.524	22550
830.663	22493
830.802	22265
830.941	22230
831.08	22200
831.219	22280
831.357	22223
831.496	22390
831.635	22135
831.774	22215
831.913	22143
832.051	21979
832.19	22067
832.329	22158
832.467	21975
832.606	22032
832.744	21838
832.883	21991
833.022	22048
833.16	22196
833.299	22363
833.437	22459
833.576	22474
833.714	22573
833.852	22831
833.991	22771
834.129	22942
834.267	23025
834.406	22831
834.544	22759
834.682	22660
834.821	22535
834.959	22683
835.097	22306
835.235	22352
835.373	22265
835.511	22207
835.65	21968
835.788	22017
835.926	21869
836.064	21736
836.202	21698
836.34	21903
836.478	21812
836.615	21728
836.753	21766
836.891	21812
837.029	21743
837.167	21709
837.305	21675
837.443	21534
837.58	21622
837.718	21599
837.856	21591
837.993	21564
838.131	21580
838.269	21408
838.406	21454
838.544	21412
838.681	21214
838.819	21070
838.956	21051
839.094	21036
839.231	20982
839.369	21131
839.506	21340
839.643	21214
839.781	20975
839.918	20921
840.055	20925
840.193	20895
840.33	21001
840.467	20998
840.604	20941
840.742	21127
840.879	20735
841.016	20746
841.153	20811
841.29	20963
841.427	20853
841.564	20933
841.701	20800
841.838	20708
841.975	20735
842.112	20807
842.249	20598
842.385	20651
842.522	20891
842.659	20811
842.796	20609
842.933	20636
843.069	20773
843.206	20823
843.343	20724
843.479	20899
843.616	20769
843.752	20686
843.889	20651
844.025	20914
844.162	20743
844.298	20979
844.435	21036
844.571	21051
844.708	21439
844.844	21618
844.98	22051
845.117	22462
845.253	23254
845.389	24559
845.525	27272
845.661	31742
845.798	37057
845.934	41208
846.07	42810
846.206	41836
846.342	38183
846.478	32701
846.614	28215
846.75	24970
846.886	23330
847.022	22325
847.158	21599
847.294	21001
847.429	20712
847.565	20621
847.701	20720
847.837	20145
847.972	20039
848.108	20020
848.244	20012
848.379	19845
848.515	19719
848.65	19734
848.786	19662
848.921	19575
849.057	19757
849.192	19700
849.328	19655
849.463	19567
849.598	19571
849.734	19426
849.869	19441
850.004	19278
850.14	19384
850.275	19320
850.41	19137
850.545	19270
850.68	19209
850.815	19255
850.95	19194
851.085	19487
851.22	19278
851.355	19225
851.49	19232
851.625	19206
851.76	19171
851.895	19187
852.03	19110
852.165	19266
852.299	19225
852.434	19400
852.569	19301
852.703	19335
852.838	19377
852.973	19506
853.107	19563
853.242	19354
853.376	19316
853.511	19225
853.645	19335
853.78	19407
853.914	19457
854.048	19217
854.183	19324
854.317	19430
854.451	19616
854.585	19457
854.72	19457
854.854	19472
854.988	19278
855.122	19293
855.256	19183
855.39	19251
855.524	19301
855.658	19206
855.792	19217
855.926	19171
856.06	19114
856.194	19206
856.327	19099
856.461	19057
856.595	18985
856.729	19034
856.862	19148
856.996	19118
857.13	19091
857.263	19148
857.397	19137
857.53	19057
857.664	19076
857.797	19088
857.931	19084
858.064	19088
858.197	19232
858.331	19000
858.464	18932
858.597	18920
858.731	18924
858.864	18951
858.997	18840
859.13	19072
859.263	18962
859.396	19072
859.529	18783
859.662	18935
859.795	18928
859.928	18928
860.061	19129
860.194	19190
860.327	18989
860.46	18913
860.592	19012
860.725	19027
860.858	19065
860.99	18901
861.123	18905
861.256	18894
861.388	19019
861.521	19491
861.653	18829
861.786	18745
861.918	18821
862.05	18745
862.183	18890
862.315	18798
862.447	18943
862.58	18886
862.712	18757
862.844	18547
862.976	18532
863.108	18730
863.24	18962
863.372	18593
863.504	18521
863.636	18574
863.768	18646
863.9	18578
864.032	18540
864.164	18547
864.296	18677
864.428	18741
864.559	18623
864.691	18692
864.823	18639
864.954	18585
865.086	18559
865.217	18506
865.349	18437
865.48	18601
865.612	18601
865.743	18627
865.875	18566
866.006	18479
866.137	18456
866.269	18467
866.4	18464
866.531	18460
866.662	18426
866.793	18452
866.924	18582
867.055	18540
867.186	18502
867.317	18456
867.448	18407
867.579	18399
867.71	18327
867.841	18410
867.972	18559
868.103	18559
868.233	18547
868.364	18525
868.495	18646
868.625	18673
868.756	18943
868.886	18597
869.017	18726
869.147	18856
869.278	18966
869.408	18741
869.539	18692
869.669	18817
869.799	18871
869.929	18810
870.06	18844
870.19	19038
870.32	19168
870.45	19080
870.58	19095
870.71	19343
870.84	19350
870.97	19160
871.1	19088
871.23	19400
871.36	19514
871.489	19377
871.619	19270
871.749	19518
871.879	19415
872.008	19556
872.138	19464
872.267	19441
872.397	19403
872.526	19343
872.656	19255
872.785	19304
872.915	19605
873.044	19700
873.173	19487
873.303	19757
873.432	19578
873.561	19761
873.69	19708
873.819	19708
873.948	19712
874.077	19624
874.206	19704
874.335	19833
874.464	19913
874.593	19997
874.722	19997
874.851	20206
874.979	20035
875.108	20180
875.237	20172
875.365	20062
875.494	20149
875.623	20263
875.751	20275
875.88	20275
876.008	20488
876.136	20583
876.265	20800
876.393	20975
876.521	20960
876.65	20975
876.778	20925
876.906	21108
877.034	20906
877.162	21146
877.29	21043
877.418	21237
877.546	21306
877.674	21313
877.802	21359
877.93	21564
878.058	21595
878.185	21747
878.313	21972
878.441	22337
878.568	22402
878.696	23052
878.824	23687
878.951	24597
879.079	25826
879.206	27302
879.333	29098
879.461	30296
879.588	31323
879.715	31297
879.842	30604
879.97	29010
880.097	27230
880.224	25978
880.351	25099
880.478	24483
880.605	23809
880.732	23710
880.859	23729
880.986	23334
881.112	23349
881.239	23151
881.366	23018
881.493	22904
881.619	22767
881.746	22862
881.872	22987
881.999	22900
882.125	22748
882.252	23064
882.378	22942
882.505	23136
882.631	22938
882.757	22805
882.883	22843
883.01	22752
883.136	22752
883.262	22771
883.388	22683
883.514	22786
883.64	22774
883.766	22782
883.892	22622
884.018	22653
884.143	22679
884.269	22938
884.395	22550
884.52	22519
884.646	22573
884.772	22531
884.897	22390
885.023	22611
885.148	22497
885.274	22656
885.399	22363
885.524	22226
885.65	22143
885.775	22105
885.9	22063
886.025	22036
886.15	21880
886.275	21694
886.4	21568
886.525	21355
886.65	21405
886.775	21135
886.9	21321
887.025	21252
887.149	21005
887.274	20815
887.399	20731
887.523	20549
887.648	20552
887.773	20355
887.897	20495
888.021	20480
888.146	20332
888.27	20396
888.395	20374
888.519	20183
888.643	20320
888.767	20328
888.891	19951
889.015	19959
889.139	19947
889.263	19856
889.387	19974
889.511	19925
889.635	19917
889.759	19742
889.883	19772
890.006	19700
890.13	19871
890.254	19525
890.377	19540
890.501	19384
890.624	19327
890.748	19419
890.871	19274
890.995	19110
891.118	19042
891.241	19072
891.364	19042
891.488	19110
891.611	19042
891.734	19114
891.857	19061
891.98	19012
892.103	19080
892.226	18981
892.349	18837
892.471	18661
892.594	18795
892.717	18856
892.839	18715
892.962	18783
893.085	18787
893.207	18635
893.33	18589
893.452	18589
893.575	18631
893.697	18608
893.819	18863
893.941	18802
894.064	18726
894.186	18525
894.308	18513
894.43	18585
894.552	18684
894.674	18601
894.796	18498
894.918	18563
895.04	18418
895.161	18536
895.283	18410
895.405	18323
895.526	18414
895.648	18471
895.769	18479
895.891	18445
896.012	18525
896.134	18475
896.255	18327
896.376	18429
896.498	18399
896.619	18372
896.74	18277
896.861	18445
896.982	18612
897.103	18654
897.224	18650
897.345	18445
897.466	18532
897.587	18540
897.708	18574
897.828	18597
897.949	18437
898.07	18350
898.19	18437
898.311	18753
898.431	18563
898.552	18608
898.672	18597
898.792	18540
898.913	18525
899.033	18388
899.153	18308
899.273	18315
899.393	18205
899.513	18270
899.633	18338
899.753	18350
899.873	18213
899.993	18330
900.113	18201
900.232	18323
900.352	18159
900.472	18159
900.591	18026
900.711	18068
900.83	17992
900.95	18098
901.069	18194
901.189	18057
901.308	17668
901.427	17649
901.546	17672
901.665	17710
901.784	17752
901.904	17535
902.023	17360
902.141	17337
902.26	17284
902.379	17265
902.498	17159
902.617	17121
902.735	17254
902.854	17166
902.973	17022
903.091	16767
903.21	16801
903.328	16797
903.446	16637
903.565	16626
903.683	16630
903.801	16478
903.919	16531
904.038	16531
904.156	16413
904.274	16356
904.392	16382
904.51	16386
904.627	16371
904.745	16413
904.863	16333
904.981	16074
905.098	16063
905.216	15998
905.334	15956
905.451	15975
905.569	16006
905.686	16010
905.803	15953
905.921	15808
906.038	15869
906.155	15873
906.272	15675
906.389	15675
906.506	15439
906.623	15466
906.74	15492
906.857	15275
906.974	15370
907.091	15561
907.208	15568
907.324	15580
907.441	15420
907.557	15214
907.674	15161
907.79	15047
907.907	15180
908.023	15165
908.139	15241
908.256	15123
908.372	15100
908.488	15135
908.604	14921
908.72	14842
908.836	14910
908.952	14864
909.068	14994
909.184	15055
909.3	14902
909.415	14857
909.531	14804
909.647	14693
909.762	14552
909.878	14625
909.993	14636
910.108	14693
910.224	14689
910.339	14655
910.454	14495
910.57	14400
910.685	14450
910.8	14678
910.915	14526
911.03	14358
911.145	14275
911.259	14191
911.374	14199
911.489	14210
911.604	14123
911.718	13940
911.833	13883
911.947	13833
912.062	13791
912.176	14020
912.291	14027
912.405	13944
912.519	14111
912.633	14206
912.748	14050
912.862	13997
912.976	13894
913.09	13734
913.204	13795
913.318	13883
913.431	13906
913.545	13883
913.659	13967
913.772	13879
913.886	13639
914	13674
914.113	13731
914.226	13750
914.34	13734
914.453	13502
914.566	13723
914.68	13575
914.793	13571
914.906	13407
915.019	13225
915.132	13270
915.245	13384
915.358	13362
915.47	13339
915.583	13388
915.696	13441
915.809	13537
915.921	13537
916.034	13320
916.146	13308
916.259	13209
916.371	13339
916.483	13312
916.595	13301
916.708	13270
916.82	13282
916.932	13244
917.044	13278
917.156	13244
917.268	13129
917.38	13156
917.491	13107
917.603	13091
917.715	13129
917.826	13149
917.938	13015
918.049	13027
918.161	13012
918.272	13194
918.384	13126
918.495	12993
918.606	12783
918.717	12806
918.828	12829
918.939	12882
919.05	12631
919.161	12837
919.272	12623
919.383	12757
919.494	12890
919.604	13042
919.715	12802
919.826	12741
919.936	12768
920.047	12962
920.157	12787
920.267	12981
920.378	12814
920.488	12787
920.598	12977
920.708	13069
920.818	12920
920.928	12958
921.038	13061
921.148	13023
921.258	12776
921.368	12646
921.477	12589
921.587	12498
921.697	12456
921.806	12566
921.916	12365
922.025	12220
922.134	12281
922.244	12129
922.353	12247
922.462	12098
922.571	12053
922.68	11866
922.789	11878
922.898	11813
923.007	11760
923.116	11889
923.224	11889
923.333	11885
923.442	11775
923.55	11703
923.659	11767
923.767	11828
923.876	11661
923.984	11832
924.092	11661
924.201	11657
924.309	11688
924.417	11672
924.525	11661
924.633	11619
924.741	12410
924.849	11436
924.956	11604
925.064	11455
925.172	11334
925.279	11337
925.387	11421
925.494	11459
925.602	11490
925.709	11501
925.816	11307
925.924	11376
926.031	11440
926.138	11421
926.245	11402
926.352	11231
926.459	11372
926.566	11387
926.673	11322
926.779	11178
926.886	11277
926.993	11075
927.099	11037
927.206	11014
927.312	10965
927.419	11098
927.525	10991
927.631	11045
927.737	10919
927.843	10885
927.95	10797
928.056	10786
928.162	10858
928.267	10911
928.373	11440
928.479	10885
928.585	10694
928.69	10873
928.796	10866
928.901	10740
929.007	10626
929.112	10759
929.218	10717
929.323	10683
929.428	10577
929.533	10744
929.638	10584
929.743	10550
929.848	10554
929.953	10596
930.058	10504
930.163	10360
930.267	10314
930.372	10447
930.477	10318
930.581	10546
930.685	10440
930.79	10169
930.894	10314
930.998	10223
931.103	10344
931.207	9998
931.311	9953
931.415	9846
931.519	9709
931.623	9663
