Data from test_V78500241_2395.txt Node
Date: Fri Mar 25 14:50:23 CST 2022
User: usil
Spectrometer: V785-0024
Trigger mode: 0
Integration Time (sec): 4.000000E-1
Scans to average: 1
Nonlinearity correction enabled: false
Boxcar width: 0
Storing dark spectrum: false
XAxis mode: Wavelengths
Number of Pixels in Spectrum: 1024
>>>>>Begin Spectral Data<<<<<
801.071	22120
801.214	22135
801.356	21838
801.499	21743
801.641	21542
801.783	21355
801.926	21595
802.068	21515
802.211	21287
802.353	21249
802.496	21252
802.638	21043
802.78	20998
802.923	20960
803.065	20804
803.208	20727
803.35	20864
803.492	21017
803.635	20941
803.777	20895
803.919	20834
804.061	21123
804.204	20941
804.346	20792
804.488	20796
804.63	20823
804.773	20792
804.915	20739
805.057	20842
805.199	20743
805.341	20773
805.483	20853
805.626	20842
805.768	20670
805.91	20678
806.052	20792
806.194	20617
806.336	20777
806.478	20712
806.62	20727
806.762	20868
806.904	20929
807.046	21005
807.188	21123
807.33	21020
807.472	21100
807.614	21074
807.756	20994
807.898	20910
808.04	20777
808.182	20724
808.324	20834
808.465	20948
808.607	21047
808.749	21180
808.891	21199
809.033	21332
809.174	21142
809.316	21154
809.458	21070
809.6	20963
809.741	21268
809.883	21195
810.025	21199
810.166	21302
810.308	21260
810.45	21241
810.591	21150
810.733	21055
810.875	20982
811.016	20804
811.158	20899
811.299	20921
811.441	20982
811.582	21024
811.724	20956
811.865	20880
812.007	20785
812.148	20826
812.29	20982
812.431	21085
812.573	21180
812.714	21245
812.855	21359
812.997	21454
813.138	21675
813.279	21523
813.421	21310
813.562	21359
813.703	21017
813.845	21093
813.986	20697
814.127	20606
814.268	20442
814.41	20533
814.551	20503
814.692	20522
814.833	20526
814.974	20404
815.115	20465
815.256	20358
815.397	20336
815.539	20294
815.68	20115
815.821	20046
815.962	20237
816.103	20096
816.244	20005
816.385	19959
816.526	19852
816.666	19689
816.807	19491
816.948	19776
817.089	19643
817.23	19533
817.371	19746
817.512	19643
817.653	19666
817.793	19521
817.934	19681
818.075	19556
818.216	19643
818.356	19495
818.497	19324
818.638	18996
818.778	19266
818.919	19278
819.06	19156
819.2	19438
819.341	19426
819.481	19552
819.622	19529
819.762	19803
819.903	19712
820.043	19521
820.184	19540
820.324	19445
820.465	19639
820.605	19525
820.746	19502
820.886	19426
821.026	19487
821.167	19487
821.307	19632
821.447	19476
821.588	19312
821.728	19160
821.868	19065
822.008	18909
822.149	18886
822.289	18814
822.429	18616
822.569	18570
822.709	18722
822.849	18395
822.99	18486
823.13	18376
823.27	18426
823.41	18228
823.55	18205
823.69	18258
823.83	18273
823.97	18220
824.11	18038
824.25	18034
824.389	18064
824.529	18083
824.669	17996
824.809	18076
824.949	18136
825.089	18136
825.228	18079
825.368	17752
825.508	17878
825.648	17832
825.787	17901
825.927	17901
826.067	17828
826.206	17710
826.346	17783
826.485	17756
826.625	17718
826.765	17737
826.904	17821
827.044	17638
827.183	17520
827.323	17520
827.462	17535
827.601	17406
827.741	17429
827.88	17493
828.02	17383
828.159	17398
828.298	17554
828.437	17490
828.577	17337
828.716	17539
828.855	17436
828.994	17330
829.134	17208
829.273	17372
829.412	17178
829.551	17174
829.69	17189
829.829	17178
829.968	17235
830.107	17296
830.246	17292
830.385	17090
830.524	17071
830.663	17132
830.802	17018
830.941	16892
831.08	16854
831.219	17006
831.357	16892
831.496	17109
831.635	16793
831.774	16763
831.913	16748
832.051	16710
832.19	16672
832.329	16752
832.467	16569
832.606	16516
832.744	16470
832.883	16512
833.022	16561
833.16	16466
833.299	16596
833.437	16440
833.576	16485
833.714	16607
833.852	16592
833.991	16538
834.129	16706
834.267	16649
834.406	16573
834.544	16592
834.682	16626
834.821	16535
834.959	16744
835.097	16527
835.235	16748
835.373	16660
835.511	16656
835.65	16481
835.788	16462
835.926	16299
836.064	16371
836.202	16394
836.34	16500
836.478	16519
836.615	16440
836.753	16459
836.891	16466
837.029	16443
837.167	16413
837.305	16409
837.443	16363
837.58	16249
837.718	16356
837.856	16451
837.993	16325
838.131	16276
838.269	16276
838.406	16257
838.544	16242
838.681	16093
838.819	16105
838.956	15895
839.094	15934
839.231	15964
839.369	16112
839.506	16310
839.643	16143
839.781	15918
839.918	15819
840.055	15892
840.193	15861
840.33	15816
840.467	15823
840.604	15888
840.742	16101
840.879	15705
841.016	15846
841.153	15789
841.29	16013
841.427	15876
841.564	15884
841.701	15918
841.838	15918
841.975	15869
842.112	15854
842.249	15675
842.385	15679
842.522	15823
842.659	15736
842.796	15755
842.933	15591
843.069	15720
843.206	15705
843.343	15720
843.479	15720
843.616	15701
843.752	15511
843.889	15447
844.025	15485
844.162	15370
844.298	15603
844.435	15481
844.571	15519
844.708	15538
844.844	15572
844.98	15603
845.117	15549
845.253	15439
845.389	15443
845.525	15340
845.661	15450
845.798	15275
845.934	15287
846.07	15230
846.206	15374
846.342	15401
846.478	15256
846.614	15036
846.75	14948
846.886	15009
847.022	15039
847.158	15047
847.294	14952
847.429	15097
847.565	14979
847.701	15268
847.837	14727
847.972	14743
848.108	14834
848.244	14823
848.379	14663
848.515	14613
848.65	14556
848.786	14602
848.921	14594
849.057	14731
849.192	14743
849.328	14541
849.463	14708
849.598	14625
849.734	14518
849.869	14579
850.004	14450
850.14	14484
850.275	14434
850.41	14324
850.545	14362
850.68	14305
850.815	14320
850.95	14332
851.085	14537
851.22	14568
851.355	14454
851.49	14355
851.625	14438
851.76	14404
851.895	14282
852.03	14275
852.165	14423
852.299	14423
852.434	14476
852.569	14408
852.703	14442
852.838	14473
852.973	14526
853.107	14575
853.242	14381
853.376	14290
853.511	14278
853.645	14214
853.78	14328
853.914	14248
854.048	14294
854.183	14172
854.317	14206
854.451	14336
854.585	14286
854.72	14206
854.854	14317
854.988	14233
855.122	14275
855.256	14096
855.39	14240
855.524	14275
855.658	14301
855.792	14332
855.926	14377
856.06	14358
856.194	14374
856.327	14164
856.461	14157
856.595	14214
856.729	14278
856.862	14427
856.996	14320
857.13	14351
857.263	14381
857.397	14404
857.53	14229
857.664	14313
857.797	14309
857.931	14317
858.064	14225
858.197	14370
858.331	14267
858.464	14206
858.597	14046
858.731	14180
858.864	14206
858.997	14229
859.13	14336
859.263	14320
859.396	14393
859.529	14343
859.662	14267
859.795	14237
859.928	14252
860.061	14423
860.194	14412
860.327	14263
860.46	14298
860.592	14396
860.725	14381
860.858	14415
860.99	14347
861.123	14233
861.256	14206
861.388	14240
861.521	14830
861.653	14073
861.786	14100
861.918	14084
862.05	14153
862.183	14233
862.315	14191
862.447	14347
862.58	14187
862.712	13974
862.844	13993
862.976	14069
863.108	14111
863.24	14408
863.372	14039
863.504	14054
863.636	14005
863.768	14100
863.9	14058
864.032	13959
864.164	13982
864.296	14115
864.428	14218
864.559	14191
864.691	14180
864.823	14123
864.954	14145
865.086	14073
865.217	13970
865.349	14043
865.48	13997
865.612	14054
865.743	14214
865.875	13955
866.006	14001
866.137	14065
866.269	14005
866.4	14001
866.531	13959
866.662	14062
866.793	13955
866.924	13959
867.055	13940
867.186	13989
867.317	13928
867.448	13890
867.579	13932
867.71	13875
867.841	13959
867.972	14088
868.103	14001
868.233	13974
868.364	14031
868.495	14130
868.625	14309
868.756	14366
868.886	14142
869.017	14206
869.147	14374
869.278	14438
869.408	14347
869.539	14317
869.669	14317
869.799	14248
869.929	14377
870.06	14355
870.19	14735
870.32	14689
870.45	14686
870.58	14610
870.71	14758
870.84	14754
870.97	14659
871.1	14693
871.23	14792
871.36	14826
871.489	14857
871.619	14819
871.749	14834
871.879	14891
872.008	14914
872.138	14948
872.267	14883
872.397	14819
872.526	14731
872.656	14598
872.785	14655
872.915	14788
873.044	15001
873.173	14891
873.303	14842
873.432	14990
873.561	15070
873.69	14925
873.819	14842
873.948	14990
874.077	14887
874.206	14918
874.335	14929
874.464	15169
874.593	15173
874.722	15138
874.851	15275
874.979	15382
875.108	15241
875.237	15203
875.365	15157
875.494	15199
875.623	15207
875.751	15233
875.88	15237
876.008	15313
876.136	15507
876.265	15625
876.393	15838
876.521	15736
876.65	15778
876.778	15770
876.906	15717
877.034	15694
877.162	15599
877.29	15595
877.418	15648
877.546	15595
877.674	15641
877.802	15599
877.93	15713
878.058	15629
878.185	15435
878.313	15686
878.441	15603
878.568	15485
878.696	15648
878.824	15751
878.951	15873
879.079	15911
879.206	15941
879.333	15857
879.461	15743
879.588	15755
879.715	15899
879.842	16017
879.97	15660
880.097	15564
880.224	15496
880.351	15641
880.478	15526
880.605	15549
880.732	15496
880.859	15770
880.986	15591
881.112	15599
881.239	15389
881.366	15340
881.493	15321
881.619	15146
881.746	15298
881.872	15116
881.999	15161
882.125	15173
882.252	15268
882.378	15298
882.505	15260
882.631	15039
882.757	15043
882.883	15005
883.01	14937
883.136	14960
883.262	14925
883.388	14887
883.514	15089
883.64	15116
883.766	14899
883.892	14887
884.018	14788
884.143	15024
884.269	15055
884.395	14823
884.52	14762
884.646	14689
884.772	14663
884.897	14594
885.023	14769
885.148	14811
885.274	14853
885.399	14720
885.524	14739
885.65	14762
885.775	14739
885.9	14758
886.025	14880
886.15	14838
886.275	14682
886.4	14644
886.525	14621
886.65	14594
886.775	14743
886.9	14902
887.025	14982
887.149	14651
887.274	14533
887.399	14587
887.523	14511
887.648	14434
887.773	14484
887.897	14610
888.021	14587
888.146	14484
888.27	14678
888.395	14674
888.519	14651
888.643	14583
888.767	14648
888.891	14503
889.015	14389
889.139	14495
889.263	14366
889.387	14518
889.511	14667
889.635	14492
889.759	14370
889.883	14377
890.006	14469
890.13	14560
890.254	14370
890.377	14328
890.501	14164
890.624	14145
890.748	14176
890.871	14161
890.995	14069
891.118	13989
891.241	14145
891.364	14157
891.488	14221
891.611	14130
891.734	14199
891.857	14168
891.98	14119
892.103	14176
892.226	14092
892.349	14027
892.471	13963
892.594	14084
892.717	14077
892.839	14130
892.962	14157
893.085	14130
893.207	14172
893.33	13974
893.452	14058
893.575	14134
893.697	14130
893.819	14343
893.941	14347
894.064	14290
894.186	14073
894.308	14024
894.43	14161
894.552	14320
894.674	14214
894.796	14103
894.918	14183
895.04	14050
895.161	14225
895.283	14202
895.405	14142
895.526	14210
895.648	14138
895.769	14294
895.891	14332
896.012	14324
896.134	14423
896.255	14267
896.376	14286
896.498	14328
896.619	14408
896.74	14229
896.861	14301
896.982	14610
897.103	14750
897.224	14663
897.345	14461
897.466	14552
897.587	14495
897.708	14731
897.828	14621
897.949	14503
898.07	14431
898.19	14507
898.311	14705
898.431	14518
898.552	14629
898.672	14781
898.792	14826
898.913	14754
899.033	14571
899.153	14495
899.273	14396
899.393	14461
899.513	14518
899.633	14484
899.753	14598
899.873	14434
899.993	14526
900.113	14408
900.232	14533
900.352	14469
900.472	14343
900.591	14301
900.711	14393
900.83	14324
900.95	14450
901.069	14511
901.189	14355
901.308	14103
901.427	14046
901.546	14073
901.665	14111
901.784	14062
901.904	13947
902.023	13788
902.141	13666
902.26	13480
902.379	13700
902.498	13510
902.617	13609
902.735	13708
902.854	13609
902.973	13491
903.091	13388
903.21	13293
903.328	13346
903.446	13213
903.565	13293
903.683	13183
903.801	13149
903.919	13114
904.038	13270
904.156	12981
904.274	13069
904.392	13023
904.51	12951
904.627	13000
904.745	12951
904.863	13031
904.981	12753
905.098	12684
905.216	12658
905.334	12700
905.451	12658
905.569	12612
905.686	12688
905.803	12703
905.921	12525
906.038	12506
906.155	12547
906.272	12357
906.389	12414
906.506	12258
906.623	12311
906.74	12235
906.857	12083
906.974	12239
907.091	12319
907.208	12346
907.324	12315
907.441	12205
907.557	12038
907.674	12003
907.79	12003
907.907	12030
908.023	12022
908.139	12030
908.256	11901
908.372	11999
908.488	11809
908.604	11889
908.72	11680
908.836	11771
908.952	11695
909.068	11729
909.184	11866
909.3	11764
909.415	11836
909.531	11760
909.647	11554
909.762	11547
909.878	11532
909.993	11543
910.108	11570
910.224	11452
910.339	11493
910.454	11444
910.57	11398
910.685	11296
910.8	11634
910.915	11459
911.03	11486
911.145	11326
911.259	11189
911.374	11227
911.489	11140
911.604	11174
911.718	10961
911.833	10995
911.947	10877
912.062	10881
912.176	10980
912.291	11022
912.405	10919
912.519	11181
912.633	11170
912.748	11056
912.862	11010
912.976	10908
913.09	10767
913.204	10820
913.318	10904
913.431	10984
913.545	11037
913.659	10980
913.772	10900
913.886	10740
914	10683
914.113	10904
914.226	10942
914.34	10786
914.453	10687
914.566	10820
914.68	10733
914.793	10675
914.906	10592
915.019	10508
915.132	10398
915.245	10554
915.358	10478
915.47	10497
915.583	10542
915.696	10569
915.809	10687
915.921	10649
916.034	10478
916.146	10386
916.259	10455
916.371	10546
916.483	10474
916.595	10341
916.708	10462
916.82	10424
916.932	10413
917.044	10459
917.156	10348
917.268	10261
917.38	10398
917.491	10333
917.603	10390
917.715	10409
917.826	10386
917.938	10284
918.049	10192
918.161	10333
918.272	10455
918.384	10424
918.495	10402
918.606	10268
918.717	10223
918.828	10242
918.939	10211
919.05	10188
919.161	10173
919.272	9960
919.383	10063
919.494	10261
919.604	10409
919.715	10276
919.826	10074
919.936	10147
920.047	10303
920.157	10280
920.267	10363
920.378	10257
920.488	10215
920.598	10417
920.708	10584
920.818	10424
920.928	10398
921.038	10569
921.148	10523
921.258	10322
921.368	10280
921.477	10093
921.587	10101
921.697	9819
921.806	10200
921.916	9968
922.025	9835
922.134	9812
922.244	9724
922.353	9797
922.462	9606
922.571	9553
922.68	9496
922.789	9447
922.898	9526
923.007	9382
923.116	9477
923.224	9447
923.333	9454
923.442	9397
923.55	9397
923.659	9393
923.767	9428
923.876	9313
923.984	9485
924.092	9283
924.201	9435
924.309	9344
924.417	9321
924.525	9279
924.633	9317
924.741	10112
924.849	9093
924.956	9287
925.064	9146
925.172	9176
925.279	9123
925.387	9127
925.494	9154
925.602	9268
925.709	9237
925.816	9077
925.924	9184
926.031	9253
926.138	9161
926.245	9135
926.352	9108
926.459	9222
926.566	9157
926.673	9077
926.779	9047
926.886	8990
926.993	8834
927.099	8826
927.206	8861
927.312	8800
927.419	8849
927.525	8861
927.631	8872
927.737	8758
927.843	8766
927.95	8712
928.056	8716
928.162	8735
928.267	8861
928.373	9435
928.479	8857
928.585	8598
928.69	8788
928.796	8720
928.901	8587
929.007	8621
929.112	8651
929.218	8625
929.323	8590
929.428	8552
929.533	8686
929.638	8522
929.743	8507
929.848	8575
929.953	8522
930.058	8484
930.163	8290
930.267	8282
930.372	8450
930.477	8290
930.581	8541
930.685	8362
930.79	8187
930.894	8374
930.998	8237
931.103	8412
931.207	8073
931.311	7967
931.415	8005
931.519	7822
931.623	7769
