Data from test_V78500241_2899.txt Node
Date: Fri Mar 25 14:53:54 CST 2022
User: usil
Spectrometer: V785-0024
Trigger mode: 0
Integration Time (sec): 4.000000E-1
Scans to average: 1
Nonlinearity correction enabled: false
Boxcar width: 0
Storing dark spectrum: false
XAxis mode: Wavelengths
Number of Pixels in Spectrum: 1024
>>>>>Begin Spectral Data<<<<<
801.071	22135
801.214	21907
801.356	21698
801.499	21652
801.641	21401
801.783	21549
801.926	21504
802.068	21435
802.211	21222
802.353	21218
802.496	21036
802.638	20914
802.78	20883
802.923	20834
803.065	20693
803.208	20826
803.35	20830
803.492	20872
803.635	20906
803.777	20731
803.919	20864
804.061	21180
804.204	20853
804.346	20678
804.488	20678
804.63	20773
804.773	20648
804.915	20678
805.057	20830
805.199	20549
805.341	20674
805.483	20773
805.626	20842
805.768	20549
805.91	20583
806.052	20708
806.194	20655
806.336	20796
806.478	20663
806.62	20686
806.762	20807
806.904	20819
807.046	20975
807.188	21104
807.33	21028
807.472	21165
807.614	20910
807.756	21032
807.898	20853
808.04	20640
808.182	20735
808.324	20743
808.465	20826
808.607	21055
808.749	21157
808.891	21313
809.033	21233
809.174	21184
809.316	21009
809.458	21062
809.6	20960
809.741	21123
809.883	21116
810.025	21245
810.166	21218
810.308	21188
810.45	21249
810.591	21138
810.733	20883
810.875	20819
811.016	20777
811.158	20708
811.299	20826
811.441	20967
811.582	20937
811.724	20838
811.865	20762
812.007	20845
812.148	20765
812.29	20826
812.431	21055
812.573	21176
812.714	21199
812.855	21382
812.997	21332
813.138	21606
813.279	21412
813.421	21359
813.562	21348
813.703	21142
813.845	20914
813.986	20815
814.127	20537
814.268	20438
814.41	20400
814.551	20313
814.692	20571
814.833	20343
814.974	20419
815.115	20503
815.256	20244
815.397	20195
815.539	20195
815.68	20122
815.821	20012
815.962	20176
816.103	20024
816.244	20081
816.385	19898
816.526	19769
816.666	19757
816.807	19544
816.948	19601
817.089	19651
817.23	19552
817.371	19441
817.512	19540
817.653	19582
817.793	19422
817.934	19396
818.075	19624
818.216	19472
818.356	19392
818.497	19407
818.638	19057
818.778	19236
818.919	19194
819.06	19266
819.2	19289
819.341	19369
819.481	19457
819.622	19597
819.762	19727
819.903	19689
820.043	19609
820.184	19441
820.324	19460
820.465	19605
820.605	19491
820.746	19487
820.886	19308
821.026	19514
821.167	19396
821.307	19419
821.447	19343
821.588	19289
821.728	19232
821.868	18985
822.008	18863
822.149	18856
822.289	18779
822.429	18658
822.569	18631
822.709	18544
822.849	18296
822.99	18266
823.13	18277
823.27	18292
823.41	18247
823.55	18125
823.69	18133
823.83	18205
823.97	18133
824.11	18060
824.25	17882
824.389	17988
824.529	17942
824.669	17920
824.809	18133
824.949	17843
825.089	18068
825.228	17992
825.368	17714
825.508	17733
825.648	17836
825.787	17760
825.927	17817
826.067	17653
826.206	17665
826.346	17748
826.485	17668
826.625	17665
826.765	17805
826.904	17794
827.044	17490
827.183	17436
827.323	17307
827.462	17532
827.601	17402
827.741	17269
827.88	17490
828.02	17284
828.159	17425
828.298	17345
828.437	17417
828.577	17353
828.716	17497
828.855	17258
828.994	17212
829.134	17178
829.273	17128
829.412	17064
829.551	17128
829.69	17155
829.829	17162
829.968	17227
830.107	17242
830.246	17124
830.385	17147
830.524	17170
830.663	16938
830.802	16957
830.941	16816
831.08	16847
831.219	16854
831.357	16896
831.496	16991
831.635	16759
831.774	16778
831.913	16694
832.051	16592
832.19	16596
832.329	16607
832.467	16519
832.606	16436
832.744	16455
832.883	16485
833.022	16440
833.16	16325
833.299	16432
833.437	16462
833.576	16489
833.714	16447
833.852	16630
833.991	16573
834.129	16531
834.267	16584
834.406	16447
834.544	16436
834.682	16489
834.821	16474
834.959	16641
835.097	16508
835.235	16554
835.373	16527
835.511	16519
835.65	16390
835.788	16409
835.926	16238
836.064	16287
836.202	16333
836.34	16470
836.478	16569
836.615	16356
836.753	16440
836.891	16546
837.029	16470
837.167	16394
837.305	16390
837.443	16352
837.58	16246
837.718	16409
837.856	16219
837.993	16249
838.131	16238
838.269	16192
838.406	16310
838.544	16181
838.681	15937
838.819	15949
838.956	15884
839.094	15857
839.231	15987
839.369	16025
839.506	16215
839.643	16078
839.781	15774
839.918	15785
840.055	15842
840.193	15888
840.33	15865
840.467	15911
840.604	15895
840.742	16109
840.879	15827
841.016	15717
841.153	15709
841.29	15926
841.427	15926
841.564	16010
841.701	15888
841.838	15911
841.975	15728
842.112	15781
842.249	15629
842.385	15641
842.522	15762
842.659	15625
842.796	15538
842.933	15561
843.069	15580
843.206	15603
843.343	15622
843.479	15717
843.616	15709
843.752	15389
843.889	15389
844.025	15561
844.162	15458
844.298	15500
844.435	15412
844.571	15359
844.708	15504
844.844	15561
844.98	15534
845.117	15519
845.253	15378
845.389	15367
845.525	15363
845.661	15344
845.798	15192
845.934	15310
846.07	15241
846.206	15363
846.342	15351
846.478	15268
846.614	15127
846.75	14918
846.886	14971
847.022	15146
847.158	15032
847.294	15093
847.429	14982
847.565	15020
847.701	15214
847.837	14769
847.972	14686
848.108	14815
848.244	14826
848.379	14708
848.515	14530
848.65	14701
848.786	14598
848.921	14678
849.057	14659
849.192	14773
849.328	14693
849.463	14651
849.598	14560
849.734	14537
849.869	14511
850.004	14374
850.14	14355
850.275	14336
850.41	14305
850.545	14252
850.68	14431
850.815	14461
850.95	14396
851.085	14537
851.22	14408
851.355	14393
851.49	14294
851.625	14305
851.76	14339
851.895	14199
852.03	14183
852.165	14294
852.299	14355
852.434	14305
852.569	14358
852.703	14305
852.838	14488
852.973	14575
853.107	14400
853.242	14324
853.376	14358
853.511	14119
853.645	14176
853.78	14320
853.914	14244
854.048	14107
854.183	14115
854.317	14244
854.451	14366
854.585	14256
854.72	14256
854.854	14278
854.988	14187
855.122	14233
855.256	14088
855.39	14199
855.524	14343
855.658	14237
855.792	14305
855.926	14252
856.06	14248
856.194	14434
856.327	14298
856.461	14126
856.595	14130
856.729	14271
856.862	14381
856.996	14248
857.13	14252
857.263	14393
857.397	14336
857.53	14259
857.664	14290
857.797	14294
857.931	14347
858.064	14355
858.197	14351
858.331	14172
858.464	14294
858.597	14191
858.731	14142
858.864	14290
858.997	14328
859.13	14244
859.263	14317
859.396	14278
859.529	14202
859.662	14237
859.795	14130
859.928	14305
860.061	14358
860.194	14434
860.327	14301
860.46	14290
860.592	14336
860.725	14450
860.858	14294
860.99	14294
861.123	14073
861.256	14134
861.388	14176
861.521	14872
861.653	14168
861.786	14119
861.918	14088
862.05	14069
862.183	14229
862.315	14168
862.447	14218
862.58	14218
862.712	14039
862.844	14024
862.976	14062
863.108	14073
863.24	14278
863.372	13944
863.504	14054
863.636	13955
863.768	14008
863.9	14039
864.032	14020
864.164	13993
864.296	14027
864.428	14065
864.559	14039
864.691	14183
864.823	14092
864.954	14123
865.086	14039
865.217	14020
865.349	13868
865.48	13925
865.612	14069
865.743	14210
865.875	13997
866.006	13974
866.137	13967
866.269	13989
866.4	13940
866.531	13993
866.662	13871
866.793	13955
866.924	13963
867.055	14054
867.186	13955
867.317	13887
867.448	13803
867.579	13856
867.71	13852
867.841	13822
867.972	13982
868.103	14031
868.233	13951
868.364	14008
868.495	14073
868.625	14168
868.756	14351
868.886	14138
869.017	14233
869.147	14355
869.278	14389
869.408	14248
869.539	14282
869.669	14415
869.799	14275
869.929	14355
870.06	14362
870.19	14541
870.32	14598
870.45	14632
870.58	14579
870.71	14667
870.84	14769
870.97	14613
871.1	14625
871.23	14849
871.36	14792
871.489	14716
871.619	14857
871.749	14906
871.879	14902
872.008	14937
872.138	14785
872.267	14834
872.397	14720
872.526	14667
872.656	14602
872.785	14739
872.915	14952
873.044	14967
873.173	14826
873.303	14960
873.432	14944
873.561	14914
873.69	14864
873.819	14857
873.948	14960
874.077	14967
874.206	14899
874.335	14937
874.464	15157
874.593	15150
874.722	14994
874.851	15279
874.979	15192
875.108	15207
875.237	15176
875.365	15222
875.494	15150
875.623	15317
875.751	15142
875.88	15233
876.008	15401
876.136	15370
876.265	15644
876.393	15698
876.521	15854
876.65	15675
876.778	15591
876.906	15530
877.034	15507
877.162	15534
877.29	15511
877.418	15698
877.546	15644
877.674	15652
877.802	15644
877.93	15564
878.058	15644
878.185	15458
878.313	15686
878.441	15701
878.568	15469
878.696	15553
878.824	15557
878.951	15675
879.079	15865
879.206	15960
879.333	15686
879.461	15717
879.588	15698
879.715	15755
879.842	15945
879.97	15690
880.097	15504
880.224	15450
880.351	15500
880.478	15408
880.605	15428
880.732	15488
880.859	15690
880.986	15462
881.112	15485
881.239	15397
881.366	15222
881.493	15131
881.619	15260
881.746	15131
881.872	15108
881.999	15150
882.125	15093
882.252	15085
882.378	15142
882.505	15294
882.631	15074
882.757	14921
882.883	14994
883.01	14941
883.136	14880
883.262	14876
883.388	14762
883.514	15051
883.64	15032
883.766	14872
883.892	14777
884.018	14796
884.143	15001
884.269	15013
884.395	14731
884.52	14636
884.646	14598
884.772	14598
884.897	14575
885.023	14670
885.148	14754
885.274	14823
885.399	14758
885.524	14651
885.65	14640
885.775	14670
885.9	14632
886.025	14834
886.15	14724
886.275	14579
886.4	14526
886.525	14602
886.65	14632
886.775	14598
886.9	14765
887.025	14876
887.149	14625
887.274	14370
887.399	14442
887.523	14412
887.648	14541
887.773	14423
887.897	14492
888.021	14556
888.146	14442
888.27	14556
888.395	14575
888.519	14636
888.643	14594
888.767	14556
888.891	14503
889.015	14347
889.139	14362
889.263	14305
889.387	14473
889.511	14610
889.635	14461
889.759	14324
889.883	14317
890.006	14385
890.13	14583
890.254	14317
890.377	14248
890.501	14180
890.624	14115
890.748	14248
890.871	14180
890.995	14012
891.118	14062
891.241	13986
891.364	14161
891.488	14202
891.611	14043
891.734	14077
891.857	14149
891.98	14107
892.103	14096
892.226	14073
892.349	14088
892.471	13982
892.594	14050
892.717	14054
892.839	14012
892.962	14134
893.085	14161
893.207	14054
893.33	13963
893.452	13989
893.575	14126
893.697	14039
893.819	14123
893.941	14240
894.064	14221
894.186	14046
894.308	14031
894.43	14096
894.552	14168
894.674	14161
894.796	14031
894.918	14020
895.04	14077
895.161	14180
895.283	14195
895.405	14138
895.526	14119
895.648	14149
895.769	14115
895.891	14305
896.012	14298
896.134	14259
896.255	14126
896.376	14244
896.498	14210
896.619	14263
896.74	14149
896.861	14305
896.982	14556
897.103	14811
897.224	14492
897.345	14564
897.466	14446
897.587	14446
897.708	14606
897.828	14514
897.949	14419
898.07	14320
898.19	14526
898.311	14644
898.431	14495
898.552	14648
898.672	14682
898.792	14655
898.913	14629
899.033	14511
899.153	14438
899.273	14423
899.393	14412
899.513	14457
899.633	14461
899.753	14434
899.873	14332
899.993	14503
900.113	14461
900.232	14526
900.352	14488
900.472	14324
900.591	14244
900.711	14393
900.83	14294
900.95	14366
901.069	14419
901.189	14263
901.308	14134
901.427	13940
901.546	13989
901.665	13989
901.784	14027
901.904	13860
902.023	13856
902.141	13658
902.26	13601
902.379	13601
902.498	13571
902.617	13487
902.735	13537
902.854	13518
902.973	13472
903.091	13209
903.21	13324
903.328	13274
903.446	13206
903.565	13099
903.683	13145
903.801	12981
903.919	13088
904.038	13099
904.156	13042
904.274	13027
904.392	12966
904.51	12928
904.627	12878
904.745	12939
904.863	12977
904.981	12700
905.098	12540
905.216	12597
905.334	12730
905.451	12555
905.569	12525
905.686	12555
905.803	12635
905.921	12509
906.038	12490
906.155	12437
906.272	12270
906.389	12353
906.506	12209
906.623	12209
906.74	12110
906.857	12026
906.974	12133
907.091	12186
907.208	12213
907.324	12266
907.441	12110
907.557	11958
907.674	11923
907.79	11885
907.907	11958
908.023	11889
908.139	11893
908.256	11866
908.372	11832
908.488	11874
908.604	11748
908.72	11649
908.836	11802
908.952	11646
909.068	11756
909.184	11813
909.3	11676
909.415	11737
909.531	11707
909.647	11516
909.762	11562
909.878	11459
909.993	11486
910.108	11505
910.224	11448
910.339	11471
910.454	11383
910.57	11277
910.685	11258
910.8	11547
910.915	11410
911.03	11425
911.145	11204
911.259	11162
911.374	11265
911.489	11143
911.604	11064
911.718	10972
911.833	10984
911.947	10824
912.062	10809
912.176	10934
912.291	10927
912.405	10961
912.519	11117
912.633	11178
912.748	11033
912.862	10949
912.976	10820
913.09	10694
913.204	10782
913.318	10816
913.431	11014
913.545	10915
913.659	11006
913.772	10850
913.886	10790
914	10763
914.113	10843
914.226	10790
914.34	10786
914.453	10717
914.566	10858
914.68	10687
914.793	10714
914.906	10527
915.019	10379
915.132	10455
915.245	10500
915.358	10440
915.47	10504
915.583	10470
915.696	10542
915.809	10607
915.921	10527
916.034	10485
916.146	10398
916.259	10375
916.371	10500
916.483	10527
916.595	10379
916.708	10417
916.82	10379
916.932	10402
917.044	10428
917.156	10310
917.268	10265
917.38	10291
917.491	10268
917.603	10310
917.715	10462
917.826	10417
917.938	10325
918.049	10230
918.161	10344
918.272	10371
918.384	10432
918.495	10344
918.606	10204
918.717	10131
918.828	10166
918.939	10295
919.05	10143
919.161	10192
919.272	9956
919.383	10116
919.494	10181
919.604	10466
919.715	10200
919.826	10128
919.936	10200
920.047	10268
920.157	10249
920.267	10432
920.378	10242
920.488	10181
920.598	10341
920.708	10554
920.818	10478
920.928	10394
921.038	10577
921.148	10580
921.258	10295
921.368	10181
921.477	10116
921.587	10036
921.697	9983
921.806	10040
921.916	9968
922.025	9797
922.134	9747
922.244	9724
922.353	9781
922.462	9694
922.571	9587
922.68	9485
922.789	9378
922.898	9515
923.007	9435
923.116	9523
923.224	9507
923.333	9481
923.442	9351
923.55	9336
923.659	9416
923.767	9389
923.876	9298
923.984	9454
924.092	9306
924.201	9348
924.309	9291
924.417	9332
924.525	9306
924.633	9310
924.741	10230
924.849	9116
924.956	9245
925.064	9097
925.172	9009
925.279	9123
925.387	9180
925.494	9066
925.602	9222
925.709	9222
925.816	9024
925.924	9104
926.031	9226
926.138	9237
926.245	9138
926.352	9017
926.459	9222
926.566	9249
926.673	9116
926.779	8952
926.886	9043
926.993	8838
927.099	8853
927.206	8777
927.312	8720
927.419	8842
927.525	8849
927.631	8876
927.737	8754
927.843	8701
927.95	8590
928.056	8705
928.162	8731
928.267	8750
928.373	9393
928.479	8849
928.585	8632
928.69	8731
928.796	8762
928.901	8606
929.007	8518
929.112	8648
929.218	8629
929.323	8575
929.428	8537
929.533	8689
929.638	8530
929.743	8511
929.848	8568
929.953	8560
930.058	8457
930.163	8309
930.267	8370
930.372	8492
930.477	8267
930.581	8507
930.685	8396
930.79	8286
930.894	8343
930.998	8237
931.103	8427
931.207	8115
931.311	7974
931.415	7913
931.519	7795
931.623	7742
