Data from test_V78500241_1512.txt Node
Date: Fri Mar 25 14:44:14 CST 2022
User: usil
Spectrometer: V785-0024
Trigger mode: 0
Integration Time (sec): 4.000000E-1
Scans to average: 1
Nonlinearity correction enabled: false
Boxcar width: 0
Storing dark spectrum: false
XAxis mode: Wavelengths
Number of Pixels in Spectrum: 1024
>>>>>Begin Spectral Data<<<<<
801.071	22500
801.214	22230
801.356	22032
801.499	21846
801.641	21751
801.783	21667
801.926	21728
802.068	21709
802.211	21515
802.353	21545
802.496	21397
802.638	21245
802.78	21199
802.923	21222
803.065	21085
803.208	21089
803.35	21047
803.492	21123
803.635	21169
803.777	21138
803.919	21100
804.061	21405
804.204	21226
804.346	21112
804.488	21013
804.63	20933
804.773	20902
804.915	21009
805.057	21165
805.199	20899
805.341	21055
805.483	21104
805.626	20998
805.768	20963
805.91	21081
806.052	21017
806.194	20994
806.336	21165
806.478	21104
806.62	21005
806.762	21203
806.904	21226
807.046	21393
807.188	21348
807.33	21431
807.472	21477
807.614	21374
807.756	21325
807.898	21252
808.04	21291
808.182	21218
808.324	21161
808.465	21325
808.607	21447
808.749	21641
808.891	21694
809.033	21652
809.174	21679
809.316	21370
809.458	21591
809.6	21511
809.741	21454
809.883	21458
810.025	21599
810.166	21610
810.308	21603
810.45	21511
810.591	21469
810.733	21332
810.875	21298
811.016	21081
811.158	21142
811.299	21252
811.441	21389
811.582	21298
811.724	21100
811.865	21081
812.007	21207
812.148	21142
812.29	21275
812.431	21507
812.573	21523
812.714	21717
812.855	21705
812.997	21793
813.138	21846
813.279	21679
813.421	21759
813.562	21599
813.703	21458
813.845	21359
813.986	21138
814.127	20944
814.268	20823
814.41	20781
814.551	20834
814.692	20876
814.833	20777
814.974	20708
815.115	20674
815.256	20682
815.397	20568
815.539	20583
815.68	20629
815.821	20545
815.962	20514
816.103	20389
816.244	20320
816.385	20259
816.526	20164
816.666	19955
816.807	19917
816.948	19940
817.089	19982
817.23	19871
817.371	19989
817.512	19902
817.653	19814
817.793	19890
817.934	19913
818.075	19986
818.216	19826
818.356	19902
818.497	19731
818.638	19575
818.778	19571
818.919	19499
819.06	19586
819.2	19776
819.341	19784
819.481	19788
819.622	19913
819.762	20180
819.903	19993
820.043	19894
820.184	19875
820.324	19909
820.465	19940
820.605	19833
820.746	19921
820.886	19818
821.026	19769
821.167	19776
821.307	19879
821.447	19807
821.588	19575
821.728	19571
821.868	19457
822.008	19232
822.149	19316
822.289	19274
822.429	19080
822.569	18947
822.709	18939
822.849	18859
822.99	18779
823.13	18688
823.27	18730
823.41	18502
823.55	18513
823.69	18646
823.83	18540
823.97	18502
824.11	18369
824.25	18486
824.389	18311
824.529	18445
824.669	18414
824.809	18517
824.949	18342
825.089	18448
825.228	18342
825.368	18277
825.508	18098
825.648	18110
825.787	18216
825.927	18133
826.067	17988
826.206	18053
826.346	18220
826.485	18083
826.625	18087
826.765	18289
826.904	18117
827.044	17942
827.183	17908
827.323	17764
827.462	17901
827.601	17805
827.741	17733
827.88	17741
828.02	17741
828.159	17836
828.298	17828
828.437	17851
828.577	17733
828.716	17912
828.855	17741
828.994	17592
829.134	17539
829.273	17554
829.412	17463
829.551	17573
829.69	17452
829.829	17611
829.968	17703
830.107	17657
830.246	17581
830.385	17585
830.524	17448
830.663	17402
830.802	17277
830.941	17254
831.08	17048
831.219	17303
831.357	17265
831.496	17455
831.635	17193
831.774	17018
831.913	17045
832.051	16949
832.19	16930
832.329	16927
832.467	16911
832.606	16869
832.744	16854
832.883	16854
833.022	16759
833.16	16854
833.299	16793
833.437	16965
833.576	16850
833.714	16904
833.852	16942
833.991	16991
834.129	17006
834.267	16968
834.406	16892
834.544	16938
834.682	16892
834.821	16843
834.959	17060
835.097	16847
835.235	16961
835.373	16881
835.511	16908
835.65	16740
835.788	16805
835.926	16713
836.064	16733
836.202	16706
836.34	16759
836.478	16915
836.615	16809
836.753	16816
836.891	16915
837.029	16850
837.167	16801
837.305	16820
837.443	16729
837.58	16630
837.718	16672
837.856	16653
837.993	16538
838.131	16687
838.269	16538
838.406	16679
838.544	16599
838.681	16398
838.819	16337
838.956	16207
839.094	16257
839.231	16226
839.369	16417
839.506	16478
839.643	16474
839.781	16280
839.918	16143
840.055	16192
840.193	16169
840.33	16124
840.467	16287
840.604	16280
840.742	16531
840.879	16051
841.016	16105
841.153	16097
841.29	16249
841.427	16234
841.564	16169
841.701	16166
841.838	16219
841.975	16128
842.112	16029
842.249	16051
842.385	15968
842.522	16074
842.659	16013
842.796	15888
842.933	15972
843.069	15861
843.206	15964
843.343	16059
843.479	15998
843.616	15979
843.752	15789
843.889	15838
844.025	15949
844.162	15789
844.298	15937
844.435	15819
844.571	15766
844.708	15861
844.844	15899
844.98	15975
845.117	15941
845.253	15739
845.389	15705
845.525	15770
845.661	15804
845.798	15713
845.934	15789
846.07	15759
846.206	15888
846.342	15884
846.478	15762
846.614	15466
846.75	15386
846.886	15367
847.022	15367
847.158	15389
847.294	15336
847.429	15485
847.565	15340
847.701	15519
847.837	15062
847.972	15043
848.108	15192
848.244	15211
848.379	14948
848.515	14910
848.65	14899
848.786	14899
848.921	14906
849.057	15066
849.192	14929
849.328	14929
849.463	15032
849.598	14823
849.734	14800
849.869	14887
850.004	14746
850.14	14735
850.275	14788
850.41	14541
850.545	14693
850.68	14583
850.815	14621
850.95	14697
851.085	14838
851.22	14853
851.355	14670
851.49	14644
851.625	14632
851.76	14731
851.895	14689
852.03	14568
852.165	14590
852.299	14807
852.434	14754
852.569	14716
852.703	14705
852.838	14777
852.973	14899
853.107	14845
853.242	14636
853.376	14659
853.511	14446
853.645	14480
853.78	14587
853.914	14571
854.048	14488
854.183	14495
854.317	14533
854.451	14727
854.585	14644
854.72	14533
854.854	14602
854.988	14488
855.122	14541
855.256	14396
855.39	14473
855.524	14625
855.658	14575
855.792	14610
855.926	14625
856.06	14655
856.194	14682
856.327	14568
856.461	14514
856.595	14503
856.729	14480
856.862	14632
856.996	14648
857.13	14617
857.263	14697
857.397	14678
857.53	14514
857.664	14617
857.797	14693
857.931	14716
858.064	14670
858.197	14701
858.331	14602
858.464	14564
858.597	14480
858.731	14495
858.864	14644
858.997	14583
859.13	14560
859.263	14632
859.396	14621
859.529	14545
859.662	14526
859.795	14541
859.928	14674
860.061	14777
860.194	14735
860.327	14556
860.46	14522
860.592	14724
860.725	14743
860.858	14705
860.99	14590
861.123	14480
861.256	14533
861.388	14530
861.521	15184
861.653	14545
861.786	14511
861.918	14396
862.05	14473
862.183	14587
862.315	14404
862.447	14564
862.58	14492
862.712	14305
862.844	14290
862.976	14393
863.108	14366
863.24	14629
863.372	14199
863.504	14408
863.636	14374
863.768	14377
863.9	14286
864.032	14248
864.164	14328
864.296	14362
864.428	14438
864.559	14446
864.691	14434
864.823	14393
864.954	14400
865.086	14381
865.217	14320
865.349	14301
865.48	14336
865.612	14339
865.743	14480
865.875	14370
866.006	14278
866.137	14320
866.269	14336
866.4	14362
866.531	14275
866.662	14286
866.793	14233
866.924	14339
867.055	14290
867.186	14370
867.317	14282
867.448	14240
867.579	14271
867.71	14259
867.841	14187
867.972	14176
868.103	14332
868.233	14328
868.364	14366
868.495	14446
868.625	14537
868.756	14686
868.886	14476
869.017	14537
869.147	14735
869.278	14682
869.408	14670
869.539	14545
869.669	14648
869.799	14651
869.929	14590
870.06	14693
870.19	14914
870.32	14819
870.45	15047
870.58	14929
870.71	15097
870.84	15119
870.97	14864
871.1	15001
871.23	15100
871.36	15146
871.489	15047
871.619	15142
871.749	15165
871.879	15256
872.008	15272
872.138	15154
872.267	15127
872.397	15005
872.526	14963
872.656	14952
872.785	15001
872.915	15169
873.044	15237
873.173	15230
873.303	15199
873.432	15203
873.561	15332
873.69	15184
873.819	15260
873.948	15268
874.077	15260
874.206	15146
874.335	15192
874.464	15359
874.593	15523
874.722	15481
874.851	15572
874.979	15564
875.108	15595
875.237	15458
875.365	15492
875.494	15603
875.623	15549
875.751	15534
875.88	15526
876.008	15686
876.136	15682
876.265	15937
876.393	16059
876.521	16017
876.65	15945
876.778	15994
876.906	15892
877.034	15838
877.162	15960
877.29	15979
877.418	15991
877.546	15934
877.674	15972
877.802	15850
877.93	15960
878.058	15956
878.185	15880
878.313	15960
878.441	15972
878.568	15724
878.696	15846
878.824	15972
878.951	16086
879.079	16188
879.206	16284
879.333	16147
879.461	16063
879.588	16150
879.715	16257
879.842	16188
879.97	16139
880.097	15816
880.224	15800
880.351	15873
880.478	15842
880.605	15747
880.732	15770
880.859	16010
880.986	15838
881.112	15785
881.239	15663
881.366	15591
881.493	15530
881.619	15424
881.746	15378
881.872	15500
881.999	15405
882.125	15458
882.252	15534
882.378	15511
882.505	15629
882.631	15332
882.757	15211
882.883	15325
883.01	15313
883.136	15214
883.262	15176
883.388	15097
883.514	15329
883.64	15272
883.766	15237
883.892	15097
884.018	15180
884.143	15222
884.269	15405
884.395	15093
884.52	15017
884.646	15017
884.772	14963
884.897	14929
885.023	14971
885.148	15055
885.274	15131
885.399	15013
885.524	15005
885.65	14948
885.775	14960
885.9	14967
886.025	15085
886.15	15081
886.275	14914
886.4	14811
886.525	14899
886.65	14921
886.775	14861
886.9	15036
887.025	15104
887.149	14929
887.274	14750
887.399	14777
887.523	14769
887.648	14697
887.773	14636
887.897	14921
888.021	14910
888.146	14735
888.27	14819
888.395	14880
888.519	14845
888.643	14921
888.767	14910
888.891	14724
889.015	14670
889.139	14686
889.263	14598
889.387	14750
889.511	14838
889.635	14754
889.759	14659
889.883	14674
890.006	14689
890.13	14754
890.254	14594
890.377	14537
890.501	14381
890.624	14385
890.748	14583
890.871	14389
890.995	14267
891.118	14263
891.241	14317
891.364	14377
891.488	14484
891.611	14442
891.734	14278
891.857	14355
891.98	14252
892.103	14415
892.226	14343
892.349	14298
892.471	14168
892.594	14267
892.717	14282
892.839	14366
892.962	14343
893.085	14408
893.207	14317
893.33	14244
893.452	14206
893.575	14396
893.697	14336
893.819	14495
893.941	14495
894.064	14499
894.186	14301
894.308	14298
894.43	14469
894.552	14541
894.674	14419
894.796	14385
894.918	14404
895.04	14362
895.161	14492
895.283	14404
895.405	14377
895.526	14347
895.648	14450
895.769	14484
895.891	14469
896.012	14537
896.134	14511
896.255	14476
896.376	14457
896.498	14457
896.619	14533
896.74	14526
896.861	14564
896.982	14811
897.103	15020
897.224	14773
897.345	14739
897.466	14697
897.587	14762
897.708	14929
897.828	14807
897.949	14758
898.07	14678
898.19	14632
898.311	14861
898.431	14712
898.552	14823
898.672	14781
898.792	14796
898.913	14933
899.033	14777
899.153	14750
899.273	14613
899.393	14777
899.513	14701
899.633	14758
899.753	14670
899.873	14579
899.993	14746
900.113	14735
900.232	14735
900.352	14621
900.472	14590
900.591	14549
900.711	14640
900.83	14450
900.95	14655
901.069	14644
901.189	14522
901.308	14244
901.427	14168
901.546	14305
901.665	14199
901.784	14237
901.904	14077
902.023	14008
902.141	13860
902.26	13772
902.379	13845
902.498	13830
902.617	13822
902.735	13887
902.854	13776
902.973	13723
903.091	13529
903.21	13559
903.328	13510
903.446	13472
903.565	13343
903.683	13449
903.801	13206
903.919	13263
904.038	13297
904.156	13137
904.274	13213
904.392	13179
904.51	13175
904.627	13126
904.745	13187
904.863	13236
904.981	13019
905.098	12810
905.216	12878
905.334	12863
905.451	12848
905.569	12806
905.686	12920
905.803	12905
905.921	12703
906.038	12760
906.155	12696
906.272	12589
906.389	12555
906.506	12441
906.623	12467
906.74	12483
906.857	12273
906.974	12361
907.091	12540
907.208	12585
907.324	12502
907.441	12334
907.557	12300
907.674	12152
907.79	12106
907.907	12155
908.023	12258
908.139	12243
908.256	12125
908.372	12136
908.488	12011
908.604	12057
908.72	11855
908.836	11954
908.952	11893
909.068	11942
909.184	12038
909.3	11912
909.415	11969
909.531	11965
909.647	11737
909.762	11707
909.878	11748
909.993	11752
910.108	11672
910.224	11649
910.339	11741
910.454	11657
910.57	11543
910.685	11463
910.8	11767
910.915	11767
911.03	11604
911.145	11463
911.259	11482
911.374	11444
911.489	11376
911.604	11341
911.718	11201
911.833	11231
911.947	11102
912.062	11029
912.176	11166
912.291	11151
912.405	11178
912.519	11395
912.633	11395
912.748	11201
912.862	11220
912.976	11048
913.09	10987
913.204	11022
913.318	11056
913.431	11102
913.545	11174
913.659	11121
913.772	10976
913.886	10972
914	10793
914.113	11060
914.226	11060
914.34	11018
914.453	10831
914.566	10972
914.68	10862
914.793	10843
914.906	10675
915.019	10630
915.132	10634
915.245	10660
915.358	10656
915.47	10664
915.583	10736
915.696	10729
915.809	10816
915.921	10759
916.034	10664
916.146	10596
916.259	10618
916.371	10714
916.483	10656
916.595	10592
916.708	10588
916.82	10592
916.932	10580
917.044	10603
917.156	10580
917.268	10462
917.38	10569
917.491	10447
917.603	10443
917.715	10626
917.826	10634
917.938	10436
918.049	10402
918.161	10485
918.272	10649
918.384	10668
918.495	10485
918.606	10428
918.717	10333
918.828	10409
918.939	10428
919.05	10310
919.161	10341
919.272	10177
919.383	10261
919.494	10398
919.604	10630
919.715	10421
919.826	10333
919.936	10375
920.047	10421
920.157	10421
920.267	10592
920.378	10451
920.488	10386
920.598	10603
920.708	10733
920.818	10664
920.928	10599
921.038	10774
921.148	10790
921.258	10428
921.368	10341
921.477	10219
921.587	10223
921.697	10139
921.806	10333
921.916	10090
922.025	10078
922.134	9968
922.244	9918
922.353	10040
922.462	9880
922.571	9759
922.68	9743
922.789	9530
922.898	9663
923.007	9485
923.116	9705
923.224	9622
923.333	9587
923.442	9511
923.55	9469
923.659	9591
923.767	9587
923.876	9492
923.984	9481
924.092	9454
924.201	9492
924.309	9496
924.417	9496
924.525	9435
924.633	9439
924.741	10424
924.849	9268
924.956	9428
925.064	9268
925.172	9233
925.279	9245
925.387	9294
925.494	9310
925.602	9340
925.709	9313
925.816	9116
925.924	9222
926.031	9268
926.138	9230
926.245	9249
926.352	9222
926.459	9367
926.566	9370
926.673	9245
926.779	9119
926.886	9081
926.993	8948
927.099	9009
927.206	8998
927.312	9009
927.419	9032
927.525	8925
927.631	9020
927.737	8967
927.843	8830
927.95	8758
928.056	8739
928.162	8895
928.267	8868
928.373	9405
928.479	8998
928.585	8754
928.69	8864
928.796	8956
928.901	8861
929.007	8682
929.112	8724
929.218	8750
929.323	8697
929.428	8640
929.533	8758
929.638	8648
929.743	8640
929.848	8750
929.953	8754
930.058	8678
930.163	8423
930.267	8492
930.372	8598
930.477	8492
930.581	8621
930.685	8473
930.79	8355
930.894	8434
930.998	8381
931.103	8518
931.207	8218
931.311	8187
931.415	8031
931.519	7906
931.623	7890
