Data from test_V78500241_218.txt Node
Date: Fri Mar 25 14:35:14 CST 2022
User: usil
Spectrometer: V785-0024
Trigger mode: 0
Integration Time (sec): 4.000000E-1
Scans to average: 1
Nonlinearity correction enabled: false
Boxcar width: 0
Storing dark spectrum: false
XAxis mode: Wavelengths
Number of Pixels in Spectrum: 1024
>>>>>Begin Spectral Data<<<<<
801.071	27888
801.214	27797
801.356	27454
801.499	27435
801.641	27382
801.783	27173
801.926	27329
802.068	27112
802.211	27142
802.353	27074
802.496	26940
802.638	26933
802.78	26914
802.923	26746
803.065	26754
803.208	26636
803.35	26659
803.492	26998
803.635	26944
803.777	26857
803.919	26891
804.061	27298
804.204	26880
804.346	26823
804.488	26769
804.63	26842
804.773	26670
804.915	26598
805.057	26845
805.199	26701
805.341	26960
805.483	26940
805.626	27013
805.768	26765
805.91	26979
806.052	26940
806.194	26975
806.336	27013
806.478	26785
806.62	26868
806.762	27001
806.904	26971
807.046	27245
807.188	27310
807.33	27222
807.472	27332
807.614	27393
807.756	27336
807.898	27161
808.04	27089
808.182	27188
808.324	27363
808.465	27317
808.607	27610
808.749	27823
808.891	27991
809.033	28101
809.174	27842
809.316	27732
809.458	27644
809.6	27534
809.741	27663
809.883	27542
810.025	27652
810.166	27545
810.308	27743
810.45	27587
810.591	27492
810.733	27329
810.875	27268
811.016	27199
811.158	27249
811.299	27241
811.441	27389
811.582	27340
811.724	27256
811.865	27180
812.007	27146
812.148	27256
812.29	27287
812.431	27397
812.573	27511
812.714	27580
812.855	27751
812.997	27770
813.138	27797
813.279	27743
813.421	27846
813.562	27591
813.703	27542
813.845	27298
813.986	27085
814.127	26902
814.268	26724
814.41	26777
814.551	26743
814.692	26857
814.833	26746
814.974	26731
815.115	26758
815.256	26598
815.397	26621
815.539	26754
815.68	26533
815.821	26324
815.962	26590
816.103	26571
816.244	26301
816.385	26305
816.526	26221
816.666	25989
816.807	25856
816.948	26035
817.089	26111
817.23	25814
817.371	25803
817.512	25966
817.653	25845
817.793	25719
817.934	25868
818.075	25845
818.216	25925
818.356	25624
818.497	25594
818.638	25609
818.778	25567
818.919	25537
819.06	25693
819.2	25712
819.341	25769
819.481	25822
819.622	25879
819.762	26149
819.903	25989
820.043	26008
820.184	25875
820.324	25868
820.465	25871
820.605	25799
820.746	25818
820.886	25575
821.026	25807
821.167	25677
821.307	25818
821.447	25814
821.588	25635
821.728	25457
821.868	25441
822.008	25282
822.149	25339
822.289	25175
822.429	24973
822.569	24829
822.709	24734
822.849	24646
822.99	24582
823.13	24578
823.27	24570
823.41	24380
823.55	24289
823.69	24441
823.83	24437
823.97	24380
824.11	24289
824.25	24194
824.389	24155
824.529	24300
824.669	24262
824.809	24247
824.949	24350
825.089	24262
825.228	24300
825.368	24022
825.508	24133
825.648	23946
825.787	24064
825.927	23999
826.067	24007
826.206	24068
826.346	24110
826.485	24083
826.625	23882
826.765	24095
826.904	24003
827.044	23878
827.183	23786
827.323	23665
827.462	23680
827.601	23653
827.741	23566
827.88	23699
828.02	23531
828.159	23695
828.298	23649
828.437	23710
828.577	23539
828.716	23760
828.855	23604
828.994	23376
829.134	23459
829.273	23368
829.412	23284
829.551	23326
829.69	23254
829.829	23353
829.968	23254
830.107	23463
830.246	23277
830.385	23265
830.524	23269
830.663	23060
830.802	23117
830.941	22946
831.08	22915
831.219	23109
831.357	22873
831.496	23113
831.635	22885
831.774	22877
831.913	22774
832.051	22725
832.19	22653
832.329	22778
832.467	22546
832.606	22573
832.744	22535
832.883	22455
833.022	22348
833.16	22588
833.299	22508
833.437	22443
833.576	22615
833.714	22557
833.852	22626
833.991	22653
834.129	22603
834.267	22641
834.406	22542
834.544	22573
834.682	22649
834.821	22561
834.959	22550
835.097	22405
835.235	22546
835.373	22626
835.511	22504
835.65	22363
835.788	22508
835.926	22268
836.064	22124
836.202	22139
836.34	22417
836.478	22428
836.615	22341
836.753	22295
836.891	22535
837.029	22402
837.167	22367
837.305	22204
837.443	22291
837.58	22188
837.718	22219
837.856	22253
837.993	22120
838.131	22223
838.269	21960
838.406	22074
838.544	22040
838.681	21850
838.819	21743
838.956	21671
839.094	21747
839.231	21679
839.369	21850
839.506	21972
839.643	21895
839.781	21637
839.918	21599
840.055	21679
840.193	21477
840.33	21511
840.467	21469
840.604	21496
840.742	21755
840.879	21275
841.016	21405
841.153	21378
841.29	21583
841.427	21473
841.564	21530
841.701	21618
841.838	21580
841.975	21302
842.112	21469
842.249	21325
842.385	21237
842.522	21526
842.659	21370
842.796	21237
842.933	21359
843.069	21180
843.206	20998
843.343	21279
843.479	21108
843.616	21207
843.752	21055
843.889	21066
844.025	21055
844.162	20967
844.298	21146
844.435	21051
844.571	20990
844.708	21062
844.844	21074
844.98	21211
845.117	21218
845.253	20952
845.389	20925
845.525	20963
845.661	21203
845.798	21123
845.934	21359
846.07	21329
846.206	21264
846.342	21367
846.478	21036
846.614	20678
846.75	20484
846.886	20514
847.022	20598
847.158	20609
847.294	20469
847.429	20381
847.565	20374
847.701	20590
847.837	20100
847.972	20240
848.108	20294
848.244	20183
848.379	20058
848.515	19913
848.65	19982
848.786	20073
848.921	19902
849.057	20073
849.192	19989
849.328	20020
849.463	19906
849.598	20084
849.734	19830
849.869	19849
850.004	19833
850.14	19818
850.275	19769
850.41	19708
850.545	19609
850.68	19662
850.815	19803
850.95	19776
851.085	19860
851.22	19799
851.355	19757
851.49	19628
851.625	19635
851.76	19685
851.895	19639
852.03	19609
852.165	19715
852.299	19597
852.434	19700
852.569	19715
852.703	19563
852.838	19776
852.973	19776
853.107	19772
853.242	19620
853.376	19609
853.511	19346
853.645	19381
853.78	19578
853.914	19559
854.048	19521
854.183	19487
854.317	19502
854.451	19639
854.585	19460
854.72	19449
854.854	19548
854.988	19430
855.122	19483
855.256	19468
855.39	19464
855.524	19567
855.658	19499
855.792	19567
855.926	19529
856.06	19544
856.194	19651
856.327	19487
856.461	19495
856.595	19403
856.729	19430
856.862	19624
856.996	19506
857.13	19597
857.263	19643
857.397	19594
857.53	19354
857.664	19441
857.797	19464
857.931	19464
858.064	19495
858.197	19559
858.331	19419
858.464	19457
858.597	19445
858.731	19396
858.864	19419
858.997	19381
859.13	19502
859.263	19449
859.396	19567
859.529	19301
859.662	19388
859.795	19419
859.928	19266
860.061	19677
860.194	19548
860.327	19369
860.46	19476
860.592	19510
860.725	19415
860.858	19556
860.99	19499
861.123	19335
861.256	19335
861.388	19449
861.521	20065
861.653	19103
861.786	19282
861.918	19324
862.05	19320
862.183	19426
862.315	19510
862.447	19487
862.58	19464
862.712	19206
862.844	19126
862.976	19225
863.108	19232
863.24	19571
863.372	19088
863.504	19179
863.636	19327
863.768	19228
863.9	19084
864.032	19057
864.164	19164
864.296	19034
864.428	19217
864.559	19110
864.691	19202
864.823	19217
864.954	19061
865.086	19069
865.217	19164
865.349	18939
865.48	18939
865.612	19145
865.743	19129
865.875	19084
866.006	18966
866.137	19012
866.269	19069
866.4	19080
866.531	19141
866.662	18909
866.793	19118
866.924	19015
867.055	18989
867.186	18920
867.317	18932
867.448	19034
867.579	18901
867.71	18875
867.841	18939
867.972	18916
868.103	18962
868.233	19031
868.364	19050
868.495	19065
868.625	19190
868.756	19293
868.886	19133
869.017	19194
869.147	19331
869.278	19316
869.408	19202
869.539	19247
869.669	19240
869.799	19282
869.929	19388
870.06	19259
870.19	19438
870.32	19396
870.45	19597
870.58	19662
870.71	19712
870.84	19681
870.97	19514
871.1	19635
871.23	19753
871.36	19727
871.489	19689
871.619	19780
871.749	19784
871.879	19814
872.008	19947
872.138	19742
872.267	19845
872.397	19837
872.526	19674
872.656	19677
872.785	19704
872.915	19818
873.044	19932
873.173	19879
873.303	19921
873.432	19845
873.561	19963
873.69	19951
873.819	19772
873.948	19955
874.077	19818
874.206	19795
874.335	19742
874.464	20016
874.593	20069
874.722	20081
874.851	20161
874.979	20233
875.108	20142
875.237	20058
875.365	20069
875.494	20035
875.623	20271
875.751	20084
875.88	20149
876.008	20183
876.136	20347
876.265	20602
876.393	20609
876.521	20629
876.65	20640
876.778	20670
876.906	20427
877.034	20434
877.162	20613
877.29	20484
877.418	20556
877.546	20556
877.674	20526
877.802	20590
877.93	20541
878.058	20370
878.185	20427
878.313	20575
878.441	20488
878.568	20450
878.696	20461
878.824	20465
878.951	20667
879.079	20842
879.206	20933
879.333	20921
879.461	20853
879.588	20876
879.715	20883
879.842	21062
879.97	20739
880.097	20431
880.224	20617
880.351	20518
880.478	20351
880.605	20336
880.732	20343
880.859	20590
880.986	20324
881.112	20450
881.239	20210
881.366	20122
881.493	20126
881.619	20046
881.746	20058
881.872	20069
881.999	19986
882.125	19963
882.252	19997
882.378	19967
882.505	20161
882.631	19967
882.757	19807
882.883	19807
883.01	19833
883.136	19651
883.262	19674
883.388	19662
883.514	19757
883.64	19757
883.766	19658
883.892	19567
884.018	19540
884.143	19765
884.269	19746
884.395	19384
884.52	19434
884.646	19453
884.772	19346
884.897	19400
885.023	19487
885.148	19476
885.274	19457
885.399	19525
885.524	19518
885.65	19521
885.775	19422
885.9	19377
886.025	19415
886.15	19499
886.275	19499
886.4	19240
886.525	19270
886.65	19255
886.775	19266
886.9	19457
887.025	19632
887.149	19308
887.274	19118
887.399	19285
887.523	19057
887.648	19065
887.773	19008
887.897	19266
888.021	19221
888.146	19000
888.27	19042
888.395	19259
888.519	19225
888.643	19141
888.767	19209
888.891	19015
889.015	18977
889.139	19038
889.263	18951
889.387	18989
889.511	19034
889.635	19008
889.759	18867
889.883	18993
890.006	18875
890.13	18989
890.254	18745
890.377	18787
890.501	18696
890.624	18589
890.748	18837
890.871	18578
890.995	18532
891.118	18357
891.241	18509
891.364	18585
891.488	18604
891.611	18464
891.734	18570
891.857	18593
891.98	18490
892.103	18650
892.226	18448
892.349	18460
892.471	18277
892.594	18429
892.717	18540
892.839	18528
892.962	18483
893.085	18506
893.207	18437
893.33	18384
893.452	18502
893.575	18582
893.697	18422
893.819	18479
893.941	18528
894.064	18604
894.186	18391
894.308	18365
894.43	18448
894.552	18506
894.674	18517
894.796	18289
894.918	18403
895.04	18422
895.161	18540
895.283	18445
895.405	18391
895.526	18452
895.648	18509
895.769	18429
895.891	18525
896.012	18464
896.134	18467
896.255	18604
896.376	18292
896.498	18418
896.619	18551
896.74	18486
896.861	18646
896.982	18848
897.103	18962
897.224	18837
897.345	18719
897.466	18700
897.587	18738
897.708	18875
897.828	18825
897.949	18681
898.07	18642
898.19	18661
898.311	18894
898.431	18726
898.552	18760
898.672	18791
898.792	18757
898.913	18730
899.033	18639
899.153	18498
899.273	18448
899.393	18521
899.513	18566
899.633	18528
899.753	18536
899.873	18464
899.993	18525
900.113	18391
900.232	18563
900.352	18456
900.472	18334
900.591	18262
900.711	18407
900.83	18209
900.95	18399
901.069	18372
901.189	18220
901.308	17942
901.427	18019
901.546	18003
901.665	18038
901.784	17935
901.904	17840
902.023	17714
902.141	17524
902.26	17474
902.379	17493
902.498	17360
902.617	17341
902.735	17512
902.854	17429
902.973	17360
903.091	17166
903.21	17132
903.328	17090
903.446	16999
903.565	16793
903.683	16835
903.801	16816
903.919	16839
904.038	16828
904.156	16721
904.274	16759
904.392	16611
904.51	16649
904.627	16702
904.745	16679
904.863	16607
904.981	16447
905.098	16352
905.216	16436
905.334	16299
905.451	16348
905.569	16287
905.686	16356
905.803	16382
905.921	16143
906.038	16299
906.155	16166
906.272	15979
906.389	16090
906.506	15869
906.623	15888
906.74	15736
906.857	15793
906.974	15705
907.091	15918
907.208	15998
907.324	15762
907.441	15739
907.557	15675
907.674	15572
907.79	15542
907.907	15507
908.023	15561
908.139	15515
908.256	15488
908.372	15485
908.488	15481
908.604	15230
908.72	15211
908.836	15230
908.952	15214
909.068	15325
909.184	15416
909.3	15222
909.415	15291
909.531	15222
909.647	15051
909.762	14979
909.878	14967
909.993	14994
910.108	14956
910.224	14838
910.339	14975
910.454	14834
910.57	14838
910.685	14644
910.8	14933
910.915	14929
911.03	14785
911.145	14636
911.259	14602
911.374	14556
911.489	14541
911.604	14492
911.718	14305
911.833	14366
911.947	14225
912.062	14195
912.176	14298
912.291	14366
912.405	14305
912.519	14454
912.633	14457
912.748	14282
912.862	14377
912.976	14187
913.09	13963
913.204	14107
913.318	14134
913.431	14248
913.545	14145
913.659	14282
913.772	14050
913.886	13986
914	13982
914.113	14164
914.226	14062
914.34	14046
914.453	13868
914.566	14039
914.68	13860
914.793	13791
914.906	13613
915.019	13609
915.132	13590
915.245	13548
915.358	13632
915.47	13628
915.583	13624
915.696	13643
915.809	13852
915.921	13765
916.034	13559
916.146	13582
916.259	13499
916.371	13578
916.483	13529
916.595	13483
916.708	13590
916.82	13495
916.932	13464
917.044	13540
917.156	13373
917.268	13400
917.38	13274
917.491	13312
917.603	13266
917.715	13373
917.826	13343
917.938	13316
918.049	13164
918.161	13270
918.272	13365
918.384	13365
918.495	13419
918.606	13141
918.717	13137
918.828	13149
918.939	13118
919.05	13019
919.161	13053
919.272	12875
919.383	12970
919.494	13137
919.604	13301
919.715	13103
919.826	12985
919.936	13069
920.047	13046
920.157	13091
920.267	13232
920.378	13065
920.488	13004
920.598	13266
920.708	13312
920.818	13152
920.928	13118
921.038	13304
921.148	13369
921.258	13023
921.368	12966
921.477	12958
921.587	12882
921.697	12753
921.806	12852
921.916	12563
922.025	12574
922.134	12456
922.244	12479
922.353	12486
922.462	12441
922.571	12311
922.68	12152
922.789	12121
922.898	12209
923.007	12095
923.116	12209
923.224	12095
923.333	12041
923.442	11992
923.55	12011
923.659	11969
923.767	12068
923.876	11817
923.984	11916
924.092	11897
924.201	11904
924.309	11904
924.417	11813
924.525	11832
924.633	11824
924.741	12810
924.849	11653
924.956	11866
925.064	11668
925.172	11562
925.279	11600
925.387	11672
925.494	11657
925.602	11805
925.709	11779
925.816	11581
925.924	11604
926.031	11661
926.138	11627
926.245	11604
926.352	11547
926.459	11627
926.566	11642
926.673	11528
926.779	11414
926.886	11436
926.993	11307
927.099	11174
927.206	11189
927.312	11162
927.419	11330
927.525	11185
927.631	11277
927.737	11128
927.843	11037
927.95	10919
928.056	11025
928.162	11075
928.267	11170
928.373	11726
928.479	11178
928.585	10949
928.69	11045
928.796	11086
928.901	10999
929.007	10873
929.112	10889
929.218	10949
929.323	10801
929.428	10881
929.533	10843
929.638	10740
929.743	10740
929.848	10854
929.953	10828
930.058	10675
930.163	10459
930.267	10538
930.372	10675
930.477	10466
930.581	10759
930.685	10489
930.79	10428
930.894	10394
930.998	10443
931.103	10485
931.207	10185
931.311	10131
931.415	10090
931.519	9865
931.623	9797
