Data from test_V78500241_3067.txt Node
Date: Fri Mar 25 14:55:04 CST 2022
User: usil
Spectrometer: V785-0024
Trigger mode: 0
Integration Time (sec): 4.000000E-1
Scans to average: 1
Nonlinearity correction enabled: false
Boxcar width: 0
Storing dark spectrum: false
XAxis mode: Wavelengths
Number of Pixels in Spectrum: 1024
>>>>>Begin Spectral Data<<<<<
801.071	22078
801.214	21930
801.356	21728
801.499	21595
801.641	21519
801.783	21336
801.926	21523
802.068	21439
802.211	21367
802.353	21317
802.496	21058
802.638	20994
802.78	20853
802.923	20941
803.065	20708
803.208	20765
803.35	20781
803.492	20872
803.635	20872
803.777	20712
803.919	20891
804.061	21199
804.204	20819
804.346	20716
804.488	20655
804.63	20785
804.773	20750
804.915	20838
805.057	20754
805.199	20701
805.341	20708
805.483	20842
805.626	20724
805.768	20689
805.91	20667
806.052	20705
806.194	20613
806.336	20781
806.478	20712
806.62	20651
806.762	20788
806.904	20971
807.046	21169
807.188	21074
807.33	21036
807.472	21009
807.614	20941
807.756	20948
807.898	20967
808.04	20750
808.182	20830
808.324	20891
808.465	20815
808.607	20990
808.749	21077
808.891	21157
809.033	21279
809.174	21310
809.316	21066
809.458	21104
809.6	21066
809.741	21051
809.883	21138
810.025	21176
810.166	21230
810.308	21279
810.45	21169
810.591	21154
810.733	20967
810.875	20800
811.016	20754
811.158	20765
811.299	20868
811.441	21070
811.582	20914
811.724	20819
811.865	20906
812.007	20899
812.148	20838
812.29	20914
812.431	21024
812.573	21275
812.714	21226
812.855	21283
812.997	21500
813.138	21504
813.279	21488
813.421	21348
813.562	21256
813.703	21028
813.845	20967
813.986	20845
814.127	20594
814.268	20533
814.41	20522
814.551	20450
814.692	20495
814.833	20332
814.974	20313
815.115	20419
815.256	20256
815.397	20263
815.539	20229
815.68	20164
815.821	20126
815.962	20115
816.103	20126
816.244	20016
816.385	19890
816.526	19871
816.666	19670
816.807	19552
816.948	19628
817.089	19620
817.23	19586
817.371	19445
817.512	19499
817.653	19506
817.793	19491
817.934	19559
818.075	19529
818.216	19514
818.356	19559
818.497	19331
818.638	19202
818.778	19126
818.919	19122
819.06	19304
819.2	19236
819.341	19487
819.481	19343
819.622	19620
819.762	19677
819.903	19674
820.043	19552
820.184	19514
820.324	19544
820.465	19544
820.605	19563
820.746	19510
820.886	19422
821.026	19373
821.167	19415
821.307	19464
821.447	19400
821.588	19365
821.728	19209
821.868	18954
822.008	18856
822.149	18886
822.289	18825
822.429	18483
822.569	18566
822.709	18540
822.849	18376
822.99	18353
823.13	18448
823.27	18281
823.41	18163
823.55	18125
823.69	18216
823.83	18197
823.97	18049
824.11	17973
824.25	17863
824.389	17920
824.529	18117
824.669	18076
824.809	18102
824.949	18106
825.089	18133
825.228	17893
825.368	17707
825.508	17794
825.648	17859
825.787	17726
825.927	17771
826.067	17733
826.206	17695
826.346	17668
826.485	17714
826.625	17798
826.765	17939
826.904	17851
827.044	17535
827.183	17520
827.323	17368
827.462	17585
827.601	17417
827.741	17414
827.88	17440
828.02	17364
828.159	17417
828.298	17436
828.437	17414
828.577	17532
828.716	17539
828.855	17406
828.994	17220
829.134	17113
829.273	17181
829.412	17181
829.551	17197
829.69	17128
829.829	17204
829.968	17200
830.107	17254
830.246	17254
830.385	17075
830.524	17094
830.663	16942
830.802	16847
830.941	16733
831.08	16812
831.219	16881
831.357	16919
831.496	17022
831.635	16831
831.774	16820
831.913	16664
832.051	16573
832.19	16462
832.329	16645
832.467	16523
832.606	16451
832.744	16500
832.883	16500
833.022	16485
833.16	16443
833.299	16558
833.437	16504
833.576	16504
833.714	16580
833.852	16485
833.991	16535
834.129	16561
834.267	16611
834.406	16455
834.544	16573
834.682	16504
834.821	16432
834.959	16748
835.097	16546
835.235	16611
835.373	16542
835.511	16554
835.65	16470
835.788	16508
835.926	16261
836.064	16139
836.202	16284
836.34	16409
836.478	16409
836.615	16318
836.753	16379
836.891	16413
837.029	16371
837.167	16466
837.305	16382
837.443	16394
837.58	16173
837.718	16474
837.856	16268
837.993	16261
838.131	16303
838.269	16200
838.406	16238
838.544	16120
838.681	16063
838.819	16025
838.956	15876
839.094	15869
839.231	15846
839.369	16059
839.506	16166
839.643	16067
839.781	15892
839.918	15861
840.055	15785
840.193	15823
840.33	15816
840.467	15850
840.604	15766
840.742	16135
840.879	15728
841.016	15743
841.153	15846
841.29	15941
841.427	15831
841.564	15800
841.701	15827
841.838	15812
841.975	15618
842.112	15823
842.249	15698
842.385	15580
842.522	15831
842.659	15629
842.796	15603
842.933	15629
843.069	15469
843.206	15549
843.343	15644
843.479	15561
843.616	15644
843.752	15488
843.889	15389
844.025	15507
844.162	15435
844.298	15481
844.435	15340
844.571	15306
844.708	15500
844.844	15538
844.98	15557
845.117	15542
845.253	15359
845.389	15108
845.525	15351
845.661	15252
845.798	15062
845.934	15279
846.07	15138
846.206	15218
846.342	15260
846.478	15154
846.614	15039
846.75	15047
846.886	15036
847.022	14990
847.158	14937
847.294	15020
847.429	14998
847.565	14971
847.701	15184
847.837	14800
847.972	14663
848.108	14674
848.244	14796
848.379	14545
848.515	14549
848.65	14583
848.786	14533
848.921	14587
849.057	14644
849.192	14720
849.328	14571
849.463	14636
849.598	14503
849.734	14511
849.869	14412
850.004	14404
850.14	14427
850.275	14393
850.41	14267
850.545	14229
850.68	14381
850.815	14324
850.95	14290
851.085	14514
851.22	14450
851.355	14374
851.49	14336
851.625	14252
851.76	14294
851.895	14294
852.03	14233
852.165	14393
852.299	14366
852.434	14400
852.569	14317
852.703	14328
852.838	14412
852.973	14469
853.107	14370
853.242	14332
853.376	14206
853.511	14069
853.645	14168
853.78	14400
853.914	14244
854.048	14130
854.183	14142
854.317	14298
854.451	14438
854.585	14168
854.72	14130
854.854	14176
854.988	14088
855.122	14073
855.256	14103
855.39	14214
855.524	14233
855.658	14229
855.792	14256
855.926	14259
856.06	14218
856.194	14286
856.327	14149
856.461	14103
856.595	14157
856.729	14172
856.862	14225
856.996	14187
857.13	14259
857.263	14176
857.397	14336
857.53	14142
857.664	14229
857.797	14282
857.931	14305
858.064	14195
858.197	14263
858.331	14149
858.464	14084
858.597	14012
858.731	14172
858.864	14202
858.997	14069
859.13	14225
859.263	14195
859.396	14324
859.529	14206
859.662	14176
859.795	14199
859.928	14183
860.061	14332
860.194	14381
860.327	14237
860.46	14259
860.592	14286
860.725	14301
860.858	14400
860.99	14206
861.123	14069
861.256	14138
861.388	14161
861.521	14765
861.653	14134
861.786	14050
861.918	14035
862.05	14115
862.183	14164
862.315	14164
862.447	14187
862.58	14126
862.712	13898
862.844	13913
862.976	13997
863.108	14054
863.24	14324
863.372	13860
863.504	13947
863.636	13993
863.768	14024
863.9	13967
864.032	13898
864.164	13856
864.296	13959
864.428	14081
864.559	14016
864.691	14084
864.823	14001
864.954	14084
865.086	14001
865.217	13890
865.349	13841
865.48	13875
865.612	14039
865.743	14126
865.875	13833
866.006	13849
866.137	13936
866.269	13917
866.4	13928
866.531	14001
866.662	13871
866.793	13928
866.924	13852
867.055	13993
867.186	13944
867.317	13875
867.448	13811
867.579	13814
867.71	13761
867.841	13788
867.972	13963
868.103	13925
868.233	13997
868.364	13982
868.495	14039
868.625	14145
868.756	14336
868.886	14084
869.017	14130
869.147	14374
869.278	14358
869.408	14225
869.539	14199
869.669	14317
869.799	14252
869.929	14256
870.06	14278
870.19	14526
870.32	14499
870.45	14575
870.58	14560
870.71	14625
870.84	14686
870.97	14689
871.1	14568
871.23	14765
871.36	14834
871.489	14693
871.619	14785
871.749	14735
871.879	14960
872.008	14979
872.138	14807
872.267	14819
872.397	14636
872.526	14632
872.656	14549
872.785	14659
872.915	14883
873.044	14914
873.173	14743
873.303	14830
873.432	14975
873.561	14823
873.69	14864
873.819	14815
873.948	14895
874.077	14792
874.206	14838
874.335	14804
874.464	15009
874.593	15142
874.722	15074
874.851	15154
874.979	15199
875.108	15150
875.237	15001
875.365	15047
875.494	15176
875.623	15211
875.751	15123
875.88	15165
876.008	15207
876.136	15428
876.265	15553
876.393	15656
876.521	15690
876.65	15667
876.778	15606
876.906	15542
877.034	15454
877.162	15599
877.29	15580
877.418	15534
877.546	15603
877.674	15584
877.802	15584
877.93	15526
878.058	15473
878.185	15488
878.313	15572
878.441	15504
878.568	15397
878.696	15443
878.824	15675
878.951	15667
879.079	15789
879.206	15846
879.333	15720
879.461	15660
879.588	15603
879.715	15705
879.842	15854
879.97	15743
880.097	15428
880.224	15363
880.351	15534
880.478	15428
880.605	15283
880.732	15348
880.859	15545
880.986	15428
881.112	15458
881.239	15378
881.366	15199
881.493	15077
881.619	15058
881.746	15066
881.872	15077
881.999	15028
882.125	15074
882.252	15195
882.378	15062
882.505	15207
882.631	14952
882.757	14956
882.883	15020
883.01	14982
883.136	14849
883.262	14857
883.388	14777
883.514	14883
883.64	14937
883.766	14788
883.892	14716
884.018	14762
884.143	14834
884.269	14990
884.395	14617
884.52	14610
884.646	14556
884.772	14560
884.897	14530
885.023	14651
885.148	14708
885.274	14682
885.399	14765
885.524	14606
885.65	14587
885.775	14606
885.9	14602
886.025	14788
886.15	14727
886.275	14594
886.4	14621
886.525	14568
886.65	14488
886.775	14594
886.9	14648
887.025	14819
887.149	14632
887.274	14454
887.399	14355
887.523	14393
887.648	14366
887.773	14351
887.897	14568
888.021	14495
888.146	14377
888.27	14602
888.395	14560
888.519	14488
888.643	14499
888.767	14568
888.891	14298
889.015	14366
889.139	14320
889.263	14244
889.387	14404
889.511	14476
889.635	14423
889.759	14313
889.883	14309
890.006	14351
890.13	14370
890.254	14214
890.377	14225
890.501	14058
890.624	14111
890.748	14145
890.871	14142
890.995	13928
891.118	13978
891.241	14046
891.364	13997
891.488	14054
891.611	14012
891.734	13936
891.857	14096
891.98	14103
892.103	14035
892.226	14016
892.349	13913
892.471	13864
892.594	13997
892.717	14031
892.839	14024
892.962	14024
893.085	14107
893.207	14054
893.33	13856
893.452	13989
893.575	14103
893.697	13974
893.819	14225
893.941	14138
894.064	14256
894.186	13913
894.308	13887
894.43	14218
894.552	14275
894.674	14138
894.796	14001
894.918	14065
895.04	13959
895.161	14142
895.283	14088
895.405	14039
895.526	14020
895.648	14126
895.769	14168
895.891	14145
896.012	14157
896.134	14218
896.255	14221
896.376	14126
896.498	14096
896.619	14161
896.74	14142
896.861	14180
896.982	14632
897.103	14648
897.224	14431
897.345	14419
897.466	14366
897.587	14518
897.708	14552
897.828	14473
897.949	14358
898.07	14313
898.19	14339
898.311	14564
898.431	14564
898.552	14549
898.672	14560
898.792	14579
898.913	14632
899.033	14488
899.153	14461
899.273	14298
899.393	14393
899.513	14431
899.633	14469
899.753	14415
899.873	14328
899.993	14419
900.113	14389
900.232	14488
900.352	14362
900.472	14267
900.591	14168
900.711	14267
900.83	14263
900.95	14339
901.069	14374
901.189	14168
901.308	13986
901.427	13925
901.546	13978
901.665	14050
901.784	13993
901.904	13841
902.023	13723
902.141	13582
902.26	13460
902.379	13548
902.498	13483
902.617	13396
902.735	13480
902.854	13453
902.973	13525
903.091	13129
903.21	13274
903.328	13160
903.446	13129
903.565	13065
903.683	13031
903.801	13069
903.919	13118
904.038	13031
904.156	12863
904.274	12970
904.392	12977
904.51	12802
904.627	12852
904.745	12913
904.863	12958
904.981	12734
905.098	12570
905.216	12623
905.334	12582
905.451	12574
905.569	12585
905.686	12532
905.803	12604
905.921	12372
906.038	12418
906.155	12437
906.272	12323
906.389	12308
906.506	12171
906.623	12216
906.74	12190
906.857	12057
906.974	12038
907.091	12350
907.208	12342
907.324	12186
907.441	12064
907.557	11984
907.674	11916
907.79	11958
907.907	11885
908.023	12003
908.139	11958
908.256	11866
908.372	11847
908.488	11760
908.604	11707
908.72	11657
908.836	11589
908.952	11619
909.068	11638
909.184	11741
909.3	11699
909.415	11798
909.531	11790
909.647	11509
909.762	11497
909.878	11360
909.993	11452
910.108	11463
910.224	11395
910.339	11383
910.454	11353
910.57	11265
910.685	11254
910.8	11520
910.915	11463
911.03	11364
911.145	11162
911.259	11212
911.374	11113
911.489	11090
911.604	11022
911.718	10911
911.833	10942
911.947	10812
912.062	10706
912.176	10904
912.291	10866
912.405	10885
912.519	11094
912.633	11037
912.748	10904
912.862	10942
912.976	10801
913.09	10740
913.204	10733
913.318	10877
913.431	10866
913.545	10919
913.659	10923
913.772	10786
913.886	10645
914	10714
914.113	10767
914.226	10793
914.34	10694
914.453	10626
914.566	10698
914.68	10645
914.793	10622
914.906	10440
915.019	10390
915.132	10322
915.245	10402
915.358	10386
915.47	10440
915.583	10440
915.696	10443
915.809	10615
915.921	10592
916.034	10379
916.146	10344
916.259	10276
916.371	10447
916.483	10409
916.595	10291
916.708	10356
916.82	10375
916.932	10352
917.044	10379
917.156	10291
917.268	10230
917.38	10287
917.491	10261
917.603	10215
917.715	10329
917.826	10386
917.938	10272
918.049	10006
918.161	10249
918.272	10417
918.384	10375
918.495	10375
918.606	10219
918.717	10055
918.828	10101
918.939	10158
919.05	10067
919.161	10071
919.272	9960
919.383	9983
919.494	10139
919.604	10375
919.715	10177
919.826	10093
919.936	10154
920.047	10204
920.157	10177
920.267	10333
920.378	10211
920.488	10131
920.598	10325
920.708	10497
920.818	10284
920.928	10310
921.038	10500
921.148	10493
921.258	10268
921.368	10177
921.477	10002
921.587	10055
921.697	9865
921.806	10021
921.916	9835
922.025	9709
922.134	9751
922.244	9671
922.353	9705
922.462	9591
922.571	9591
922.68	9420
922.789	9428
922.898	9447
923.007	9355
923.116	9428
923.224	9408
923.333	9363
923.442	9260
923.55	9256
923.659	9355
923.767	9294
923.876	9222
923.984	9348
924.092	9195
924.201	9294
924.309	9313
924.417	9279
924.525	9214
924.633	9233
924.741	10154
924.849	9039
924.956	9222
925.064	9017
925.172	9062
925.279	8944
925.387	9066
925.494	9043
925.602	9199
925.709	9119
925.816	9013
925.924	9070
926.031	9157
926.138	9062
926.245	9119
926.352	9005
926.459	9199
926.566	9169
926.673	9032
926.779	8887
926.886	8918
926.993	8792
927.099	8804
927.206	8735
927.312	8682
927.419	8819
927.525	8735
927.631	8769
927.737	8678
927.843	8682
927.95	8602
928.056	8655
928.162	8663
928.267	8731
928.373	9176
928.479	8743
928.585	8610
928.69	8693
928.796	8636
928.901	8613
929.007	8400
929.112	8674
929.218	8556
929.323	8526
929.428	8446
929.533	8590
929.638	8438
929.743	8450
929.848	8488
929.953	8484
930.058	8355
930.163	8279
930.267	8240
930.372	8434
930.477	8271
930.581	8545
930.685	8389
930.79	8240
930.894	8282
930.998	8187
931.103	8313
931.207	7974
931.311	7978
931.415	7856
931.519	7803
931.623	7750
