Data from test_V78500241_156.txt Node
Date: Fri Mar 25 14:34:48 CST 2022
User: usil
Spectrometer: V785-0024
Trigger mode: 0
Integration Time (sec): 4.000000E-1
Scans to average: 1
Nonlinearity correction enabled: false
Boxcar width: 0
Storing dark spectrum: false
XAxis mode: Wavelengths
Number of Pixels in Spectrum: 1024
>>>>>Begin Spectral Data<<<<<
801.071	29330
801.214	29273
801.356	28949
801.499	29044
801.641	28835
801.783	28740
801.926	28744
802.068	28790
802.211	28493
802.353	28740
802.496	28500
802.638	28356
802.78	28325
802.923	28367
803.065	28249
803.208	28382
803.35	28459
803.492	28512
803.635	28615
803.777	28440
803.919	28557
804.061	28713
804.204	28740
804.346	28417
804.488	28409
804.63	28554
804.773	28394
804.915	28535
805.057	28565
805.199	28649
805.341	28702
805.483	28694
805.626	28626
805.768	28782
805.91	28717
806.052	28782
806.194	28717
806.336	28957
806.478	28888
806.62	28938
806.762	29140
806.904	29315
807.046	29665
807.188	29623
807.33	29634
807.472	29973
807.614	30003
807.756	30121
807.898	30369
808.04	30848
808.182	31335
808.324	32145
808.465	32880
808.607	33827
808.749	34637
808.891	34938
809.033	34915
809.174	34443
809.316	33644
809.458	32754
809.6	31856
809.741	31327
809.883	30920
810.025	30734
810.166	30190
810.308	30038
810.45	29988
810.591	29798
810.733	29497
810.875	29440
811.016	29303
811.158	29235
811.299	29360
811.441	29322
811.582	29334
811.724	29159
811.865	28984
812.007	29014
812.148	29048
812.29	29181
812.431	29147
812.573	29417
812.714	29337
812.855	29349
812.997	29600
813.138	29665
813.279	29528
813.421	29570
813.562	29379
813.703	29227
813.845	29246
813.986	28820
814.127	28683
814.268	28497
814.41	28603
814.551	28447
814.692	28649
814.833	28413
814.974	28409
815.115	28535
815.256	28306
815.397	28238
815.539	28162
815.68	28040
815.821	28032
815.962	28200
816.103	28120
816.244	28040
816.385	27926
816.526	27816
816.666	27679
816.807	27462
816.948	27526
817.089	27576
817.23	27622
817.371	27389
817.512	27511
817.653	27469
817.793	27378
817.934	27572
818.075	27515
818.216	27469
818.356	27488
818.497	27260
818.638	27211
818.778	27169
818.919	27211
819.06	27275
819.2	27397
819.341	27321
819.481	27427
819.622	27580
819.762	27583
819.903	27641
820.043	27576
820.184	27458
820.324	27523
820.465	27424
820.605	27397
820.746	27424
820.886	27161
821.026	27416
821.167	27272
821.307	27344
821.447	27241
821.588	27199
821.728	27017
821.868	26918
822.008	26716
822.149	26629
822.289	26807
822.429	26480
822.569	26248
822.709	26393
822.849	26233
822.99	26111
823.13	26107
823.27	26088
823.41	25932
823.55	25860
823.69	25814
823.83	25906
823.97	25883
824.11	25689
824.25	25708
824.389	25677
824.529	25803
824.669	25753
824.809	25776
824.949	25871
825.089	25734
825.228	25723
825.368	25479
825.508	25479
825.648	25525
825.787	25643
825.927	25575
826.067	25407
826.206	25487
826.346	25502
826.485	25559
826.625	25457
826.765	25552
826.904	25578
827.044	25316
827.183	25270
827.323	25137
827.462	25228
827.601	25088
827.741	25225
827.88	25209
828.02	24977
828.159	25152
828.298	25168
828.437	25266
828.577	25034
828.716	25327
828.855	25122
828.994	24954
829.134	24928
829.273	25015
829.412	24833
829.551	24810
829.69	24802
829.829	24844
829.968	24989
830.107	24833
830.246	24916
830.385	24757
830.524	24711
830.663	24578
830.802	24559
830.941	24418
831.08	24319
831.219	24563
831.357	24380
831.496	24642
831.635	24369
831.774	24376
831.913	24220
832.051	24243
832.19	24148
832.329	24323
832.467	24072
832.606	24079
832.744	24049
832.883	24102
833.022	24178
833.16	24072
833.299	24342
833.437	24205
833.576	24353
833.714	24277
833.852	24391
833.991	24410
834.129	24490
834.267	24330
834.406	24365
834.544	24372
834.682	24270
834.821	24110
834.959	24380
835.097	24110
835.235	24292
835.373	24095
835.511	24102
835.65	24015
835.788	23847
835.926	23798
836.064	23745
836.202	23760
836.34	23927
836.478	23984
836.615	23893
836.753	23882
836.891	24030
837.029	23813
837.167	23828
837.305	23824
837.443	23684
837.58	23680
837.718	23642
837.856	23703
837.993	23634
838.131	23703
838.269	23589
838.406	23493
838.544	23512
838.681	23280
838.819	23246
838.956	23151
839.094	23064
839.231	23033
839.369	23132
839.506	23402
839.643	23330
839.781	23075
839.918	22957
840.055	22999
840.193	22934
840.33	22927
840.467	22930
840.604	22934
840.742	23166
840.879	22771
841.016	22858
841.153	22881
841.29	22942
841.427	22968
841.564	22980
841.701	22919
841.838	22854
841.975	22850
842.112	22816
842.249	22721
842.385	22679
842.522	22915
842.659	22740
842.796	22763
842.933	22675
843.069	22599
843.206	22641
843.343	22615
843.479	22752
843.616	22717
843.752	22596
843.889	22459
844.025	22649
844.162	22451
844.298	22607
844.435	22577
844.571	22656
844.708	22740
844.844	22877
844.98	22972
845.117	23181
845.253	23197
845.389	23699
845.525	24365
845.661	25833
845.798	27386
845.934	28839
846.07	29531
846.206	29212
846.342	28303
846.478	26427
846.614	24715
846.75	23627
846.886	23090
847.022	22706
847.158	22390
847.294	22211
847.429	22067
847.565	22032
847.701	22299
847.837	21751
847.972	21694
848.108	21728
848.244	21717
848.379	21492
848.515	21454
848.65	21393
848.786	21416
848.921	21408
849.057	21557
849.192	21477
849.328	21450
849.463	21477
849.598	21298
849.734	21416
849.869	21294
850.004	21051
850.14	21230
850.275	21180
850.41	21047
850.545	21081
850.68	21055
850.815	21100
850.95	21013
851.085	21355
851.22	21226
851.355	21180
851.49	21081
851.625	21093
851.76	21104
851.895	20994
852.03	21005
852.165	21093
852.299	21043
852.434	21142
852.569	21165
852.703	21066
852.838	21184
852.973	21313
853.107	21279
853.242	21074
853.376	20952
853.511	20910
853.645	20914
853.78	21066
853.914	21096
854.048	20887
854.183	21017
854.317	21081
854.451	21176
854.585	20933
854.72	21081
854.854	21051
854.988	20933
855.122	21017
855.256	20762
855.39	20963
855.524	20963
855.658	20906
855.792	20979
855.926	20948
856.06	20982
856.194	21013
856.327	20914
856.461	20979
856.595	20887
856.729	20883
856.862	20963
856.996	20800
857.13	20891
857.263	21017
857.397	20960
857.53	20887
857.664	20914
857.797	20872
857.931	20979
858.064	20971
858.197	20800
858.331	20785
858.464	20781
858.597	20651
858.731	20811
858.864	20708
858.997	20758
859.13	20811
859.263	20830
859.396	20895
859.529	20876
859.662	20663
859.795	20731
859.928	20842
860.061	20933
860.194	20861
860.327	20899
860.46	20773
860.592	20864
860.725	20830
860.858	20823
860.99	20743
861.123	20621
861.256	20655
861.388	20697
861.521	21401
861.653	20815
861.786	20750
861.918	20716
862.05	20712
862.183	20750
862.315	20663
862.447	20815
862.58	20868
862.712	20579
862.844	20571
862.976	20636
863.108	20492
863.24	20830
863.372	20492
863.504	20385
863.636	20522
863.768	20602
863.9	20549
864.032	20484
864.164	20278
864.296	20533
864.428	20526
864.559	20575
864.691	20537
864.823	20492
864.954	20385
865.086	20461
865.217	20415
865.349	20332
865.48	20381
865.612	20499
865.743	20587
865.875	20278
866.006	20339
866.137	20450
866.269	20442
866.4	20343
866.531	20275
866.662	20412
866.793	20191
866.924	20332
867.055	20294
867.186	20313
867.317	20267
867.448	20161
867.579	20252
867.71	20218
867.841	20233
867.972	20248
868.103	20256
868.233	20332
868.364	20248
868.495	20324
868.625	20446
868.756	20644
868.886	20450
869.017	20579
869.147	20636
869.278	20587
869.408	20579
869.539	20484
869.669	20644
869.799	20568
869.929	20792
870.06	20617
870.19	20838
870.32	20785
870.45	20830
870.58	20887
870.71	21089
870.84	21036
870.97	20925
871.1	20895
871.23	21127
871.36	21207
871.489	21127
871.619	21096
871.749	21047
871.879	21131
872.008	21268
872.138	21104
872.267	21108
872.397	20967
872.526	21024
872.656	20982
872.785	20975
872.915	21226
873.044	21222
873.173	21264
873.303	21317
873.432	21192
873.561	21325
873.69	21325
873.819	21207
873.948	21428
874.077	21298
874.206	21268
874.335	21306
874.464	21473
874.593	21428
874.722	21507
874.851	21519
874.979	21473
875.108	21625
875.237	21549
875.365	21515
875.494	21561
875.623	21641
875.751	21496
875.88	21591
876.008	21800
876.136	21762
876.265	21960
876.393	22272
876.521	22120
876.65	22128
876.778	22139
876.906	22154
877.034	21968
877.162	22150
877.29	21998
877.418	22154
877.546	22185
877.674	22261
877.802	22215
877.93	22211
878.058	22211
878.185	22348
878.313	22474
878.441	22481
878.568	22421
878.696	22637
878.824	23010
878.951	23242
879.079	23695
879.206	24281
879.333	24859
879.461	25206
879.588	25388
879.715	25510
879.842	25396
879.97	24783
880.097	24011
880.224	23589
880.351	23368
880.478	23151
880.605	22938
880.732	22828
880.859	22904
880.986	22592
881.112	22774
881.239	22538
881.366	22451
881.493	22352
881.619	22253
881.746	22257
881.872	22287
881.999	22181
882.125	22295
882.252	22341
882.378	22291
882.505	22421
882.631	22204
882.757	22021
882.883	22059
883.01	22086
883.136	22063
883.262	21945
883.388	21987
883.514	22040
883.64	22135
883.766	21945
883.892	21698
884.018	21895
884.143	22032
884.269	22135
884.395	21873
884.52	21747
884.646	21728
884.772	21736
884.897	21698
885.023	21785
885.148	21751
885.274	21778
885.399	21682
885.524	21603
885.65	21648
885.775	21583
885.9	21530
886.025	21553
886.15	21534
886.275	21298
886.4	21203
886.525	21272
886.65	21340
886.775	21100
886.9	21329
887.025	21485
887.149	21184
887.274	21036
887.399	20971
887.523	20853
887.648	20842
887.773	20880
887.897	20952
888.021	20785
888.146	20739
888.27	20815
888.395	20929
888.519	20819
888.643	20845
888.767	20864
888.891	20678
889.015	20598
889.139	20617
889.263	20556
889.387	20613
889.511	20670
889.635	20598
889.759	20339
889.883	20488
890.006	20419
890.13	20533
890.254	20381
890.377	20290
890.501	20161
890.624	20107
890.748	20256
890.871	20161
890.995	20122
891.118	19932
891.241	19906
891.364	19944
891.488	20187
891.611	20046
891.734	19982
891.857	19970
891.98	20058
892.103	20027
892.226	19841
892.349	19814
892.471	19799
892.594	19856
892.717	19841
892.839	19818
892.962	19894
893.085	19890
893.207	19864
893.33	19628
893.452	19734
893.575	19803
893.697	19700
893.819	19963
893.941	19830
894.064	19959
894.186	19632
894.308	19632
894.43	19757
894.552	19799
894.674	19906
894.796	19594
894.918	19708
895.04	19696
895.161	19689
895.283	19811
895.405	19655
895.526	19715
895.648	19769
895.769	19651
895.891	19750
896.012	19719
896.134	19635
896.255	19765
896.376	19613
896.498	19712
896.619	19757
896.74	19700
896.861	19814
896.982	20077
897.103	20149
897.224	19993
897.345	19875
897.466	19951
897.587	19868
897.708	19986
897.828	19845
897.949	19830
898.07	19784
898.19	19837
898.311	20050
898.431	19940
898.552	19799
898.672	19845
898.792	19925
898.913	19906
899.033	19704
899.153	19655
899.273	19502
899.393	19674
899.513	19632
899.633	19590
899.753	19563
899.873	19487
899.993	19548
900.113	19518
900.232	19563
900.352	19502
900.472	19339
900.591	19373
900.711	19464
900.83	19259
900.95	19457
901.069	19518
901.189	19324
901.308	19050
901.427	19061
901.546	18932
901.665	19091
901.784	18909
901.904	18829
902.023	18658
902.141	18650
902.26	18490
902.379	18532
902.498	18528
902.617	18433
902.735	18437
902.854	18384
902.973	18490
903.091	18186
903.21	18182
903.328	18091
903.446	18011
903.565	17988
903.683	18117
903.801	17813
903.919	17999
904.038	17832
904.156	17680
904.274	17832
904.392	17657
904.51	17687
904.627	17653
904.745	17695
904.863	17695
904.981	17486
905.098	17261
905.216	17258
905.334	17360
905.451	17303
905.569	17231
905.686	17311
905.803	17322
905.921	17204
906.038	17162
906.155	17170
906.272	17060
906.389	16980
906.506	16740
906.623	16873
906.74	16786
906.857	16755
906.974	16733
907.091	16858
907.208	16972
907.324	16774
907.441	16752
907.557	16497
907.674	16569
907.79	16466
907.907	16440
908.023	16577
908.139	16417
908.256	16398
908.372	16508
908.488	16417
908.604	16215
908.72	16253
908.836	16223
908.952	16162
909.068	16242
909.184	16246
909.3	16188
909.415	16135
909.531	16116
909.647	15865
909.762	15964
909.878	15819
909.993	15831
910.108	15918
910.224	15762
910.339	15884
910.454	15831
910.57	15679
910.685	15568
910.8	15979
910.915	15789
911.03	15701
911.145	15496
911.259	15507
911.374	15523
911.489	15416
911.604	15424
911.718	15245
911.833	15207
911.947	15154
912.062	14979
912.176	15119
912.291	15123
912.405	15157
912.519	15424
912.633	15393
912.748	15199
912.862	15291
912.976	15085
913.09	14876
913.204	15085
913.318	14979
913.431	15089
913.545	15184
913.659	15108
913.772	14941
913.886	14895
914	14769
914.113	14956
914.226	14887
914.34	15013
914.453	14830
914.566	14868
914.68	14731
914.793	14727
914.906	14610
915.019	14446
915.132	14480
915.245	14480
915.358	14511
915.47	14427
915.583	14507
915.696	14495
915.809	14560
915.921	14629
916.034	14514
916.146	14446
916.259	14404
916.371	14511
916.483	14343
916.595	14343
916.708	14355
916.82	14404
916.932	14294
917.044	14210
917.156	14263
917.268	14157
917.38	14298
917.491	14210
917.603	14107
917.715	14221
917.826	14252
917.938	14031
918.049	14020
918.161	14161
918.272	14183
918.384	14172
918.495	14092
918.606	13982
918.717	13826
918.828	14008
918.939	13974
919.05	13704
919.161	13902
919.272	13719
919.383	13742
919.494	13860
919.604	13955
919.715	13860
919.826	13704
919.936	13814
920.047	13974
920.157	13868
920.267	14046
920.378	13879
920.488	13738
920.598	13921
920.708	14096
920.818	13959
920.928	13928
921.038	13997
921.148	14027
921.258	13757
921.368	13742
921.477	13639
921.587	13540
921.697	13422
921.806	13613
921.916	13419
922.025	13293
922.134	13209
922.244	13221
922.353	13263
922.462	13103
922.571	13053
922.68	12970
922.789	12848
922.898	12890
923.007	12791
923.116	12875
923.224	12848
923.333	12840
923.442	12707
923.55	12665
923.659	12749
923.767	12681
923.876	12627
923.984	12681
924.092	12703
924.201	12608
924.309	12650
924.417	12608
924.525	12559
924.633	12555
924.741	13495
924.849	12243
924.956	12483
925.064	12372
925.172	12262
925.279	12323
925.387	12266
925.494	12346
925.602	12369
925.709	12429
925.816	12270
925.924	12281
926.031	12357
926.138	12224
926.245	12277
926.352	12095
926.459	12300
926.566	12308
926.673	12129
926.779	11988
926.886	12026
926.993	11893
927.099	11920
927.206	11923
927.312	11813
927.419	11863
927.525	11889
927.631	11939
927.737	11752
927.843	11824
927.95	11627
928.056	11722
928.162	11707
928.267	11718
928.373	12247
928.479	11805
928.585	11577
928.69	11653
928.796	11741
928.901	11516
929.007	11463
929.112	11516
929.218	11562
929.323	11490
929.428	11444
929.533	11547
929.638	11402
929.743	11402
929.848	11493
929.953	11364
930.058	11364
930.163	11094
930.267	11193
930.372	11356
930.477	11113
930.581	11391
930.685	11216
930.79	11037
930.894	11083
930.998	10972
931.103	11079
931.207	10767
931.311	10748
931.415	10630
931.519	10386
931.623	10371
