Data from test_V78500241_2868.txt Node
Date: Fri Mar 25 14:53:41 CST 2022
User: usil
Spectrometer: V785-0024
Trigger mode: 0
Integration Time (sec): 4.000000E-1
Scans to average: 1
Nonlinearity correction enabled: false
Boxcar width: 0
Storing dark spectrum: false
XAxis mode: Wavelengths
Number of Pixels in Spectrum: 1024
>>>>>Begin Spectral Data<<<<<
801.071	21975
801.214	21941
801.356	21667
801.499	21667
801.641	21519
801.783	21450
801.926	21450
802.068	21374
802.211	21252
802.353	21154
802.496	21104
802.638	21017
802.78	20906
802.923	20800
803.065	20800
803.208	20682
803.35	20769
803.492	20868
803.635	20895
803.777	20773
803.919	20826
804.061	21058
804.204	20861
804.346	20686
804.488	20587
804.63	20758
804.773	20655
804.915	20667
805.057	20720
805.199	20644
805.341	20724
805.483	20731
805.626	20746
805.768	20701
805.91	20769
806.052	20701
806.194	20708
806.336	20853
806.478	20720
806.62	20686
806.762	20842
806.904	20857
807.046	21055
807.188	21058
807.33	20982
807.472	21017
807.614	20861
807.756	20925
807.898	20857
808.04	20788
808.182	20754
808.324	20712
808.465	20895
808.607	20971
808.749	21142
808.891	21241
809.033	21214
809.174	21077
809.316	21009
809.458	20952
809.6	20914
809.741	21055
809.883	21070
810.025	21222
810.166	21169
810.308	21165
810.45	21192
810.591	21100
810.733	20895
810.875	20864
811.016	20762
811.158	20697
811.299	20842
811.441	21020
811.582	20933
811.724	20804
811.865	20773
812.007	20826
812.148	20636
812.29	20811
812.431	20868
812.573	21096
812.714	21306
812.855	21389
812.997	21389
813.138	21466
813.279	21416
813.421	21405
813.562	21222
813.703	21070
813.845	21058
813.986	20678
814.127	20461
814.268	20457
814.41	20355
814.551	20294
814.692	20290
814.833	20290
814.974	20355
815.115	20549
815.256	20229
815.397	20309
815.539	20119
815.68	20126
815.821	19974
815.962	20142
816.103	20024
816.244	19921
816.385	19845
816.526	19837
816.666	19635
816.807	19590
816.948	19578
817.089	19681
817.23	19533
817.371	19518
817.512	19354
817.653	19499
817.793	19472
817.934	19422
818.075	19578
818.216	19483
818.356	19460
818.497	19179
818.638	19175
818.778	19175
818.919	19228
819.06	19228
819.2	19289
819.341	19343
819.481	19369
819.622	19445
819.762	19719
819.903	19586
820.043	19453
820.184	19552
820.324	19487
820.465	19521
820.605	19480
820.746	19403
820.886	19297
821.026	19400
821.167	19168
821.307	19502
821.447	19335
821.588	19343
821.728	19133
821.868	19076
822.008	18913
822.149	18882
822.289	18837
822.429	18665
822.569	18559
822.709	18498
822.849	18308
822.99	18228
823.13	18262
823.27	18369
823.41	18174
823.55	18102
823.69	18220
823.83	18087
823.97	18072
824.11	18034
824.25	17851
824.389	17817
824.529	17999
824.669	17965
824.809	17920
824.949	18053
825.089	17885
825.228	17950
825.368	17840
825.508	17798
825.648	17729
825.787	17741
825.927	17840
826.067	17665
826.206	17665
826.346	17718
826.485	17756
826.625	17661
826.765	17771
826.904	17729
827.044	17414
827.183	17436
827.323	17516
827.462	17562
827.601	17391
827.741	17391
827.88	17353
828.02	17220
828.159	17417
828.298	17406
828.437	17425
828.577	17353
828.716	17490
828.855	17364
828.994	17204
829.134	17220
829.273	17124
829.412	17060
829.551	17231
829.69	17083
829.829	17223
829.968	17311
830.107	17307
830.246	17254
830.385	17178
830.524	17064
830.663	17037
830.802	16908
830.941	16771
831.08	16790
831.219	16866
831.357	16809
831.496	17105
831.635	16797
831.774	16713
831.913	16713
832.051	16596
832.19	16519
832.329	16664
832.467	16485
832.606	16363
832.744	16542
832.883	16512
833.022	16474
833.16	16459
833.299	16489
833.437	16523
833.576	16634
833.714	16546
833.852	16698
833.991	16577
834.129	16641
834.267	16558
834.406	16432
834.544	16554
834.682	16611
834.821	16436
834.959	16626
835.097	16523
835.235	16596
835.373	16603
835.511	16451
835.65	16443
835.788	16470
835.926	16390
836.064	16261
836.202	16207
836.34	16470
836.478	16500
836.615	16341
836.753	16489
836.891	16546
837.029	16428
837.167	16344
837.305	16318
837.443	16363
837.58	16238
837.718	16421
837.856	16291
837.993	16299
838.131	16386
838.269	16234
838.406	16299
838.544	16253
838.681	16059
838.819	16036
838.956	15838
839.094	15816
839.231	15987
839.369	15991
839.506	16204
839.643	16029
839.781	15865
839.918	15880
840.055	15915
840.193	15892
840.33	15819
840.467	15812
840.604	15869
840.742	16162
840.879	15789
841.016	15804
841.153	15759
841.29	15941
841.427	15994
841.564	15850
841.701	15831
841.838	15850
841.975	15709
842.112	15789
842.249	15698
842.385	15580
842.522	15827
842.659	15709
842.796	15610
842.933	15660
843.069	15587
843.206	15587
843.343	15755
843.479	15618
843.616	15618
843.752	15481
843.889	15378
844.025	15473
844.162	15431
844.298	15682
844.435	15393
844.571	15447
844.708	15420
844.844	15568
844.98	15595
845.117	15393
845.253	15344
845.389	15313
845.525	15279
845.661	15408
845.798	15154
845.934	15275
846.07	15127
846.206	15348
846.342	15291
846.478	15142
846.614	15070
846.75	14956
846.886	14971
847.022	15108
847.158	15051
847.294	14906
847.429	15058
847.565	15039
847.701	15230
847.837	14735
847.972	14735
848.108	14807
848.244	14830
848.379	14781
848.515	14617
848.65	14549
848.786	14545
848.921	14670
849.057	14750
849.192	14667
849.328	14636
849.463	14613
849.598	14587
849.734	14571
849.869	14541
850.004	14355
850.14	14415
850.275	14381
850.41	14286
850.545	14400
850.68	14286
850.815	14339
850.95	14309
851.085	14564
851.22	14480
851.355	14305
851.49	14339
851.625	14298
851.76	14396
851.895	14313
852.03	14202
852.165	14317
852.299	14370
852.434	14495
852.569	14347
852.703	14320
852.838	14393
852.973	14488
853.107	14438
853.242	14309
853.376	14218
853.511	14103
853.645	14172
853.78	14305
853.914	14252
854.048	14180
854.183	14259
854.317	14267
854.451	14313
854.585	14199
854.72	14237
854.854	14294
854.988	14202
855.122	14225
855.256	14149
855.39	14180
855.524	14328
855.658	14286
855.792	14244
855.926	14252
856.06	14370
856.194	14214
856.327	14252
856.461	14263
856.595	14161
856.729	14214
856.862	14313
856.996	14298
857.13	14339
857.263	14267
857.397	14366
857.53	14218
857.664	14332
857.797	14358
857.931	14419
858.064	14199
858.197	14389
858.331	14286
858.464	14195
858.597	14119
858.731	14244
858.864	14199
858.997	14191
859.13	14218
859.263	14191
859.396	14328
859.529	14172
859.662	14168
859.795	14119
859.928	14225
860.061	14305
860.194	14389
860.327	14278
860.46	14278
860.592	14381
860.725	14412
860.858	14305
860.99	14244
861.123	14191
861.256	14126
861.388	14309
861.521	14788
861.653	14145
861.786	14073
861.918	14161
862.05	14206
862.183	14187
862.315	14259
862.447	14263
862.58	14134
862.712	13928
862.844	13944
862.976	14092
863.108	14050
863.24	14473
863.372	13837
863.504	14031
863.636	13974
863.768	14031
863.9	13982
864.032	13951
864.164	13970
864.296	13955
864.428	14149
864.559	14180
864.691	14161
864.823	14111
864.954	14096
865.086	14039
865.217	13959
865.349	13963
865.48	13928
865.612	13986
865.743	14031
865.875	14020
866.006	14005
866.137	13955
866.269	14001
866.4	13917
866.531	13871
866.662	13982
866.793	13936
866.924	13871
867.055	13997
867.186	13917
867.317	13955
867.448	13932
867.579	13989
867.71	13917
867.841	13898
867.972	14043
868.103	13906
868.233	14073
868.364	14020
868.495	14016
868.625	14210
868.756	14206
868.886	14119
869.017	14259
869.147	14305
869.278	14347
869.408	14343
869.539	14298
869.669	14313
869.799	14286
869.929	14339
870.06	14362
870.19	14488
870.32	14484
870.45	14587
870.58	14606
870.71	14727
870.84	14758
870.97	14659
871.1	14610
871.23	14819
871.36	14883
871.489	14758
871.619	14750
871.749	14765
871.879	14731
872.008	14933
872.138	14861
872.267	14796
872.397	14705
872.526	14632
872.656	14644
872.785	14648
872.915	14899
873.044	14902
873.173	14830
873.303	14864
873.432	14918
873.561	14952
873.69	14880
873.819	14849
873.948	14994
874.077	14891
874.206	14849
874.335	14975
874.464	15062
874.593	15154
874.722	15020
874.851	15188
874.979	15203
875.108	15218
875.237	15256
875.365	15169
875.494	15180
875.623	15260
875.751	15051
875.88	15218
876.008	15370
876.136	15401
876.265	15633
876.393	15819
876.521	15717
876.65	15705
876.778	15637
876.906	15564
877.034	15606
877.162	15637
877.29	15572
877.418	15618
877.546	15622
877.674	15542
877.802	15561
877.93	15614
878.058	15633
878.185	15492
878.313	15542
878.441	15686
878.568	15405
878.696	15538
878.824	15599
878.951	15709
879.079	15709
879.206	15968
879.333	15713
879.461	15603
879.588	15724
879.715	15778
879.842	15953
879.97	15732
880.097	15393
880.224	15462
880.351	15481
880.478	15561
880.605	15397
880.732	15473
880.859	15671
880.986	15447
881.112	15492
881.239	15401
881.366	15302
881.493	15161
881.619	15161
881.746	15157
881.872	15150
881.999	15070
882.125	15089
882.252	15237
882.378	15230
882.505	15211
882.631	15150
882.757	14998
882.883	14971
883.01	15017
883.136	14864
883.262	14834
883.388	14765
883.514	14902
883.64	15017
883.766	14929
883.892	14826
884.018	14838
884.143	14971
884.269	15070
884.395	14678
884.52	14777
884.646	14754
884.772	14598
884.897	14663
885.023	14651
885.148	14659
885.274	14853
885.399	14735
885.524	14739
885.65	14735
885.775	14632
885.9	14712
886.025	14762
886.15	14689
886.275	14571
886.4	14503
886.525	14537
886.65	14636
886.775	14549
886.9	14807
887.025	14902
887.149	14674
887.274	14511
887.399	14571
887.523	14438
887.648	14461
887.773	14427
887.897	14526
888.021	14499
888.146	14442
888.27	14590
888.395	14648
888.519	14507
888.643	14507
888.767	14575
888.891	14454
889.015	14351
889.139	14259
889.263	14309
889.387	14339
889.511	14492
889.635	14434
889.759	14339
889.883	14358
890.006	14393
890.13	14434
890.254	14275
890.377	14305
890.501	14157
890.624	14103
890.748	14237
890.871	14058
890.995	13959
891.118	13932
891.241	14039
891.364	14077
891.488	14298
891.611	13986
891.734	14012
891.857	14111
891.98	14046
892.103	14119
892.226	14103
892.349	13963
892.471	13883
892.594	14005
892.717	14096
892.839	14069
892.962	14081
893.085	14077
893.207	14012
893.33	13887
893.452	13993
893.575	14096
893.697	13967
893.819	14176
893.941	14278
894.064	14252
894.186	14043
894.308	14001
894.43	14142
894.552	14248
894.674	14149
894.796	13974
894.918	14054
895.04	14081
895.161	14214
895.283	14309
895.405	14050
895.526	14119
895.648	14259
895.769	14290
895.891	14244
896.012	14221
896.134	14351
896.255	14221
896.376	14195
896.498	14233
896.619	14221
896.74	14225
896.861	14298
896.982	14594
897.103	14632
897.224	14495
897.345	14533
897.466	14408
897.587	14480
897.708	14514
897.828	14549
897.949	14495
898.07	14317
898.19	14396
898.311	14606
898.431	14446
898.552	14454
898.672	14731
898.792	14625
898.913	14648
899.033	14602
899.153	14400
899.273	14339
899.393	14465
899.513	14465
899.633	14454
899.753	14450
899.873	14389
899.993	14476
900.113	14507
900.232	14495
900.352	14385
900.472	14263
900.591	14183
900.711	14294
900.83	14275
900.95	14358
901.069	14415
901.189	14267
901.308	14077
901.427	13902
901.546	14035
901.665	14005
901.784	14043
901.904	13860
902.023	13704
902.141	13666
902.26	13632
902.379	13590
902.498	13563
902.617	13460
902.735	13529
902.854	13540
902.973	13480
903.091	13190
903.21	13301
903.328	13384
903.446	13274
903.565	13110
903.683	13137
903.801	13061
903.919	13069
904.038	13057
904.156	12973
904.274	13027
904.392	12875
904.51	12859
904.627	13027
904.745	13038
904.863	13050
904.981	12738
905.098	12646
905.216	12620
905.334	12669
905.451	12658
905.569	12578
905.686	12559
905.803	12696
905.921	12391
906.038	12502
906.155	12357
906.272	12262
906.389	12338
906.506	12216
906.623	12155
906.74	12216
906.857	12106
906.974	12114
907.091	12262
907.208	12353
907.324	12243
907.441	12167
907.557	11977
907.674	11958
907.79	11851
907.907	11874
908.023	11950
908.139	11935
908.256	11874
908.372	11908
908.488	11882
908.604	11790
908.72	11707
908.836	11729
908.952	11676
909.068	11665
909.184	11779
909.3	11798
909.415	11745
909.531	11646
909.647	11493
909.762	11474
909.878	11486
909.993	11425
910.108	11467
910.224	11474
910.339	11414
910.454	11356
910.57	11261
910.685	11280
910.8	11520
910.915	11490
911.03	11379
911.145	11235
911.259	11197
911.374	11212
911.489	11166
911.604	11060
911.718	10908
911.833	11018
911.947	10812
912.062	10786
912.176	10957
912.291	10949
912.405	10946
912.519	11113
912.633	11189
912.748	11006
912.862	10949
912.976	10847
913.09	10679
913.204	10710
913.318	10835
913.431	10938
913.545	10812
913.659	10976
913.772	10752
913.886	10714
914	10706
914.113	10797
914.226	10892
914.34	10820
914.453	10618
914.566	10721
914.68	10679
914.793	10668
914.906	10428
915.019	10417
915.132	10451
915.245	10443
915.358	10436
915.47	10474
915.583	10474
915.696	10470
915.809	10561
915.921	10615
916.034	10478
916.146	10398
916.259	10405
916.371	10417
916.483	10455
916.595	10390
916.708	10352
916.82	10417
916.932	10424
917.044	10375
917.156	10363
917.268	10188
917.38	10219
917.491	10253
917.603	10276
917.715	10341
917.826	10322
917.938	10325
918.049	10150
918.161	10249
918.272	10436
918.384	10428
918.495	10287
918.606	10150
918.717	10112
918.828	10185
918.939	10230
919.05	10109
919.161	10169
919.272	9907
919.383	10010
919.494	10246
919.604	10356
919.715	10097
919.826	10097
919.936	10154
920.047	10154
920.157	10128
920.267	10314
920.378	10238
920.488	10196
920.598	10306
920.708	10558
920.818	10356
920.928	10356
921.038	10546
921.148	10474
921.258	10211
921.368	10055
921.477	10082
921.587	10071
921.697	9979
921.806	10051
921.916	9964
922.025	9679
922.134	9724
922.244	9682
922.353	9774
922.462	9599
922.571	9622
922.68	9477
922.789	9405
922.898	9412
923.007	9351
923.116	9466
923.224	9462
923.333	9378
923.442	9344
923.55	9325
923.659	9245
923.767	9367
923.876	9268
923.984	9363
924.092	9180
924.201	9275
924.309	9317
924.417	9291
924.525	9291
924.633	9302
924.741	10147
924.849	9074
924.956	9249
925.064	9112
925.172	8986
925.279	9051
925.387	9135
925.494	9131
925.602	9253
925.709	9176
925.816	9104
925.924	9077
926.031	9245
926.138	9074
926.245	9089
926.352	9077
926.459	9100
926.566	9230
926.673	9093
926.779	8982
926.886	8902
926.993	8830
927.099	8785
927.206	8773
927.312	8731
927.419	8906
927.525	8807
927.631	8849
927.737	8735
927.843	8708
927.95	8670
928.056	8598
928.162	8773
928.267	8746
928.373	9359
928.479	8838
928.585	8533
928.69	8705
928.796	8708
928.901	8590
929.007	8499
929.112	8625
929.218	8610
929.323	8568
929.428	8488
929.533	8701
929.638	8461
929.743	8549
929.848	8514
929.953	8541
930.058	8434
930.163	8290
930.267	8290
930.372	8374
930.477	8248
930.581	8560
930.685	8339
930.79	8225
930.894	8282
930.998	8252
931.103	8370
931.207	8084
931.311	8092
931.415	7906
931.519	7727
931.623	7799
