Data from test_V78500241_1060.txt Node
Date: Fri Mar 25 14:41:05 CST 2022
User: usil
Spectrometer: V785-0024
Trigger mode: 0
Integration Time (sec): 4.000000E-1
Scans to average: 1
Nonlinearity correction enabled: false
Boxcar width: 0
Storing dark spectrum: false
XAxis mode: Wavelengths
Number of Pixels in Spectrum: 1024
>>>>>Begin Spectral Data<<<<<
801.071	22809
801.214	22713
801.356	22398
801.499	22421
801.641	22067
801.783	22219
801.926	22112
802.068	22025
802.211	21956
802.353	21918
802.496	21835
802.638	21720
802.78	21724
802.923	21652
803.065	21534
803.208	21412
803.35	21488
803.492	21580
803.635	21682
803.777	21637
803.919	21698
804.061	21915
804.204	21614
804.346	21523
804.488	21519
804.63	21526
804.773	21325
804.915	21526
805.057	21633
805.199	21492
805.341	21507
805.483	21660
805.626	21469
805.768	21454
805.91	21374
806.052	21473
806.194	21363
806.336	21713
806.478	21454
806.62	21526
806.762	21534
806.904	21705
807.046	21861
807.188	21888
807.33	21888
807.472	21941
807.614	21789
807.756	22044
807.898	21838
808.04	21789
808.182	21876
808.324	21888
808.465	22025
808.607	22097
808.749	22519
808.891	22546
809.033	22717
809.174	22557
809.316	22268
809.458	22333
809.6	22135
809.741	22162
809.883	22105
810.025	22219
810.166	22135
810.308	22063
810.45	22078
810.591	22006
810.733	21819
810.875	21663
811.016	21614
811.158	21622
811.299	21835
811.441	21892
811.582	21850
811.724	21759
811.865	21496
812.007	21644
812.148	21667
812.29	21755
812.431	21846
812.573	21994
812.714	21964
812.855	22177
812.997	22306
813.138	22443
813.279	22348
813.421	22215
813.562	22090
813.703	21915
813.845	21774
813.986	21583
814.127	21462
814.268	21287
814.41	21355
814.551	21355
814.692	21279
814.833	21150
814.974	21203
815.115	21192
815.256	21020
815.397	21055
815.539	21108
815.68	21028
815.821	20826
815.962	20998
816.103	20918
816.244	20792
816.385	20670
816.526	20708
816.666	20545
816.807	20434
816.948	20400
817.089	20457
817.23	20446
817.371	20278
817.512	20396
817.653	20370
817.793	20233
817.934	20393
818.075	20393
818.216	20336
818.356	20282
818.497	20153
818.638	20069
818.778	20012
818.919	20088
819.06	20012
819.2	20050
819.341	20248
819.481	20187
819.622	20278
819.762	20708
819.903	20495
820.043	20465
820.184	20248
820.324	20336
820.465	20511
820.605	20347
820.746	20476
820.886	20202
821.026	20313
821.167	20305
821.307	20412
821.447	20366
821.588	20237
821.728	20031
821.868	19951
822.008	19719
822.149	19803
822.289	19696
822.429	19487
822.569	19483
822.709	19426
822.849	19236
822.99	19221
823.13	19190
823.27	19247
823.41	19076
823.55	19050
823.69	19137
823.83	19027
823.97	18981
824.11	18867
824.25	18894
824.389	18844
824.529	18913
824.669	18798
824.809	19057
824.949	18856
825.089	18840
825.228	18837
825.368	18665
825.508	18509
825.648	18616
825.787	18719
825.927	18677
826.067	18448
826.206	18616
826.346	18623
826.485	18601
826.625	18597
826.765	18738
826.904	18616
827.044	18361
827.183	18232
827.323	18258
827.462	18308
827.601	18270
827.741	18194
827.88	18334
828.02	18152
828.159	18330
828.298	18289
828.437	18292
828.577	18266
828.716	18399
828.855	18330
828.994	17992
829.134	18087
829.273	18091
829.412	18064
829.551	17889
829.69	18087
829.829	17992
829.968	18140
830.107	18049
830.246	18083
830.385	18060
830.524	17961
830.663	17893
830.802	17695
830.941	17752
831.08	17604
831.219	17745
831.357	17722
831.496	17885
831.635	17558
831.774	17619
831.913	17623
832.051	17452
832.19	17421
832.329	17429
832.467	17402
832.606	17254
832.744	17311
832.883	17341
833.022	17269
833.16	17478
833.299	17372
833.437	17421
833.576	17364
833.714	17478
833.852	17421
833.991	17433
834.129	17596
834.267	17463
834.406	17318
834.544	17459
834.682	17474
834.821	17448
834.959	17649
835.097	17368
835.235	17474
835.373	17417
835.511	17463
835.65	17296
835.788	17322
835.926	17159
836.064	17109
836.202	17246
836.34	17288
836.478	17387
836.615	17265
836.753	17299
836.891	17383
837.029	17265
837.167	17242
837.305	17231
837.443	17185
837.58	17113
837.718	17231
837.856	17200
837.993	17151
838.131	17216
838.269	17041
838.406	17212
838.544	17067
838.681	16869
838.819	16835
838.956	16801
839.094	16778
839.231	16759
839.369	16790
839.506	17052
839.643	16927
839.781	16683
839.918	16698
840.055	16706
840.193	16698
840.33	16588
840.467	16717
840.604	16759
840.742	16968
840.879	16618
841.016	16645
841.153	16607
841.29	16805
841.427	16816
841.564	16725
841.701	16752
841.838	16596
841.975	16634
842.112	16535
842.249	16523
842.385	16459
842.522	16679
842.659	16512
842.796	16421
842.933	16538
843.069	16382
843.206	16379
843.343	16516
843.479	16462
843.616	16504
843.752	16280
843.889	16314
844.025	16413
844.162	16242
844.298	16360
844.435	16295
844.571	16109
844.708	16299
844.844	16489
844.98	16485
845.117	16462
845.253	16246
845.389	16200
845.525	16428
845.661	16531
845.798	16451
845.934	16759
846.07	16721
846.206	16771
846.342	16778
846.478	16478
846.614	16322
846.75	15953
846.886	15842
847.022	15975
847.158	15903
847.294	15755
847.429	15793
847.565	15698
847.701	16032
847.837	15591
847.972	15382
848.108	15644
848.244	15610
848.379	15466
848.515	15488
848.65	15294
848.786	15401
848.921	15473
849.057	15420
849.192	15485
849.328	15496
849.463	15454
849.598	15344
849.734	15291
849.869	15283
850.004	15165
850.14	15192
850.275	15321
850.41	15119
850.545	15199
850.68	15199
850.815	15230
850.95	15165
851.085	15275
851.22	15218
851.355	15233
851.49	15062
851.625	15214
851.76	15081
851.895	15062
852.03	14986
852.165	15066
852.299	15146
852.434	15222
852.569	15188
852.703	15150
852.838	15203
852.973	15313
853.107	15256
853.242	15230
853.376	15055
853.511	14880
853.645	14937
853.78	15233
853.914	15089
854.048	15013
854.183	15093
854.317	15070
854.451	15154
854.585	14975
854.72	15028
854.854	15108
854.988	14967
855.122	14948
855.256	14823
855.39	14982
855.524	15062
855.658	15051
855.792	15024
855.926	15039
856.06	15028
856.194	15112
856.327	15043
856.461	14952
856.595	14929
856.729	15039
856.862	15032
856.996	15093
857.13	15020
857.263	15180
857.397	15116
857.53	15039
857.664	15176
857.797	15093
857.931	15100
858.064	15123
858.197	15199
858.331	14921
858.464	14944
858.597	14944
858.731	15017
858.864	15058
858.997	15009
859.13	15009
859.263	15123
859.396	15138
859.529	15020
859.662	14944
859.795	14990
859.928	15108
860.061	15226
860.194	15260
860.327	15142
860.46	15005
860.592	15214
860.725	15097
860.858	15085
860.99	15077
861.123	15028
861.256	15013
861.388	14979
861.521	15549
861.653	14872
861.786	14762
861.918	14887
862.05	14937
862.183	14826
862.315	15024
862.447	15055
862.58	14948
862.712	14815
862.844	14727
862.976	14872
863.108	14914
863.24	15233
863.372	14716
863.504	14895
863.636	14727
863.768	14845
863.9	14796
864.032	14693
864.164	14724
864.296	14838
864.428	14918
864.559	14902
864.691	14853
864.823	14842
864.954	14800
865.086	14781
865.217	14773
865.349	14682
865.48	14804
865.612	14773
865.743	14902
865.875	14853
866.006	14705
866.137	14853
866.269	14804
866.4	14705
866.531	14849
866.662	14773
866.793	14659
866.924	14708
867.055	14720
867.186	14804
867.317	14686
867.448	14564
867.579	14712
867.71	14663
867.841	14682
867.972	14743
868.103	14716
868.233	14830
868.364	14769
868.495	14857
868.625	14902
868.756	15051
868.886	15020
869.017	14990
869.147	15131
869.278	15108
869.408	15085
869.539	15024
869.669	15020
869.799	15028
869.929	15093
870.06	15146
870.19	15344
870.32	15329
870.45	15344
870.58	15367
870.71	15534
870.84	15424
870.97	15306
871.1	15431
871.23	15599
871.36	15576
871.489	15622
871.619	15671
871.749	15603
871.879	15717
872.008	15747
872.138	15587
872.267	15557
872.397	15408
872.526	15485
872.656	15405
872.785	15367
872.915	15576
873.044	15652
873.173	15618
873.303	15671
873.432	15637
873.561	15720
873.69	15656
873.819	15679
873.948	15770
874.077	15641
874.206	15698
874.335	15667
874.464	15755
874.593	15850
874.722	15937
874.851	15968
874.979	15915
875.108	16063
875.237	15937
875.365	15926
875.494	15968
875.623	16082
875.751	15835
875.88	15953
876.008	16074
876.136	16223
876.265	16402
876.393	16421
876.521	16367
876.65	16462
876.778	16417
876.906	16219
877.034	16337
877.162	16459
877.29	16303
877.418	16398
877.546	16325
877.674	16337
877.802	16440
877.93	16402
878.058	16382
878.185	16348
878.313	16344
878.441	16451
878.568	16303
878.696	16356
878.824	16508
878.951	16519
879.079	16622
879.206	16793
879.333	16782
879.461	16790
879.588	16812
879.715	16938
879.842	16942
879.97	16679
880.097	16428
880.224	16375
880.351	16322
880.478	16402
880.605	16303
880.732	16280
880.859	16622
880.986	16310
881.112	16405
881.239	16265
881.366	16116
881.493	16051
881.619	15998
881.746	16021
881.872	15994
881.999	15903
882.125	15880
882.252	16040
882.378	16071
882.505	16101
882.631	15960
882.757	15762
882.883	15861
883.01	15720
883.136	15743
883.262	15644
883.388	15667
883.514	15816
883.64	15835
883.766	15751
883.892	15584
884.018	15686
884.143	15732
884.269	15778
884.395	15614
884.52	15408
884.646	15496
884.772	15370
884.897	15443
885.023	15466
885.148	15633
885.274	15667
885.399	15580
885.524	15469
885.65	15431
885.775	15557
885.9	15447
886.025	15641
886.15	15408
886.275	15416
886.4	15317
886.525	15481
886.65	15329
886.775	15435
886.9	15576
887.025	15701
887.149	15488
887.274	15268
887.399	15199
887.523	15199
887.648	15203
887.773	15161
887.897	15291
888.021	15336
888.146	15184
888.27	15313
888.395	15336
888.519	15340
888.643	15321
888.767	15298
888.891	15211
889.015	15112
889.139	15154
889.263	14952
889.387	15218
889.511	15306
889.635	15127
889.759	15077
889.883	15062
890.006	15146
890.13	15154
890.254	15001
890.377	15085
890.501	14952
890.624	14887
890.748	14960
890.871	14944
890.995	14785
891.118	14674
891.241	14788
891.364	14826
891.488	14914
891.611	14788
891.734	14804
891.857	14804
891.98	14743
892.103	14830
892.226	14868
892.349	14754
892.471	14644
892.594	14750
892.717	14815
892.839	14739
892.962	14842
893.085	14819
893.207	14735
893.33	14613
893.452	14705
893.575	14765
893.697	14708
893.819	14918
893.941	15005
894.064	14830
894.186	14682
894.308	14636
894.43	14838
894.552	14975
894.674	14864
894.796	14686
894.918	14811
895.04	14697
895.161	14891
895.283	14868
895.405	14788
895.526	14804
895.648	14819
895.769	14815
895.891	14788
896.012	14819
896.134	14838
896.255	14925
896.376	14895
896.498	14902
896.619	14925
896.74	14963
896.861	14941
896.982	15230
897.103	15443
897.224	15138
897.345	15093
897.466	15169
897.587	15203
897.708	15222
897.828	15188
897.949	15138
898.07	14982
898.19	15218
898.311	15325
898.431	15119
898.552	15287
898.672	15302
898.792	15332
898.913	15226
899.033	15195
899.153	15017
899.273	15020
899.393	15085
899.513	15085
899.633	15138
899.753	15047
899.873	15047
899.993	15161
900.113	15085
900.232	15077
900.352	15100
900.472	15058
900.591	14906
900.711	14800
900.83	14864
900.95	15005
901.069	15032
901.189	14842
901.308	14575
901.427	14560
901.546	14583
901.665	14663
901.784	14556
901.904	14469
902.023	14438
902.141	14221
902.26	14164
902.379	14176
902.498	14172
902.617	14100
902.735	14206
902.854	14126
902.973	14138
903.091	13906
903.21	13864
903.328	13887
903.446	13830
903.565	13761
903.683	13685
903.801	13772
903.919	13700
904.038	13791
904.156	13605
904.274	13575
904.392	13548
904.51	13559
904.627	13529
904.745	13609
904.863	13578
904.981	13346
905.098	13316
905.216	13198
905.334	13263
905.451	13240
905.569	13149
905.686	13179
905.803	13282
905.921	12973
906.038	13194
906.155	13118
906.272	12875
906.389	12916
906.506	12776
906.623	12806
906.74	12856
906.857	12764
906.974	12715
907.091	12757
907.208	12954
907.324	12779
907.441	12681
907.557	12494
907.674	12593
907.79	12403
907.907	12460
908.023	12574
908.139	12490
908.256	12525
908.372	12452
908.488	12464
908.604	12239
908.72	12304
908.836	12308
908.952	12266
909.068	12258
909.184	12403
909.3	12334
909.415	12346
909.531	12277
909.647	12091
909.762	12057
909.878	12019
909.993	12087
910.108	11992
910.224	12015
910.339	12057
910.454	11984
910.57	11885
910.685	11859
910.8	12140
910.915	12026
911.03	11954
911.145	11760
911.259	11649
911.374	11741
911.489	11668
911.604	11570
911.718	11482
911.833	11471
911.947	11383
912.062	11402
912.176	11478
912.291	11497
912.405	11429
912.519	11707
912.633	11726
912.748	11471
912.862	11516
912.976	11341
913.09	11292
913.204	11299
913.318	11326
913.431	11433
913.545	11391
913.659	11444
913.772	11296
913.886	11216
914	11197
914.113	11242
914.226	11334
914.34	11311
914.453	11117
914.566	11239
914.68	11162
914.793	11193
914.906	11022
915.019	10889
915.132	10885
915.245	10949
915.358	10965
915.47	10987
915.583	10984
915.696	11014
915.809	11166
915.921	11178
916.034	10946
916.146	10908
916.259	10892
916.371	11086
916.483	10957
916.595	10957
916.708	10965
916.82	10835
916.932	10927
917.044	10866
917.156	10942
917.268	10721
917.38	10774
917.491	10733
917.603	10809
917.715	10831
917.826	10862
917.938	10778
918.049	10691
918.161	10748
918.272	10854
918.384	10908
918.495	10771
918.606	10622
918.717	10538
918.828	10664
918.939	10714
919.05	10588
919.161	10569
919.272	10398
919.383	10512
919.494	10733
919.604	10877
919.715	10675
919.826	10493
919.936	10683
920.047	10725
920.157	10630
920.267	10809
920.378	10679
920.488	10675
920.598	10839
920.708	10999
920.818	10824
920.928	10790
921.038	11041
921.148	10942
921.258	10653
921.368	10573
921.477	10546
921.587	10443
921.697	10337
921.806	10481
921.916	10344
922.025	10169
922.134	10185
922.244	10215
922.353	10238
922.462	10120
922.571	9949
922.68	9915
922.789	9835
922.898	9964
923.007	9835
923.116	9895
923.224	9838
923.333	9854
923.442	9713
923.55	9770
923.659	9713
923.767	9804
923.876	9736
923.984	9816
924.092	9705
924.201	9709
924.309	9663
924.417	9709
924.525	9709
924.633	9679
924.741	10580
924.849	9496
924.956	9686
925.064	9481
925.172	9416
925.279	9504
925.387	9504
925.494	9485
925.602	9599
925.709	9519
925.816	9416
925.924	9447
926.031	9564
926.138	9549
926.245	9450
926.352	9382
926.459	9580
926.566	9625
926.673	9504
926.779	9310
926.886	9351
926.993	9230
927.099	9287
927.206	9116
927.312	9146
927.419	9207
927.525	9253
927.631	9348
927.737	9142
927.843	9123
927.95	8963
928.056	9104
928.162	9093
928.267	9154
928.373	9732
928.479	9218
928.585	8941
928.69	9097
928.796	9058
928.901	9077
929.007	8857
929.112	8937
929.218	8994
929.323	8937
929.428	8933
929.533	8982
929.638	8864
929.743	8902
929.848	8971
929.953	8918
930.058	8807
930.163	8644
930.267	8674
930.372	8842
930.477	8564
930.581	8891
930.685	8769
930.79	8632
930.894	8590
930.998	8632
931.103	8731
931.207	8431
931.311	8343
931.415	8301
931.519	8069
931.623	8084
