Data from test_V78500241_1026.txt Node
Date: Fri Mar 25 14:40:51 CST 2022
User: usil
Spectrometer: V785-0024
Trigger mode: 0
Integration Time (sec): 4.000000E-1
Scans to average: 1
Nonlinearity correction enabled: false
Boxcar width: 0
Storing dark spectrum: false
XAxis mode: Wavelengths
Number of Pixels in Spectrum: 1024
>>>>>Begin Spectral Data<<<<<
801.071	22984
801.214	22873
801.356	22580
801.499	22546
801.641	22432
801.783	22402
801.926	22284
802.068	22280
802.211	22238
802.353	22067
802.496	21991
802.638	21781
802.78	21789
802.923	21819
803.065	21603
803.208	21663
803.35	21728
803.492	21835
803.635	21880
803.777	21736
803.919	21720
804.061	22120
804.204	21762
804.346	21557
804.488	21625
804.63	21507
804.773	21477
804.915	21549
805.057	21720
805.199	21610
805.341	21633
805.483	21770
805.626	21732
805.768	21652
805.91	21610
806.052	21545
806.194	21481
806.336	21781
806.478	21641
806.62	21728
806.762	21743
806.904	21865
807.046	22112
807.188	22173
807.33	22177
807.472	22177
807.614	22135
807.756	22139
807.898	22112
808.04	21975
808.182	22032
808.324	22325
808.465	22394
808.607	22687
808.749	22816
808.891	22987
809.033	23090
809.174	22991
809.316	22691
809.458	22603
809.6	22573
809.741	22493
809.883	22367
810.025	22295
810.166	22417
810.308	22272
810.45	22337
810.591	22242
810.733	22044
810.875	21983
811.016	21797
811.158	21953
811.299	21991
811.441	22109
811.582	22017
811.724	21922
811.865	21728
812.007	21899
812.148	21827
812.29	21823
812.431	22074
812.573	22128
812.714	22291
812.855	22382
812.997	22409
813.138	22462
813.279	22443
813.421	22379
813.562	22318
813.703	22112
813.845	22025
813.986	21564
814.127	21450
814.268	21523
814.41	21545
814.551	21420
814.692	21515
814.833	21393
814.974	21435
815.115	21317
815.256	21230
815.397	21245
815.539	21252
815.68	21131
815.821	21043
815.962	21138
816.103	21138
816.244	20842
816.385	20956
816.526	20830
816.666	20705
816.807	20537
816.948	20648
817.089	20545
817.23	20617
817.371	20495
817.512	20560
817.653	20511
817.793	20446
817.934	20571
818.075	20499
818.216	20492
818.356	20404
818.497	20355
818.638	20195
818.778	20221
818.919	20290
819.06	20195
819.2	20282
819.341	20351
819.481	20454
819.622	20507
819.762	20678
819.903	20632
820.043	20530
820.184	20560
820.324	20473
820.465	20674
820.605	20457
820.746	20613
820.886	20294
821.026	20404
821.167	20389
821.307	20488
821.447	20381
821.588	20305
821.728	20233
821.868	20077
822.008	19871
822.149	19925
822.289	19875
822.429	19537
822.569	19502
822.709	19480
822.849	19460
822.99	19449
823.13	19312
823.27	19369
823.41	19221
823.55	19168
823.69	19206
823.83	19217
823.97	19118
824.11	19000
824.25	18916
824.389	18993
824.529	18966
824.669	18905
824.809	19190
824.949	19141
825.089	19065
825.228	18996
825.368	18844
825.508	18692
825.648	18764
825.787	18776
825.927	18760
826.067	18757
826.206	18669
826.346	18703
826.485	18734
826.625	18719
826.765	18810
826.904	18783
827.044	18544
827.183	18498
827.323	18403
827.462	18498
827.601	18418
827.741	18426
827.88	18418
828.02	18365
828.159	18475
828.298	18502
828.437	18464
828.577	18388
828.716	18563
828.855	18334
828.994	18209
829.134	18117
829.273	18201
829.412	18102
829.551	18060
829.69	18197
829.829	18102
829.968	18258
830.107	18220
830.246	18174
830.385	18152
830.524	18148
830.663	17931
830.802	17931
830.941	17752
831.08	17802
831.219	17958
831.357	17722
831.496	17874
831.635	17767
831.774	17668
831.913	17585
832.051	17630
832.19	17592
832.329	17520
832.467	17490
832.606	17478
832.744	17474
832.883	17501
833.022	17493
833.16	17649
833.299	17539
833.437	17493
833.576	17589
833.714	17554
833.852	17596
833.991	17604
834.129	17551
834.267	17627
834.406	17493
834.544	17630
834.682	17627
834.821	17512
834.959	17809
835.097	17436
835.235	17657
835.373	17570
835.511	17436
835.65	17452
835.788	17459
835.926	17311
836.064	17250
836.202	17261
836.34	17493
836.478	17509
836.615	17414
836.753	17410
836.891	17440
837.029	17433
837.167	17398
837.305	17417
837.443	17345
837.58	17277
837.718	17406
837.856	17330
837.993	17208
838.131	17315
838.269	17159
838.406	17227
838.544	17155
838.681	16938
838.819	16885
838.956	16858
839.094	16850
839.231	16816
839.369	16942
839.506	17216
839.643	17003
839.781	16877
839.918	16782
840.055	16805
840.193	16702
840.33	16683
840.467	16748
840.604	16774
840.742	17064
840.879	16641
841.016	16744
841.153	16759
841.29	16900
841.427	16771
841.564	16854
841.701	16771
841.838	16778
841.975	16759
842.112	16622
842.249	16649
842.385	16580
842.522	16721
842.659	16630
842.796	16596
842.933	16683
843.069	16592
843.206	16443
843.343	16596
843.479	16618
843.616	16645
843.752	16325
843.889	16375
844.025	16561
844.162	16405
844.298	16462
844.435	16379
844.571	16200
844.708	16417
844.844	16504
844.98	16580
845.117	16596
845.253	16390
845.389	16497
845.525	16706
845.661	16736
845.798	16892
845.934	17242
846.07	17197
846.206	17223
846.342	17098
846.478	16641
846.614	16440
846.75	16105
846.886	16051
847.022	16055
847.158	16067
847.294	16036
847.429	15964
847.565	15903
847.701	16238
847.837	15766
847.972	15679
848.108	15778
848.244	15747
848.379	15637
848.515	15591
848.65	15492
848.786	15481
848.921	15549
849.057	15584
849.192	15584
849.328	15625
849.463	15572
849.598	15458
849.734	15420
849.869	15378
850.004	15268
850.14	15336
850.275	15241
850.41	15237
850.545	15222
850.68	15192
850.815	15325
850.95	15374
851.085	15389
851.22	15439
851.355	15344
851.49	15291
851.625	15161
851.76	15230
851.895	15195
852.03	15074
852.165	15211
852.299	15325
852.434	15340
852.569	15397
852.703	15279
852.838	15321
852.973	15359
853.107	15469
853.242	15302
853.376	15093
853.511	15077
853.645	15157
853.78	15302
853.914	15207
854.048	15123
854.183	15081
854.317	15112
854.451	15329
854.585	15116
854.72	15135
854.854	15077
854.988	15173
855.122	15138
855.256	14929
855.39	15051
855.524	15100
855.658	15142
855.792	15161
855.926	15211
856.06	15291
856.194	15298
856.327	15165
856.461	15100
856.595	15017
856.729	15135
856.862	15226
856.996	15203
857.13	15138
857.263	15329
857.397	15218
857.53	15131
857.664	15165
857.797	15195
857.931	15298
858.064	15146
858.197	15222
858.331	15135
858.464	15017
858.597	15036
858.731	15165
858.864	15032
858.997	15146
859.13	15093
859.263	15108
859.396	15260
859.529	15165
859.662	15123
859.795	15089
859.928	15138
860.061	15279
860.194	15230
860.327	15161
860.46	15161
860.592	15112
860.725	15176
860.858	15150
860.99	15112
861.123	14998
861.256	15058
861.388	15051
861.521	15705
861.653	15001
861.786	15047
861.918	14979
862.05	15089
862.183	15066
862.315	15131
862.447	15150
862.58	15017
862.712	15017
862.844	14864
862.976	14910
863.108	14929
863.24	15180
863.372	14834
863.504	14887
863.636	14891
863.768	14933
863.9	14906
864.032	14762
864.164	14872
864.296	14941
864.428	14952
864.559	14979
864.691	15032
864.823	14830
864.954	14952
865.086	14861
865.217	14864
865.349	14853
865.48	14891
865.612	14762
865.743	14998
865.875	14910
866.006	14788
866.137	14800
866.269	14891
866.4	14872
866.531	14819
866.662	14804
866.793	14800
866.924	14921
867.055	14925
867.186	14918
867.317	14773
867.448	14716
867.579	14834
867.71	14773
867.841	14746
867.972	14762
868.103	14838
868.233	14853
868.364	14902
868.495	14956
868.625	15020
868.756	15097
868.886	14956
869.017	15097
869.147	15154
869.278	15138
869.408	15089
869.539	15062
869.669	15233
869.799	15226
869.929	15329
870.06	15165
870.19	15485
870.32	15401
870.45	15496
870.58	15450
870.71	15504
870.84	15526
870.97	15538
871.1	15572
871.23	15671
871.36	15797
871.489	15606
871.619	15629
871.749	15709
871.879	15732
872.008	15789
872.138	15789
872.267	15625
872.397	15724
872.526	15504
872.656	15500
872.785	15576
872.915	15701
873.044	15831
873.173	15755
873.303	15774
873.432	15755
873.561	15808
873.69	15717
873.819	15751
873.948	15861
874.077	15785
874.206	15778
874.335	15675
874.464	15888
874.593	15960
874.722	15987
874.851	16150
874.979	16147
875.108	16154
875.237	16032
875.365	15850
875.494	16071
875.623	16131
875.751	16082
875.88	16063
876.008	16234
876.136	16253
876.265	16459
876.393	16634
876.521	16626
876.65	16478
876.778	16554
876.906	16424
877.034	16459
877.162	16382
877.29	16402
877.418	16485
877.546	16535
877.674	16607
877.802	16538
877.93	16512
878.058	16535
878.185	16478
878.313	16542
878.441	16474
878.568	16474
878.696	16599
878.824	16694
878.951	16675
879.079	16930
879.206	17079
879.333	17018
879.461	16987
879.588	17029
879.715	17227
879.842	17181
879.97	17041
880.097	16683
880.224	16424
880.351	16580
880.478	16516
880.605	16493
880.732	16440
880.859	16656
880.986	16363
881.112	16474
881.239	16371
881.366	16192
881.493	16204
881.619	16086
881.746	16040
881.872	16040
881.999	16051
882.125	16040
882.252	16086
882.378	16048
882.505	16150
882.631	15953
882.757	15953
882.883	16010
883.01	15972
883.136	15835
883.262	15694
883.388	15732
883.514	15903
883.64	15945
883.766	15797
883.892	15717
884.018	15850
884.143	15918
884.269	15968
884.395	15576
884.52	15675
884.646	15637
884.772	15580
884.897	15572
885.023	15587
885.148	15694
885.274	15770
885.399	15694
885.524	15606
885.65	15511
885.775	15663
885.9	15625
886.025	15728
886.15	15633
886.275	15481
886.4	15428
886.525	15500
886.65	15504
886.775	15450
886.9	15705
887.025	15709
887.149	15500
887.274	15382
887.399	15374
887.523	15454
887.648	15233
887.773	15233
887.897	15447
888.021	15443
888.146	15336
888.27	15496
888.395	15458
888.519	15370
888.643	15405
888.767	15363
888.891	15306
889.015	15203
889.139	15192
889.263	15214
889.387	15264
889.511	15367
889.635	15363
889.759	15146
889.883	15237
890.006	15214
890.13	15180
890.254	15085
890.377	15123
890.501	14899
890.624	14929
890.748	15066
890.871	15001
890.995	14826
891.118	14834
891.241	14853
891.364	14883
891.488	15001
891.611	14861
891.734	14864
891.857	14864
891.98	14887
892.103	14826
892.226	14902
892.349	14864
892.471	14769
892.594	14914
892.717	14838
892.839	14724
892.962	14868
893.085	14933
893.207	14826
893.33	14708
893.452	14716
893.575	14941
893.697	14773
893.819	14979
893.941	15112
894.064	14941
894.186	14773
894.308	14769
894.43	14921
894.552	14967
894.674	14963
894.796	14769
894.918	14876
895.04	14929
895.161	15001
895.283	14933
895.405	14834
895.526	14838
895.648	14914
895.769	14944
895.891	14960
896.012	14975
896.134	15009
896.255	15013
896.376	14963
896.498	15028
896.619	15024
896.74	14960
896.861	15074
896.982	15294
897.103	15412
897.224	15256
897.345	15279
897.466	15184
897.587	15268
897.708	15294
897.828	15325
897.949	15260
898.07	15138
898.19	15268
898.311	15397
898.431	15249
898.552	15283
898.672	15389
898.792	15382
898.913	15431
899.033	15279
899.153	15131
899.273	15055
899.393	15085
899.513	15131
899.633	15119
899.753	15104
899.873	15077
899.993	15252
900.113	15116
900.232	15173
900.352	15173
900.472	15024
900.591	14887
900.711	15013
900.83	15058
900.95	15047
901.069	15127
901.189	14933
901.308	14708
901.427	14697
901.546	14648
901.665	14807
901.784	14705
901.904	14590
902.023	14507
902.141	14271
902.26	14286
902.379	14358
902.498	14233
902.617	14187
902.735	14271
902.854	14286
902.973	14157
903.091	14024
903.21	13978
903.328	13887
903.446	13879
903.565	13807
903.683	13757
903.801	13708
903.919	13742
904.038	13704
904.156	13685
904.274	13677
904.392	13590
904.51	13552
904.627	13502
904.745	13662
904.863	13750
904.981	13343
905.098	13316
905.216	13301
905.334	13297
905.451	13312
905.569	13217
905.686	13354
905.803	13236
905.921	13122
906.038	13274
906.155	13137
906.272	12996
906.389	12989
906.506	12920
906.623	12890
906.74	12897
906.857	12662
906.974	12787
907.091	12932
907.208	12996
907.324	12894
907.441	12749
907.557	12585
907.674	12669
907.79	12578
907.907	12532
908.023	12582
908.139	12646
908.256	12570
908.372	12437
908.488	12540
908.604	12376
908.72	12369
908.836	12365
908.952	12292
909.068	12346
909.184	12414
909.3	12346
909.415	12445
909.531	12456
909.647	12102
909.762	12167
909.878	12026
909.993	12182
910.108	12091
910.224	12060
910.339	12171
910.454	12011
910.57	11992
910.685	11942
910.8	12197
910.915	12152
911.03	11992
911.145	11771
911.259	11745
911.374	11813
911.489	11802
911.604	11634
911.718	11512
911.833	11604
911.947	11372
912.062	11383
912.176	11512
912.291	11532
912.405	11524
912.519	11737
912.633	11832
912.748	11535
912.862	11623
912.976	11356
913.09	11261
913.204	11391
913.318	11372
913.431	11368
913.545	11463
913.659	11554
913.772	11296
913.886	11364
914	11311
914.113	11402
914.226	11474
914.34	11307
914.453	11235
914.566	11360
914.68	11284
914.793	11231
914.906	11056
915.019	11075
915.132	10957
915.245	10919
915.358	11010
915.47	11041
915.583	11037
915.696	11079
915.809	11151
915.921	11162
916.034	11022
916.146	10976
916.259	10965
916.371	11064
916.483	10984
916.595	10957
916.708	10938
916.82	10915
916.932	10911
917.044	10987
917.156	10896
917.268	10740
917.38	10862
917.491	10771
917.603	10763
917.715	10915
917.826	10889
917.938	10774
918.049	10645
918.161	10835
918.272	10881
918.384	10984
918.495	10759
918.606	10725
918.717	10656
918.828	10805
918.939	10801
919.05	10687
919.161	10714
919.272	10466
919.383	10603
919.494	10755
919.604	10877
919.715	10672
919.826	10634
919.936	10641
920.047	10698
920.157	10725
920.267	10915
920.378	10759
920.488	10675
920.598	10900
920.708	11056
920.818	10847
920.928	10881
921.038	11105
921.148	10965
921.258	10793
921.368	10687
921.477	10607
921.587	10512
921.697	10360
921.806	10508
921.916	10371
922.025	10230
922.134	10246
922.244	10169
922.353	10238
922.462	10063
922.571	10048
922.68	9888
922.789	9835
922.898	9994
923.007	9823
923.116	9945
923.224	9907
923.333	9934
923.442	9797
923.55	9785
923.659	9835
923.767	9880
923.876	9713
923.984	9857
924.092	9732
924.201	9759
924.309	9816
924.417	9857
924.525	9686
924.633	9690
924.741	10668
924.849	9515
924.956	9679
925.064	9530
925.172	9454
925.279	9492
925.387	9591
925.494	9538
925.602	9667
925.709	9633
925.816	9557
925.924	9488
926.031	9667
926.138	9614
926.245	9595
926.352	9408
926.459	9530
926.566	9656
926.673	9523
926.779	9329
926.886	9412
926.993	9226
927.099	9256
927.206	9207
927.312	9249
927.419	9321
927.525	9298
927.631	9310
927.737	9203
927.843	9142
927.95	9047
928.056	9211
928.162	9165
928.267	9203
928.373	9644
928.479	9245
928.585	8948
928.69	9066
928.796	9127
928.901	9097
929.007	8929
929.112	9039
929.218	9024
929.323	8952
929.428	8948
929.533	9074
929.638	8872
929.743	8933
929.848	8948
929.953	8937
930.058	8849
930.163	8735
930.267	8720
930.372	8815
930.477	8708
930.581	8967
930.685	8739
930.79	8663
930.894	8705
930.998	8568
931.103	8796
931.207	8442
931.311	8355
931.415	8313
931.519	8199
931.623	8107
