Data from test_V78500241_1946.txt Node
Date: Fri Mar 25 14:47:15 CST 2022
User: usil
Spectrometer: V785-0024
Trigger mode: 0
Integration Time (sec): 4.000000E-1
Scans to average: 1
Nonlinearity correction enabled: false
Boxcar width: 0
Storing dark spectrum: false
XAxis mode: Wavelengths
Number of Pixels in Spectrum: 1024
>>>>>Begin Spectral Data<<<<<
801.071	22055
801.214	21945
801.356	21770
801.499	21713
801.641	21397
801.783	21469
801.926	21568
802.068	21363
802.211	21340
802.353	21291
802.496	21066
802.638	20963
802.78	20937
802.923	20883
803.065	20689
803.208	20727
803.35	20883
803.492	20845
803.635	20902
803.777	20792
803.919	20861
804.061	21161
804.204	20883
804.346	20587
804.488	20651
804.63	20655
804.773	20686
804.915	20667
805.057	20933
805.199	20777
805.341	20743
805.483	20891
805.626	20773
805.768	20629
805.91	20788
806.052	20750
806.194	20594
806.336	20876
806.478	20739
806.62	20739
806.762	20746
806.904	20910
807.046	21180
807.188	21051
807.33	20982
807.472	21093
807.614	20906
807.756	21005
807.898	20872
808.04	20819
808.182	20762
808.324	20796
808.465	20861
808.607	20975
808.749	21123
808.891	21096
809.033	21340
809.174	21230
809.316	21028
809.458	21138
809.6	21096
809.741	21108
809.883	21161
810.025	21230
810.166	21283
810.308	21260
810.45	21066
810.591	21180
810.733	20982
810.875	20815
811.016	20811
811.158	20701
811.299	20921
811.441	20967
811.582	20899
811.724	20857
811.865	20834
812.007	20667
812.148	20834
812.29	20864
812.431	20979
812.573	21150
812.714	21150
812.855	21302
812.997	21420
813.138	21511
813.279	21488
813.421	21313
813.562	21310
813.703	21070
813.845	20952
813.986	20739
814.127	20492
814.268	20568
814.41	20454
814.551	20282
814.692	20454
814.833	20362
814.974	20511
815.115	20233
815.256	20183
815.397	20263
815.539	20259
815.68	20084
815.821	20012
815.962	20202
816.103	20180
816.244	20008
816.385	19849
816.526	19883
816.666	19757
816.807	19495
816.948	19594
817.089	19628
817.23	19643
817.371	19613
817.512	19624
817.653	19586
817.793	19514
817.934	19575
818.075	19586
818.216	19403
818.356	19559
818.497	19266
818.638	19335
818.778	19206
818.919	19278
819.06	19285
819.2	19403
819.341	19354
819.481	19362
819.622	19609
819.762	19681
819.903	19731
820.043	19578
820.184	19476
820.324	19521
820.465	19556
820.605	19559
820.746	19563
820.886	19426
821.026	19521
821.167	19472
821.307	19586
821.447	19533
821.588	19388
821.728	19183
821.868	19050
822.008	18905
822.149	19038
822.289	18840
822.429	18677
822.569	18601
822.709	18646
822.849	18410
822.99	18369
823.13	18353
823.27	18353
823.41	18163
823.55	18140
823.69	18209
823.83	18251
823.97	18174
824.11	17999
824.25	17969
824.389	18026
824.529	18003
824.669	17920
824.809	18068
824.949	18079
825.089	17996
825.228	18007
825.368	17851
825.508	17813
825.648	17805
825.787	17866
825.927	17779
826.067	17707
826.206	17707
826.346	17920
826.485	17783
826.625	17851
826.765	17855
826.904	17745
827.044	17630
827.183	17532
827.323	17509
827.462	17611
827.601	17528
827.741	17478
827.88	17433
828.02	17455
828.159	17471
828.298	17539
828.437	17554
828.577	17452
828.716	17619
828.855	17455
828.994	17277
829.134	17204
829.273	17334
829.412	17284
829.551	17246
829.69	17189
829.829	17273
829.968	17307
830.107	17315
830.246	17349
830.385	17204
830.524	17174
830.663	17132
830.802	16930
830.941	16847
831.08	16854
831.219	16911
831.357	16938
831.496	17083
831.635	16854
831.774	16812
831.913	16801
832.051	16634
832.19	16546
832.329	16683
832.467	16675
832.606	16451
832.744	16558
832.883	16500
833.022	16504
833.16	16618
833.299	16558
833.437	16573
833.576	16546
833.714	16645
833.852	16740
833.991	16554
834.129	16713
834.267	16744
834.406	16512
834.544	16580
834.682	16622
834.821	16611
834.959	16675
835.097	16497
835.235	16713
835.373	16561
835.511	16664
835.65	16440
835.788	16481
835.926	16382
836.064	16382
836.202	16363
836.34	16584
836.478	16634
836.615	16542
836.753	16577
836.891	16622
837.029	16493
837.167	16531
837.305	16402
837.443	16329
837.58	16352
837.718	16459
837.856	16474
837.993	16348
838.131	16428
838.269	16310
838.406	16287
838.544	16303
838.681	16139
838.819	16063
838.956	15922
839.094	15937
839.231	15960
839.369	16074
839.506	16325
839.643	16181
839.781	15842
839.918	15876
840.055	16010
840.193	15945
840.33	15857
840.467	16021
840.604	16010
840.742	16303
840.879	15846
841.016	15842
841.153	15857
841.29	16086
841.427	15884
841.564	15937
841.701	15968
841.838	15888
841.975	15789
842.112	15991
842.249	15747
842.385	15724
842.522	15972
842.659	15762
842.796	15656
842.933	15766
843.069	15736
843.206	15751
843.343	15819
843.479	15778
843.616	15720
843.752	15515
843.889	15584
844.025	15732
844.162	15553
844.298	15595
844.435	15526
844.571	15466
844.708	15530
844.844	15720
844.98	15713
845.117	15675
845.253	15466
845.389	15454
845.525	15462
845.661	15549
845.798	15252
845.934	15336
846.07	15317
846.206	15340
846.342	15485
846.478	15329
846.614	15207
846.75	15104
846.886	15104
847.022	15138
847.158	15058
847.294	15138
847.429	15180
847.565	15062
847.701	15279
847.837	14883
847.972	14899
848.108	14956
848.244	14902
848.379	14610
848.515	14701
848.65	14674
848.786	14765
848.921	14785
849.057	14853
849.192	14853
849.328	14716
849.463	14739
849.598	14632
849.734	14659
849.869	14602
850.004	14465
850.14	14434
850.275	14450
850.41	14339
850.545	14374
850.68	14488
850.815	14530
850.95	14454
851.085	14526
851.22	14629
851.355	14404
851.49	14404
851.625	14366
851.76	14351
851.895	14244
852.03	14320
852.165	14385
852.299	14541
852.434	14488
852.569	14560
852.703	14434
852.838	14594
852.973	14583
853.107	14488
853.242	14377
853.376	14339
853.511	14164
853.645	14294
853.78	14412
853.914	14320
854.048	14309
854.183	14263
854.317	14259
854.451	14522
854.585	14206
854.72	14343
854.854	14473
854.988	14256
855.122	14355
855.256	14176
855.39	14221
855.524	14438
855.658	14374
855.792	14362
855.926	14320
856.06	14465
856.194	14404
856.327	14275
856.461	14336
856.595	14286
856.729	14404
856.862	14374
856.996	14263
857.13	14415
857.263	14461
857.397	14408
857.53	14358
857.664	14419
857.797	14419
857.931	14457
858.064	14290
858.197	14522
858.331	14393
858.464	14267
858.597	14218
858.731	14328
858.864	14336
858.997	14355
859.13	14339
859.263	14305
859.396	14408
859.529	14267
859.662	14336
859.795	14271
859.928	14336
860.061	14454
860.194	14541
860.327	14320
860.46	14408
860.592	14552
860.725	14358
860.858	14507
860.99	14271
861.123	14221
861.256	14301
861.388	14317
861.521	15173
861.653	14153
861.786	14172
861.918	14157
862.05	14328
862.183	14275
862.315	14332
862.447	14324
862.58	14229
862.712	14027
862.844	13997
862.976	14176
863.108	14164
863.24	14381
863.372	14027
863.504	14134
863.636	14100
863.768	14252
863.9	14183
864.032	14001
864.164	14084
864.296	14206
864.428	14202
864.559	14202
864.691	14218
864.823	14130
864.954	14138
865.086	14157
865.217	14138
865.349	14069
865.48	14115
865.612	14027
865.743	14275
865.875	14176
866.006	14069
866.137	14081
866.269	14103
866.4	14088
866.531	14027
866.662	14020
866.793	13997
866.924	14001
867.055	14024
867.186	14058
867.317	14073
867.448	14001
867.579	14077
867.71	13978
867.841	13967
867.972	14039
868.103	14069
868.233	14088
868.364	14107
868.495	14157
868.625	14415
868.756	14404
868.886	14256
869.017	14324
869.147	14343
869.278	14457
869.408	14275
869.539	14206
869.669	14305
869.799	14343
869.929	14480
870.06	14438
870.19	14674
870.32	14613
870.45	14716
870.58	14678
870.71	14849
870.84	14777
870.97	14644
871.1	14720
871.23	14906
871.36	14910
871.489	14864
871.619	14838
871.749	15017
871.879	15062
872.008	15051
872.138	14910
872.267	14834
872.397	14769
872.526	14815
872.656	14693
872.785	14735
872.915	14975
873.044	15119
873.173	14979
873.303	15013
873.432	15074
873.561	14990
873.69	14933
873.819	14990
873.948	15108
874.077	15032
874.206	14944
874.335	15024
874.464	15100
874.593	15249
874.722	15351
874.851	15306
874.979	15435
875.108	15321
875.237	15222
875.365	15192
875.494	15306
875.623	15435
875.751	15268
875.88	15233
876.008	15408
876.136	15538
876.265	15823
876.393	15804
876.521	15812
876.65	15865
876.778	15732
876.906	15667
877.034	15675
877.162	15633
877.29	15686
877.418	15713
877.546	15679
877.674	15812
877.802	15610
877.93	15599
878.058	15705
878.185	15610
878.313	15709
878.441	15778
878.568	15564
878.696	15618
878.824	15660
878.951	15812
879.079	15869
879.206	16086
879.333	15854
879.461	15797
879.588	15808
879.715	15831
879.842	16032
879.97	15766
880.097	15431
880.224	15572
880.351	15584
880.478	15599
880.605	15530
880.732	15450
880.859	15876
880.986	15545
881.112	15637
881.239	15428
881.366	15313
881.493	15233
881.619	15214
881.746	15283
881.872	15214
881.999	15169
882.125	15108
882.252	15306
882.378	15310
882.505	15428
882.631	15108
882.757	14998
882.883	15077
883.01	15043
883.136	14948
883.262	14868
883.388	14895
883.514	15055
883.64	15047
883.766	15104
883.892	14880
884.018	14914
884.143	15104
884.269	15039
884.395	14788
884.52	14674
884.646	14769
884.772	14648
884.897	14663
885.023	14804
885.148	14925
885.274	14830
885.399	14910
885.524	14743
885.65	14701
885.775	14769
885.9	14765
886.025	14944
886.15	14724
886.275	14811
886.4	14697
886.525	14636
886.65	14701
886.775	14655
886.9	14807
887.025	14994
887.149	14727
887.274	14560
887.399	14503
887.523	14530
887.648	14556
887.773	14465
887.897	14655
888.021	14545
888.146	14469
888.27	14663
888.395	14720
888.519	14598
888.643	14655
888.767	14602
888.891	14579
889.015	14389
889.139	14389
889.263	14423
889.387	14446
889.511	14621
889.635	14598
889.759	14446
889.883	14396
890.006	14499
890.13	14545
890.254	14438
890.377	14347
890.501	14183
890.624	14202
890.748	14214
890.871	14138
890.995	14115
891.118	14005
891.241	14111
891.364	14172
891.488	14180
891.611	14054
891.734	14111
891.857	14199
891.98	14081
892.103	14259
892.226	14168
892.349	14157
892.471	14069
892.594	14058
892.717	14142
892.839	14123
892.962	14126
893.085	14256
893.207	14065
893.33	14020
893.452	14084
893.575	14301
893.697	14180
893.819	14248
893.941	14374
894.064	14225
894.186	14103
894.308	14111
894.43	14339
894.552	14355
894.674	14237
894.796	14168
894.918	14214
895.04	14199
895.161	14263
895.283	14229
895.405	14138
895.526	14259
895.648	14366
895.769	14157
895.891	14351
896.012	14282
896.134	14263
896.255	14336
896.376	14275
896.498	14290
896.619	14355
896.74	14328
896.861	14275
896.982	14678
897.103	14777
897.224	14571
897.345	14480
897.466	14522
897.587	14613
897.708	14746
897.828	14686
897.949	14537
898.07	14469
898.19	14511
898.311	14724
898.431	14571
898.552	14659
898.672	14746
898.792	14701
898.913	14610
899.033	14590
899.153	14446
899.273	14495
899.393	14484
899.513	14526
899.633	14511
899.753	14568
899.873	14488
899.993	14530
900.113	14507
900.232	14492
900.352	14533
900.472	14473
900.591	14339
900.711	14336
900.83	14396
900.95	14393
901.069	14492
901.189	14301
901.308	14077
901.427	14001
901.546	14046
901.665	14077
901.784	14145
901.904	13955
902.023	13845
902.141	13674
902.26	13533
902.379	13689
902.498	13643
902.617	13533
902.735	13605
902.854	13601
902.973	13544
903.091	13453
903.21	13259
903.328	13335
903.446	13263
903.565	13156
903.683	13168
903.801	13137
903.919	13118
904.038	13225
904.156	12913
904.274	13076
904.392	13023
904.51	12989
904.627	13023
904.745	13080
904.863	13023
904.981	12741
905.098	12665
905.216	12764
905.334	12817
905.451	12658
905.569	12658
905.686	12776
905.803	12802
905.921	12486
906.038	12601
906.155	12494
906.272	12414
906.389	12448
906.506	12273
906.623	12308
906.74	12281
906.857	12171
906.974	12190
907.091	12365
907.208	12395
907.324	12296
907.441	12251
907.557	12060
907.674	12087
907.79	12053
907.907	12030
908.023	12102
908.139	12095
908.256	11999
908.372	11984
908.488	11908
908.604	11805
908.72	11767
908.836	11824
908.952	11752
909.068	11847
909.184	11874
909.3	11767
909.415	11786
909.531	11790
909.647	11653
909.762	11551
909.878	11459
909.993	11589
910.108	11482
910.224	11570
910.339	11627
910.454	11493
910.57	11444
910.685	11429
910.8	11581
910.915	11573
911.03	11429
911.145	11223
911.259	11277
911.374	11242
911.489	11216
911.604	11193
911.718	10968
911.833	11014
911.947	10987
912.062	10828
912.176	10984
912.291	11071
912.405	11052
912.519	11227
912.633	11174
912.748	11075
912.862	10991
912.976	10889
913.09	10733
913.204	10812
913.318	10900
913.431	10946
913.545	10911
913.659	11006
913.772	10869
913.886	10797
914	10778
914.113	10812
914.226	10946
914.34	10812
914.453	10790
914.566	10850
914.68	10691
914.793	10759
914.906	10580
915.019	10531
915.132	10451
915.245	10561
915.358	10527
915.47	10596
915.583	10603
915.696	10542
915.809	10653
915.921	10702
916.034	10504
916.146	10493
916.259	10447
916.371	10512
916.483	10500
916.595	10417
916.708	10459
916.82	10497
916.932	10367
917.044	10428
917.156	10409
917.268	10352
917.38	10405
917.491	10352
917.603	10466
917.715	10443
917.826	10489
917.938	10257
918.049	10204
918.161	10310
918.272	10538
918.384	10478
918.495	10390
918.606	10223
918.717	10192
918.828	10223
918.939	10200
919.05	10120
919.161	10280
919.272	9907
919.383	10063
919.494	10299
919.604	10470
919.715	10337
919.826	10192
919.936	10215
920.047	10310
920.157	10204
920.267	10481
920.378	10299
920.488	10280
920.598	10451
920.708	10634
920.818	10424
920.928	10379
921.038	10679
921.148	10618
921.258	10249
921.368	10196
921.477	10154
921.587	10044
921.697	9987
921.806	10101
921.916	9953
922.025	9926
922.134	9778
922.244	9724
922.353	9838
922.462	9705
922.571	9633
922.68	9523
922.789	9504
922.898	9504
923.007	9439
923.116	9526
923.224	9507
923.333	9481
923.442	9340
923.55	9355
923.659	9321
923.767	9424
923.876	9291
923.984	9405
924.092	9233
924.201	9428
924.309	9332
924.417	9382
924.525	9325
924.633	9287
924.741	10181
924.849	9104
924.956	9370
925.064	9108
925.172	9100
925.279	9062
925.387	9104
925.494	9070
925.602	9272
925.709	9241
925.816	9081
925.924	9161
926.031	9287
926.138	9176
926.245	9161
926.352	9097
926.459	9195
926.566	9279
926.673	9051
926.779	8982
926.886	8998
926.993	8941
927.099	8868
927.206	8849
927.312	8773
927.419	8914
927.525	8918
927.631	8769
927.737	8762
927.843	8750
927.95	8617
928.056	8750
928.162	8739
928.267	8746
928.373	9469
928.479	8857
928.585	8621
928.69	8689
928.796	8857
928.901	8716
929.007	8522
929.112	8651
929.218	8693
929.323	8579
929.428	8587
929.533	8659
929.638	8495
929.743	8537
929.848	8674
929.953	8583
930.058	8461
930.163	8294
930.267	8347
930.372	8450
930.477	8336
930.581	8518
930.685	8427
930.79	8328
930.894	8385
930.998	8279
931.103	8385
931.207	8107
931.311	8088
931.415	7974
931.519	7845
931.623	7776
