Data from test_V78500241_2727.txt Node
Date: Fri Mar 25 14:52:42 CST 2022
User: usil
Spectrometer: V785-0024
Trigger mode: 0
Integration Time (sec): 4.000000E-1
Scans to average: 1
Nonlinearity correction enabled: false
Boxcar width: 0
Storing dark spectrum: false
XAxis mode: Wavelengths
Number of Pixels in Spectrum: 1024
>>>>>Begin Spectral Data<<<<<
801.071	22044
801.214	21941
801.356	21743
801.499	21625
801.641	21466
801.783	21298
801.926	21412
802.068	21226
802.211	21195
802.353	21184
802.496	20857
802.638	20883
802.78	20807
802.923	20720
803.065	20617
803.208	20693
803.35	20693
803.492	20823
803.635	20853
803.777	20564
803.919	20731
804.061	21058
804.204	20800
804.346	20617
804.488	20552
804.63	20693
804.773	20678
804.915	20598
805.057	20667
805.199	20590
805.341	20609
805.483	20598
805.626	20788
805.768	20556
805.91	20609
806.052	20560
806.194	20507
806.336	20811
806.478	20556
806.62	20644
806.762	20629
806.904	20838
807.046	20967
807.188	20941
807.33	20952
807.472	21135
807.614	20845
807.756	20937
807.898	20651
808.04	20598
808.182	20689
808.324	20648
808.465	20754
808.607	20796
808.749	20937
808.891	21127
809.033	21104
809.174	21096
809.316	20941
809.458	20910
809.6	20838
809.741	21085
809.883	20929
810.025	21116
810.166	21108
810.308	21169
810.45	21020
810.591	21017
810.733	20823
810.875	20811
811.016	20617
811.158	20678
811.299	20750
811.441	20792
811.582	20902
811.724	20785
811.865	20686
812.007	20693
812.148	20834
812.29	20735
812.431	20815
812.573	21009
812.714	21199
812.855	21252
812.997	21291
813.138	21587
813.279	21401
813.421	21230
813.562	21161
813.703	20937
813.845	20914
813.986	20746
814.127	20518
814.268	20427
814.41	20362
814.551	20267
814.692	20294
814.833	20309
814.974	20149
815.115	20233
815.256	20115
815.397	20161
815.539	20069
815.68	20062
815.821	20054
815.962	20046
816.103	19993
816.244	19788
816.385	19708
816.526	19723
816.666	19518
816.807	19529
816.948	19434
817.089	19601
817.23	19434
817.371	19441
817.512	19415
817.653	19521
817.793	19384
817.934	19350
818.075	19502
818.216	19369
818.356	19343
818.497	19148
818.638	19187
818.778	19069
818.919	19099
819.06	19179
819.2	19221
819.341	19312
819.481	19324
819.622	19457
819.762	19499
819.903	19601
820.043	19388
820.184	19419
820.324	19259
820.465	19457
820.605	19396
820.746	19449
820.886	19312
821.026	19289
821.167	19403
821.307	19487
821.447	19228
821.588	19160
821.728	19031
821.868	19031
822.008	18829
822.149	18821
822.289	18791
822.429	18547
822.569	18357
822.709	18475
822.849	18342
822.99	18270
823.13	18353
823.27	18247
823.41	18174
823.55	17961
823.69	18136
823.83	18106
823.97	17961
824.11	17824
824.25	17798
824.389	17805
824.529	17809
824.669	17920
824.809	17939
824.949	18030
825.089	17946
825.228	17805
825.368	17676
825.508	17748
825.648	17783
825.787	17805
825.927	17733
826.067	17608
826.206	17562
826.346	17684
826.485	17714
826.625	17642
826.765	17786
826.904	17764
827.044	17497
827.183	17421
827.323	17337
827.462	17391
827.601	17402
827.741	17364
827.88	17246
828.02	17178
828.159	17368
828.298	17284
828.437	17505
828.577	17406
828.716	17482
828.855	17341
828.994	17212
829.134	17121
829.273	17117
829.412	17094
829.551	16999
829.69	17083
829.829	17162
829.968	17197
830.107	17204
830.246	17136
830.385	17033
830.524	16934
830.663	16843
830.802	16801
830.941	16744
831.08	16679
831.219	16881
831.357	16748
831.496	16995
831.635	16733
831.774	16577
831.913	16611
832.051	16523
832.19	16527
832.329	16474
832.467	16360
832.606	16386
832.744	16333
832.883	16382
833.022	16512
833.16	16421
833.299	16508
833.437	16630
833.576	16451
833.714	16481
833.852	16470
833.991	16538
834.129	16538
834.267	16497
834.406	16500
834.544	16607
834.682	16538
834.821	16535
834.959	16554
835.097	16440
835.235	16626
835.373	16561
835.511	16478
835.65	16356
835.788	16500
835.926	16272
836.064	16177
836.202	16196
836.34	16436
836.478	16497
836.615	16409
836.753	16322
836.891	16447
837.029	16398
837.167	16447
837.305	16325
837.443	16299
837.58	16207
837.718	16424
837.856	16219
837.993	16185
838.131	16284
838.269	16166
838.406	16219
838.544	16109
838.681	16040
838.819	15907
838.956	15819
839.094	15797
839.231	15804
839.369	15895
839.506	16207
839.643	16196
839.781	15797
839.918	15778
840.055	15846
840.193	15869
840.33	15770
840.467	15762
840.604	15888
840.742	16017
840.879	15675
841.016	15743
841.153	15717
841.29	15949
841.427	15869
841.564	15911
841.701	15797
841.838	15743
841.975	15641
842.112	15667
842.249	15671
842.385	15542
842.522	15926
842.659	15667
842.796	15542
842.933	15614
843.069	15652
843.206	15667
843.343	15637
843.479	15728
843.616	15717
843.752	15462
843.889	15408
844.025	15629
844.162	15332
844.298	15542
844.435	15401
844.571	15302
844.708	15382
844.844	15553
844.98	15610
845.117	15481
845.253	15374
845.389	15256
845.525	15245
845.661	15298
845.798	15218
845.934	15237
846.07	15097
846.206	15203
846.342	15256
846.478	15154
846.614	15036
846.75	14975
846.886	14967
847.022	15173
847.158	15020
847.294	15028
847.429	14998
847.565	14986
847.701	15154
847.837	14682
847.972	14640
848.108	14807
848.244	14830
848.379	14659
848.515	14613
848.65	14495
848.786	14537
848.921	14602
849.057	14701
849.192	14674
849.328	14560
849.463	14678
849.598	14556
849.734	14514
849.869	14313
850.004	14419
850.14	14434
850.275	14366
850.41	14271
850.545	14278
850.68	14351
850.815	14298
850.95	14214
851.085	14568
851.22	14393
851.355	14305
851.49	14286
851.625	14244
851.76	14282
851.895	14237
852.03	14176
852.165	14400
852.299	14317
852.434	14465
852.569	14366
852.703	14347
852.838	14434
852.973	14488
853.107	14465
853.242	14324
853.376	14221
853.511	14050
853.645	14149
853.78	14347
853.914	14202
854.048	14221
854.183	14221
854.317	14191
854.451	14301
854.585	14221
854.72	14218
854.854	14275
854.988	14103
855.122	14278
855.256	14092
855.39	14172
855.524	14240
855.658	14271
855.792	14130
855.926	14282
856.06	14214
856.194	14339
856.327	14172
856.461	14168
856.595	14180
856.729	14206
856.862	14267
856.996	14092
857.13	14343
857.263	14336
857.397	14347
857.53	14111
857.664	14298
857.797	14256
857.931	14290
858.064	14233
858.197	14294
858.331	14187
858.464	14191
858.597	14092
858.731	14164
858.864	14271
858.997	14111
859.13	14301
859.263	14263
859.396	14298
859.529	14191
859.662	14225
859.795	14084
859.928	14259
860.061	14336
860.194	14400
860.327	14206
860.46	14214
860.592	14320
860.725	14389
860.858	14290
860.99	14149
861.123	14168
861.256	14168
861.388	14180
861.521	14872
861.653	14199
861.786	14084
861.918	13997
862.05	14111
862.183	14225
862.315	14161
862.447	14233
862.58	14176
862.712	14043
862.844	13879
862.976	14058
863.108	14081
863.24	14423
863.372	13932
863.504	13955
863.636	13997
863.768	13856
863.9	14001
864.032	13890
864.164	13947
864.296	14111
864.428	14081
864.559	14145
864.691	14050
864.823	14005
864.954	14001
865.086	14092
865.217	13944
865.349	13951
865.48	13974
865.612	13989
865.743	14058
865.875	14050
866.006	13860
866.137	13993
866.269	14020
866.4	13928
866.531	13921
866.662	13959
866.793	13898
866.924	13947
867.055	14046
867.186	13959
867.317	13860
867.448	13883
867.579	13875
867.71	13928
867.841	13875
867.972	13955
868.103	13925
868.233	14027
868.364	13959
868.495	14065
868.625	14172
868.756	14225
868.886	14130
869.017	14142
869.147	14431
869.278	14290
869.408	14290
869.539	14202
869.669	14305
869.799	14183
869.929	14259
870.06	14298
870.19	14473
870.32	14537
870.45	14473
870.58	14632
870.71	14689
870.84	14777
870.97	14575
871.1	14590
871.23	14842
871.36	14823
871.489	14689
871.619	14781
871.749	14857
871.879	14845
872.008	14864
872.138	14769
872.267	14826
872.397	14701
872.526	14682
872.656	14610
872.785	14731
872.915	14815
873.044	14960
873.173	14853
873.303	14876
873.432	14971
873.561	14990
873.69	14838
873.819	14887
873.948	15001
874.077	14792
874.206	14872
874.335	14914
874.464	14975
874.593	15226
874.722	15138
874.851	15249
874.979	15256
875.108	15249
875.237	15154
875.365	15093
875.494	15165
875.623	15268
875.751	15192
875.88	15222
876.008	15306
876.136	15481
876.265	15564
876.393	15789
876.521	15732
876.65	15671
876.778	15610
876.906	15614
877.034	15667
877.162	15660
877.29	15523
877.418	15629
877.546	15614
877.674	15572
877.802	15606
877.93	15606
878.058	15488
878.185	15462
878.313	15523
878.441	15629
878.568	15454
878.696	15443
878.824	15580
878.951	15698
879.079	15819
879.206	15899
879.333	15804
879.461	15682
879.588	15625
879.715	15781
879.842	15865
879.97	15663
880.097	15462
880.224	15447
880.351	15488
880.478	15439
880.605	15462
880.732	15348
880.859	15762
880.986	15538
881.112	15507
881.239	15397
881.366	15214
881.493	15154
881.619	15070
881.746	15119
881.872	15184
881.999	15127
882.125	15058
882.252	15192
882.378	15195
882.505	15195
882.631	15093
882.757	14914
882.883	14979
883.01	15013
883.136	14864
883.262	14834
883.388	14842
883.514	14963
883.64	15100
883.766	14845
883.892	14765
884.018	14842
884.143	14921
884.269	15058
884.395	14785
884.52	14636
884.646	14617
884.772	14511
884.897	14442
885.023	14727
885.148	14785
885.274	14724
885.399	14773
885.524	14644
885.65	14697
885.775	14636
885.9	14541
886.025	14659
886.15	14655
886.275	14568
886.4	14560
886.525	14617
886.65	14610
886.775	14579
886.9	14754
887.025	14864
887.149	14644
887.274	14434
887.399	14507
887.523	14366
887.648	14347
887.773	14385
887.897	14568
888.021	14629
888.146	14393
888.27	14613
888.395	14541
888.519	14583
888.643	14419
888.767	14610
888.891	14476
889.015	14400
889.139	14298
889.263	14252
889.387	14370
889.511	14484
889.635	14469
889.759	14271
889.883	14355
890.006	14400
890.13	14537
890.254	14263
890.377	14248
890.501	14123
890.624	14210
890.748	14199
890.871	14100
890.995	13989
891.118	14077
891.241	14050
891.364	13970
891.488	14176
891.611	14008
891.734	14062
891.857	14077
891.98	14046
892.103	13997
892.226	14084
892.349	14062
892.471	14005
892.594	14008
892.717	14027
892.839	14027
892.962	14100
893.085	14202
893.207	14039
893.33	13917
893.452	13967
893.575	14111
893.697	14065
893.819	14195
893.941	14202
894.064	14221
894.186	13967
894.308	14012
894.43	14164
894.552	14259
894.674	14149
894.796	14027
894.918	14111
895.04	14084
895.161	14290
895.283	14107
895.405	14107
895.526	14058
895.648	14206
895.769	14180
895.891	14191
896.012	14278
896.134	14324
896.255	14267
896.376	14233
896.498	14153
896.619	14366
896.74	14252
896.861	14237
896.982	14606
897.103	14648
897.224	14499
897.345	14442
897.466	14393
897.587	14473
897.708	14533
897.828	14530
897.949	14408
898.07	14358
898.19	14408
898.311	14594
898.431	14503
898.552	14564
898.672	14590
898.792	14571
898.913	14587
899.033	14412
899.153	14450
899.273	14282
899.393	14366
899.513	14446
899.633	14484
899.753	14415
899.873	14328
899.993	14469
900.113	14389
900.232	14484
900.352	14393
900.472	14199
900.591	14298
900.711	14358
900.83	14229
900.95	14393
901.069	14305
901.189	14221
901.308	14039
901.427	13906
901.546	13967
901.665	13947
901.784	13970
901.904	13932
902.023	13769
902.141	13529
902.26	13533
902.379	13601
902.498	13537
902.617	13483
902.735	13575
902.854	13464
902.973	13460
903.091	13259
903.21	13297
903.328	13282
903.446	13187
903.565	13133
903.683	13126
903.801	13023
903.919	13137
904.038	13042
904.156	12958
904.274	12958
904.392	12875
904.51	12859
904.627	12932
904.745	13042
904.863	13000
904.981	12715
905.098	12673
905.216	12627
905.334	12654
905.451	12654
905.569	12532
905.686	12639
905.803	12745
905.921	12384
906.038	12620
906.155	12513
906.272	12342
906.389	12342
906.506	12155
906.623	12289
906.74	12216
906.857	12041
906.974	12057
907.091	12327
907.208	12258
907.324	12289
907.441	12175
907.557	11958
907.674	11889
907.79	11939
907.907	11946
908.023	11961
908.139	11988
908.256	11889
908.372	11832
908.488	11874
908.604	11752
908.72	11642
908.836	11767
908.952	11691
909.068	11783
909.184	11798
909.3	11699
909.415	11748
909.531	11752
909.647	11509
909.762	11410
909.878	11505
909.993	11505
910.108	11444
910.224	11406
910.339	11516
910.454	11410
910.57	11368
910.685	11239
910.8	11630
910.915	11452
911.03	11345
911.145	11181
911.259	11124
911.374	11254
911.489	11098
911.604	11151
911.718	10847
911.833	10965
911.947	10828
912.062	10820
912.176	10949
912.291	10877
912.405	10938
912.519	11124
912.633	11162
912.748	11056
912.862	10930
912.976	10801
913.09	10717
913.204	10774
913.318	10850
913.431	10900
913.545	10892
913.659	11014
913.772	10854
913.886	10744
914	10721
914.113	10752
914.226	10847
914.34	10733
914.453	10615
914.566	10793
914.68	10660
914.793	10607
914.906	10371
915.019	10360
915.132	10371
915.245	10413
915.358	10512
915.47	10519
915.583	10459
915.696	10512
915.809	10485
915.921	10596
916.034	10379
916.146	10443
916.259	10390
916.371	10451
916.483	10447
916.595	10360
916.708	10409
916.82	10394
916.932	10367
917.044	10363
917.156	10287
917.268	10333
917.38	10280
917.491	10234
917.603	10268
917.715	10341
917.826	10398
917.938	10318
918.049	10139
918.161	10272
918.272	10402
918.384	10390
918.495	10291
918.606	10219
918.717	10097
918.828	10150
918.939	10181
919.05	10093
919.161	10139
919.272	10010
919.383	9998
919.494	10211
919.604	10394
919.715	10215
919.826	10105
919.936	10154
920.047	10386
920.157	10204
920.267	10341
920.378	10261
920.488	10265
920.598	10371
920.708	10550
920.818	10363
920.928	10394
921.038	10558
921.148	10428
921.258	10200
921.368	10154
921.477	9979
921.587	10010
921.697	9998
921.806	9975
921.916	9915
922.025	9720
922.134	9686
922.244	9644
922.353	9717
922.462	9709
922.571	9591
922.68	9420
922.789	9428
922.898	9462
923.007	9363
923.116	9466
923.224	9393
923.333	9405
923.442	9291
923.55	9321
923.659	9374
923.767	9370
923.876	9332
923.984	9382
924.092	9272
924.201	9370
924.309	9291
924.417	9325
924.525	9142
924.633	9260
924.741	9964
924.849	9077
924.956	9203
925.064	9066
925.172	8948
925.279	9062
925.387	9150
925.494	9051
925.602	9199
925.709	9184
925.816	9066
925.924	9100
926.031	9165
926.138	9127
926.245	9081
926.352	8990
926.459	9192
926.566	9218
926.673	9047
926.779	8960
926.886	8956
926.993	8743
927.099	8785
927.206	8762
927.312	8746
927.419	8849
927.525	8743
927.631	8853
927.737	8701
927.843	8663
927.95	8632
928.056	8705
928.162	8674
928.267	8762
928.373	9340
928.479	8754
928.585	8636
928.69	8689
928.796	8735
928.901	8636
929.007	8465
929.112	8594
929.218	8587
929.323	8457
929.428	8564
929.533	8617
929.638	8446
929.743	8492
929.848	8590
929.953	8537
930.058	8450
930.163	8332
930.267	8332
930.372	8415
930.477	8282
930.581	8533
930.685	8404
930.79	8172
930.894	8221
930.998	8168
931.103	8290
931.207	8035
931.311	8046
931.415	7883
931.519	7753
931.623	7769
