Data from test_V78500241_851.txt Node
Date: Fri Mar 25 14:39:38 CST 2022
User: usil
Spectrometer: V785-0024
Trigger mode: 0
Integration Time (sec): 4.000000E-1
Scans to average: 1
Nonlinearity correction enabled: false
Boxcar width: 0
Storing dark spectrum: false
XAxis mode: Wavelengths
Number of Pixels in Spectrum: 1024
>>>>>Begin Spectral Data<<<<<
801.071	25837
801.214	25674
801.356	25537
801.499	25236
801.641	25327
801.783	25152
801.926	25263
802.068	25152
802.211	24985
802.353	25027
802.496	24954
802.638	24700
802.78	24597
802.923	24684
803.065	24563
803.208	24559
803.35	24585
803.492	24753
803.635	24817
803.777	24681
803.919	24768
804.061	25004
804.204	24844
804.346	24738
804.488	24665
804.63	24745
804.773	24696
804.915	24753
805.057	25012
805.199	24795
805.341	25015
805.483	25084
805.626	25042
805.768	24954
805.91	25065
806.052	25122
806.194	25118
806.336	25354
806.478	25381
806.62	25476
806.762	25647
806.904	25951
807.046	26339
807.188	26412
807.33	26594
807.472	27001
807.614	27161
807.756	27861
807.898	28322
808.04	29056
808.182	30053
808.324	31521
808.465	32979
808.607	34786
808.749	36205
808.891	37365
809.033	37175
809.174	36494
809.316	34869
809.458	33017
809.6	31266
809.741	29893
809.883	28713
810.025	28200
810.166	27618
810.308	27256
810.45	26891
810.591	26575
810.733	26050
810.875	25906
811.016	25750
811.158	25666
811.299	25753
811.441	25495
811.582	25582
811.724	25491
811.865	25301
812.007	25255
812.148	25251
812.29	25129
812.431	25350
812.573	25537
812.714	25430
812.855	25582
812.997	25651
813.138	25791
813.279	25708
813.421	25411
813.562	25430
813.703	25339
813.845	25133
813.986	24719
814.127	24612
814.268	24532
814.41	24525
814.551	24372
814.692	24456
814.833	24369
814.974	24346
815.115	24384
815.256	24083
815.397	24159
815.539	24087
815.68	24155
815.821	24022
815.962	24015
816.103	24091
816.244	23863
816.385	23699
816.526	23668
816.666	23566
816.807	23421
816.948	23398
817.089	23486
817.23	23482
817.371	23444
817.512	23387
817.653	23315
817.793	23322
817.934	23383
818.075	23383
818.216	23296
818.356	23330
818.497	23117
818.638	23048
818.778	23003
818.919	22961
819.06	23037
819.2	23181
819.341	23204
819.481	23231
819.622	23395
819.762	23425
819.903	23410
820.043	23440
820.184	23284
820.324	23212
820.465	23258
820.605	23231
820.746	23242
820.886	23075
821.026	23159
821.167	23166
821.307	23181
821.447	23022
821.588	22915
821.728	22839
821.868	22698
822.008	22569
822.149	22630
822.289	22474
822.429	22265
822.569	22234
822.709	22181
822.849	21994
822.99	22002
823.13	21972
823.27	22006
823.41	21892
823.55	21835
823.69	21808
823.83	21835
823.97	21679
824.11	21553
824.25	21408
824.389	21530
824.529	21595
824.669	21561
824.809	21698
824.949	21515
825.089	21759
825.228	21576
825.368	21389
825.508	21386
825.648	21378
825.787	21435
825.927	21367
826.067	21401
826.206	21211
826.346	21378
826.485	21245
826.625	21310
826.765	21348
826.904	21351
827.044	21135
827.183	21051
827.323	20963
827.462	21005
827.601	21032
827.741	20899
827.88	21039
828.02	20891
828.159	20925
828.298	20982
828.437	21154
828.577	20872
828.716	20960
828.855	20804
828.994	20670
829.134	20750
829.273	20746
829.412	20678
829.551	20594
829.69	20708
829.829	20629
829.968	20625
830.107	20716
830.246	20667
830.385	20659
830.524	20514
830.663	20415
830.802	20438
830.941	20199
831.08	20328
831.219	20362
831.357	20240
831.496	20461
831.635	20145
831.774	20107
831.913	20122
832.051	20149
832.19	20092
832.329	20176
832.467	20107
832.606	19917
832.744	20073
832.883	20180
833.022	20100
833.16	20103
833.299	20020
833.437	20267
833.576	20313
833.714	20313
833.852	20552
833.991	20579
834.129	20746
834.267	20640
834.406	20480
834.544	20503
834.682	20336
834.821	20450
834.959	20522
835.097	20164
835.235	20305
835.373	20122
835.511	20145
835.65	19887
835.788	20039
835.926	19791
836.064	19731
836.202	19822
836.34	19993
836.478	19967
836.615	19875
836.753	19814
836.891	19887
837.029	19860
837.167	19772
837.305	19632
837.443	19658
837.58	19658
837.718	19715
837.856	19693
837.993	19590
838.131	19590
838.269	19525
838.406	19563
838.544	19441
838.681	19278
838.819	19240
838.956	19095
839.094	18977
839.231	19156
839.369	19270
839.506	19525
839.643	19301
839.781	19110
839.918	19057
840.055	19141
840.193	18981
840.33	19042
840.467	19065
840.604	19023
840.742	19259
840.879	18894
841.016	18890
841.153	19008
841.29	19126
841.427	18951
841.564	18985
841.701	19008
841.838	19027
841.975	19000
842.112	18939
842.249	18894
842.385	18837
842.522	19080
842.659	18871
842.796	18852
842.933	18932
843.069	18894
843.206	18764
843.343	18985
843.479	18962
843.616	18802
843.752	18715
843.889	18661
844.025	18890
844.162	18753
844.298	18951
844.435	18935
844.571	19012
844.708	19099
844.844	19601
844.98	19616
845.117	19951
845.253	20202
845.389	21051
845.525	22946
845.661	25715
845.798	29136
845.934	31974
846.07	33093
846.206	32442
846.342	30372
846.478	26979
846.614	23695
846.75	21625
846.886	20419
847.022	19841
847.158	19202
847.294	18920
847.429	18776
847.565	18582
847.701	18593
847.837	18182
847.972	18095
848.108	17996
848.244	18098
848.379	17889
848.515	17832
848.65	17775
848.786	17771
848.921	17760
849.057	17851
849.192	17901
849.328	17794
849.463	17676
849.598	17733
849.734	17680
849.869	17672
850.004	17547
850.14	17520
850.275	17455
850.41	17337
850.545	17372
850.68	17444
850.815	17433
850.95	17383
851.085	17558
851.22	17581
851.355	17387
851.49	17303
851.625	17383
851.76	17474
851.895	17398
852.03	17337
852.165	17433
852.299	17429
852.434	17535
852.569	17478
852.703	17402
852.838	17459
852.973	17551
853.107	17680
853.242	17512
853.376	17387
853.511	17315
853.645	17406
853.78	17509
853.914	17543
854.048	17383
854.183	17421
854.317	17562
854.451	17600
854.585	17429
854.72	17433
854.854	17501
854.988	17334
855.122	17414
855.256	17265
855.39	17288
855.524	17455
855.658	17345
855.792	17345
855.926	17303
856.06	17398
856.194	17505
856.327	17356
856.461	17284
856.595	17258
856.729	17208
856.862	17414
856.996	17307
857.13	17288
857.263	17303
857.397	17280
857.53	17208
857.664	17379
857.797	17356
857.931	17368
858.064	17288
858.197	17345
858.331	17143
858.464	17265
858.597	17200
858.731	17117
858.864	17174
858.997	17162
859.13	17178
859.263	17250
859.396	17307
859.529	17105
859.662	17143
859.795	17113
859.928	17212
860.061	17273
860.194	17391
860.327	17162
860.46	17159
860.592	17349
860.725	17292
860.858	17284
860.99	17121
861.123	17151
861.256	17045
861.388	17056
861.521	17714
861.653	17090
861.786	16946
861.918	17162
862.05	17117
862.183	17045
862.315	17102
862.447	17166
862.58	17143
862.712	16927
862.844	16984
862.976	16930
863.108	16896
863.24	17311
863.372	16767
863.504	16881
863.636	16858
863.768	16873
863.9	16911
864.032	16729
864.164	16869
864.296	16942
864.428	17029
864.559	17022
864.691	16968
864.823	16911
864.954	16980
865.086	16930
865.217	16881
865.349	16748
865.48	16881
865.612	16858
865.743	16949
865.875	16896
866.006	16873
866.137	16896
866.269	16885
866.4	16782
866.531	16706
866.662	16782
866.793	16744
866.924	16713
867.055	16854
867.186	16843
867.317	16786
867.448	16767
867.579	16736
867.71	16668
867.841	16702
867.972	16725
868.103	16778
868.233	16736
868.364	16793
868.495	16885
868.625	16949
868.756	17170
868.886	16942
869.017	17075
869.147	17147
869.278	17166
869.408	17159
869.539	17083
869.669	17098
869.799	17208
869.929	17159
870.06	17102
870.19	17296
870.32	17326
870.45	17395
870.58	17535
870.71	17566
870.84	17490
870.97	17353
871.1	17433
871.23	17589
871.36	17699
871.489	17684
871.619	17665
871.749	17589
871.879	17771
872.008	17752
872.138	17684
872.267	17676
872.397	17619
872.526	17509
872.656	17562
872.785	17741
872.915	17824
873.044	17882
873.173	17828
873.303	17889
873.432	17912
873.561	17893
873.69	17813
873.819	17813
873.948	17927
874.077	17969
874.206	17893
874.335	17904
874.464	18076
874.593	18171
874.722	18243
874.851	18258
874.979	18190
875.108	18388
875.237	18346
875.365	18277
875.494	18232
875.623	18384
875.751	18350
875.88	18460
876.008	18525
876.136	18631
876.265	18791
876.393	19107
876.521	18947
876.65	19023
876.778	19000
876.906	18897
877.034	18954
877.162	18932
877.29	19122
877.418	19244
877.546	19278
877.674	19141
877.802	19324
877.93	19324
878.058	19396
878.185	19441
878.313	19674
878.441	19852
878.568	19928
878.696	20305
878.824	20769
878.951	21355
879.079	22226
879.206	23349
879.333	24350
879.461	25145
879.588	25883
879.715	25837
879.842	25400
879.97	24308
880.097	23056
880.224	22238
880.351	21580
880.478	21264
880.605	20899
880.732	20708
880.859	20872
880.986	20431
881.112	20362
881.239	20404
881.366	20134
881.493	19928
881.619	20126
881.746	20024
881.872	20062
881.999	20001
882.125	20092
882.252	20157
882.378	20256
882.505	20214
882.631	20092
882.757	19974
882.883	19997
883.01	19887
883.136	19856
883.262	19757
883.388	19791
883.514	19940
883.64	19921
883.766	19913
883.892	19723
884.018	19708
884.143	19830
884.269	19875
884.395	19715
884.52	19575
884.646	19696
884.772	19700
884.897	19590
885.023	19742
885.148	19677
885.274	19784
885.399	19731
885.524	19567
885.65	19476
885.775	19301
885.9	19282
886.025	19358
886.15	19190
886.275	19114
886.4	18970
886.525	18886
886.65	18867
886.775	18768
886.9	19004
887.025	19004
887.149	18608
887.274	18426
887.399	18327
887.523	18464
887.648	18285
887.773	18270
887.897	18380
888.021	18311
888.146	18136
888.27	18205
888.395	18216
888.519	18030
888.643	18041
888.767	18106
888.891	17901
889.015	17931
889.139	17863
889.263	17908
889.387	17980
889.511	17946
889.635	18015
889.759	17687
889.883	17684
890.006	17703
890.13	17855
890.254	17558
890.377	17615
890.501	17402
890.624	17410
890.748	17433
890.871	17341
890.995	17128
891.118	17181
891.241	17220
891.364	17299
891.488	17204
891.611	17174
891.734	17117
891.857	17048
891.98	17208
892.103	17311
892.226	17296
892.349	17041
892.471	16949
892.594	16987
892.717	17025
892.839	16965
892.962	17025
893.085	17083
893.207	17014
893.33	16759
893.452	16885
893.575	16896
893.697	16915
893.819	16995
893.941	17018
894.064	16923
894.186	16759
894.308	16801
894.43	16961
894.552	16995
894.674	17048
894.796	16786
894.918	16862
895.04	16896
895.161	16900
895.283	16930
895.405	16908
895.526	16866
895.648	16771
895.769	16725
895.891	16816
896.012	16877
896.134	16866
896.255	16873
896.376	16752
896.498	16790
896.619	16850
896.74	16805
896.861	16873
896.982	17075
897.103	17318
897.224	17037
897.345	17003
897.466	16953
897.587	17006
897.708	17166
897.828	17041
897.949	17025
898.07	16885
898.19	17052
898.311	17083
898.431	16911
898.552	17105
898.672	17174
898.792	17010
898.913	17079
899.033	16934
899.153	16984
899.273	16987
899.393	16892
899.513	16927
899.633	16892
899.753	16847
899.873	16862
899.993	16946
900.113	16873
900.232	16972
900.352	16919
900.472	16752
900.591	16771
900.711	16656
900.83	16797
900.95	16805
901.069	16809
901.189	16618
901.308	16500
901.427	16371
901.546	16356
901.665	16299
901.784	16299
901.904	16101
902.023	16040
902.141	15915
902.26	15781
902.379	15892
902.498	15831
902.617	15774
902.735	15838
902.854	15812
902.973	15762
903.091	15599
903.21	15447
903.328	15572
903.446	15443
903.565	15249
903.683	15272
903.801	15199
903.919	15222
904.038	15306
904.156	15001
904.274	15062
904.392	14975
904.51	15047
904.627	15020
904.745	15100
904.863	15089
904.981	14937
905.098	14773
905.216	14800
905.334	14773
905.451	14720
905.569	14716
905.686	14746
905.803	14689
905.921	14511
906.038	14667
906.155	14545
906.272	14415
906.389	14412
906.506	14366
906.623	14202
906.74	14290
906.857	14229
906.974	14107
907.091	14282
907.208	14427
907.324	14199
907.441	14134
907.557	13940
907.674	13993
907.79	13879
907.907	13967
908.023	14016
908.139	13932
908.256	13944
908.372	13833
908.488	13841
908.604	13632
908.72	13712
908.836	13616
908.952	13632
909.068	13677
909.184	13708
909.3	13769
909.415	13849
909.531	13685
909.647	13495
909.762	13502
909.878	13411
909.993	13445
910.108	13445
910.224	13441
910.339	13392
910.454	13312
910.57	13251
910.685	13263
910.8	13476
910.915	13373
911.03	13240
911.145	13069
911.259	13019
911.374	13072
911.489	13084
911.604	13019
911.718	12871
911.833	12810
911.947	12768
912.062	12681
912.176	12871
912.291	12829
912.405	12837
912.519	13084
912.633	12981
912.748	12798
912.862	12665
912.976	12642
913.09	12578
913.204	12623
913.318	12696
913.431	12715
913.545	12772
913.659	12772
913.772	12639
913.886	12506
914	12506
914.113	12506
914.226	12700
914.34	12642
914.453	12528
914.566	12589
914.68	12399
914.793	12464
914.906	12213
915.019	12235
915.132	12201
915.245	12251
915.358	12346
915.47	12281
915.583	12330
915.696	12281
915.809	12323
915.921	12448
916.034	12232
916.146	12182
916.259	12163
916.371	12281
916.483	12247
916.595	12239
916.708	12209
916.82	12235
916.932	12140
917.044	12087
917.156	12209
917.268	12079
917.38	11958
917.491	12106
917.603	12057
917.715	12159
917.826	12079
917.938	11980
918.049	11897
918.161	11992
918.272	12038
918.384	12155
918.495	11954
918.606	11840
918.717	11760
918.828	11855
918.939	11939
919.05	11756
919.161	11802
919.272	11570
919.383	11699
919.494	11794
919.604	12030
919.715	11767
919.826	11779
919.936	11836
920.047	11821
920.157	11863
920.267	12003
920.378	11771
920.488	11767
920.598	11954
920.708	12110
920.818	12053
920.928	11984
921.038	12140
921.148	12087
921.258	11794
921.368	11813
921.477	11604
921.587	11680
921.697	11398
921.806	11589
921.916	11478
922.025	11356
922.134	11307
922.244	11265
922.353	11288
922.462	11208
922.571	11102
922.68	10980
922.789	10904
922.898	10927
923.007	10896
923.116	10915
923.224	10949
923.333	10892
923.442	10767
923.55	10847
923.659	10816
923.767	10873
923.876	10729
923.984	10816
924.092	10733
924.201	10774
924.309	10725
924.417	10820
924.525	10706
924.633	10687
924.741	11665
924.849	10440
924.956	10706
925.064	10527
925.172	10451
925.279	10523
925.387	10516
925.494	10523
925.602	10672
925.709	10615
925.816	10424
925.924	10436
926.031	10584
926.138	10474
926.245	10527
926.352	10360
926.459	10546
926.566	10565
926.673	10432
926.779	10280
926.886	10314
926.993	10124
927.099	10150
927.206	10128
927.312	10021
927.419	10246
927.525	10181
927.631	10242
927.737	10078
927.843	10010
927.95	9930
928.056	10093
928.162	10002
928.267	10063
928.373	10664
928.479	10173
928.585	9873
928.69	9941
928.796	10013
928.901	9975
929.007	9835
929.112	9934
929.218	9918
929.323	9869
929.428	9854
929.533	9926
929.638	9751
929.743	9766
929.848	9854
929.953	9850
930.058	9755
930.163	9523
930.267	9652
930.372	9720
930.477	9538
930.581	9724
930.685	9625
930.79	9519
930.894	9443
930.998	9466
931.103	9603
931.207	9283
931.311	9283
931.415	9199
931.519	8967
931.623	9028
