Data from test_V78500241_618.txt Node
Date: Fri Mar 25 14:38:01 CST 2022
User: usil
Spectrometer: V785-0024
Trigger mode: 0
Integration Time (sec): 4.000000E-1
Scans to average: 1
Nonlinearity correction enabled: false
Boxcar width: 0
Storing dark spectrum: false
XAxis mode: Wavelengths
Number of Pixels in Spectrum: 1024
>>>>>Begin Spectral Data<<<<<
801.071	27819
801.214	27701
801.356	27606
801.499	27389
801.641	27283
801.783	27283
801.926	27264
802.068	27230
802.211	27138
802.353	27077
802.496	26819
802.638	26853
802.78	26735
802.923	26807
803.065	26731
803.208	26815
803.35	26678
803.492	26883
803.635	26887
803.777	26765
803.919	26914
804.061	27302
804.204	26952
804.346	26849
804.488	26826
804.63	27024
804.773	26815
804.915	27017
805.057	27260
805.199	27150
805.341	27386
805.483	27294
805.626	27389
805.768	27424
805.91	27408
806.052	27599
806.194	27610
806.336	27861
806.478	27800
806.62	27846
806.762	28173
806.904	28672
807.046	29041
807.188	29242
807.33	29467
807.472	29885
807.614	30528
807.756	31122
807.898	31978
808.04	32921
808.182	34493
808.324	36452
808.465	38708
808.607	41060
808.749	43228
808.891	44423
809.033	44693
809.174	43407
809.316	41151
809.458	38682
809.6	36148
809.741	34128
809.883	32632
810.025	31586
810.166	30798
810.308	30163
810.45	29714
810.591	29337
810.733	28900
810.875	28580
811.016	28390
811.158	28131
811.299	28188
811.441	28173
811.582	28059
811.724	27865
811.865	27732
812.007	27698
812.148	27629
812.29	27717
812.431	27614
812.573	27759
812.714	27911
812.855	27876
812.997	28006
813.138	27983
813.279	27827
813.421	27774
813.562	27701
813.703	27427
813.845	27408
813.986	27039
814.127	26826
814.268	26792
814.41	26659
814.551	26727
814.692	26720
814.833	26526
814.974	26549
815.115	26678
815.256	26408
815.397	26374
815.539	26355
815.68	26370
815.821	26259
815.962	26096
816.103	26092
816.244	26016
816.385	25932
816.526	25906
816.666	25795
816.807	25544
816.948	25651
817.089	25601
817.23	25514
817.371	25597
817.512	25571
817.653	25312
817.793	25430
817.934	25575
818.075	25354
818.216	25499
818.356	25510
818.497	25148
818.638	25148
818.778	25183
818.919	25145
819.06	25069
819.2	25194
819.341	25236
819.481	25156
819.622	25521
819.762	25708
819.903	25510
820.043	25537
820.184	25308
820.324	25502
820.465	25422
820.605	25362
820.746	25354
820.886	25099
821.026	25324
821.167	25236
821.307	25221
821.447	25217
821.588	25076
821.728	24909
821.868	24821
822.008	24715
822.149	24627
822.289	24544
822.429	24365
822.569	24216
822.709	24228
822.849	23908
822.99	24140
823.13	23973
823.27	24110
823.41	23843
823.55	23741
823.69	23809
823.83	23817
823.97	23684
824.11	23577
824.25	23581
824.389	23516
824.529	23615
824.669	23493
824.809	23737
824.949	23573
825.089	23638
825.228	23634
825.368	23391
825.508	23387
825.648	23254
825.787	23387
825.927	23315
826.067	23353
826.206	23330
826.346	23345
826.485	23231
826.625	23273
826.765	23337
826.904	23345
827.044	23117
827.183	23014
827.323	23037
827.462	23174
827.601	23132
827.741	22987
827.88	22984
828.02	22774
828.159	22995
828.298	23014
828.437	23155
828.577	22934
828.716	23132
828.855	23060
828.994	22649
829.134	22733
829.273	22729
829.412	22504
829.551	22626
829.69	22630
829.829	22763
829.968	22736
830.107	22649
830.246	22637
830.385	22660
830.524	22542
830.663	22554
830.802	22337
830.941	22333
831.08	22234
831.219	22329
831.357	22268
831.496	22493
831.635	22322
831.774	22169
831.913	22139
832.051	22070
832.19	22116
832.329	22185
832.467	22082
832.606	22013
832.744	22090
832.883	22086
833.022	22120
833.16	22196
833.299	22409
833.437	22455
833.576	22584
833.714	22641
833.852	22759
833.991	22915
834.129	22915
834.267	23022
834.406	22843
834.544	22839
834.682	22645
834.821	22626
834.959	22649
835.097	22337
835.235	22382
835.373	22295
835.511	22131
835.65	22048
835.788	22021
835.926	21827
836.064	21660
836.202	21759
836.34	21953
836.478	21956
836.615	21717
836.753	21755
836.891	21918
837.029	21869
837.167	21743
837.305	21747
837.443	21660
837.58	21717
837.718	21720
837.856	21656
837.993	21561
838.131	21633
838.269	21447
838.406	21405
838.544	21386
838.681	21207
838.819	21199
838.956	21104
839.094	21142
839.231	21104
839.369	21218
839.506	21431
839.643	21268
839.781	21039
839.918	21066
840.055	21013
840.193	20899
840.33	20899
840.467	20952
840.604	20990
840.742	21180
840.879	20743
841.016	20944
841.153	20830
841.29	21024
841.427	20895
841.564	20861
841.701	20918
841.838	20902
841.975	20811
842.112	20883
842.249	20857
842.385	20674
842.522	20902
842.659	20777
842.796	20701
842.933	20758
843.069	20720
843.206	20750
843.343	20906
843.479	20872
843.616	20899
843.752	20754
843.889	20807
844.025	20880
844.162	20735
844.298	20857
844.435	20944
844.571	21104
844.708	21336
844.844	21671
844.98	21960
845.117	22596
845.253	23064
845.389	24258
845.525	26883
845.661	31072
845.798	36022
845.934	40055
846.07	41482
846.206	40576
846.342	37209
846.478	32149
846.614	27789
846.75	24848
846.886	23083
847.022	22268
847.158	21538
847.294	21013
847.429	20876
847.565	20514
847.701	20636
847.837	20206
847.972	19997
848.108	19974
848.244	19982
848.379	19852
848.515	19738
848.65	19776
848.786	19776
848.921	19647
849.057	19894
849.192	19723
849.328	19639
849.463	19613
849.598	19563
849.734	19491
849.869	19464
850.004	19282
850.14	19308
850.275	19236
850.41	19324
850.545	19263
850.68	19369
850.815	19209
850.95	19419
851.085	19422
851.22	19369
851.355	19282
851.49	19255
851.625	19274
851.76	19327
851.895	19175
852.03	19095
852.165	19282
852.299	19331
852.434	19403
852.569	19415
852.703	19483
852.838	19354
852.973	19525
853.107	19487
853.242	19297
853.376	19198
853.511	19190
853.645	19282
853.78	19449
853.914	19392
854.048	19411
854.183	19426
854.317	19388
854.451	19635
854.585	19422
854.72	19358
854.854	19480
854.988	19365
855.122	19308
855.256	19072
855.39	19274
855.524	19384
855.658	19297
855.792	19217
855.926	19168
856.06	19168
856.194	19263
856.327	19190
856.461	19027
856.595	19072
856.729	19023
856.862	19282
856.996	19103
857.13	19091
857.263	19107
857.397	19084
857.53	18989
857.664	19027
857.797	19114
857.931	19270
858.064	19099
858.197	19137
858.331	19019
858.464	18932
858.597	19015
858.731	19072
858.864	19012
858.997	18935
859.13	18920
859.263	19008
859.396	19015
859.529	18939
859.662	18920
859.795	18894
859.928	18981
860.061	19145
860.194	19000
860.327	19042
860.46	18935
860.592	19080
860.725	19012
860.858	19053
860.99	18935
861.123	18817
861.256	18905
861.388	18913
861.521	19601
861.653	18867
861.786	18673
861.918	18772
862.05	18882
862.183	18928
862.315	18947
862.447	18958
862.58	18909
862.712	18642
862.844	18741
862.976	18749
863.108	18741
863.24	19000
863.372	18639
863.504	18741
863.636	18521
863.768	18738
863.9	18642
864.032	18570
864.164	18635
864.296	18711
864.428	18734
864.559	18608
864.691	18673
864.823	18566
864.954	18555
865.086	18585
865.217	18627
865.349	18441
865.48	18612
865.612	18544
865.743	18639
865.875	18601
866.006	18608
866.137	18540
866.269	18608
866.4	18574
866.531	18456
866.662	18490
866.793	18437
866.924	18490
867.055	18536
867.186	18433
867.317	18441
867.448	18521
867.579	18475
867.71	18483
867.841	18460
867.972	18570
868.103	18616
868.233	18464
868.364	18612
868.495	18665
868.625	18825
868.756	18814
868.886	18795
869.017	18856
869.147	18753
869.278	18795
869.408	18821
869.539	18795
869.669	18882
869.799	18772
869.929	18802
870.06	18875
870.19	19053
870.32	19114
870.45	19110
870.58	19274
870.71	19407
870.84	19301
870.97	19168
871.1	19110
871.23	19388
871.36	19388
871.489	19346
871.619	19362
871.749	19491
871.879	19426
872.008	19609
872.138	19506
872.267	19373
872.397	19381
872.526	19285
872.656	19228
872.785	19384
872.915	19556
873.044	19677
873.173	19514
873.303	19662
873.432	19651
873.561	19658
873.69	19643
873.819	19620
873.948	19742
874.077	19811
874.206	19620
874.335	19677
874.464	19807
874.593	20058
874.722	19993
874.851	20237
874.979	20214
875.108	20183
875.237	20088
875.365	20103
875.494	20134
875.623	20248
875.751	20229
875.88	20305
876.008	20408
876.136	20644
876.265	20705
876.393	20910
876.521	20872
876.65	21055
876.778	20979
876.906	20895
877.034	21005
877.162	21104
877.29	21074
877.418	21146
877.546	21294
877.674	21116
877.802	21397
877.93	21397
878.058	21572
878.185	21694
878.313	21884
878.441	22185
878.568	22428
878.696	22881
878.824	23558
878.951	24315
879.079	25605
879.206	27058
879.333	28615
879.461	29832
879.588	30631
879.715	30768
879.842	30117
879.97	28717
880.097	27020
880.224	25620
880.351	24894
880.478	24350
880.605	23737
880.732	23615
880.859	23592
880.986	23136
881.112	23162
881.239	22984
881.366	22694
881.493	22843
881.619	22592
881.746	22759
881.872	22611
881.999	22748
882.125	22873
882.252	22892
882.378	22873
882.505	22957
882.631	22911
882.757	22721
882.883	22637
883.01	22687
883.136	22668
883.262	22557
883.388	22523
883.514	22611
883.64	22710
883.766	22531
883.892	22371
884.018	22417
884.143	22611
884.269	22710
884.395	22379
884.52	22432
884.646	22390
884.772	22333
884.897	22299
885.023	22295
885.148	22310
885.274	22402
885.399	22356
885.524	22196
885.65	22147
885.775	22029
885.9	21915
886.025	21781
886.15	21850
886.275	21618
886.4	21405
886.525	21272
886.65	21298
886.775	21188
886.9	21173
887.025	21302
887.149	21066
887.274	20804
887.399	20693
887.523	20659
887.648	20507
887.773	20343
887.897	20568
888.021	20473
888.146	20233
888.27	20389
888.395	20377
888.519	20355
888.643	20180
888.767	20164
888.891	19986
889.015	19902
889.139	19864
889.263	19803
889.387	19814
889.511	19970
889.635	19894
889.759	19635
889.883	19814
890.006	19685
890.13	19727
890.254	19575
890.377	19510
890.501	19430
890.624	19266
890.748	19346
890.871	19202
890.995	19050
891.118	18981
891.241	19095
891.364	19213
891.488	19190
891.611	18935
891.734	18924
891.857	18966
891.98	18859
892.103	19069
892.226	18867
892.349	18905
892.471	18703
892.594	18856
892.717	18859
892.839	18677
892.962	18734
893.085	18749
893.207	18810
893.33	18677
893.452	18608
893.575	18658
893.697	18559
893.819	18745
893.941	18711
894.064	18570
894.186	18426
894.308	18452
894.43	18631
894.552	18684
894.674	18494
894.796	18308
894.918	18448
895.04	18357
895.161	18536
895.283	18391
895.405	18365
895.526	18452
895.648	18410
895.769	18388
895.891	18338
896.012	18422
896.134	18456
896.255	18277
896.376	18517
896.498	18456
896.619	18433
896.74	18285
896.861	18304
896.982	18741
897.103	18844
897.224	18677
897.345	18563
897.466	18528
897.587	18654
897.708	18749
897.828	18627
897.949	18498
898.07	18330
898.19	18547
898.311	18715
898.431	18532
898.552	18612
898.672	18585
898.792	18551
898.913	18574
899.033	18456
899.153	18426
899.273	18220
899.393	18292
899.513	18429
899.633	18372
899.753	18372
899.873	18330
899.993	18422
900.113	18224
900.232	18437
900.352	18277
900.472	18129
900.591	18136
900.711	18095
900.83	18095
900.95	18197
901.069	18239
901.189	17965
901.308	17946
901.427	17756
901.546	17828
901.665	17741
901.784	17680
901.904	17630
902.023	17554
902.141	17395
902.26	17109
902.379	17242
902.498	17174
902.617	17052
902.735	17140
902.854	17086
902.973	17109
903.091	16930
903.21	16934
903.328	16828
903.446	16858
903.565	16546
903.683	16668
903.801	16573
903.919	16618
904.038	16546
904.156	16481
904.274	16481
904.392	16352
904.51	16341
904.627	16299
904.745	16447
904.863	16382
904.981	16249
905.098	16055
905.216	16067
905.334	16074
905.451	16010
905.569	16017
905.686	15975
905.803	15987
905.921	15781
906.038	15926
906.155	15778
906.272	15713
906.389	15667
906.506	15591
906.623	15462
906.74	15564
906.857	15386
906.974	15370
907.091	15538
907.208	15580
907.324	15584
907.441	15374
907.557	15329
907.674	15359
907.79	15184
907.907	15150
908.023	15279
908.139	15294
908.256	15108
908.372	15070
908.488	15146
908.604	15097
908.72	14918
908.836	14941
908.952	14948
909.068	14906
909.184	14952
909.3	14914
909.415	14914
909.531	14998
909.647	14617
909.762	14697
909.878	14708
909.993	14640
910.108	14644
910.224	14613
910.339	14667
910.454	14514
910.57	14415
910.685	14374
910.8	14617
910.915	14598
911.03	14480
911.145	14313
911.259	14309
911.374	14195
911.489	14248
911.604	14111
911.718	14027
911.833	14103
911.947	13947
912.062	13875
912.176	13936
912.291	14031
912.405	13997
912.519	14134
912.633	14164
912.748	14065
912.862	13959
912.976	13940
913.09	13830
913.204	13879
913.318	13932
913.431	13856
913.545	13955
913.659	13887
913.772	13826
913.886	13681
914	13734
914.113	13731
914.226	13925
914.34	13871
914.453	13605
914.566	13750
914.68	13666
914.793	13624
914.906	13483
915.019	13464
915.132	13289
915.245	13453
915.358	13438
915.47	13419
915.583	13460
915.696	13445
915.809	13582
915.921	13483
916.034	13350
916.146	13274
916.259	13289
916.371	13411
916.483	13411
916.595	13270
916.708	13251
916.82	13301
916.932	13225
917.044	13327
917.156	13213
917.268	13217
917.38	13179
917.491	13156
917.603	13099
917.715	13122
917.826	13236
917.938	13050
918.049	12977
918.161	13042
918.272	13202
918.384	13156
918.495	13072
918.606	12802
918.717	12894
918.828	12791
918.939	12966
919.05	12848
919.161	12886
919.272	12559
919.383	12753
919.494	12928
919.604	13057
919.715	12821
919.826	12787
919.936	12821
920.047	12871
920.157	12913
920.267	13012
920.378	12871
920.488	12825
920.598	12871
920.708	13114
920.818	13004
920.928	12909
921.038	13095
921.148	13061
921.258	12810
921.368	12700
921.477	12608
921.587	12608
921.697	12433
921.806	12593
921.916	12418
922.025	12365
922.134	12232
922.244	12186
922.353	12289
922.462	12129
922.571	12171
922.68	11984
922.789	11893
922.898	11916
923.007	11843
923.116	11939
923.224	11779
923.333	11832
923.442	11737
923.55	11707
923.659	11688
923.767	11737
923.876	11729
923.984	11794
924.092	11581
924.201	11729
924.309	11611
924.417	11623
924.525	11699
924.633	11600
924.741	12391
924.849	11509
924.956	11619
925.064	11463
925.172	11379
925.279	11444
925.387	11421
925.494	11467
925.602	11512
925.709	11471
925.816	11296
925.924	11383
926.031	11539
926.138	11429
926.245	11497
926.352	11315
926.459	11436
926.566	11421
926.673	11368
926.779	11185
926.886	11242
926.993	11105
927.099	10968
927.206	10999
927.312	10858
927.419	10987
927.525	11006
927.631	10942
927.737	10953
927.843	10923
927.95	10797
928.056	10858
928.162	10911
928.267	10889
928.373	11486
928.479	10946
928.585	10847
928.69	10778
928.796	10923
928.901	10820
929.007	10668
929.112	10831
929.218	10691
929.323	10721
929.428	10615
929.533	10790
929.638	10653
929.743	10508
929.848	10691
929.953	10577
930.058	10519
930.163	10352
930.267	10382
930.372	10523
930.477	10348
930.581	10634
930.685	10451
930.79	10211
930.894	10318
930.998	10295
931.103	10413
931.207	10048
931.311	9926
931.415	9892
931.519	9717
931.623	9698
