Data from test_V78500241_1934.txt Node
Date: Fri Mar 25 14:47:10 CST 2022
User: usil
Spectrometer: V785-0024
Trigger mode: 0
Integration Time (sec): 4.000000E-1
Scans to average: 1
Nonlinearity correction enabled: false
Boxcar width: 0
Storing dark spectrum: false
XAxis mode: Wavelengths
Number of Pixels in Spectrum: 1024
>>>>>Begin Spectral Data<<<<<
801.071	22105
801.214	21918
801.356	21690
801.499	21576
801.641	21370
801.783	21340
801.926	21488
802.068	21435
802.211	21317
802.353	21306
802.496	21074
802.638	20906
802.78	20876
802.923	20872
803.065	20720
803.208	20769
803.35	20785
803.492	20864
803.635	20948
803.777	20689
803.919	20887
804.061	21195
804.204	20937
804.346	20727
804.488	20613
804.63	20758
804.773	20663
804.915	20701
805.057	20826
805.199	20750
805.341	20708
805.483	20830
805.626	20754
805.768	20579
805.91	20716
806.052	20632
806.194	20727
806.336	20754
806.478	20693
806.62	20609
806.762	20583
806.904	20956
807.046	21127
807.188	21032
807.33	21005
807.472	21127
807.614	21009
807.756	20807
807.898	20796
808.04	20762
808.182	20811
808.324	20792
808.465	20952
808.607	20986
808.749	20994
808.891	21180
809.033	21184
809.174	21233
809.316	21028
809.458	21138
809.6	20956
809.741	21218
809.883	21161
810.025	21260
810.166	21272
810.308	21302
810.45	21135
810.591	21001
810.733	20921
810.875	20807
811.016	20853
811.158	20697
811.299	20872
811.441	20941
811.582	20956
811.724	20883
811.865	20777
812.007	20705
812.148	20815
812.29	20857
812.431	20979
812.573	21135
812.714	21165
812.855	21260
812.997	21397
813.138	21538
813.279	21443
813.421	21359
813.562	21157
813.703	21123
813.845	20918
813.986	20697
814.127	20514
814.268	20518
814.41	20381
814.551	20358
814.692	20362
814.833	20328
814.974	20381
815.115	20412
815.256	20237
815.397	20256
815.539	20233
815.68	20157
815.821	19993
815.962	20088
816.103	20195
816.244	20054
816.385	19818
816.526	19822
816.666	19605
816.807	19506
816.948	19616
817.089	19628
817.23	19609
817.371	19540
817.512	19529
817.653	19540
817.793	19464
817.934	19472
818.075	19388
818.216	19635
818.356	19499
818.497	19343
818.638	19160
818.778	19179
818.919	19312
819.06	19297
819.2	19384
819.341	19407
819.481	19392
819.622	19483
819.762	19757
819.903	19708
820.043	19510
820.184	19483
820.324	19514
820.465	19548
820.605	19514
820.746	19514
820.886	19365
821.026	19533
821.167	19540
821.307	19582
821.447	19460
821.588	19270
821.728	19164
821.868	19053
822.008	18943
822.149	18935
822.289	18833
822.429	18646
822.569	18661
822.709	18471
822.849	18441
822.99	18350
823.13	18448
823.27	18414
823.41	18171
823.55	18064
823.69	18144
823.83	18254
823.97	18155
824.11	18034
824.25	17999
824.389	18057
824.529	18068
824.669	17935
824.809	18087
824.949	18076
825.089	18171
825.228	18007
825.368	17817
825.508	17783
825.648	17809
825.787	17798
825.927	17813
826.067	17752
826.206	17707
826.346	17760
826.485	17695
826.625	17828
826.765	17874
826.904	17790
827.044	17630
827.183	17554
827.323	17395
827.462	17474
827.601	17425
827.741	17455
827.88	17455
828.02	17360
828.159	17471
828.298	17452
828.437	17551
828.577	17410
828.716	17577
828.855	17433
828.994	17235
829.134	17250
829.273	17284
829.412	17178
829.551	17086
829.69	17117
829.829	17337
829.968	17216
830.107	17261
830.246	17147
830.385	17162
830.524	17064
830.663	17033
830.802	16904
830.941	16869
831.08	16793
831.219	16995
831.357	16835
831.496	17010
831.635	16850
831.774	16736
831.913	16767
832.051	16588
832.19	16592
832.329	16626
832.467	16535
832.606	16558
832.744	16504
832.883	16603
833.022	16569
833.16	16561
833.299	16717
833.437	16615
833.576	16645
833.714	16656
833.852	16641
833.991	16683
834.129	16740
834.267	16740
834.406	16500
834.544	16546
834.682	16580
834.821	16603
834.959	16774
835.097	16653
835.235	16733
835.373	16615
835.511	16618
835.65	16428
835.788	16497
835.926	16306
836.064	16314
836.202	16367
836.34	16485
836.478	16561
836.615	16504
836.753	16577
836.891	16569
837.029	16504
837.167	16497
837.305	16447
837.443	16367
837.58	16268
837.718	16405
837.856	16447
837.993	16337
838.131	16371
838.269	16333
838.406	16246
838.544	16158
838.681	16147
838.819	16055
838.956	15960
839.094	15998
839.231	16017
839.369	16093
839.506	16409
839.643	16143
839.781	15911
839.918	15922
840.055	15972
840.193	15934
840.33	15823
840.467	15972
840.604	15911
840.742	16238
840.879	15789
841.016	15903
841.153	15892
841.29	15987
841.427	15892
841.564	15994
841.701	15953
841.838	15903
841.975	15903
842.112	15907
842.249	15736
842.385	15610
842.522	15854
842.659	15785
842.796	15682
842.933	15736
843.069	15663
843.206	15648
843.343	15861
843.479	15778
843.616	15633
843.752	15534
843.889	15606
844.025	15622
844.162	15466
844.298	15572
844.435	15523
844.571	15450
844.708	15618
844.844	15652
844.98	15614
845.117	15580
845.253	15488
845.389	15477
845.525	15435
845.661	15439
845.798	15329
845.934	15416
846.07	15260
846.206	15306
846.342	15515
846.478	15222
846.614	15138
846.75	15093
846.886	14979
847.022	15169
847.158	15020
847.294	15104
847.429	15104
847.565	15051
847.701	15298
847.837	14861
847.972	14648
848.108	14826
848.244	14971
848.379	14689
848.515	14735
848.65	14777
848.786	14712
848.921	14712
849.057	14864
849.192	14804
849.328	14640
849.463	14765
849.598	14701
849.734	14598
849.869	14579
850.004	14427
850.14	14503
850.275	14549
850.41	14427
850.545	14324
850.68	14400
850.815	14434
850.95	14473
851.085	14636
851.22	14541
851.355	14583
851.49	14431
851.625	14465
851.76	14427
851.895	14408
852.03	14267
852.165	14465
852.299	14587
852.434	14495
852.569	14480
852.703	14484
852.838	14533
852.973	14507
853.107	14522
853.242	14339
853.376	14309
853.511	14172
853.645	14237
853.78	14492
853.914	14324
854.048	14271
854.183	14237
854.317	14366
854.451	14492
854.585	14313
854.72	14339
854.854	14404
854.988	14206
855.122	14263
855.256	14210
855.39	14320
855.524	14305
855.658	14271
855.792	14396
855.926	14332
856.06	14393
856.194	14434
856.327	14343
856.461	14267
856.595	14263
856.729	14347
856.862	14400
856.996	14275
857.13	14465
857.263	14457
857.397	14518
857.53	14290
857.664	14526
857.797	14454
857.931	14438
858.064	14351
858.197	14415
858.331	14366
858.464	14248
858.597	14195
858.731	14317
858.864	14214
858.997	14343
859.13	14393
859.263	14271
859.396	14351
859.529	14324
859.662	14294
859.795	14221
859.928	14374
860.061	14488
860.194	14564
860.327	14393
860.46	14355
860.592	14442
860.725	14415
860.858	14412
860.99	14396
861.123	14271
861.256	14286
861.388	14275
861.521	14971
861.653	14168
861.786	14218
861.918	14214
862.05	14244
862.183	14343
862.315	14377
862.447	14362
862.58	14309
862.712	14058
862.844	14096
862.976	14115
863.108	14180
863.24	14514
863.372	14081
863.504	14073
863.636	14100
863.768	14058
863.9	14062
864.032	14016
864.164	14058
864.296	14145
864.428	14252
864.559	14237
864.691	14168
864.823	14191
864.954	14183
865.086	14130
865.217	14145
865.349	14149
865.48	14126
865.612	14100
865.743	14153
865.875	14123
866.006	13997
866.137	14069
866.269	14081
866.4	14065
866.531	14058
866.662	13947
866.793	14031
866.924	13997
867.055	14123
867.186	14164
867.317	14016
867.448	13902
867.579	14069
867.71	14084
867.841	13967
867.972	14176
868.103	14103
868.233	14054
868.364	14065
868.495	14180
868.625	14362
868.756	14412
868.886	14267
869.017	14347
869.147	14484
869.278	14377
869.408	14366
869.539	14332
869.669	14412
869.799	14393
869.929	14594
870.06	14355
870.19	14644
870.32	14735
870.45	14693
870.58	14697
870.71	14727
870.84	14785
870.97	14705
871.1	14663
871.23	14941
871.36	14857
871.489	14781
871.619	14899
871.749	14925
871.879	14902
872.008	15093
872.138	14925
872.267	15020
872.397	14762
872.526	14781
872.656	14819
872.785	14788
872.915	14963
873.044	14990
873.173	14975
873.303	14952
873.432	15039
873.561	15112
873.69	15005
873.819	14925
873.948	15085
874.077	14902
874.206	14918
874.335	14948
874.464	15039
874.593	15313
874.722	15279
874.851	15329
874.979	15287
875.108	15359
875.237	15260
875.365	15154
875.494	15230
875.623	15332
875.751	15252
875.88	15351
876.008	15504
876.136	15530
876.265	15679
876.393	15759
876.521	15865
876.65	15819
876.778	15705
876.906	15690
877.034	15679
877.162	15759
877.29	15648
877.418	15660
877.546	15804
877.674	15728
877.802	15762
877.93	15781
878.058	15667
878.185	15701
878.313	15717
878.441	15679
878.568	15538
878.696	15720
878.824	15793
878.951	15789
879.079	15926
879.206	16051
879.333	15934
879.461	15739
879.588	15857
879.715	15960
879.842	16002
879.97	15797
880.097	15545
880.224	15523
880.351	15564
880.478	15576
880.605	15511
880.732	15580
880.859	15808
880.986	15603
881.112	15614
881.239	15473
881.366	15302
881.493	15279
881.619	15245
881.746	15237
881.872	15256
881.999	15184
882.125	15100
882.252	15287
882.378	15218
882.505	15329
882.631	15214
882.757	15119
882.883	15043
883.01	15074
883.136	14979
883.262	14819
883.388	14906
883.514	15085
883.64	15097
883.766	15070
883.892	14796
884.018	14872
884.143	14944
884.269	15081
884.395	14769
884.52	14758
884.646	14697
884.772	14686
884.897	14705
885.023	14701
885.148	14891
885.274	14937
885.399	14861
885.524	14777
885.65	14712
885.775	14754
885.9	14769
886.025	14819
886.15	14807
886.275	14777
886.4	14636
886.525	14815
886.65	14708
886.775	14830
886.9	14838
887.025	15032
887.149	14670
887.274	14571
887.399	14579
887.523	14590
887.648	14469
887.773	14495
887.897	14689
888.021	14644
888.146	14575
888.27	14712
888.395	14667
888.519	14644
888.643	14629
888.767	14655
888.891	14480
889.015	14434
889.139	14415
889.263	14450
889.387	14613
889.511	14640
889.635	14537
889.759	14415
889.883	14389
890.006	14526
890.13	14552
890.254	14355
890.377	14457
890.501	14244
890.624	14252
890.748	14195
890.871	14142
890.995	14126
891.118	14111
891.241	14191
891.364	14176
891.488	14218
891.611	14145
891.734	14183
891.857	14134
891.98	14180
892.103	14180
892.226	14126
892.349	14191
892.471	14016
892.594	14084
892.717	14229
892.839	14084
892.962	14191
893.085	14164
893.207	14119
893.33	13959
893.452	14035
893.575	14126
893.697	14126
893.819	14252
893.941	14305
894.064	14263
894.186	14020
894.308	14138
894.43	14275
894.552	14389
894.674	14275
894.796	14149
894.918	14218
895.04	14031
895.161	14339
895.283	14248
895.405	14145
895.526	14240
895.648	14248
895.769	14301
895.891	14267
896.012	14290
896.134	14374
896.255	14252
896.376	14286
896.498	14263
896.619	14366
896.74	14358
896.861	14351
896.982	14636
897.103	14807
897.224	14613
897.345	14560
897.466	14518
897.587	14636
897.708	14743
897.828	14682
897.949	14480
898.07	14389
898.19	14522
898.311	14667
898.431	14590
898.552	14632
898.672	14708
898.792	14682
898.913	14693
899.033	14610
899.153	14511
899.273	14374
899.393	14484
899.513	14499
899.633	14412
899.753	14552
899.873	14484
899.993	14537
900.113	14465
900.232	14503
900.352	14488
900.472	14412
900.591	14396
900.711	14374
900.83	14355
900.95	14438
901.069	14431
901.189	14328
901.308	14005
901.427	13921
901.546	13982
901.665	13986
901.784	14039
901.904	13887
902.023	13860
902.141	13685
902.26	13533
902.379	13746
902.498	13529
902.617	13499
902.735	13677
902.854	13609
902.973	13445
903.091	13377
903.21	13373
903.328	13244
903.446	13206
903.565	13187
903.683	13183
903.801	13069
903.919	13164
904.038	13171
904.156	12928
904.274	13008
904.392	12951
904.51	12977
904.627	13027
904.745	13034
904.863	13091
904.981	12852
905.098	12764
905.216	12715
905.334	12719
905.451	12726
905.569	12642
905.686	12642
905.803	12703
905.921	12525
906.038	12677
906.155	12490
906.272	12429
906.389	12391
906.506	12330
906.623	12232
906.74	12220
906.857	12159
906.974	12110
907.091	12353
907.208	12342
907.324	12300
907.441	12136
907.557	12034
907.674	11977
907.79	11988
907.907	11961
908.023	12083
908.139	12098
908.256	11927
908.372	12007
908.488	11870
908.604	11832
908.72	11688
908.836	11748
908.952	11779
909.068	11695
909.184	11901
909.3	11767
909.415	11912
909.531	11779
909.647	11532
909.762	11573
909.878	11493
909.993	11573
910.108	11539
910.224	11528
910.339	11512
910.454	11463
910.57	11337
910.685	11368
910.8	11653
910.915	11596
911.03	11478
911.145	11307
911.259	11280
911.374	11284
911.489	11204
911.604	11132
911.718	11033
911.833	11117
911.947	10980
912.062	10877
912.176	11056
912.291	11014
912.405	11071
912.519	11227
912.633	11197
912.748	11159
912.862	11064
912.976	10904
913.09	10809
913.204	10881
913.318	10911
913.431	11022
913.545	10961
913.659	11045
913.772	10915
913.886	10843
914	10812
914.113	10930
914.226	10839
914.34	10900
914.453	10786
914.566	10915
914.68	10744
914.793	10790
914.906	10588
915.019	10558
915.132	10481
915.245	10500
915.358	10615
915.47	10546
915.583	10592
915.696	10641
915.809	10615
915.921	10641
916.034	10497
916.146	10588
916.259	10474
916.371	10702
916.483	10584
916.595	10516
916.708	10485
916.82	10497
916.932	10405
917.044	10535
917.156	10413
917.268	10356
917.38	10428
917.491	10390
917.603	10409
917.715	10478
917.826	10504
917.938	10265
918.049	10322
918.161	10432
918.272	10512
918.384	10592
918.495	10382
918.606	10280
918.717	10188
918.828	10325
918.939	10348
919.05	10139
919.161	10257
919.272	10097
919.383	10097
919.494	10360
919.604	10474
919.715	10265
919.826	10230
919.936	10196
920.047	10341
920.157	10363
920.267	10436
920.378	10402
920.488	10261
920.598	10447
920.708	10656
920.818	10504
920.928	10504
921.038	10607
921.148	10660
921.258	10265
921.368	10204
921.477	10120
921.587	10177
921.697	10017
921.806	10192
921.916	9968
922.025	9903
922.134	9880
922.244	9819
922.353	9842
922.462	9694
922.571	9698
922.68	9519
922.789	9511
922.898	9477
923.007	9466
923.116	9538
923.224	9519
923.333	9584
923.442	9370
923.55	9393
923.659	9428
923.767	9466
923.876	9336
923.984	9492
924.092	9450
924.201	9408
924.309	9515
924.417	9443
924.525	9237
924.633	9378
924.741	10284
924.849	9180
924.956	9393
925.064	9195
925.172	9058
925.279	9138
925.387	9192
925.494	9176
925.602	9298
925.709	9161
925.816	9176
925.924	9249
926.031	9237
926.138	9195
926.245	9298
926.352	9108
926.459	9260
926.566	9264
926.673	9176
926.779	8952
926.886	9081
926.993	8891
927.099	8887
927.206	8800
927.312	8788
927.419	9009
927.525	8902
927.631	8895
927.737	8815
927.843	8811
927.95	8670
928.056	8777
928.162	8720
928.267	8845
928.373	9447
928.479	8933
928.585	8632
928.69	8838
928.796	8819
928.901	8792
929.007	8564
929.112	8663
929.218	8663
929.323	8659
929.428	8651
929.533	8804
929.638	8610
929.743	8545
929.848	8629
929.953	8545
930.058	8484
930.163	8374
930.267	8355
930.372	8511
930.477	8355
930.581	8571
930.685	8446
930.79	8320
930.894	8374
930.998	8298
931.103	8495
931.207	8084
931.311	8043
931.415	8039
931.519	7799
931.623	7792
