Data from test_V78500241_2269.txt Node
Date: Fri Mar 25 14:49:30 CST 2022
User: usil
Spectrometer: V785-0024
Trigger mode: 0
Integration Time (sec): 4.000000E-1
Scans to average: 1
Nonlinearity correction enabled: false
Boxcar width: 0
Storing dark spectrum: false
XAxis mode: Wavelengths
Number of Pixels in Spectrum: 1024
>>>>>Begin Spectral Data<<<<<
801.071	22204
801.214	22173
801.356	21800
801.499	21808
801.641	21485
801.783	21530
801.926	21587
802.068	21485
802.211	21435
802.353	21367
802.496	21157
802.638	21051
802.78	21043
802.923	20948
803.065	20819
803.208	20845
803.35	20921
803.492	21032
803.635	21013
803.777	20895
803.919	20796
804.061	21302
804.204	20967
804.346	20785
804.488	20811
804.63	20811
804.773	20739
804.915	20861
805.057	20830
805.199	20754
805.341	20952
805.483	20891
805.626	20921
805.768	20804
805.91	20819
806.052	20838
806.194	20697
806.336	20834
806.478	20754
806.62	20693
806.762	20845
806.904	21062
807.046	21268
807.188	21104
807.33	21154
807.472	21233
807.614	21074
807.756	21093
807.898	20967
808.04	20838
808.182	20899
808.324	20857
808.465	20986
808.607	21127
808.749	21260
808.891	21348
809.033	21317
809.174	21249
809.316	21085
809.458	21287
809.6	21195
809.741	21237
809.883	21272
810.025	21332
810.166	21233
810.308	21363
810.45	21237
810.591	21226
810.733	21173
810.875	20994
811.016	20902
811.158	20716
811.299	21001
811.441	21188
811.582	21047
811.724	21017
811.865	20914
812.007	20933
812.148	21028
812.29	21062
812.431	21154
812.573	21233
812.714	21485
812.855	21408
812.997	21545
813.138	21690
813.279	21534
813.421	21439
813.562	21359
813.703	21275
813.845	21146
813.986	20838
814.127	20682
814.268	20617
814.41	20598
814.551	20549
814.692	20549
814.833	20522
814.974	20408
815.115	20469
815.256	20263
815.397	20259
815.539	20320
815.68	20237
815.821	20191
815.962	20168
816.103	20206
816.244	20187
816.385	19947
816.526	19986
816.666	19753
816.807	19510
816.948	19807
817.089	19753
817.23	19700
817.371	19559
817.512	19605
817.653	19571
817.793	19548
817.934	19632
818.075	19715
818.216	19704
818.356	19639
818.497	19487
818.638	19392
818.778	19335
818.919	19285
819.06	19354
819.2	19537
819.341	19556
819.481	19419
819.622	19521
819.762	19906
819.903	19734
820.043	19639
820.184	19567
820.324	19704
820.465	19666
820.605	19521
820.746	19571
820.886	19567
821.026	19521
821.167	19529
821.307	19586
821.447	19651
821.588	19472
821.728	19388
821.868	19213
822.008	19034
822.149	19000
822.289	19088
822.429	18829
822.569	18719
822.709	18661
822.849	18566
822.99	18582
823.13	18585
823.27	18467
823.41	18376
823.55	18209
823.69	18296
823.83	18251
823.97	18285
824.11	18083
824.25	18106
824.389	18095
824.529	18140
824.669	18098
824.809	18186
824.949	18117
825.089	18270
825.228	18015
825.368	17912
825.508	17901
825.648	17958
825.787	17832
825.927	17935
826.067	17855
826.206	17798
826.346	17847
826.485	17889
826.625	17809
826.765	18049
826.904	17813
827.044	17638
827.183	17672
827.323	17493
827.462	17604
827.601	17486
827.741	17493
827.88	17608
828.02	17414
828.159	17528
828.298	17600
828.437	17714
828.577	17417
828.716	17676
828.855	17402
828.994	17292
829.134	17379
829.273	17436
829.412	17322
829.551	17273
829.69	17334
829.829	17356
829.968	17452
830.107	17288
830.246	17273
830.385	17220
830.524	17143
830.663	17124
830.802	17086
830.941	16900
831.08	16797
831.219	16984
831.357	16919
831.496	17124
831.635	16835
831.774	16866
831.913	16691
832.051	16736
832.19	16660
832.329	16725
832.467	16607
832.606	16615
832.744	16512
832.883	16653
833.022	16599
833.16	16527
833.299	16523
833.437	16603
833.576	16618
833.714	16664
833.852	16596
833.991	16698
834.129	16771
834.267	16790
834.406	16694
834.544	16733
834.682	16622
834.821	16630
834.959	16759
835.097	16569
835.235	16618
835.373	16618
835.511	16702
835.65	16470
835.788	16481
835.926	16390
836.064	16421
836.202	16287
836.34	16607
836.478	16675
836.615	16561
836.753	16618
836.891	16634
837.029	16516
837.167	16402
837.305	16459
837.443	16356
837.58	16402
837.718	16363
837.856	16470
837.993	16382
838.131	16421
838.269	16226
838.406	16394
838.544	16207
838.681	16188
838.819	15998
838.956	16032
839.094	15949
839.231	15968
839.369	16017
839.506	16386
839.643	16234
839.781	15979
839.918	15915
840.055	15934
840.193	15964
840.33	15888
840.467	15949
840.604	15880
840.742	16150
840.879	15854
841.016	15770
841.153	15884
841.29	16032
841.427	15937
841.564	15956
841.701	15892
841.838	15888
841.975	15823
842.112	15850
842.249	15812
842.385	15690
842.522	15899
842.659	15728
842.796	15580
842.933	15568
843.069	15751
843.206	15660
843.343	15819
843.479	15755
843.616	15861
843.752	15599
843.889	15458
844.025	15705
844.162	15416
844.298	15667
844.435	15378
844.571	15374
844.708	15492
844.844	15572
844.98	15591
845.117	15603
845.253	15336
845.389	15416
845.525	15367
845.661	15408
845.798	15272
845.934	15336
846.07	15226
846.206	15439
846.342	15386
846.478	15272
846.614	15119
846.75	15093
846.886	15138
847.022	15116
847.158	15108
847.294	15119
847.429	15093
847.565	15036
847.701	15310
847.837	14762
847.972	14716
848.108	14956
848.244	14838
848.379	14792
848.515	14659
848.65	14693
848.786	14697
848.921	14644
849.057	14705
849.192	14815
849.328	14613
849.463	14773
849.598	14602
849.734	14587
849.869	14507
850.004	14454
850.14	14514
850.275	14442
850.41	14358
850.545	14362
850.68	14446
850.815	14461
850.95	14347
851.085	14568
851.22	14556
851.355	14507
851.49	14370
851.625	14393
851.76	14374
851.895	14347
852.03	14248
852.165	14358
852.299	14484
852.434	14484
852.569	14427
852.703	14389
852.838	14522
852.973	14583
853.107	14587
853.242	14355
853.376	14332
853.511	14168
853.645	14164
853.78	14404
853.914	14313
854.048	14183
854.183	14252
854.317	14286
854.451	14457
854.585	14320
854.72	14233
854.854	14286
854.988	14244
855.122	14290
855.256	14126
855.39	14237
855.524	14389
855.658	14343
855.792	14351
855.926	14324
856.06	14404
856.194	14366
856.327	14259
856.461	14248
856.595	14286
856.729	14225
856.862	14351
856.996	14358
857.13	14385
857.263	14404
857.397	14518
857.53	14267
857.664	14374
857.797	14362
857.931	14313
858.064	14294
858.197	14442
858.331	14259
858.464	14282
858.597	14130
858.731	14317
858.864	14317
858.997	14187
859.13	14275
859.263	14313
859.396	14408
859.529	14305
859.662	14202
859.795	14248
859.928	14374
860.061	14465
860.194	14446
860.327	14309
860.46	14313
860.592	14343
860.725	14415
860.858	14305
860.99	14343
861.123	14180
861.256	14206
861.388	14309
861.521	14883
861.653	14263
861.786	14054
861.918	14183
862.05	14168
862.183	14214
862.315	14183
862.447	14298
862.58	14301
862.712	14027
862.844	13989
862.976	14142
863.108	14115
863.24	14473
863.372	13978
863.504	14062
863.636	14107
863.768	14096
863.9	13982
864.032	14065
864.164	13989
864.296	14084
864.428	14149
864.559	14123
864.691	14218
864.823	14081
864.954	14035
865.086	14149
865.217	13982
865.349	14027
865.48	14024
865.612	14050
865.743	14142
865.875	14043
866.006	14027
866.137	14043
866.269	14005
866.4	14046
866.531	14031
866.662	14001
866.793	13967
866.924	13986
867.055	14081
867.186	14081
867.317	13993
867.448	13928
867.579	13940
867.71	14001
867.841	13955
867.972	14096
868.103	14088
868.233	14031
868.364	14077
868.495	14035
868.625	14271
868.756	14324
868.886	14164
869.017	14229
869.147	14393
869.278	14476
869.408	14351
869.539	14282
869.669	14309
869.799	14290
869.929	14461
870.06	14393
870.19	14674
870.32	14587
870.45	14667
870.58	14640
870.71	14819
870.84	14800
870.97	14705
871.1	14697
871.23	14925
871.36	14941
871.489	14823
871.619	14876
871.749	14941
871.879	14975
872.008	15081
872.138	14880
872.267	14895
872.397	14785
872.526	14785
872.656	14758
872.785	14731
872.915	14956
873.044	14956
873.173	14902
873.303	14979
873.432	14948
873.561	15024
873.69	14929
873.819	14941
873.948	15039
874.077	14963
874.206	14830
874.335	14998
874.464	15066
874.593	15245
874.722	15272
874.851	15256
874.979	15321
875.108	15298
875.237	15287
875.365	15176
875.494	15184
875.623	15386
875.751	15176
875.88	15287
876.008	15435
876.136	15477
876.265	15591
876.393	15812
876.521	15686
876.65	15797
876.778	15679
876.906	15713
877.034	15584
877.162	15633
877.29	15652
877.418	15675
877.546	15701
877.674	15637
877.802	15739
877.93	15644
878.058	15660
878.185	15675
878.313	15660
878.441	15644
878.568	15614
878.696	15603
878.824	15652
878.951	15785
879.079	15888
879.206	16021
879.333	15759
879.461	15812
879.588	15785
879.715	15895
879.842	15960
879.97	15713
880.097	15466
880.224	15538
880.351	15576
880.478	15549
880.605	15466
880.732	15633
880.859	15724
880.986	15591
881.112	15538
881.239	15462
881.366	15256
881.493	15252
881.619	15135
881.746	15226
881.872	15195
881.999	15169
882.125	15161
882.252	15252
882.378	15336
882.505	15313
882.631	15138
882.757	14944
882.883	15108
883.01	15051
883.136	14883
883.262	14792
883.388	14826
883.514	14948
883.64	15013
883.766	14986
883.892	14724
884.018	14929
884.143	15062
884.269	15104
884.395	14686
884.52	14678
884.646	14720
884.772	14629
884.897	14632
885.023	14731
885.148	14769
885.274	14861
885.399	14777
885.524	14735
885.65	14629
885.775	14800
885.9	14750
886.025	14796
886.15	14845
886.275	14579
886.4	14556
886.525	14674
886.65	14552
886.775	14640
886.9	14815
887.025	14895
887.149	14727
887.274	14560
887.399	14492
887.523	14533
887.648	14434
887.773	14480
887.897	14613
888.021	14537
888.146	14442
888.27	14667
888.395	14746
888.519	14518
888.643	14636
888.767	14541
888.891	14450
889.015	14339
889.139	14370
889.263	14450
889.387	14495
889.511	14606
889.635	14552
889.759	14336
889.883	14332
890.006	14473
890.13	14560
890.254	14427
890.377	14423
890.501	14290
890.624	14225
890.748	14263
890.871	14180
890.995	14016
891.118	13997
891.241	14145
891.364	14077
891.488	14172
891.611	14054
891.734	14123
891.857	14195
891.98	14073
892.103	14168
892.226	14130
892.349	14050
892.471	14054
892.594	14069
892.717	14161
892.839	14050
892.962	14092
893.085	14191
893.207	14008
893.33	14016
893.452	14020
893.575	14020
893.697	13978
893.819	14275
893.941	14271
894.064	14202
894.186	13947
894.308	14039
894.43	14172
894.552	14263
894.674	14195
894.796	14103
894.918	14157
895.04	14138
895.161	14381
895.283	14252
895.405	14187
895.526	14172
895.648	14305
895.769	14221
895.891	14290
896.012	14286
896.134	14282
896.255	14275
896.376	14145
896.498	14290
896.619	14324
896.74	14252
896.861	14476
896.982	14682
897.103	14823
897.224	14651
897.345	14571
897.466	14412
897.587	14598
897.708	14686
897.828	14545
897.949	14511
898.07	14419
898.19	14488
898.311	14720
898.431	14537
898.552	14636
898.672	14735
898.792	14682
898.913	14697
899.033	14651
899.153	14366
899.273	14374
899.393	14419
899.513	14556
899.633	14503
899.753	14564
899.873	14507
899.993	14522
900.113	14465
900.232	14530
900.352	14381
900.472	14419
900.591	14286
900.711	14434
900.83	14313
900.95	14393
901.069	14518
901.189	14317
901.308	14115
901.427	13982
901.546	13993
901.665	13955
901.784	14077
901.904	13978
902.023	13837
902.141	13643
902.26	13575
902.379	13731
902.498	13658
902.617	13575
902.735	13700
902.854	13605
902.973	13441
903.091	13400
903.21	13308
903.328	13335
903.446	13251
903.565	13202
903.683	13122
903.801	13114
903.919	13133
904.038	13110
904.156	13046
904.274	13137
904.392	12928
904.51	12981
904.627	12890
904.745	13015
904.863	13110
904.981	12791
905.098	12623
905.216	12673
905.334	12662
905.451	12673
905.569	12635
905.686	12753
905.803	12658
905.921	12513
906.038	12623
906.155	12448
906.272	12372
906.389	12403
906.506	12228
906.623	12216
906.74	12243
906.857	12144
906.974	12155
907.091	12266
907.208	12403
907.324	12251
907.441	12106
907.557	12053
907.674	12049
907.79	11935
907.907	11958
908.023	11942
908.139	11946
908.256	11977
908.372	12007
908.488	11832
908.604	11813
908.72	11748
908.836	11722
908.952	11767
909.068	11726
909.184	11927
909.3	11813
909.415	11828
909.531	11836
909.647	11524
909.762	11619
909.878	11493
909.993	11619
910.108	11520
910.224	11471
910.339	11524
910.454	11459
910.57	11406
910.685	11277
910.8	11657
910.915	11482
911.03	11383
911.145	11292
911.259	11212
911.374	11303
911.489	11235
911.604	11086
911.718	11010
911.833	11018
911.947	10923
912.062	10790
912.176	10972
912.291	11025
912.405	10949
912.519	11170
912.633	11109
912.748	11037
912.862	10957
912.976	10934
913.09	10752
913.204	10862
913.318	10809
913.431	10965
913.545	10987
913.659	11045
913.772	10812
913.886	10786
914	10820
914.113	10892
914.226	10854
914.34	10839
914.453	10702
914.566	10805
914.68	10691
914.793	10748
914.906	10500
915.019	10428
915.132	10462
915.245	10462
915.358	10489
915.47	10523
915.583	10523
915.696	10527
915.809	10656
915.921	10645
916.034	10508
916.146	10470
916.259	10451
916.371	10561
916.483	10512
916.595	10318
916.708	10371
916.82	10344
916.932	10466
917.044	10417
917.156	10352
917.268	10382
917.38	10394
917.491	10375
917.603	10322
917.715	10462
917.826	10413
917.938	10363
918.049	10234
918.161	10261
918.272	10542
918.384	10504
918.495	10299
918.606	10181
918.717	10169
918.828	10204
918.939	10169
919.05	10185
919.161	10207
919.272	9975
919.383	10071
919.494	10204
919.604	10428
919.715	10265
919.826	10124
919.936	10204
920.047	10249
920.157	10173
920.267	10440
920.378	10284
920.488	10196
920.598	10459
920.708	10561
920.818	10417
920.928	10390
921.038	10599
921.148	10527
921.258	10280
921.368	10097
921.477	10093
921.587	10063
921.697	9975
921.806	10048
921.916	10013
922.025	9835
922.134	9770
922.244	9690
922.353	9808
922.462	9781
922.571	9545
922.68	9481
922.789	9504
922.898	9454
923.007	9401
923.116	9519
923.224	9481
923.333	9462
923.442	9416
923.55	9294
923.659	9344
923.767	9374
923.876	9237
923.984	9367
924.092	9260
924.201	9348
924.309	9340
924.417	9321
924.525	9321
924.633	9268
924.741	10242
924.849	9104
924.956	9264
925.064	9138
925.172	9066
925.279	9024
925.387	9116
925.494	9195
925.602	9241
925.709	9222
925.816	9024
925.924	9108
926.031	9249
926.138	9108
926.245	9211
926.352	8990
926.459	9207
926.566	9283
926.673	9009
926.779	8998
926.886	9051
926.993	8849
927.099	8788
927.206	8853
927.312	8766
927.419	8899
927.525	8845
927.631	8956
927.737	8762
927.843	8724
927.95	8617
928.056	8678
928.162	8758
928.267	8754
928.373	9500
928.479	8845
928.585	8537
928.69	8727
928.796	8781
928.901	8590
929.007	8476
929.112	8689
929.218	8560
929.323	8549
929.428	8545
929.533	8750
929.638	8499
929.743	8560
929.848	8606
929.953	8541
930.058	8473
930.163	8275
930.267	8362
930.372	8450
930.477	8282
930.581	8530
930.685	8427
930.79	8252
930.894	8332
930.998	8248
931.103	8434
931.207	8103
931.311	8100
931.415	7963
931.519	7826
931.623	7784
