Data from test_V78500241_819.txt Node
Date: Fri Mar 25 14:39:25 CST 2022
User: usil
Spectrometer: V785-0024
Trigger mode: 0
Integration Time (sec): 4.000000E-1
Scans to average: 1
Nonlinearity correction enabled: false
Boxcar width: 0
Storing dark spectrum: false
XAxis mode: Wavelengths
Number of Pixels in Spectrum: 1024
>>>>>Begin Spectral Data<<<<<
801.071	26320
801.214	26370
801.356	25921
801.499	25772
801.641	25780
801.783	25734
801.926	25712
802.068	25624
802.211	25491
802.353	25301
802.496	25145
802.638	25251
802.78	25175
802.923	25076
803.065	25065
803.208	25008
803.35	25114
803.492	25061
803.635	25346
803.777	25213
803.919	25213
804.061	25533
804.204	25244
804.346	25213
804.488	25190
804.63	25312
804.773	25228
804.915	25289
805.057	25377
805.199	25525
805.341	25411
805.483	25746
805.626	25647
805.768	25738
805.91	25662
806.052	25826
806.194	25784
806.336	26111
806.478	26263
806.62	26256
806.762	26636
806.904	26815
807.046	27329
807.188	27492
807.33	27724
807.472	28181
807.614	28626
807.756	29501
807.898	29862
808.04	31088
808.182	32556
808.324	34481
808.465	36566
808.607	38998
808.749	41140
808.891	42319
809.033	42376
809.174	41273
809.316	39001
809.458	36734
809.6	34211
809.741	32229
809.883	30798
810.025	29840
810.166	29029
810.308	28409
810.45	27968
810.591	27561
810.733	27077
810.875	26807
811.016	26438
811.158	26313
811.299	26339
811.441	26400
811.582	26180
811.724	26073
811.865	25906
812.007	25788
812.148	25803
812.29	25689
812.431	25909
812.573	26016
812.714	26119
812.855	26126
812.997	26199
813.138	26233
813.279	26130
813.421	26088
813.562	25852
813.703	25761
813.845	25575
813.986	25354
814.127	25183
814.268	25095
814.41	24814
814.551	24928
814.692	24916
814.833	24776
814.974	24741
815.115	24859
815.256	24570
815.397	24604
815.539	24772
815.68	24498
815.821	24372
815.962	24426
816.103	24467
816.244	24277
816.385	24266
816.526	24243
816.666	24133
816.807	23805
816.948	23847
817.089	23851
817.23	23931
817.371	23748
817.512	23767
817.653	23760
817.793	23710
817.934	23760
818.075	23748
818.216	23668
818.356	23638
818.497	23566
818.638	23330
818.778	23398
818.919	23425
819.06	23554
819.2	23684
819.341	23615
819.481	23589
819.622	23775
819.762	23745
819.903	23893
820.043	23672
820.184	23600
820.324	23657
820.465	23608
820.605	23646
820.746	23611
820.886	23452
821.026	23554
821.167	23524
821.307	23581
821.447	23573
821.588	23425
821.728	23242
821.868	23086
822.008	22904
822.149	22949
822.289	22809
822.429	22626
822.569	22599
822.709	22459
822.849	22497
822.99	22402
823.13	22333
823.27	22284
823.41	22177
823.55	21972
823.69	22234
823.83	22196
823.97	22109
824.11	21945
824.25	21892
824.389	21975
824.529	22044
824.669	21869
824.809	22013
824.949	21945
825.089	21934
825.228	21960
825.368	21587
825.508	21701
825.648	21667
825.787	21747
825.927	21800
826.067	21629
826.206	21572
826.346	21599
826.485	21686
826.625	21629
826.765	21743
826.904	21633
827.044	21412
827.183	21325
827.323	21321
827.462	21332
827.601	21184
827.741	21233
827.88	21268
828.02	21199
828.159	21241
828.298	21294
828.437	21370
828.577	21192
828.716	21340
828.855	21218
828.994	21119
829.134	21013
829.273	21222
829.412	20960
829.551	20948
829.69	20902
829.829	21020
829.968	21005
830.107	21142
830.246	20998
830.385	20925
830.524	20918
830.663	20868
830.802	20651
830.941	20568
831.08	20606
831.219	20621
831.357	20659
831.496	20838
831.635	20507
831.774	20606
831.913	20537
832.051	20400
832.19	20431
832.329	20552
832.467	20465
832.606	20358
832.744	20400
832.883	20518
833.022	20450
833.16	20507
833.299	20667
833.437	20804
833.576	20727
833.714	20944
833.852	21108
833.991	21176
834.129	21252
834.267	21279
834.406	21096
834.544	21184
834.682	20948
834.821	20906
834.959	20994
835.097	20785
835.235	20785
835.373	20701
835.511	20537
835.65	20503
835.788	20248
835.926	20149
836.064	19974
836.202	20088
836.34	20233
836.478	20237
836.615	20229
836.753	20145
836.891	20259
837.029	20221
837.167	20176
837.305	19989
837.443	19989
837.58	19894
837.718	20005
837.856	20073
837.993	19944
838.131	19894
838.269	19902
838.406	19807
838.544	19784
838.681	19616
838.819	19685
838.956	19495
839.094	19430
839.231	19449
839.369	19613
839.506	19780
839.643	19556
839.781	19358
839.918	19301
840.055	19411
840.193	19403
840.33	19339
840.467	19331
840.604	19392
840.742	19620
840.879	19194
841.016	19346
841.153	19297
841.29	19521
841.427	19476
841.564	19354
841.701	19331
841.838	19350
841.975	19232
842.112	19232
842.249	19232
842.385	19148
842.522	19263
842.659	19133
842.796	19072
842.933	19270
843.069	19297
843.206	19240
843.343	19152
843.479	19251
843.616	19350
843.752	19072
843.889	19183
844.025	19358
844.162	19259
844.298	19419
844.435	19407
844.571	19419
844.708	19761
844.844	20191
844.98	20412
845.117	20800
845.253	21439
845.389	22672
845.525	25084
845.661	29083
845.798	33922
845.934	37742
846.07	39169
846.206	38381
846.342	35288
846.478	30365
846.614	26138
846.75	23174
846.886	21515
847.022	20651
847.158	19928
847.294	19491
847.429	19335
847.565	18962
847.701	19228
847.837	18688
847.972	18513
848.108	18559
848.244	18467
848.379	18174
848.515	18254
848.65	18144
848.786	18171
848.921	18133
849.057	18273
849.192	18209
849.328	18155
849.463	18167
849.598	18049
849.734	18003
849.869	18011
850.004	17786
850.14	17878
850.275	17847
850.41	17707
850.545	17726
850.68	17748
850.815	17828
850.95	17767
851.085	17977
851.22	17923
851.355	17821
851.49	17817
851.625	17764
851.76	17737
851.895	17687
852.03	17657
852.165	17756
852.299	17809
852.434	17920
852.569	17859
852.703	17885
852.838	17908
852.973	18117
853.107	17969
853.242	17821
853.376	17767
853.511	17604
853.645	17798
853.78	17897
853.914	17836
854.048	17821
854.183	17916
854.317	17916
854.451	18083
854.585	17935
854.72	17870
854.854	18060
854.988	17882
855.122	17863
855.256	17596
855.39	17615
855.524	17729
855.658	17729
855.792	17821
855.926	17726
856.06	17676
856.194	17760
856.327	17600
856.461	17505
856.595	17615
856.729	17642
856.862	17718
856.996	17741
857.13	17714
857.263	17714
857.397	17745
857.53	17665
857.664	17649
857.797	17566
857.931	17722
858.064	17668
858.197	17581
858.331	17558
858.464	17520
858.597	17334
858.731	17478
858.864	17356
858.997	17543
859.13	17608
859.263	17558
859.396	17592
859.529	17406
859.662	17474
859.795	17429
859.928	17474
860.061	17623
860.194	17634
860.327	17543
860.46	17509
860.592	17611
860.725	17615
860.858	17524
860.99	17421
861.123	17455
861.256	17345
861.388	17379
861.521	18038
861.653	17303
861.786	17311
861.918	17288
862.05	17391
862.183	17463
862.315	17410
862.447	17528
862.58	17471
862.712	17246
862.844	17166
862.976	17326
863.108	17284
863.24	17509
863.372	17166
863.504	17170
863.636	17162
863.768	17231
863.9	17170
864.032	17102
864.164	17147
864.296	17162
864.428	17269
864.559	17166
864.691	17269
864.823	17155
864.954	17197
865.086	17132
865.217	17223
865.349	17064
865.48	17109
865.612	17064
865.743	17231
865.875	17098
866.006	17105
866.137	17037
866.269	17098
866.4	17098
866.531	17109
866.662	17052
866.793	17162
866.924	17033
867.055	17105
867.186	17010
867.317	17056
867.448	16987
867.579	17117
867.71	17025
867.841	17003
867.972	17067
868.103	17041
868.233	17102
868.364	17178
868.495	17212
868.625	17239
868.756	17535
868.886	17307
869.017	17318
869.147	17493
869.278	17433
869.408	17417
869.539	17372
869.669	17554
869.799	17455
869.929	17512
870.06	17474
870.19	17623
870.32	17722
870.45	17649
870.58	17722
870.71	17783
870.84	17851
870.97	17786
871.1	17843
871.23	17927
871.36	17980
871.489	17878
871.619	17954
871.749	18083
871.879	18064
872.008	18190
872.138	18133
872.267	17961
872.397	17980
872.526	17813
872.656	17874
872.785	17912
872.915	18194
873.044	18133
873.173	18167
873.303	18224
873.432	18296
873.561	18300
873.69	18216
873.819	18266
873.948	18395
874.077	18289
874.206	18254
874.335	18235
874.464	18494
874.593	18608
874.722	18601
874.851	18681
874.979	18642
875.108	18772
875.237	18566
875.365	18661
875.494	18757
875.623	18863
875.751	18909
875.88	18901
876.008	19015
876.136	19107
876.265	19403
876.393	19533
876.521	19377
876.65	19491
876.778	19647
876.906	19556
877.034	19613
877.162	19693
877.29	19670
877.418	19700
877.546	19818
877.674	19822
877.802	19925
877.93	19989
878.058	20069
878.185	20412
878.313	20541
878.441	20811
878.568	20826
878.696	21416
878.824	21960
878.951	22858
879.079	24026
879.206	25407
879.333	26918
879.461	28226
879.588	29105
879.715	28877
879.842	28493
879.97	26933
880.097	25236
880.224	24018
880.351	23383
880.478	22706
880.605	22272
880.732	22017
880.859	21979
880.986	21686
881.112	21614
881.239	21473
881.366	21329
881.493	21268
881.619	21104
881.746	21116
881.872	21230
881.999	21203
882.125	21207
882.252	21447
882.378	21245
882.505	21511
882.631	21275
882.757	21283
882.883	21329
883.01	21218
883.136	21150
883.262	21032
883.388	21013
883.514	21241
883.64	21112
883.766	21058
883.892	20994
884.018	20948
884.143	21119
884.269	21127
884.395	21005
884.52	20941
884.646	20971
884.772	20811
884.897	20777
885.023	20921
885.148	20948
885.274	20933
885.399	20773
885.524	20769
885.65	20579
885.775	20537
885.9	20290
886.025	20438
886.15	20195
886.275	20043
886.4	19951
886.525	19944
886.65	19780
886.775	19685
886.9	19693
887.025	19776
887.149	19582
887.274	19396
887.399	19206
887.523	19133
887.648	19110
887.773	18989
887.897	19042
888.021	19027
888.146	18909
888.27	19000
888.395	18875
888.519	18871
888.643	18814
888.767	18829
888.891	18783
889.015	18471
889.139	18604
889.263	18384
889.387	18467
889.511	18700
889.635	18502
889.759	18281
889.883	18300
890.006	18452
890.13	18338
890.254	18239
890.377	18129
890.501	18022
890.624	17794
890.748	17958
890.871	17851
890.995	17798
891.118	17646
891.241	17764
891.364	17790
891.488	17802
891.611	17596
891.734	17665
891.857	17775
891.98	17699
892.103	17615
892.226	17646
892.349	17558
892.471	17341
892.594	17554
892.717	17516
892.839	17402
892.962	17512
893.085	17512
893.207	17448
893.33	17265
893.452	17204
893.575	17379
893.697	17269
893.819	17482
893.941	17535
894.064	17444
894.186	17273
894.308	17113
894.43	17307
894.552	17433
894.674	17296
894.796	17075
894.918	17223
895.04	17223
895.161	17220
895.283	17212
895.405	17105
895.526	17185
895.648	17166
895.769	17094
895.891	17296
896.012	17216
896.134	17246
896.255	17185
896.376	17056
896.498	17159
896.619	17185
896.74	17208
896.861	17307
896.982	17410
897.103	17596
897.224	17421
897.345	17505
897.466	17216
897.587	17277
897.708	17436
897.828	17303
897.949	17235
898.07	17208
898.19	17337
898.311	17433
898.431	17303
898.552	17284
898.672	17398
898.792	17478
898.913	17436
899.033	17235
899.153	17181
899.273	17098
899.393	17124
899.513	17128
899.633	17140
899.753	17212
899.873	17105
899.993	17200
900.113	17174
900.232	17250
900.352	17170
900.472	16991
900.591	16934
900.711	17056
900.83	16927
900.95	17143
901.069	17056
901.189	16873
901.308	16782
901.427	16565
901.546	16679
901.665	16580
901.784	16519
901.904	16405
902.023	16447
902.141	16090
902.26	16128
902.379	16154
902.498	16063
902.617	15983
902.735	16086
902.854	16109
902.973	16040
903.091	15724
903.21	15774
903.328	15694
903.446	15614
903.565	15610
903.683	15576
903.801	15420
903.919	15530
904.038	15450
904.156	15359
904.274	15374
904.392	15272
904.51	15176
904.627	15306
904.745	15287
904.863	15313
904.981	15039
905.098	14933
905.216	14891
905.334	14937
905.451	14933
905.569	14925
905.686	14918
905.803	14899
905.921	14705
906.038	14819
906.155	14731
906.272	14568
906.389	14610
906.506	14526
906.623	14514
906.74	14473
906.857	14408
906.974	14393
907.091	14522
907.208	14549
907.324	14503
907.441	14336
907.557	14240
907.674	14111
907.79	14229
907.907	14153
908.023	14202
908.139	14252
908.256	14138
908.372	14027
908.488	14221
908.604	13944
908.72	13811
908.836	13921
908.952	13830
909.068	13890
909.184	13970
909.3	13837
909.415	13894
909.531	13795
909.647	13655
909.762	13632
909.878	13616
909.993	13624
910.108	13559
910.224	13620
910.339	13594
910.454	13514
910.57	13400
910.685	13506
910.8	13681
910.915	13578
911.03	13457
911.145	13278
911.259	13282
911.374	13335
911.489	13198
911.604	13190
911.718	13080
911.833	13072
911.947	12867
912.062	12852
912.176	12970
912.291	13019
912.405	13050
912.519	13171
912.633	13194
912.748	13065
912.862	12981
912.976	12901
913.09	12707
913.204	12844
913.318	12924
913.431	13000
913.545	12966
913.659	13031
913.772	12901
913.886	12829
914	12730
914.113	12745
914.226	12837
914.34	12867
914.453	12585
914.566	12817
914.68	12692
914.793	12772
914.906	12429
915.019	12429
915.132	12369
915.245	12502
915.358	12494
915.47	12456
915.583	12452
915.696	12559
915.809	12604
915.921	12608
916.034	12460
916.146	12319
916.259	12407
916.371	12452
916.483	12467
916.595	12311
916.708	12315
916.82	12388
916.932	12414
917.044	12395
917.156	12277
917.268	12201
917.38	12232
917.491	12182
917.603	12251
917.715	12342
917.826	12311
917.938	12152
918.049	12060
918.161	12121
918.272	12384
918.384	12315
918.495	12194
918.606	12026
918.717	11958
918.828	12026
918.939	11980
919.05	11863
919.161	12011
919.272	11752
919.383	11813
919.494	12095
919.604	12216
919.715	11984
919.826	11904
919.936	11912
920.047	12114
920.157	12072
920.267	12133
920.378	12060
920.488	11969
920.598	12182
920.708	12308
920.818	12114
920.928	12235
921.038	12338
921.148	12311
921.258	11901
921.368	11931
921.477	11824
921.587	11809
921.697	11596
921.806	11828
921.916	11676
922.025	11474
922.134	11539
922.244	11395
922.353	11436
922.462	11410
922.571	11269
922.68	11094
922.789	11086
922.898	11094
923.007	10991
923.116	11113
923.224	11071
923.333	11105
923.442	10953
923.55	11022
923.659	10991
923.767	11064
923.876	10957
923.984	10946
924.092	10858
924.201	10965
924.309	10949
924.417	10904
924.525	10866
924.633	10911
924.741	11756
924.849	10637
924.956	10744
925.064	10660
925.172	10546
925.279	10596
925.387	10672
925.494	10717
925.602	10767
925.709	10653
925.816	10516
925.924	10618
926.031	10706
926.138	10584
926.245	10702
926.352	10615
926.459	10656
926.566	10702
926.673	10577
926.779	10470
926.886	10443
926.993	10261
927.099	10333
927.206	10310
927.312	10322
927.419	10375
927.525	10322
927.631	10360
927.737	10223
927.843	10139
927.95	10101
928.056	10192
928.162	10177
928.267	10257
928.373	10763
928.479	10272
928.585	10116
928.69	10230
928.796	10147
928.901	10097
929.007	9915
929.112	10010
929.218	10059
929.323	10063
929.428	9998
929.533	10067
929.638	9865
929.743	9937
929.848	9987
929.953	9937
930.058	9869
930.163	9732
930.267	9698
930.372	9865
930.477	9682
930.581	9949
930.685	9698
930.79	9671
930.894	9686
930.998	9606
931.103	9736
931.207	9450
931.311	9340
931.415	9222
931.519	9047
931.623	9077
