Data from test_V78500241_417.txt Node
Date: Fri Mar 25 14:36:37 CST 2022
User: usil
Spectrometer: V785-0024
Trigger mode: 0
Integration Time (sec): 4.000000E-1
Scans to average: 1
Nonlinearity correction enabled: false
Boxcar width: 0
Storing dark spectrum: false
XAxis mode: Wavelengths
Number of Pixels in Spectrum: 1024
>>>>>Begin Spectral Data<<<<<
801.071	26773
801.214	26545
801.356	26366
801.499	26317
801.641	26138
801.783	26164
801.926	26153
802.068	25982
802.211	25921
802.353	25871
802.496	25704
802.638	25655
802.78	25685
802.923	25476
803.065	25575
803.208	25521
803.35	25586
803.492	25624
803.635	25704
803.777	25559
803.919	25693
804.061	25913
804.204	25628
804.346	25476
804.488	25407
804.63	25548
804.773	25525
804.915	25563
805.057	25753
805.199	25537
805.341	25643
805.483	25696
805.626	25704
805.768	25537
805.91	25655
806.052	25647
806.194	25426
806.336	25674
806.478	25647
806.62	25700
806.762	25704
806.904	25997
807.046	26119
807.188	26027
807.33	26005
807.472	26062
807.614	25898
807.756	25951
807.898	25799
808.04	25776
808.182	25788
808.324	25757
808.465	25917
808.607	26039
808.749	26062
808.891	26252
809.033	26313
809.174	26324
809.316	26142
809.458	26081
809.6	25978
809.741	26103
809.883	26313
810.025	26225
810.166	26225
810.308	26336
810.45	26195
810.591	26164
810.733	26035
810.875	26016
811.016	25925
811.158	25925
811.299	26005
811.441	26210
811.582	26077
811.724	25974
811.865	25906
812.007	26012
812.148	25883
812.29	26134
812.431	26153
812.573	26267
812.714	26305
812.855	26625
812.997	26495
813.138	26640
813.279	26415
813.421	26476
813.562	26313
813.703	26081
813.845	26176
813.986	25742
814.127	25658
814.268	25533
814.41	25533
814.551	25491
814.692	25506
814.833	25426
814.974	25324
815.115	25419
815.256	25297
815.397	25422
815.539	25346
815.68	25225
815.821	25263
815.962	25285
816.103	25133
816.244	25008
816.385	24962
816.526	24863
816.666	24817
816.807	24608
816.948	24707
817.089	24711
817.23	24661
817.371	24700
817.512	24650
817.653	24570
817.793	24650
817.934	24635
818.075	24681
818.216	24658
818.356	24429
818.497	24350
818.638	24266
818.778	24232
818.919	24232
819.06	24369
819.2	24464
819.341	24540
819.481	24494
819.622	24555
819.762	24844
819.903	24688
820.043	24806
820.184	24551
820.324	24589
820.465	24696
820.605	24639
820.746	24525
820.886	24517
821.026	24570
821.167	24509
821.307	24734
821.447	24585
821.588	24414
821.728	24262
821.868	24095
822.008	23984
822.149	24015
822.289	23984
822.429	23657
822.569	23619
822.709	23600
822.849	23459
822.99	23391
823.13	23280
823.27	23334
823.41	23140
823.55	23086
823.69	23143
823.83	23185
823.97	23128
824.11	23075
824.25	22885
824.389	23003
824.529	22995
824.669	22995
824.809	23094
824.949	23094
825.089	22904
825.228	22976
825.368	22866
825.508	22847
825.648	22885
825.787	22771
825.927	22953
826.067	22774
826.206	22588
826.346	22729
826.485	22854
826.625	22759
826.765	22877
826.904	22786
827.044	22470
827.183	22561
827.323	22451
827.462	22550
827.601	22417
827.741	22390
827.88	22421
828.02	22295
828.159	22314
828.298	22428
828.437	22535
828.577	22268
828.716	22500
828.855	22341
828.994	22169
829.134	22162
829.273	22185
829.412	22101
829.551	22063
829.69	22036
829.829	22124
829.968	22215
830.107	22147
830.246	22143
830.385	22078
830.524	21918
830.663	21888
830.802	21915
830.941	21701
831.08	21686
831.219	21846
831.357	21728
831.496	21937
831.635	21568
831.774	21561
831.913	21583
832.051	21583
832.19	21329
832.329	21485
832.467	21275
832.606	21321
832.744	21488
832.883	21325
833.022	21462
833.16	21469
833.299	21367
833.437	21359
833.576	21443
833.714	21359
833.852	21420
833.991	21302
834.129	21378
834.267	21515
834.406	21355
834.544	21344
834.682	21367
834.821	21393
834.959	21587
835.097	21256
835.235	21443
835.373	21374
835.511	21416
835.65	21245
835.788	21150
835.926	20998
836.064	20906
836.202	21028
836.34	21165
836.478	21329
836.615	21135
836.753	21192
836.891	21367
837.029	21154
837.167	21138
837.305	21165
837.443	21043
837.58	21142
837.718	21329
837.856	21043
837.993	21028
838.131	21100
838.269	20899
838.406	20952
838.544	20853
838.681	20746
838.819	20762
838.956	20522
839.094	20549
839.231	20655
839.369	20785
839.506	20921
839.643	20636
839.781	20381
839.918	20484
840.055	20587
840.193	20522
840.33	20389
840.467	20533
840.604	20507
840.742	20686
840.879	20298
841.016	20355
841.153	20301
841.29	20446
841.427	20336
841.564	20423
841.701	20423
841.838	20328
841.975	20271
842.112	20377
842.249	20176
842.385	20107
842.522	20442
842.659	20111
842.796	20161
842.933	20005
843.069	20149
843.206	20092
843.343	20229
843.479	20187
843.616	20191
843.752	19898
843.889	19909
844.025	20012
844.162	19917
844.298	20039
844.435	19875
844.571	19776
844.708	19982
844.844	20069
844.98	19989
845.117	19902
845.253	19871
845.389	19689
845.525	19761
845.661	19822
845.798	19696
845.934	19708
846.07	19734
846.206	19658
846.342	19837
846.478	19681
846.614	19441
846.75	19327
846.886	19377
847.022	19324
847.158	19400
847.294	19274
847.429	19369
847.565	19350
847.701	19533
847.837	19072
847.972	19023
848.108	19080
848.244	19103
848.379	18973
848.515	18844
848.65	18875
848.786	18871
848.921	18909
849.057	19034
849.192	18897
849.328	19061
849.463	18973
849.598	19031
849.734	18825
849.869	18833
850.004	18741
850.14	18715
850.275	18730
850.41	18631
850.545	18620
850.68	18730
850.815	18635
850.95	18696
851.085	18875
851.22	18852
851.355	18688
851.49	18578
851.625	18597
851.76	18631
851.895	18490
852.03	18506
852.165	18589
852.299	18669
852.434	18734
852.569	18593
852.703	18757
852.838	18673
852.973	18760
853.107	18722
853.242	18593
853.376	18407
853.511	18380
853.645	18418
853.78	18582
853.914	18559
854.048	18388
854.183	18410
854.317	18479
854.451	18601
854.585	18517
854.72	18448
854.854	18509
854.988	18414
855.122	18536
855.256	18422
855.39	18399
855.524	18429
855.658	18536
855.792	18483
855.926	18544
856.06	18570
856.194	18620
856.327	18437
856.461	18407
856.595	18308
856.729	18418
856.862	18490
856.996	18525
857.13	18608
857.263	18452
857.397	18578
857.53	18494
857.664	18536
857.797	18445
857.931	18528
858.064	18346
858.197	18536
858.331	18570
858.464	18369
858.597	18266
858.731	18330
858.864	18369
858.997	18353
859.13	18407
859.263	18391
859.396	18410
859.529	18410
859.662	18380
859.795	18323
859.928	18319
860.061	18559
860.194	18711
860.327	18414
860.46	18350
860.592	18509
860.725	18593
860.858	18486
860.99	18342
861.123	18254
861.256	18289
861.388	18433
861.521	19179
861.653	18285
861.786	18201
861.918	18281
862.05	18334
862.183	18429
862.315	18418
862.447	18528
862.58	18407
862.712	18251
862.844	18155
862.976	18235
863.108	18186
863.24	18467
863.372	18057
863.504	18152
863.636	18155
863.768	18114
863.9	18102
864.032	18041
864.164	18022
864.296	18133
864.428	18201
864.559	18091
864.691	18133
864.823	18182
864.954	18163
865.086	17988
865.217	18064
865.349	18057
865.48	18117
865.612	18079
865.743	18095
865.875	18091
866.006	18022
866.137	18117
866.269	18117
866.4	17992
866.531	18060
866.662	17996
866.793	17961
866.924	18026
867.055	17950
867.186	18026
867.317	17851
867.448	17912
867.579	17939
867.71	18049
867.841	17961
867.972	17999
868.103	17885
868.233	18022
868.364	17942
868.495	18155
868.625	18136
868.756	18289
868.886	18045
869.017	18235
869.147	18235
869.278	18262
869.408	18194
869.539	18243
869.669	18384
869.799	18270
869.929	18437
870.06	18338
870.19	18483
870.32	18601
870.45	18551
870.58	18700
870.71	18738
870.84	18677
870.97	18486
871.1	18658
871.23	18734
871.36	18806
871.489	18783
871.619	18795
871.749	18703
871.879	18814
872.008	18943
872.138	18798
872.267	18760
872.397	18673
872.526	18783
872.656	18631
872.785	18601
872.915	18825
873.044	18924
873.173	18840
873.303	18867
873.432	18825
873.561	18924
873.69	18863
873.819	18856
873.948	18886
874.077	18882
874.206	18757
874.335	18882
874.464	18966
874.593	19061
874.722	19091
874.851	19107
874.979	19183
875.108	19244
875.237	19046
875.365	18966
875.494	19080
875.623	19042
875.751	19099
875.88	19198
876.008	19148
876.136	19396
876.265	19628
876.393	19689
876.521	19552
876.65	19689
876.778	19563
876.906	19468
877.034	19540
877.162	19658
877.29	19426
877.418	19506
877.546	19601
877.674	19586
877.802	19544
877.93	19559
878.058	19403
878.185	19426
878.313	19544
878.441	19521
878.568	19304
878.696	19529
878.824	19590
878.951	19476
879.079	19712
879.206	19757
879.333	19693
879.461	19620
879.588	19685
879.715	19791
879.842	19822
879.97	19613
880.097	19324
880.224	19327
880.351	19411
880.478	19392
880.605	19327
880.732	19343
880.859	19632
880.986	19438
881.112	19373
881.239	19346
881.366	19171
881.493	19038
881.619	19133
881.746	19088
881.872	18993
881.999	18901
882.125	18954
882.252	19114
882.378	19129
882.505	19015
882.631	18920
882.757	18749
882.883	18833
883.01	18798
883.136	18741
883.262	18692
883.388	18570
883.514	18776
883.64	18684
883.766	18760
883.892	18574
884.018	18528
884.143	18787
884.269	18810
884.395	18521
884.52	18342
884.646	18372
884.772	18361
884.897	18277
885.023	18452
885.148	18490
885.274	18536
885.399	18445
885.524	18281
885.65	18407
885.775	18319
885.9	18388
886.025	18506
886.15	18452
886.275	18262
886.4	18327
886.525	18296
886.65	18270
886.775	18395
886.9	18437
887.025	18650
887.149	18353
887.274	18251
887.399	18194
887.523	18216
887.648	18136
887.773	18022
887.897	18254
888.021	18190
888.146	18083
888.27	18319
888.395	18300
888.519	18300
888.643	18114
888.767	18232
888.891	18011
889.015	18030
889.139	18038
889.263	18038
889.387	18098
889.511	18270
889.635	18053
889.759	17988
889.883	17958
890.006	17984
890.13	18121
890.254	17980
890.377	17958
890.501	17745
890.624	17691
890.748	17741
890.871	17687
890.995	17558
891.118	17547
891.241	17722
891.364	17638
891.488	17729
891.611	17703
891.734	17547
891.857	17703
891.98	17604
892.103	17577
892.226	17532
892.349	17676
892.471	17493
892.594	17535
892.717	17490
892.839	17467
892.962	17615
893.085	17596
893.207	17520
893.33	17444
893.452	17417
893.575	17573
893.697	17512
893.819	17710
893.941	17710
894.064	17596
894.186	17493
894.308	17387
894.43	17722
894.552	17707
894.674	17718
894.796	17535
894.918	17448
895.04	17638
895.161	17566
895.283	17668
895.405	17554
895.526	17566
895.648	17604
895.769	17577
895.891	17680
896.012	17676
896.134	17665
896.255	17551
896.376	17528
896.498	17695
896.619	17604
896.74	17573
896.861	17642
896.982	18011
897.103	18121
897.224	18007
897.345	17904
897.466	17847
897.587	17866
897.708	17878
897.828	17984
897.949	17779
898.07	17813
898.19	17760
898.311	17980
898.431	17874
898.552	17817
898.672	17958
898.792	17885
898.913	17851
899.033	17748
899.153	17638
899.273	17596
899.393	17596
899.513	17661
899.633	17684
899.753	17665
899.873	17535
899.993	17764
900.113	17608
900.232	17813
900.352	17653
900.472	17558
900.591	17402
900.711	17379
900.83	17471
900.95	17497
901.069	17528
901.189	17402
901.308	17235
901.427	17174
901.546	17181
901.665	17105
901.784	17181
901.904	17045
902.023	16976
902.141	16672
902.26	16752
902.379	16721
902.498	16641
902.617	16615
902.735	16660
902.854	16577
902.973	16569
903.091	16322
903.21	16329
903.328	16295
903.446	16192
903.565	16246
903.683	16147
903.801	16036
903.919	16021
904.038	15956
904.156	16032
904.274	15994
904.392	15918
904.51	15846
904.627	15899
904.745	15983
904.863	15953
904.981	15755
905.098	15576
905.216	15610
905.334	15728
905.451	15633
905.569	15515
905.686	15561
905.803	15542
905.921	15401
906.038	15492
906.155	15374
906.272	15241
906.389	15306
906.506	15264
906.623	15112
906.74	15116
906.857	15074
906.974	14971
907.091	15218
907.208	15321
907.324	15260
907.441	15032
907.557	14823
907.674	14758
907.79	14682
907.907	14792
908.023	14807
908.139	14944
908.256	14804
908.372	14765
908.488	14708
908.604	14514
908.72	14571
908.836	14526
908.952	14522
909.068	14545
909.184	14648
909.3	14514
909.415	14590
909.531	14579
909.647	14309
909.762	14248
909.878	14259
909.993	14191
910.108	14180
910.224	14240
910.339	14229
910.454	14191
910.57	14168
910.685	14046
910.8	14233
910.915	14153
911.03	14062
911.145	13974
911.259	13814
911.374	13936
911.489	13871
911.604	13723
911.718	13662
911.833	13651
911.947	13582
912.062	13499
912.176	13616
912.291	13620
912.405	13727
912.519	13746
912.633	13833
912.748	13556
912.862	13636
912.976	13472
913.09	13304
913.204	13449
913.318	13476
913.431	13563
913.545	13540
913.659	13643
913.772	13480
913.886	13331
914	13316
914.113	13468
914.226	13445
914.34	13472
914.453	13293
914.566	13495
914.68	13209
914.793	13171
914.906	13034
915.019	13042
915.132	12897
915.245	12932
915.358	13050
915.47	12962
915.583	12989
915.696	12985
915.809	13076
915.921	13118
916.034	12966
916.146	12909
916.259	12913
916.371	12935
916.483	12943
916.595	12825
916.708	12798
916.82	12905
916.932	12848
917.044	12829
917.156	12738
917.268	12787
917.38	12779
917.491	12738
917.603	12749
917.715	12894
917.826	12814
917.938	12677
918.049	12566
918.161	12669
918.272	12795
918.384	12825
918.495	12734
918.606	12597
918.717	12471
918.828	12490
918.939	12582
919.05	12414
919.161	12467
919.272	12285
919.383	12346
919.494	12498
919.604	12692
919.715	12506
919.826	12388
919.936	12502
920.047	12506
920.157	12486
920.267	12677
920.378	12585
920.488	12528
920.598	12631
920.708	12798
920.818	12726
920.928	12673
921.038	12840
921.148	12703
921.258	12483
921.368	12327
921.477	12304
921.587	12232
921.697	12140
921.806	12254
921.916	12102
922.025	12030
922.134	11954
922.244	11920
922.353	11901
922.462	11790
922.571	11748
922.68	11672
922.789	11611
922.898	11649
923.007	11490
923.116	11596
923.224	11585
923.333	11543
923.442	11459
923.55	11315
923.659	11452
923.767	11608
923.876	11402
923.984	11551
924.092	11345
924.201	11414
924.309	11330
924.417	11368
924.525	11379
924.633	11337
924.741	12251
924.849	11143
924.956	11277
925.064	11121
925.172	11033
925.279	11151
925.387	11124
925.494	11102
925.602	11216
925.709	11273
925.816	11010
925.924	11079
926.031	11162
926.138	11086
926.245	11181
926.352	11003
926.459	11102
926.566	11094
926.673	10968
926.779	10942
926.886	10961
926.993	10771
927.099	10748
927.206	10656
927.312	10694
927.419	10786
927.525	10774
927.631	10771
927.737	10675
927.843	10580
927.95	10516
928.056	10519
928.162	10630
928.267	10664
928.373	11231
928.479	10672
928.585	10485
928.69	10577
928.796	10687
928.901	10508
929.007	10333
929.112	10500
929.218	10478
929.323	10424
929.428	10367
929.533	10512
929.638	10299
929.743	10360
929.848	10322
929.953	10371
930.058	10268
930.163	9994
930.267	10112
930.372	10306
930.477	10093
930.581	10230
930.685	10150
930.79	9926
930.894	10013
930.998	10021
931.103	10044
931.207	9740
931.311	9724
931.415	9622
931.519	9428
931.623	9454
