Data from test_V78500241_672.txt Node
Date: Fri Mar 25 14:38:23 CST 2022
User: usil
Spectrometer: V785-0024
Trigger mode: 0
Integration Time (sec): 4.000000E-1
Scans to average: 1
Nonlinearity correction enabled: false
Boxcar width: 0
Storing dark spectrum: false
XAxis mode: Wavelengths
Number of Pixels in Spectrum: 1024
>>>>>Begin Spectral Data<<<<<
801.071	28120
801.214	28048
801.356	27774
801.499	27846
801.641	27568
801.783	27583
801.926	27557
802.068	27382
802.211	27188
802.353	27313
802.496	27077
802.638	27142
802.78	27093
802.923	26982
803.065	27009
803.208	27028
803.35	27017
803.492	27188
803.635	27165
803.777	27058
803.919	27355
804.061	27603
804.204	27249
804.346	27207
804.488	27268
804.63	27397
804.773	27245
804.915	27325
805.057	27675
805.199	27568
805.341	27694
805.483	27762
805.626	27861
805.768	27709
805.91	27816
806.052	28120
806.194	28135
806.336	28523
806.478	28577
806.62	28683
806.762	28953
806.904	29379
807.046	29901
807.188	30182
807.33	30490
807.472	31240
807.614	31727
807.756	32743
807.898	33739
808.04	35414
808.182	37407
808.324	39895
808.465	42992
808.607	46169
808.749	48958
808.891	50849
809.033	50925
809.174	49263
809.316	46348
809.458	43103
809.6	39633
809.741	36894
809.883	34698
810.025	33370
810.166	32290
810.308	31449
810.45	30753
810.591	30342
810.733	29680
810.875	29410
811.016	29052
811.158	28809
811.299	28744
811.441	28607
811.582	28550
811.724	28306
811.865	28169
812.007	28063
812.148	28067
812.29	28051
812.431	28070
812.573	28120
812.714	28322
812.855	28185
812.997	28192
813.138	28322
813.279	28192
813.421	28139
813.562	27960
813.703	27713
813.845	27568
813.986	27348
814.127	27013
814.268	26834
814.41	26929
814.551	26754
814.692	26952
814.833	26849
814.974	26663
815.115	26773
815.256	26564
815.397	26518
815.539	26571
815.68	26275
815.821	26366
815.962	26404
816.103	26233
816.244	26199
816.385	26069
816.526	25978
816.666	25784
816.807	25723
816.948	25837
817.089	25685
817.23	25715
817.371	25647
817.512	25582
817.653	25476
817.793	25537
817.934	25666
818.075	25552
818.216	25609
818.356	25350
818.497	25308
818.638	25263
818.778	25236
818.919	25240
819.06	25228
819.2	25362
819.341	25529
819.481	25426
819.622	25597
819.762	25715
819.903	25681
820.043	25556
820.184	25521
820.324	25563
820.465	25540
820.605	25449
820.746	25228
820.886	25381
821.026	25362
821.167	25460
821.307	25331
821.447	25209
821.588	24909
821.728	25012
821.868	24890
822.008	24719
822.149	24555
822.289	24612
822.429	24479
822.569	24304
822.709	24277
822.849	24129
822.99	24174
823.13	24041
823.27	24057
823.41	23878
823.55	23653
823.69	23889
823.83	23897
823.97	23859
824.11	23592
824.25	23611
824.389	23741
824.529	23733
824.669	23627
824.809	23638
824.949	23684
825.089	23817
825.228	23649
825.368	23379
825.508	23459
825.648	23459
825.787	23474
825.927	23600
826.067	23322
826.206	23398
826.346	23376
826.485	23531
826.625	23372
826.765	23600
826.904	23474
827.044	23322
827.183	23132
827.323	23075
827.462	23124
827.601	23143
827.741	23067
827.88	23193
828.02	22980
828.159	23029
828.298	23029
828.437	23006
828.577	22934
828.716	23132
828.855	23033
828.994	22710
829.134	22733
829.273	22820
829.412	22573
829.551	22687
829.69	22778
829.829	22752
829.968	22702
830.107	22740
830.246	22771
830.385	22763
830.524	22664
830.663	22588
830.802	22363
830.941	22325
831.08	22371
831.219	22447
831.357	22379
831.496	22626
831.635	22325
831.774	22341
831.913	22356
832.051	22101
832.19	22276
832.329	22139
832.467	22169
832.606	22131
832.744	22181
832.883	22223
833.022	22375
833.16	22402
833.299	22584
833.437	22675
833.576	22839
833.714	22904
833.852	23147
833.991	23124
834.129	23280
834.267	23376
834.406	23227
834.544	23227
834.682	23105
834.821	22995
834.959	23022
835.097	22656
835.235	22611
835.373	22489
835.511	22356
835.65	22242
835.788	22143
835.926	21949
836.064	21835
836.202	21823
836.34	22067
836.478	22025
836.615	21857
836.753	21876
836.891	22093
837.029	21854
837.167	21808
837.305	21717
837.443	21720
837.58	21618
837.718	21690
837.856	21698
837.993	21625
838.131	21633
838.269	21454
838.406	21538
838.544	21492
838.681	21294
838.819	21351
838.956	21013
839.094	21043
839.231	21070
839.369	21249
839.506	21454
839.643	21340
839.781	21047
839.918	21005
840.055	21055
840.193	21104
840.33	20895
840.467	21005
840.604	21074
840.742	21294
840.879	21058
841.016	20872
841.153	20868
841.29	21161
841.427	21024
841.564	20979
841.701	21036
841.838	20933
841.975	20868
842.112	20872
842.249	20746
842.385	20804
842.522	21005
842.659	20804
842.796	20785
842.933	20895
843.069	20906
843.206	20895
843.343	21013
843.479	20925
843.616	21036
843.752	20727
843.889	20880
844.025	21123
844.162	20948
844.298	21123
844.435	21241
844.571	21561
844.708	21785
844.844	22158
844.98	22577
845.117	23204
845.253	24041
845.389	25887
845.525	29585
845.661	35364
845.798	42152
845.934	47345
846.07	49202
846.206	47531
846.342	42886
846.478	36049
846.614	30213
846.75	26488
846.886	24346
847.022	22965
847.158	22025
847.294	21469
847.429	21135
847.565	20899
847.701	21001
847.837	20454
847.972	20183
848.108	20145
848.244	20103
848.379	20065
848.515	19959
848.65	19826
848.786	20027
848.921	19799
849.057	19894
849.192	19917
849.328	19791
849.463	19609
849.598	19776
849.734	19655
849.869	19540
850.004	19499
850.14	19533
850.275	19457
850.41	19320
850.545	19377
850.68	19384
850.815	19480
850.95	19373
851.085	19609
851.22	19316
851.355	19365
851.49	19327
851.625	19278
851.76	19381
851.895	19400
852.03	19221
852.165	19285
852.299	19571
852.434	19499
852.569	19445
852.703	19449
852.838	19449
852.973	19518
853.107	19510
853.242	19468
853.376	19381
853.511	19301
853.645	19457
853.78	19620
853.914	19480
854.048	19445
854.183	19708
854.317	19731
854.451	19826
854.585	19719
854.72	19616
854.854	19677
854.988	19430
855.122	19518
855.256	19285
855.39	19518
855.524	19476
855.658	19453
855.792	19438
855.926	19396
856.06	19403
856.194	19434
856.327	19240
856.461	19145
856.595	19160
856.729	19225
856.862	19266
856.996	19236
857.13	19304
857.263	19373
857.397	19289
857.53	19152
857.664	19232
857.797	19236
857.931	19141
858.064	19088
858.197	19297
858.331	19015
858.464	19065
858.597	19027
858.731	19095
858.864	19137
858.997	19057
859.13	19042
859.263	19103
859.396	19156
859.529	19084
859.662	18962
859.795	19031
859.928	19107
860.061	19148
860.194	19232
860.327	19091
860.46	19038
860.592	19171
860.725	19171
860.858	19126
860.99	18951
861.123	18958
861.256	18920
861.388	19027
861.521	19677
861.653	18867
861.786	18935
861.918	18901
862.05	19008
862.183	19000
862.315	19031
862.447	19057
862.58	18878
862.712	18722
862.844	18627
862.976	18661
863.108	18745
863.24	19023
863.372	18646
863.504	18688
863.636	18764
863.768	18703
863.9	18658
864.032	18627
864.164	18604
864.296	18612
864.428	18646
864.559	18661
864.691	18798
864.823	18726
864.954	18753
865.086	18715
865.217	18578
865.349	18502
865.48	18608
865.612	18722
865.743	18711
865.875	18597
866.006	18623
866.137	18673
866.269	18582
866.4	18559
866.531	18673
866.662	18456
866.793	18574
866.924	18521
867.055	18460
867.186	18559
867.317	18483
867.448	18441
867.579	18483
867.71	18376
867.841	18410
867.972	18616
868.103	18593
868.233	18612
868.364	18555
868.495	18791
868.625	18772
868.756	18901
868.886	18741
869.017	18928
869.147	19008
869.278	18977
869.408	18844
869.539	18859
869.669	18989
869.799	18890
869.929	18909
870.06	18966
870.19	19152
870.32	19053
870.45	19270
870.58	19293
870.71	19441
870.84	19384
870.97	19232
871.1	19415
871.23	19460
871.36	19495
871.489	19445
871.619	19449
871.749	19510
871.879	19582
872.008	19567
872.138	19605
872.267	19514
872.397	19567
872.526	19483
872.656	19495
872.785	19449
872.915	19704
873.044	19712
873.173	19693
873.303	19837
873.432	19765
873.561	19871
873.69	19799
873.819	19719
873.948	19852
874.077	19864
874.206	19826
874.335	19997
874.464	20134
874.593	20233
874.722	20218
874.851	20355
874.979	20309
875.108	20408
875.237	20374
875.365	20400
875.494	20419
875.623	20457
875.751	20476
875.88	20492
876.008	20731
876.136	20944
876.265	21077
876.393	21195
876.521	21195
876.65	21382
876.778	21313
876.906	21378
877.034	21317
877.162	21469
877.29	21416
877.418	21644
877.546	21743
877.674	21812
877.802	21972
877.93	22173
878.058	22139
878.185	22341
878.313	22622
878.441	22873
878.568	23277
878.696	23927
878.824	24760
878.951	25723
879.079	27393
879.206	29410
879.333	31495
879.461	33245
879.588	34291
879.715	34196
879.842	33488
879.97	31586
880.097	29535
880.224	27861
880.351	26682
880.478	25776
880.605	25069
880.732	24760
880.859	24661
880.986	24448
881.112	24304
881.239	24053
881.366	23942
881.493	23923
881.619	23813
881.746	23863
881.872	23824
881.999	23916
882.125	23980
882.252	24091
882.378	24178
882.505	24144
882.631	24083
882.757	23851
882.883	24026
883.01	23920
883.136	23684
883.262	23619
883.388	23809
883.514	23870
883.64	23878
883.766	23695
883.892	23554
884.018	23566
884.143	23802
884.269	23813
884.395	23668
884.52	23627
884.646	23531
884.772	23562
884.897	23493
885.023	23551
885.148	23642
885.274	23657
885.399	23505
885.524	23277
885.65	23223
885.775	23113
885.9	22892
886.025	22885
886.15	22744
886.275	22440
886.4	22344
886.525	22112
886.65	22166
886.775	21956
886.9	21930
887.025	22055
887.149	21732
887.274	21469
887.399	21294
887.523	21348
887.648	21089
887.773	21043
887.897	21150
888.021	21104
888.146	20960
888.27	20853
888.395	20895
888.519	20731
888.643	20667
888.767	20800
888.891	20465
889.015	20393
889.139	20412
889.263	20313
889.387	20434
889.511	20370
889.635	20259
889.759	20183
889.883	20096
890.006	20240
890.13	20195
890.254	19944
890.377	19849
890.501	19784
890.624	19632
890.748	19712
890.871	19613
890.995	19426
891.118	19392
891.241	19403
891.364	19331
891.488	19537
891.611	19327
891.734	19304
891.857	19400
891.98	19255
892.103	19266
892.226	19209
892.349	19206
892.471	18985
892.594	19012
892.717	19069
892.839	18989
892.962	19004
893.085	19129
893.207	18996
893.33	18833
893.452	18734
893.575	19031
893.697	18795
893.819	18970
893.941	18981
894.064	18856
894.186	18650
894.308	18707
894.43	18863
894.552	18757
894.674	18787
894.796	18639
894.918	18551
895.04	18620
895.161	18593
895.283	18570
895.405	18471
895.526	18620
895.648	18532
895.769	18532
895.891	18570
896.012	18593
896.134	18547
896.255	18479
896.376	18475
896.498	18502
896.619	18517
896.74	18456
896.861	18479
896.982	18856
897.103	18913
897.224	18677
897.345	18681
897.466	18506
897.587	18642
897.708	18730
897.828	18734
897.949	18536
898.07	18410
898.19	18544
898.311	18707
898.431	18673
898.552	18681
898.672	18719
898.792	18681
898.913	18570
899.033	18677
899.153	18471
899.273	18388
899.393	18281
899.513	18384
899.633	18410
899.753	18372
899.873	18372
899.993	18509
900.113	18376
900.232	18262
900.352	18372
900.472	18292
900.591	18182
900.711	18159
900.83	18194
900.95	18209
901.069	18258
901.189	18106
901.308	17847
901.427	17798
901.546	17767
901.665	17786
901.784	17722
901.904	17680
902.023	17528
902.141	17223
902.26	17273
902.379	17288
902.498	17208
902.617	17060
902.735	17288
902.854	17227
902.973	17155
903.091	16797
903.21	16828
903.328	16911
903.446	16713
903.565	16637
903.683	16637
903.801	16481
903.919	16634
904.038	16558
904.156	16409
904.274	16447
904.392	16329
904.51	16417
904.627	16402
904.745	16436
904.863	16386
904.981	16067
905.098	15960
905.216	15991
905.334	15956
905.451	15884
905.569	15865
905.686	16029
905.803	16067
905.921	15766
906.038	15827
906.155	15766
906.272	15770
906.389	15770
906.506	15557
906.623	15382
906.74	15488
906.857	15393
906.974	15458
907.091	15652
907.208	15576
907.324	15496
907.441	15424
907.557	15241
907.674	15207
907.79	15077
907.907	15093
908.023	15310
908.139	15184
908.256	15184
908.372	15013
908.488	15150
908.604	14967
908.72	14864
908.836	14891
908.952	14887
909.068	14887
909.184	15020
909.3	15032
909.415	14906
909.531	15032
909.647	14640
909.762	14655
909.878	14621
909.993	14667
910.108	14621
910.224	14552
910.339	14644
910.454	14450
910.57	14476
910.685	14366
910.8	14610
910.915	14632
911.03	14488
911.145	14351
911.259	14225
911.374	14237
911.489	14206
911.604	14134
911.718	14111
911.833	14027
911.947	13951
912.062	13898
912.176	14046
912.291	13970
912.405	14138
912.519	14103
912.633	14206
912.748	13997
912.862	13982
912.976	13936
913.09	13772
913.204	13799
913.318	13925
913.431	13963
913.545	13963
913.659	14054
913.772	13750
913.886	13681
914	13639
914.113	13780
914.226	13769
914.34	13719
914.453	13655
914.566	13780
914.68	13628
914.793	13540
914.906	13445
915.019	13403
915.132	13312
915.245	13304
915.358	13441
915.47	13339
915.583	13388
915.696	13403
915.809	13495
915.921	13525
916.034	13350
916.146	13346
916.259	13263
916.371	13449
916.483	13297
916.595	13407
916.708	13304
916.82	13285
916.932	13308
917.044	13289
917.156	13240
917.268	13187
917.38	13194
917.491	13236
917.603	13164
917.715	13190
917.826	13164
917.938	13095
918.049	12973
918.161	13187
918.272	13080
918.384	13126
918.495	13091
918.606	12947
918.717	12814
918.828	12935
918.939	12848
919.05	12867
919.161	12787
919.272	12612
919.383	12684
919.494	12878
919.604	13069
919.715	12760
919.826	12791
919.936	12696
920.047	12882
920.157	12905
920.267	12981
920.378	12779
920.488	12791
920.598	12954
920.708	13156
920.818	13080
920.928	13031
921.038	13057
921.148	13076
921.258	12719
921.368	12715
921.477	12513
921.587	12639
921.697	12509
921.806	12551
921.916	12456
922.025	12323
922.134	12296
922.244	12155
922.353	12228
922.462	12163
922.571	12049
922.68	11882
922.789	11984
922.898	11878
923.007	11901
923.116	11954
923.224	11996
923.333	11847
923.442	11752
923.55	11809
923.659	11752
923.767	11847
923.876	11691
923.984	11866
924.092	11668
924.201	11630
924.309	11676
924.417	11688
924.525	11577
924.633	11638
924.741	12528
924.849	11433
924.956	11543
925.064	11501
925.172	11429
925.279	11368
925.387	11379
925.494	11398
925.602	11444
925.709	11471
925.816	11334
925.924	11368
926.031	11501
926.138	11436
926.245	11433
926.352	11303
926.459	11410
926.566	11455
926.673	11223
926.779	11117
926.886	11155
926.993	11079
927.099	11052
927.206	11025
927.312	10892
927.419	11064
927.525	10991
927.631	11067
927.737	10927
927.843	10896
927.95	10790
928.056	10854
928.162	10927
928.267	10976
928.373	11398
928.479	10946
928.585	10710
928.69	10812
928.796	10835
928.901	10793
929.007	10691
929.112	10717
929.218	10706
929.323	10675
929.428	10683
929.533	10706
929.638	10592
929.743	10588
929.848	10622
929.953	10637
930.058	10504
930.163	10352
930.267	10367
930.372	10470
930.477	10337
930.581	10558
930.685	10394
930.79	10371
930.894	10219
930.998	10242
931.103	10344
931.207	10048
931.311	9964
931.415	9934
931.519	9797
931.623	9740
