Data from test_V78500241_1799.txt Node
Date: Fri Mar 25 14:46:14 CST 2022
User: usil
Spectrometer: V785-0024
Trigger mode: 0
Integration Time (sec): 4.000000E-1
Scans to average: 1
Nonlinearity correction enabled: false
Boxcar width: 0
Storing dark spectrum: false
XAxis mode: Wavelengths
Number of Pixels in Spectrum: 1024
>>>>>Begin Spectral Data<<<<<
801.071	22196
801.214	22109
801.356	21759
801.499	21671
801.641	21568
801.783	21454
801.926	21625
802.068	21542
802.211	21340
802.353	21283
802.496	21001
802.638	21081
802.78	21005
802.923	20788
803.065	20876
803.208	20716
803.35	20948
803.492	20944
803.635	20971
803.777	20857
803.919	20967
804.061	21161
804.204	20948
804.346	20754
804.488	20807
804.63	20868
804.773	20739
804.915	20796
805.057	20933
805.199	20834
805.341	20811
805.483	20986
805.626	20849
805.768	20819
805.91	20811
806.052	20746
806.194	20716
806.336	20910
806.478	20781
806.62	20648
806.762	20765
806.904	20914
807.046	21291
807.188	21108
807.33	21066
807.472	21123
807.614	21005
807.756	21036
807.898	20823
808.04	20872
808.182	20788
808.324	20788
808.465	20842
808.607	20982
808.749	21112
808.891	21180
809.033	21367
809.174	21142
809.316	21157
809.458	21173
809.6	21116
809.741	21317
809.883	21268
810.025	21447
810.166	21367
810.308	21370
810.45	21332
810.591	21245
810.733	21085
810.875	21005
811.016	20876
811.158	20845
811.299	21009
811.441	21093
811.582	21058
811.724	20880
811.865	20941
812.007	20899
812.148	20994
812.29	20963
812.431	21135
812.573	21317
812.714	21249
812.855	21523
812.997	21523
813.138	21694
813.279	21603
813.421	21462
813.562	21416
813.703	21173
813.845	21074
813.986	20819
814.127	20697
814.268	20594
814.41	20552
814.551	20480
814.692	20560
814.833	20434
814.974	20484
815.115	20450
815.256	20339
815.397	20370
815.539	20320
815.68	20183
815.821	20210
815.962	20233
816.103	20290
816.244	20073
816.385	19940
816.526	19913
816.666	19719
816.807	19700
816.948	19693
817.089	19769
817.23	19670
817.371	19662
817.512	19582
817.653	19594
817.793	19502
817.934	19750
818.075	19590
818.216	19601
818.356	19548
818.497	19476
818.638	19316
818.778	19297
818.919	19426
819.06	19396
819.2	19392
819.341	19537
819.481	19544
819.622	19597
819.762	19788
819.903	19696
820.043	19586
820.184	19685
820.324	19746
820.465	19700
820.605	19643
820.746	19597
820.886	19510
821.026	19616
821.167	19578
821.307	19628
821.447	19495
821.588	19407
821.728	19255
821.868	19168
822.008	18993
822.149	19004
822.289	18920
822.429	18833
822.569	18719
822.709	18764
822.849	18566
822.99	18486
823.13	18483
823.27	18441
823.41	18395
823.55	18190
823.69	18334
823.83	18235
823.97	18235
824.11	18140
824.25	17992
824.389	18022
824.529	18216
824.669	18178
824.809	18213
824.949	18182
825.089	18155
825.228	18049
825.368	17977
825.508	17809
825.648	17836
825.787	17901
825.927	18026
826.067	17767
826.206	17824
826.346	17836
826.485	17916
826.625	17760
826.765	17939
826.904	17882
827.044	17703
827.183	17604
827.323	17505
827.462	17646
827.601	17596
827.741	17539
827.88	17566
828.02	17368
828.159	17459
828.298	17608
828.437	17615
828.577	17463
828.716	17608
828.855	17528
828.994	17368
829.134	17250
829.273	17326
829.412	17254
829.551	17269
829.69	17265
829.829	17391
829.968	17478
830.107	17417
830.246	17383
830.385	17231
830.524	17166
830.663	17029
830.802	17022
830.941	17025
831.08	16896
831.219	17037
831.357	16892
831.496	17147
831.635	16900
831.774	16767
831.913	16843
832.051	16748
832.19	16558
832.329	16805
832.467	16596
832.606	16672
832.744	16565
832.883	16588
833.022	16687
833.16	16615
833.299	16683
833.437	16645
833.576	16653
833.714	16672
833.852	16630
833.991	16679
834.129	16782
834.267	16691
834.406	16611
834.544	16752
834.682	16721
834.821	16641
834.959	16713
835.097	16622
835.235	16736
835.373	16755
835.511	16683
835.65	16546
835.788	16577
835.926	16394
836.064	16447
836.202	16398
836.34	16535
836.478	16668
836.615	16672
836.753	16672
836.891	16744
837.029	16630
837.167	16516
837.305	16474
837.443	16409
837.58	16386
837.718	16561
837.856	16360
837.993	16421
838.131	16421
838.269	16424
838.406	16451
838.544	16352
838.681	16242
838.819	16150
838.956	16013
839.094	15972
839.231	16040
839.369	16105
839.506	16481
839.643	16314
839.781	15949
839.918	15903
840.055	15899
840.193	16032
840.33	15926
840.467	16017
840.604	16032
840.742	16223
840.879	15945
841.016	15876
841.153	15922
841.29	16074
841.427	15998
841.564	16036
841.701	16048
841.838	15930
841.975	15968
842.112	15968
842.249	15789
842.385	15637
842.522	15972
842.659	15831
842.796	15774
842.933	15785
843.069	15842
843.206	15812
843.343	15880
843.479	15789
843.616	15876
843.752	15595
843.889	15580
844.025	15701
844.162	15538
844.298	15690
844.435	15584
844.571	15534
844.708	15637
844.844	15686
844.98	15755
845.117	15789
845.253	15584
845.389	15389
845.525	15511
845.661	15443
845.798	15367
845.934	15428
846.07	15321
846.206	15485
846.342	15526
846.478	15386
846.614	15199
846.75	15127
846.886	15135
847.022	15154
847.158	15161
847.294	15180
847.429	15222
847.565	15085
847.701	15466
847.837	14842
847.972	14845
848.108	15074
848.244	14921
848.379	14819
848.515	14750
848.65	14750
848.786	14788
848.921	14800
849.057	14826
849.192	14819
849.328	14769
849.463	14773
849.598	14720
849.734	14636
849.869	14682
850.004	14606
850.14	14632
850.275	14549
850.41	14438
850.545	14385
850.68	14499
850.815	14533
850.95	14530
851.085	14651
851.22	14575
851.355	14518
851.49	14514
851.625	14484
851.76	14465
851.895	14339
852.03	14362
852.165	14389
852.299	14564
852.434	14629
852.569	14564
852.703	14564
852.838	14640
852.973	14629
853.107	14731
853.242	14469
853.376	14362
853.511	14343
853.645	14355
853.78	14465
853.914	14377
854.048	14278
854.183	14339
854.317	14415
854.451	14495
854.585	14461
854.72	14278
854.854	14412
854.988	14218
855.122	14305
855.256	14256
855.39	14301
855.524	14431
855.658	14434
855.792	14419
855.926	14370
856.06	14469
856.194	14476
856.327	14434
856.461	14267
856.595	14313
856.729	14313
856.862	14583
856.996	14408
857.13	14400
857.263	14492
857.397	14522
857.53	14290
857.664	14408
857.797	14374
857.931	14484
858.064	14385
858.197	14457
858.331	14332
858.464	14366
858.597	14256
858.731	14271
858.864	14358
858.997	14362
859.13	14412
859.263	14431
859.396	14469
859.529	14400
859.662	14301
859.795	14309
859.928	14507
860.061	14492
860.194	14503
860.327	14419
860.46	14336
860.592	14503
860.725	14427
860.858	14537
860.99	14362
861.123	14271
861.256	14294
861.388	14358
861.521	15097
861.653	14347
861.786	14221
861.918	14240
862.05	14305
862.183	14339
862.315	14400
862.447	14393
862.58	14275
862.712	14187
862.844	14149
862.976	14305
863.108	14252
863.24	14446
863.372	14172
863.504	14084
863.636	14191
863.768	14263
863.9	14233
864.032	14138
864.164	14149
864.296	14199
864.428	14317
864.559	14195
864.691	14221
864.823	14180
864.954	14119
865.086	14149
865.217	14180
865.349	14119
865.48	14183
865.612	14138
865.743	14294
865.875	14145
866.006	14107
866.137	14191
866.269	14176
866.4	14199
866.531	14130
866.662	14012
866.793	14153
866.924	14043
867.055	14157
867.186	14058
867.317	14035
867.448	14005
867.579	14111
867.71	14024
867.841	14084
867.972	14183
868.103	14134
868.233	14202
868.364	14214
868.495	14077
868.625	14309
868.756	14427
868.886	14244
869.017	14381
869.147	14537
869.278	14431
869.408	14412
869.539	14461
869.669	14492
869.799	14385
869.929	14568
870.06	14545
870.19	14754
870.32	14678
870.45	14716
870.58	14781
870.71	14960
870.84	14925
870.97	14781
871.1	14819
871.23	15070
871.36	14956
871.489	14933
871.619	14971
871.749	14925
871.879	15077
872.008	15036
872.138	14914
872.267	14918
872.397	14739
872.526	14929
872.656	14853
872.785	14792
872.915	15058
873.044	15062
873.173	15043
873.303	15135
873.432	15123
873.561	15169
873.69	15066
873.819	15017
873.948	15085
874.077	15081
874.206	15051
874.335	15089
874.464	15199
874.593	15310
874.722	15283
874.851	15412
874.979	15401
875.108	15458
875.237	15252
875.365	15275
875.494	15428
875.623	15511
875.751	15313
875.88	15370
876.008	15485
876.136	15504
876.265	15736
876.393	15983
876.521	15808
876.65	15823
876.778	15785
876.906	15724
877.034	15808
877.162	15736
877.29	15606
877.418	15770
877.546	15770
877.674	15816
877.802	15808
877.93	15739
878.058	15766
878.185	15781
878.313	15698
878.441	15759
878.568	15587
878.696	15682
878.824	15679
878.951	15945
879.079	16002
879.206	16051
879.333	15983
879.461	15827
879.588	15827
879.715	15991
879.842	16029
879.97	15812
880.097	15603
880.224	15584
880.351	15660
880.478	15595
880.605	15610
880.732	15682
880.859	15831
880.986	15633
881.112	15553
881.239	15485
881.366	15408
881.493	15222
881.619	15351
881.746	15336
881.872	15351
881.999	15291
882.125	15306
882.252	15256
882.378	15329
882.505	15439
882.631	15207
882.757	15058
882.883	15211
883.01	15207
883.136	15089
883.262	15017
883.388	14941
883.514	15173
883.64	15207
883.766	15131
883.892	14941
884.018	15055
884.143	15097
884.269	15222
884.395	14773
884.52	14807
884.646	14769
884.772	14819
884.897	14720
885.023	14929
885.148	14937
885.274	14937
885.399	14975
885.524	14937
885.65	14971
885.775	14925
885.9	14777
886.025	14880
886.15	14880
886.275	14788
886.4	14765
886.525	14800
886.65	14830
886.775	14762
886.9	14864
887.025	15138
887.149	14800
887.274	14583
887.399	14644
887.523	14560
887.648	14598
887.773	14522
887.897	14724
888.021	14724
888.146	14648
888.27	14655
888.395	14872
888.519	14716
888.643	14724
888.767	14731
888.891	14552
889.015	14473
889.139	14537
889.263	14556
889.387	14648
889.511	14708
889.635	14632
889.759	14549
889.883	14480
890.006	14533
890.13	14632
890.254	14476
890.377	14438
890.501	14385
890.624	14328
890.748	14484
890.871	14336
890.995	14172
891.118	14161
891.241	14244
891.364	14259
891.488	14271
891.611	14275
891.734	14221
891.857	14271
891.98	14240
892.103	14320
892.226	14176
892.349	14161
892.471	14100
892.594	14168
892.717	14252
892.839	14271
892.962	14199
893.085	14248
893.207	14271
893.33	14153
893.452	14199
893.575	14206
893.697	14233
893.819	14374
893.941	14412
894.064	14362
894.186	14145
894.308	14138
894.43	14313
894.552	14499
894.674	14355
894.796	14168
894.918	14202
895.04	14259
895.161	14374
895.283	14343
895.405	14263
895.526	14317
895.648	14381
895.769	14271
895.891	14412
896.012	14419
896.134	14434
896.255	14385
896.376	14396
896.498	14381
896.619	14408
896.74	14396
896.861	14503
896.982	14621
897.103	14872
897.224	14663
897.345	14587
897.466	14583
897.587	14724
897.708	14883
897.828	14701
897.949	14575
898.07	14552
898.19	14526
898.311	14731
898.431	14670
898.552	14701
898.672	14788
898.792	14739
898.913	14781
899.033	14651
899.153	14537
899.273	14514
899.393	14465
899.513	14693
899.633	14621
899.753	14621
899.873	14533
899.993	14644
900.113	14579
900.232	14583
900.352	14484
900.472	14488
900.591	14438
900.711	14396
900.83	14309
900.95	14499
901.069	14518
901.189	14427
901.308	14168
901.427	14145
901.546	14119
901.665	14126
901.784	14077
901.904	13963
902.023	13902
902.141	13655
902.26	13674
902.379	13814
902.498	13601
902.617	13696
902.735	13658
902.854	13632
902.973	13548
903.091	13419
903.21	13453
903.328	13434
903.446	13415
903.565	13365
903.683	13259
903.801	13213
903.919	13304
904.038	13308
904.156	13141
904.274	13194
904.392	13107
904.51	13012
904.627	12996
904.745	13133
904.863	13175
904.981	12867
905.098	12677
905.216	12798
905.334	12745
905.451	12844
905.569	12711
905.686	12840
905.803	12711
905.921	12589
906.038	12654
906.155	12528
906.272	12471
906.389	12544
906.506	12266
906.623	12418
906.74	12251
906.857	12201
906.974	12270
907.091	12323
907.208	12486
907.324	12350
907.441	12262
907.557	12175
907.674	12091
907.79	12022
907.907	12057
908.023	12175
908.139	12201
908.256	12068
908.372	12106
908.488	11950
908.604	11874
908.72	11851
908.836	11889
908.952	11836
909.068	11882
909.184	11969
909.3	11882
909.415	11965
909.531	11866
909.647	11657
909.762	11665
909.878	11589
909.993	11532
910.108	11680
910.224	11630
910.339	11691
910.454	11505
910.57	11440
910.685	11444
910.8	11710
910.915	11649
911.03	11505
911.145	11315
911.259	11315
911.374	11341
911.489	11296
911.604	11227
911.718	11075
911.833	11109
911.947	10987
912.062	10904
912.176	11083
912.291	11045
912.405	11052
912.519	11318
912.633	11277
912.748	11231
912.862	11045
912.976	10999
913.09	10824
913.204	10839
913.318	11083
913.431	11056
913.545	11014
913.659	11025
913.772	10999
913.886	10816
914	10786
914.113	10927
914.226	10946
914.34	10896
914.453	10797
914.566	10923
914.68	10869
914.793	10736
914.906	10607
915.019	10546
915.132	10432
915.245	10573
915.358	10596
915.47	10603
915.583	10561
915.696	10641
915.809	10710
915.921	10801
916.034	10569
916.146	10504
916.259	10500
916.371	10672
916.483	10577
916.595	10531
916.708	10527
916.82	10531
916.932	10481
917.044	10489
917.156	10481
917.268	10367
917.38	10386
917.491	10333
917.603	10455
917.715	10451
917.826	10485
917.938	10356
918.049	10246
918.161	10413
918.272	10535
918.384	10554
918.495	10398
918.606	10261
918.717	10238
918.828	10238
918.939	10375
919.05	10227
919.161	10200
919.272	10105
919.383	10185
919.494	10375
919.604	10447
919.715	10253
919.826	10181
919.936	10200
920.047	10394
920.157	10325
920.267	10474
920.378	10325
920.488	10268
920.598	10485
920.708	10637
920.818	10478
920.928	10577
921.038	10714
921.148	10611
921.258	10322
921.368	10242
921.477	10181
921.587	10109
921.697	9968
921.806	10169
921.916	10051
922.025	9831
922.134	9816
922.244	9842
922.353	9895
922.462	9766
922.571	9671
922.68	9618
922.789	9488
922.898	9553
923.007	9572
923.116	9572
923.224	9515
923.333	9538
923.442	9458
923.55	9386
923.659	9504
923.767	9523
923.876	9408
923.984	9542
924.092	9401
924.201	9397
924.309	9420
924.417	9378
924.525	9363
924.633	9382
924.741	10322
924.849	9176
924.956	9370
925.064	9207
925.172	9157
925.279	9157
925.387	9253
925.494	9211
925.602	9313
925.709	9237
925.816	9173
925.924	9203
926.031	9199
926.138	9176
926.245	9249
926.352	9100
926.459	9222
926.566	9272
926.673	9161
926.779	9032
926.886	9013
926.993	8960
927.099	8925
927.206	8849
927.312	8872
927.419	8914
927.525	8956
927.631	8963
927.737	8845
927.843	8727
927.95	8716
928.056	8788
928.162	8785
928.267	8880
928.373	9439
928.479	8902
928.585	8651
928.69	8773
928.796	8857
928.901	8735
929.007	8602
929.112	8720
929.218	8659
929.323	8686
929.428	8590
929.533	8777
929.638	8632
929.743	8556
929.848	8606
929.953	8590
930.058	8575
930.163	8385
930.267	8404
930.372	8522
930.477	8294
930.581	8625
930.685	8488
930.79	8343
930.894	8347
930.998	8309
931.103	8457
931.207	8100
931.311	8058
931.415	8031
931.519	7826
931.623	7807
