Data from test_V78500241_249.txt Node
Date: Fri Mar 25 14:35:27 CST 2022
User: usil
Spectrometer: V785-0024
Trigger mode: 0
Integration Time (sec): 4.000000E-1
Scans to average: 1
Nonlinearity correction enabled: false
Boxcar width: 0
Storing dark spectrum: false
XAxis mode: Wavelengths
Number of Pixels in Spectrum: 1024
>>>>>Begin Spectral Data<<<<<
801.071	27576
801.214	27450
801.356	27062
801.499	27222
801.641	26921
801.783	27032
801.926	26967
802.068	26902
802.211	26838
802.353	26712
802.496	26590
802.638	26617
802.78	26564
802.923	26484
803.065	26446
803.208	26408
803.35	26590
803.492	26488
803.635	26629
803.777	26552
803.919	26571
804.061	26876
804.204	26602
804.346	26644
804.488	26503
804.63	26488
804.773	26389
804.915	26533
805.057	26518
805.199	26282
805.341	26537
805.483	26629
805.626	26602
805.768	26393
805.91	26453
806.052	26598
806.194	26473
806.336	26838
806.478	26419
806.62	26537
806.762	26659
806.904	26781
807.046	26982
807.188	26921
807.33	26872
807.472	26944
807.614	26853
807.756	26998
807.898	26689
808.04	26720
808.182	26887
808.324	26693
808.465	26849
808.607	27017
808.749	27313
808.891	27237
809.033	27401
809.174	27363
809.316	27233
809.458	27211
809.6	27169
809.741	27214
809.883	27093
810.025	27272
810.166	27260
810.308	27291
810.45	27287
810.591	27135
810.733	27020
810.875	26971
811.016	26864
811.158	26830
811.299	26902
811.441	26948
811.582	27070
811.724	26880
811.865	26861
812.007	26834
812.148	26880
812.29	27036
812.431	27146
812.573	27138
812.714	27374
812.855	27275
812.997	27431
813.138	27515
813.279	27519
813.421	27526
813.562	27363
813.703	27142
813.845	27070
813.986	26667
814.127	26499
814.268	26404
814.41	26526
814.551	26457
814.692	26533
814.833	26355
814.974	26423
815.115	26404
815.256	26252
815.397	26252
815.539	26263
815.68	26050
815.821	26062
815.962	26324
816.103	26065
816.244	26005
816.385	25875
816.526	25826
816.666	25635
816.807	25624
816.948	25609
817.089	25734
817.23	25563
817.371	25651
817.512	25563
817.653	25510
817.793	25457
817.934	25518
818.075	25613
818.216	25548
818.356	25472
818.497	25483
818.638	25255
818.778	25194
818.919	25190
819.06	25369
819.2	25346
819.341	25487
819.481	25499
819.622	25616
819.762	25753
819.903	25677
820.043	25540
820.184	25529
820.324	25483
820.465	25521
820.605	25575
820.746	25426
820.886	25388
821.026	25567
821.167	25400
821.307	25335
821.447	25396
821.588	25297
821.728	25171
821.868	25023
822.008	25015
822.149	24871
822.289	24867
822.429	24623
822.569	24639
822.709	24658
822.849	24422
822.99	24403
823.13	24235
823.27	24319
823.41	24144
823.55	24091
823.69	24117
823.83	24205
823.97	24129
824.11	23901
824.25	23866
824.389	24034
824.529	23946
824.669	23935
824.809	23965
824.949	24133
825.089	23897
825.228	23969
825.368	23764
825.508	23729
825.648	23707
825.787	23729
825.927	23821
826.067	23566
826.206	23638
826.346	23809
826.485	23718
826.625	23657
826.765	23824
826.904	23722
827.044	23482
827.183	23471
827.323	23360
827.462	23471
827.601	23360
827.741	23448
827.88	23387
828.02	23277
828.159	23212
828.298	23261
828.437	23414
828.577	23197
828.716	23372
828.855	23261
828.994	23018
829.134	23029
829.273	23067
829.412	23033
829.551	23006
829.69	23067
829.829	22999
829.968	23094
830.107	23083
830.246	23025
830.385	22949
830.524	22965
830.663	22820
830.802	22763
830.941	22668
831.08	22512
831.219	22611
831.357	22710
831.496	22854
831.635	22603
831.774	22455
831.913	22432
832.051	22409
832.19	22367
832.329	22451
832.467	22485
832.606	22230
832.744	22158
832.883	22329
833.022	22082
833.16	22291
833.299	22276
833.437	22234
833.576	22257
833.714	22246
833.852	22455
833.991	22371
834.129	22398
834.267	22348
834.406	22284
834.544	22280
834.682	22238
834.821	22188
834.959	22356
835.097	22120
835.235	22303
835.373	22291
835.511	22192
835.65	22166
835.788	22021
835.926	21861
836.064	21831
836.202	21975
836.34	22067
836.478	22090
836.615	22070
836.753	22192
836.891	22177
837.029	21983
837.167	22017
837.305	21994
837.443	21994
837.58	21964
837.718	21994
837.856	21857
837.993	21808
838.131	21975
838.269	21759
838.406	21755
838.544	21816
838.681	21576
838.819	21500
838.956	21275
839.094	21386
839.231	21348
839.369	21496
839.506	21701
839.643	21629
839.781	21195
839.918	21294
840.055	21325
840.193	21325
840.33	21370
840.467	21188
840.604	21233
840.742	21591
840.879	21195
841.016	21279
841.153	21116
841.29	21264
841.427	21233
841.564	21249
841.701	21279
841.838	21116
841.975	21142
842.112	21169
842.249	20937
842.385	20937
842.522	21275
842.659	21013
842.796	21032
842.933	20944
843.069	20868
843.206	20956
843.343	20925
843.479	21024
843.616	20914
843.752	20773
843.889	20785
844.025	20952
844.162	20651
844.298	20773
844.435	20708
844.571	20693
844.708	20792
844.844	20819
844.98	20788
845.117	20800
845.253	20659
845.389	20655
845.525	20868
845.661	20621
845.798	20716
845.934	20891
846.07	20678
846.206	20686
846.342	20826
846.478	20552
846.614	20511
846.75	20168
846.886	20263
847.022	20240
847.158	20153
847.294	20081
847.429	20298
847.565	20119
847.701	20469
847.837	20008
847.972	19925
848.108	20054
848.244	19936
848.379	19822
848.515	19818
848.65	19704
848.786	19689
848.921	19803
849.057	19784
849.192	19780
849.328	19826
849.463	19757
849.598	19681
849.734	19609
849.869	19704
850.004	19533
850.14	19464
850.275	19605
850.41	19392
850.545	19346
850.68	19419
850.815	19502
850.95	19434
851.085	19563
851.22	19491
851.355	19586
851.49	19559
851.625	19365
851.76	19453
851.895	19259
852.03	19358
852.165	19403
852.299	19529
852.434	19605
852.569	19449
852.703	19419
852.838	19480
852.973	19514
853.107	19567
853.242	19335
853.376	19346
853.511	19160
853.645	19335
853.78	19438
853.914	19411
854.048	19202
854.183	19232
854.317	19282
854.451	19430
854.585	19168
854.72	19228
854.854	19324
854.988	19133
855.122	19384
855.256	19069
855.39	19266
855.524	19365
855.658	19263
855.792	19285
855.926	19289
856.06	19175
856.194	19304
856.327	19266
856.461	19061
856.595	19202
856.729	19141
856.862	19403
856.996	19259
857.13	19343
857.263	19293
857.397	19419
857.53	19232
857.664	19301
857.797	19304
857.931	19304
858.064	19240
858.197	19308
858.331	19171
858.464	19187
858.597	19095
858.731	19198
858.864	19080
858.997	19175
859.13	19247
859.263	19244
859.396	19289
859.529	19187
859.662	19156
859.795	19122
859.928	19263
860.061	19320
860.194	19407
860.327	19160
860.46	19038
860.592	19301
860.725	19373
860.858	19244
860.99	19232
861.123	19160
861.256	19164
861.388	19301
861.521	19719
861.653	19019
861.786	19004
861.918	19019
862.05	19126
862.183	19183
862.315	19331
862.447	19301
862.58	19175
862.712	19034
862.844	18916
862.976	19019
863.108	18894
863.24	19270
863.372	18817
863.504	18795
863.636	18951
863.768	18970
863.9	18817
864.032	18859
864.164	18798
864.296	18890
864.428	18947
864.559	18954
864.691	18962
864.823	19019
864.954	18753
865.086	18810
865.217	18810
865.349	18673
865.48	18753
865.612	18745
865.743	18867
865.875	18859
866.006	18821
866.137	18798
866.269	18840
866.4	18856
866.531	18776
866.662	18665
866.793	18745
866.924	18703
867.055	18776
867.186	18783
867.317	18787
867.448	18757
867.579	18722
867.71	18658
867.841	18661
867.972	18817
868.103	18817
868.233	18787
868.364	18738
868.495	18867
868.625	18913
868.756	19076
868.886	18871
869.017	18977
869.147	19069
869.278	19076
869.408	18962
869.539	18962
869.669	19023
869.799	19171
869.929	19061
870.06	19008
870.19	19285
870.32	19247
870.45	19400
870.58	19350
870.71	19472
870.84	19506
870.97	19308
871.1	19354
871.23	19514
871.36	19457
871.489	19381
871.619	19460
871.749	19506
871.879	19563
872.008	19712
872.138	19506
872.267	19556
872.397	19582
872.526	19411
872.656	19506
872.785	19438
872.915	19460
873.044	19643
873.173	19620
873.303	19651
873.432	19643
873.561	19727
873.69	19655
873.819	19582
873.948	19540
874.077	19681
874.206	19537
874.335	19662
874.464	19841
874.593	20043
874.722	19757
874.851	19963
874.979	19864
875.108	19967
875.237	19830
875.365	19795
875.494	19913
875.623	19902
875.751	19830
875.88	19837
876.008	20062
876.136	20035
876.265	20355
876.393	20484
876.521	20377
876.65	20252
876.778	20195
876.906	20172
877.034	20145
877.162	20229
877.29	20252
877.418	20248
877.546	20282
877.674	20301
877.802	20237
877.93	20214
878.058	20191
878.185	20115
878.313	20301
878.441	20259
878.568	20111
878.696	20244
878.824	20358
878.951	20267
879.079	20404
879.206	20636
879.333	20469
879.461	20393
879.588	20568
879.715	20507
879.842	20705
879.97	20434
880.097	20233
880.224	20149
880.351	20138
880.478	20195
880.605	20103
880.732	20088
880.859	20377
880.986	20172
881.112	20164
881.239	19997
881.366	19940
881.493	19738
881.619	19757
881.746	19845
881.872	19753
881.999	19582
882.125	19666
882.252	19772
882.378	19723
882.505	19723
882.631	19594
882.757	19495
882.883	19499
883.01	19377
883.136	19544
883.262	19346
883.388	19339
883.514	19510
883.64	19483
883.766	19381
883.892	19171
884.018	19362
884.143	19392
884.269	19605
884.395	19263
884.52	19114
884.646	19027
884.772	19012
884.897	19046
885.023	19221
885.148	19232
885.274	19339
885.399	19160
885.524	19076
885.65	19114
885.775	19187
885.9	19095
886.025	19320
886.15	19202
886.275	19099
886.4	19008
886.525	19061
886.65	18954
886.775	19057
886.9	19194
887.025	19354
887.149	19088
887.274	18985
887.399	18856
887.523	18901
887.648	18825
887.773	18863
887.897	18749
888.021	18749
888.146	18738
888.27	18928
888.395	18878
888.519	18867
888.643	18871
888.767	18878
888.891	18722
889.015	18711
889.139	18696
889.263	18635
889.387	18738
889.511	18837
889.635	18844
889.759	18707
889.883	18646
890.006	18661
890.13	18806
890.254	18673
890.377	18483
890.501	18410
890.624	18422
890.748	18433
890.871	18403
890.995	18304
891.118	18243
891.241	18365
891.364	18216
891.488	18353
891.611	18254
891.734	18311
891.857	18254
891.98	18270
892.103	18467
892.226	18296
892.349	18315
892.471	18213
892.594	18308
892.717	18247
892.839	18114
892.962	18220
893.085	18270
893.207	18254
893.33	18034
893.452	18110
893.575	18300
893.697	18266
893.819	18304
893.941	18467
894.064	18311
894.186	18095
894.308	18083
894.43	18258
894.552	18338
894.674	18277
894.796	18060
894.918	18171
895.04	18114
895.161	18308
895.283	18350
895.405	18140
895.526	18235
895.648	18178
895.769	18289
895.891	18235
896.012	18334
896.134	18266
896.255	18262
896.376	18281
896.498	18315
896.619	18327
896.74	18254
896.861	18372
896.982	18582
897.103	18730
897.224	18563
897.345	18422
897.466	18471
897.587	18532
897.708	18646
897.828	18517
897.949	18452
898.07	18372
898.19	18498
898.311	18589
898.431	18426
898.552	18528
898.672	18544
898.792	18513
898.913	18506
899.033	18330
899.153	18342
899.273	18144
899.393	18209
899.513	18216
899.633	18266
899.753	18270
899.873	18254
899.993	18289
900.113	18205
900.232	18296
900.352	18174
900.472	18190
900.591	18049
900.711	18083
900.83	18117
900.95	18197
901.069	18216
901.189	18091
901.308	17859
901.427	17794
901.546	17653
901.665	17836
901.784	17737
901.904	17604
902.023	17490
902.141	17368
902.26	17326
902.379	17318
902.498	17299
902.617	17128
902.735	17185
902.854	17200
902.973	17189
903.091	16911
903.21	16934
903.328	16809
903.446	16782
903.565	16683
903.683	16774
903.801	16626
903.919	16649
904.038	16607
904.156	16561
904.274	16577
904.392	16538
904.51	16436
904.627	16531
904.745	16455
904.863	16527
904.981	16363
905.098	16139
905.216	16185
905.334	16139
905.451	16139
905.569	16101
905.686	16162
905.803	16166
905.921	15926
906.038	16055
906.155	15903
906.272	15835
906.389	15949
906.506	15606
906.623	15755
906.74	15709
906.857	15599
906.974	15576
907.091	15701
907.208	15789
907.324	15709
907.441	15633
907.557	15355
907.674	15329
907.79	15348
907.907	15249
908.023	15389
908.139	15397
908.256	15302
908.372	15275
908.488	15199
908.604	15039
908.72	15097
908.836	15173
908.952	14998
909.068	15013
909.184	15100
909.3	15032
909.415	15112
909.531	14979
909.647	14819
909.762	14845
909.878	14746
909.993	14754
910.108	14807
910.224	14735
910.339	14739
910.454	14667
910.57	14636
910.685	14480
910.8	14868
910.915	14807
911.03	14640
911.145	14404
911.259	14434
911.374	14434
911.489	14381
911.604	14351
911.718	14191
911.833	14172
911.947	14103
912.062	13997
912.176	14145
912.291	14214
912.405	14157
912.519	14370
912.633	14339
912.748	14275
912.862	14115
912.976	13928
913.09	13818
913.204	13909
913.318	13959
913.431	14130
913.545	14046
913.659	14084
913.772	13917
913.886	13856
914	13826
914.113	13830
914.226	13982
914.34	13818
914.453	13727
914.566	13803
914.68	13738
914.793	13666
914.906	13499
915.019	13521
915.132	13426
915.245	13464
915.358	13495
915.47	13506
915.583	13518
915.696	13521
915.809	13624
915.921	13575
916.034	13430
916.146	13263
916.259	13373
916.371	13384
916.483	13468
916.595	13278
916.708	13206
916.82	13308
916.932	13331
917.044	13312
917.156	13209
917.268	13171
917.38	13194
917.491	13091
917.603	13187
917.715	13297
917.826	13289
917.938	13209
918.049	13012
918.161	13065
918.272	13232
918.384	13304
918.495	13137
918.606	12928
918.717	12840
918.828	12935
918.939	12993
919.05	12878
919.161	12932
919.272	12795
919.383	12837
919.494	13038
919.604	13099
919.715	12954
919.826	12779
919.936	12886
920.047	13004
920.157	12905
920.267	13183
920.378	12966
920.488	12920
920.598	13160
920.708	13209
920.818	13027
920.928	13019
921.038	13149
921.148	13236
921.258	12875
921.368	12821
921.477	12677
921.587	12639
921.697	12502
921.806	12760
921.916	12528
922.025	12323
922.134	12330
922.244	12315
922.353	12441
922.462	12190
922.571	12197
922.68	12011
922.789	11999
922.898	11988
923.007	11996
923.116	12030
923.224	11961
923.333	11901
923.442	11843
923.55	11840
923.659	11870
923.767	11904
923.876	11828
923.984	11824
924.092	11737
924.201	11771
924.309	11688
924.417	11821
924.525	11737
924.633	11695
924.741	12684
924.849	11577
924.956	11718
925.064	11524
925.172	11471
925.279	11482
925.387	11577
925.494	11558
925.602	11589
925.709	11615
925.816	11440
925.924	11379
926.031	11505
926.138	11440
926.245	11501
926.352	11379
926.459	11486
926.566	11558
926.673	11349
926.779	11288
926.886	11315
926.993	11227
927.099	11064
927.206	11075
927.312	11064
927.419	11147
927.525	11155
927.631	11166
927.737	11014
927.843	10938
927.95	10911
928.056	11022
928.162	10968
928.267	11052
928.373	11497
928.479	11071
928.585	10831
928.69	10915
928.796	11075
928.901	10908
929.007	10721
929.112	10877
929.218	10900
929.323	10774
929.428	10717
929.533	10793
929.638	10637
929.743	10698
929.848	10744
929.953	10634
930.058	10550
930.163	10451
930.267	10398
930.372	10580
930.477	10386
930.581	10580
930.685	10459
930.79	10310
930.894	10333
930.998	10253
931.103	10371
931.207	10139
931.311	10021
931.415	9930
931.519	9720
931.623	9709
