Data from test_V78500241_2024.txt Node
Date: Fri Mar 25 14:47:48 CST 2022
User: usil
Spectrometer: V785-0024
Trigger mode: 0
Integration Time (sec): 4.000000E-1
Scans to average: 1
Nonlinearity correction enabled: false
Boxcar width: 0
Storing dark spectrum: false
XAxis mode: Wavelengths
Number of Pixels in Spectrum: 1024
>>>>>Begin Spectral Data<<<<<
801.071	22139
801.214	21915
801.356	21778
801.499	21641
801.641	21481
801.783	21424
801.926	21443
802.068	21416
802.211	21294
802.353	21321
802.496	21024
802.638	21013
802.78	20906
802.923	20804
803.065	20720
803.208	20724
803.35	20769
803.492	20880
803.635	20849
803.777	20887
803.919	20857
804.061	21157
804.204	20910
804.346	20762
804.488	20609
804.63	20861
804.773	20720
804.915	20769
805.057	20750
805.199	20697
805.341	20895
805.483	20777
805.626	20826
805.768	20724
805.91	20739
806.052	20754
806.194	20708
806.336	20697
806.478	20746
806.62	20693
806.762	20746
806.904	20956
807.046	21108
807.188	21062
807.33	20998
807.472	21089
807.614	20914
807.756	20971
807.898	20872
808.04	20769
808.182	20777
808.324	20777
808.465	20845
808.607	21081
808.749	21047
808.891	21199
809.033	21252
809.174	21230
809.316	21119
809.458	21074
809.6	21146
809.741	21100
809.883	21245
810.025	21252
810.166	21378
810.308	21283
810.45	21176
810.591	21077
810.733	21036
810.875	20807
811.016	20861
811.158	20788
811.299	20967
811.441	21024
811.582	20952
811.724	20918
811.865	20933
812.007	20826
812.148	20929
812.29	21032
812.431	21150
812.573	21131
812.714	21283
812.855	21287
812.997	21542
813.138	21576
813.279	21351
813.421	21370
813.562	21317
813.703	21138
813.845	21017
813.986	20731
814.127	20640
814.268	20454
814.41	20507
814.551	20419
814.692	20415
814.833	20358
814.974	20393
815.115	20457
815.256	20324
815.397	20214
815.539	20233
815.68	20164
815.821	20172
815.962	20221
816.103	20115
816.244	19978
816.385	19917
816.526	19894
816.666	19761
816.807	19499
816.948	19643
817.089	19715
817.23	19620
817.371	19601
817.512	19544
817.653	19529
817.793	19392
817.934	19575
818.075	19578
818.216	19575
818.356	19483
818.497	19392
818.638	19213
818.778	19270
818.919	19293
819.06	19095
819.2	19411
819.341	19407
819.481	19403
819.622	19552
819.762	19757
819.903	19704
820.043	19594
820.184	19594
820.324	19365
820.465	19635
820.605	19605
820.746	19533
820.886	19411
821.026	19533
821.167	19377
821.307	19552
821.447	19453
821.588	19369
821.728	19266
821.868	18973
822.008	19095
822.149	18977
822.289	18856
822.429	18715
822.569	18673
822.709	18753
822.849	18308
822.99	18456
823.13	18441
823.27	18384
823.41	18235
823.55	18235
823.69	18171
823.83	18239
823.97	18167
824.11	17973
824.25	18057
824.389	18110
824.529	18136
824.669	18019
824.809	18159
824.949	18072
825.089	18049
825.228	18117
825.368	17863
825.508	17939
825.648	17923
825.787	17870
825.927	17824
826.067	17741
826.206	17714
826.346	17855
826.485	17836
826.625	17729
826.765	17882
826.904	17802
827.044	17558
827.183	17577
827.323	17429
827.462	17478
827.601	17539
827.741	17566
827.88	17543
828.02	17398
828.159	17402
828.298	17558
828.437	17558
828.577	17471
828.716	17589
828.855	17433
828.994	17269
829.134	17360
829.273	17337
829.412	17299
829.551	17086
829.69	17166
829.829	17284
829.968	17307
830.107	17315
830.246	17227
830.385	17185
830.524	17124
830.663	17086
830.802	17052
830.941	16824
831.08	16736
831.219	16877
831.357	16911
831.496	17022
831.635	16896
831.774	16793
831.913	16778
832.051	16599
832.19	16649
832.329	16679
832.467	16538
832.606	16603
832.744	16588
832.883	16519
833.022	16569
833.16	16577
833.299	16615
833.437	16546
833.576	16558
833.714	16573
833.852	16588
833.991	16656
834.129	16603
834.267	16660
834.406	16645
834.544	16713
834.682	16561
834.821	16702
834.959	16866
835.097	16596
835.235	16691
835.373	16626
835.511	16577
835.65	16474
835.788	16466
835.926	16375
836.064	16348
836.202	16325
836.34	16607
836.478	16573
836.615	16493
836.753	16584
836.891	16649
837.029	16584
837.167	16459
837.305	16409
837.443	16424
837.58	16348
837.718	16504
837.856	16375
837.993	16390
838.131	16371
838.269	16363
838.406	16367
838.544	16230
838.681	15975
838.819	16067
838.956	15888
839.094	15972
839.231	16040
839.369	16051
839.506	16356
839.643	16192
839.781	15930
839.918	15895
840.055	15922
840.193	15934
840.33	15880
840.467	15972
840.604	15975
840.742	16143
840.879	15831
841.016	15842
841.153	15785
841.29	15975
841.427	15915
841.564	16032
841.701	16002
841.838	15884
841.975	15869
842.112	15732
842.249	15743
842.385	15667
842.522	15998
842.659	15720
842.796	15690
842.933	15747
843.069	15618
843.206	15652
843.343	15679
843.479	15736
843.616	15705
843.752	15553
843.889	15439
844.025	15622
844.162	15542
844.298	15743
844.435	15488
844.571	15450
844.708	15633
844.844	15648
844.98	15618
845.117	15618
845.253	15428
845.389	15431
845.525	15504
845.661	15405
845.798	15370
845.934	15363
846.07	15294
846.206	15355
846.342	15408
846.478	15294
846.614	15150
846.75	14941
846.886	14986
847.022	15104
847.158	15138
847.294	15104
847.429	15074
847.565	15077
847.701	15283
847.837	14883
847.972	14762
848.108	14842
848.244	14929
848.379	14735
848.515	14743
848.65	14697
848.786	14636
848.921	14640
849.057	14746
849.192	14727
849.328	14693
849.463	14686
849.598	14670
849.734	14705
849.869	14400
850.004	14556
850.14	14613
850.275	14438
850.41	14320
850.545	14499
850.68	14385
850.815	14484
850.95	14457
851.085	14606
851.22	14606
851.355	14415
851.49	14393
851.625	14473
851.76	14431
851.895	14343
852.03	14294
852.165	14404
852.299	14461
852.434	14549
852.569	14446
852.703	14408
852.838	14617
852.973	14560
853.107	14549
853.242	14404
853.376	14313
853.511	14309
853.645	14240
853.78	14381
853.914	14271
854.048	14290
854.183	14355
854.317	14370
854.451	14533
854.585	14336
854.72	14218
854.854	14358
854.988	14263
855.122	14263
855.256	14123
855.39	14313
855.524	14461
855.658	14415
855.792	14317
855.926	14301
856.06	14423
856.194	14438
856.327	14347
856.461	14389
856.595	14309
856.729	14286
856.862	14442
856.996	14278
857.13	14332
857.263	14431
857.397	14469
857.53	14240
857.664	14370
857.797	14404
857.931	14400
858.064	14370
858.197	14419
858.331	14343
858.464	14233
858.597	14259
858.731	14183
858.864	14237
858.997	14320
859.13	14301
859.263	14473
859.396	14434
859.529	14355
859.662	14275
859.795	14271
859.928	14339
860.061	14457
860.194	14575
860.327	14347
860.46	14343
860.592	14415
860.725	14549
860.858	14412
860.99	14377
861.123	14263
861.256	14240
861.388	14259
861.521	14971
861.653	14214
861.786	14210
861.918	14206
862.05	14225
862.183	14218
862.315	14324
862.447	14301
862.58	14267
862.712	14164
862.844	14016
862.976	14149
863.108	14134
863.24	14450
863.372	14016
863.504	14153
863.636	14092
863.768	14084
863.9	14157
864.032	14039
864.164	13940
864.296	14100
864.428	14195
864.559	14214
864.691	14195
864.823	14119
864.954	14138
865.086	14130
865.217	14092
865.349	14039
865.48	14081
865.612	14187
865.743	14290
865.875	14111
866.006	14062
866.137	14054
866.269	14027
866.4	14096
866.531	13997
866.662	14024
866.793	13963
866.924	14024
867.055	14073
867.186	14180
867.317	14092
867.448	13997
867.579	13986
867.71	14058
867.841	13978
867.972	14119
868.103	14058
868.233	14016
868.364	14126
868.495	14218
868.625	14317
868.756	14442
868.886	14347
869.017	14358
869.147	14408
869.278	14423
869.408	14290
869.539	14328
869.669	14362
869.799	14423
869.929	14564
870.06	14408
870.19	14640
870.32	14598
870.45	14746
870.58	14629
870.71	14823
870.84	14845
870.97	14686
871.1	14743
871.23	14910
871.36	14883
871.489	14800
871.619	14899
871.749	14834
871.879	14902
872.008	14910
872.138	14960
872.267	14948
872.397	14819
872.526	14781
872.656	14727
872.785	14758
872.915	14883
873.044	15024
873.173	14933
873.303	15108
873.432	14998
873.561	14994
873.69	15028
873.819	14944
873.948	15017
874.077	15020
874.206	14880
874.335	15028
874.464	15116
874.593	15283
874.722	15188
874.851	15344
874.979	15359
875.108	15386
875.237	15245
875.365	15211
875.494	15199
875.623	15370
875.751	15252
875.88	15332
876.008	15386
876.136	15431
876.265	15690
876.393	15808
876.521	15835
876.65	15899
876.778	15759
876.906	15610
877.034	15667
877.162	15724
877.29	15633
877.418	15759
877.546	15747
877.674	15747
877.802	15694
877.93	15736
878.058	15542
878.185	15701
878.313	15736
878.441	15720
878.568	15549
878.696	15675
878.824	15641
878.951	15755
879.079	15831
879.206	15998
879.333	15846
879.461	15709
879.588	15812
879.715	15819
879.842	15979
879.97	15797
880.097	15515
880.224	15530
880.351	15549
880.478	15564
880.605	15447
880.732	15557
880.859	15797
880.986	15530
881.112	15526
881.239	15523
881.366	15378
881.493	15249
881.619	15188
881.746	15283
881.872	15233
881.999	15256
882.125	15169
882.252	15192
882.378	15199
882.505	15336
882.631	15249
882.757	15169
882.883	15062
883.01	15036
883.136	15135
883.262	14842
883.388	14925
883.514	15058
883.64	15116
883.766	14895
883.892	14834
884.018	14819
884.143	14887
884.269	15085
884.395	14758
884.52	14663
884.646	14708
884.772	14708
884.897	14667
885.023	14735
885.148	14952
885.274	14891
885.399	14868
885.524	14716
885.65	14705
885.775	14758
885.9	14720
886.025	14849
886.15	14758
886.275	14720
886.4	14575
886.525	14590
886.65	14678
886.775	14613
886.9	14830
887.025	14902
887.149	14804
887.274	14651
887.399	14469
887.523	14549
887.648	14537
887.773	14480
887.897	14606
888.021	14640
888.146	14560
888.27	14693
888.395	14655
888.519	14590
888.643	14644
888.767	14629
888.891	14465
889.015	14374
889.139	14412
889.263	14343
889.387	14484
889.511	14568
889.635	14606
889.759	14480
889.883	14404
890.006	14381
890.13	14537
890.254	14320
890.377	14362
890.501	14252
890.624	14187
890.748	14282
890.871	14130
890.995	14199
891.118	14073
891.241	14107
891.364	14149
891.488	14202
891.611	14096
891.734	14153
891.857	14145
891.98	14130
892.103	14134
892.226	14157
892.349	14138
892.471	14016
892.594	14119
892.717	14100
892.839	14069
892.962	14012
893.085	14176
893.207	14096
893.33	14046
893.452	13970
893.575	14149
893.697	14020
893.819	14252
893.941	14381
894.064	14286
894.186	14115
894.308	14058
894.43	14271
894.552	14366
894.674	14218
894.796	14187
894.918	14115
895.04	14092
895.161	14172
895.283	14195
895.405	14195
895.526	14244
895.648	14195
895.769	14313
895.891	14225
896.012	14347
896.134	14252
896.255	14358
896.376	14252
896.498	14362
896.619	14419
896.74	14237
896.861	14381
896.982	14579
897.103	14845
897.224	14579
897.345	14488
897.466	14533
897.587	14541
897.708	14754
897.828	14670
897.949	14598
898.07	14495
898.19	14564
898.311	14705
898.431	14632
898.552	14575
898.672	14705
898.792	14788
898.913	14705
899.033	14571
899.153	14465
899.273	14484
899.393	14438
899.513	14461
899.633	14511
899.753	14602
899.873	14442
899.993	14549
900.113	14480
900.232	14571
900.352	14488
900.472	14412
900.591	14324
900.711	14408
900.83	14252
900.95	14400
901.069	14564
901.189	14332
901.308	14077
901.427	14111
901.546	14100
901.665	14142
901.784	14157
901.904	13894
902.023	13883
902.141	13582
902.26	13655
902.379	13708
902.498	13715
902.617	13609
902.735	13620
902.854	13567
902.973	13563
903.091	13327
903.21	13316
903.328	13365
903.446	13244
903.565	13126
903.683	13152
903.801	13122
903.919	13240
904.038	13080
904.156	13046
904.274	13129
904.392	13027
904.51	12958
904.627	12985
904.745	13027
904.863	13122
904.981	12772
905.098	12601
905.216	12722
905.334	12715
905.451	12673
905.569	12673
905.686	12688
905.803	12715
905.921	12582
906.038	12574
906.155	12483
906.272	12445
906.389	12384
906.506	12228
906.623	12247
906.74	12315
906.857	12197
906.974	12110
907.091	12399
907.208	12330
907.324	12258
907.441	12117
907.557	12087
907.674	12015
907.79	11923
907.907	11961
908.023	12064
908.139	12003
908.256	11999
908.372	11942
908.488	11992
908.604	11813
908.72	11760
908.836	11805
908.952	11752
909.068	11809
909.184	11802
909.3	11767
909.415	11897
909.531	11840
909.647	11551
909.762	11585
909.878	11611
909.993	11562
910.108	11551
910.224	11482
910.339	11493
910.454	11353
910.57	11433
910.685	11360
910.8	11638
910.915	11562
911.03	11528
911.145	11250
911.259	11254
911.374	11269
911.489	11204
911.604	11143
911.718	11022
911.833	10961
911.947	10816
912.062	10869
912.176	10984
912.291	11029
912.405	10987
912.519	11277
912.633	11170
912.748	11090
912.862	10972
912.976	10889
913.09	10702
913.204	10797
913.318	10934
913.431	11079
913.545	10961
913.659	10942
913.772	10919
913.886	10782
914	10710
914.113	10854
914.226	10873
914.34	10797
914.453	10694
914.566	10843
914.68	10714
914.793	10721
914.906	10508
915.019	10538
915.132	10470
915.245	10527
915.358	10512
915.47	10546
915.583	10569
915.696	10519
915.809	10687
915.921	10656
916.034	10516
916.146	10466
916.259	10436
916.371	10523
916.483	10504
916.595	10417
916.708	10402
916.82	10519
916.932	10474
917.044	10398
917.156	10451
917.268	10280
917.38	10287
917.491	10303
917.603	10398
917.715	10398
917.826	10470
917.938	10367
918.049	10204
918.161	10314
918.272	10546
918.384	10531
918.495	10379
918.606	10246
918.717	10169
918.828	10200
918.939	10227
919.05	10112
919.161	10215
919.272	10082
919.383	10059
919.494	10325
919.604	10470
919.715	10230
919.826	10150
919.936	10238
920.047	10310
920.157	10188
920.267	10360
920.378	10291
920.488	10196
920.598	10421
920.708	10527
920.818	10443
920.928	10413
921.038	10637
921.148	10607
921.258	10348
921.368	10162
921.477	10116
921.587	10082
921.697	9922
921.806	10181
921.916	9983
922.025	9743
922.134	9842
922.244	9698
922.353	9816
922.462	9762
922.571	9694
922.68	9534
922.789	9462
922.898	9534
923.007	9447
923.116	9530
923.224	9500
923.333	9492
923.442	9408
923.55	9344
923.659	9344
923.767	9424
923.876	9367
923.984	9443
924.092	9367
924.201	9325
924.309	9378
924.417	9310
924.525	9291
924.633	9272
924.741	10196
924.849	9138
924.956	9256
925.064	9066
925.172	9047
925.279	9176
925.387	9195
925.494	9123
925.602	9291
925.709	9146
925.816	9089
925.924	9119
926.031	9226
926.138	9131
926.245	9207
926.352	9077
926.459	9222
926.566	9211
926.673	9089
926.779	9020
926.886	9020
926.993	8929
927.099	8830
927.206	8838
927.312	8819
927.419	8914
927.525	8826
927.631	8899
927.737	8769
927.843	8720
927.95	8648
928.056	8735
928.162	8796
928.267	8739
928.373	9408
928.479	8857
928.585	8587
928.69	8727
928.796	8823
928.901	8629
929.007	8571
929.112	8701
929.218	8636
929.323	8594
929.428	8610
929.533	8670
929.638	8629
929.743	8583
929.848	8541
929.953	8511
930.058	8431
930.163	8332
930.267	8370
930.372	8450
930.477	8328
930.581	8575
930.685	8404
930.79	8290
930.894	8313
930.998	8309
931.103	8499
931.207	8073
931.311	7986
931.415	8027
931.519	7761
931.623	7742
