Data from test_V78500241_1628.txt Node
Date: Fri Mar 25 14:45:02 CST 2022
User: usil
Spectrometer: V785-0024
Trigger mode: 0
Integration Time (sec): 4.000000E-1
Scans to average: 1
Nonlinearity correction enabled: false
Boxcar width: 0
Storing dark spectrum: false
XAxis mode: Wavelengths
Number of Pixels in Spectrum: 1024
>>>>>Begin Spectral Data<<<<<
801.071	22436
801.214	22147
801.356	22029
801.499	21846
801.641	21861
801.783	21538
801.926	21705
802.068	21690
802.211	21625
802.353	21488
802.496	21245
802.638	21119
802.78	21199
802.923	21036
803.065	20979
803.208	21150
803.35	21116
803.492	21108
803.635	21214
803.777	21039
803.919	21142
804.061	21344
804.204	21165
804.346	21039
804.488	20960
804.63	20925
804.773	20872
804.915	20902
805.057	21127
805.199	20826
805.341	20975
805.483	21085
805.626	21039
805.768	20914
805.91	20975
806.052	21005
806.194	20933
806.336	21161
806.478	20876
806.62	20857
806.762	21013
806.904	21123
807.046	21359
807.188	21237
807.33	21218
807.472	21321
807.614	21192
807.756	21245
807.898	21184
808.04	21074
808.182	21001
808.324	21108
808.465	21176
808.607	21306
808.749	21401
808.891	21485
809.033	21606
809.174	21412
809.316	21344
809.458	21302
809.6	21329
809.741	21435
809.883	21351
810.025	21652
810.166	21481
810.308	21450
810.45	21481
810.591	21367
810.733	21355
810.875	21264
811.016	21093
811.158	21051
811.299	21157
811.441	21146
811.582	21230
811.724	21237
811.865	21036
812.007	21165
812.148	21127
812.29	21260
812.431	21367
812.573	21389
812.714	21587
812.855	21538
812.997	21637
813.138	21842
813.279	21618
813.421	21625
813.562	21576
813.703	21420
813.845	21336
813.986	21116
814.127	20891
814.268	20750
814.41	20659
814.551	20708
814.692	20750
814.833	20560
814.974	20571
815.115	20594
815.256	20393
815.397	20446
815.539	20545
815.68	20412
815.821	20343
815.962	20476
816.103	20434
816.244	20248
816.385	20172
816.526	20103
816.666	19989
816.807	19879
816.948	19879
817.089	19852
817.23	19849
817.371	19856
817.512	19833
817.653	19871
817.793	19769
817.934	19826
818.075	19807
818.216	19871
818.356	19704
818.497	19575
818.638	19506
818.778	19472
818.919	19575
819.06	19575
819.2	19632
819.341	19799
819.481	19681
819.622	19795
819.762	20005
819.903	19864
820.043	19875
820.184	19822
820.324	19746
820.465	19822
820.605	19902
820.746	19780
820.886	19674
821.026	19700
821.167	19708
821.307	19860
821.447	19700
821.588	19590
821.728	19445
821.868	19350
822.008	19103
822.149	19198
822.289	19160
822.429	18939
822.569	18833
822.709	18802
822.849	18681
822.99	18620
823.13	18684
823.27	18570
823.41	18525
823.55	18426
823.69	18513
823.83	18429
823.97	18399
824.11	18372
824.25	18125
824.389	18334
824.529	18399
824.669	18266
824.809	18410
824.949	18418
825.089	18346
825.228	18197
825.368	18106
825.508	18079
825.648	18007
825.787	17992
825.927	18106
826.067	18038
826.206	17889
826.346	18114
826.485	18072
826.625	17908
826.765	18144
826.904	18140
827.044	17771
827.183	17741
827.323	17699
827.462	17695
827.601	17775
827.741	17748
827.88	17729
828.02	17672
828.159	17687
828.298	17707
828.437	17745
828.577	17608
828.716	17779
828.855	17680
828.994	17596
829.134	17478
829.273	17497
829.412	17433
829.551	17421
829.69	17398
829.829	17414
829.968	17532
830.107	17558
830.246	17615
830.385	17436
830.524	17383
830.663	17284
830.802	17216
830.941	17136
831.08	16968
831.219	17216
831.357	17178
831.496	17231
831.635	17239
831.774	16930
831.913	16930
832.051	16828
832.19	16831
832.329	16919
832.467	16778
832.606	16801
832.744	16767
832.883	16847
833.022	16733
833.16	16824
833.299	16740
833.437	16831
833.576	16771
833.714	16828
833.852	16839
833.991	16790
834.129	16877
834.267	16896
834.406	16790
834.544	16850
834.682	16774
834.821	16831
834.959	17090
835.097	16774
835.235	16995
835.373	16877
835.511	16881
835.65	16828
835.788	16736
835.926	16588
836.064	16531
836.202	16558
836.34	16790
836.478	16873
836.615	16607
836.753	16736
836.891	16900
837.029	16877
837.167	16759
837.305	16588
837.443	16599
837.58	16550
837.718	16626
837.856	16664
837.993	16512
838.131	16569
838.269	16508
838.406	16535
838.544	16341
838.681	16341
838.819	16265
838.956	16188
839.094	16105
839.231	16181
839.369	16394
839.506	16497
839.643	16257
839.781	16139
839.918	16029
840.055	16215
840.193	16131
840.33	16044
840.467	16185
840.604	16219
840.742	16371
840.879	15983
841.016	16025
841.153	16055
841.29	16200
841.427	16139
841.564	16147
841.701	16131
841.838	16131
841.975	16055
842.112	16097
842.249	15941
842.385	15846
842.522	16021
842.659	15991
842.796	15865
842.933	15903
843.069	15876
843.206	15778
843.343	15949
843.479	15956
843.616	15895
843.752	15709
843.889	15743
844.025	15903
844.162	15618
844.298	15797
844.435	15671
844.571	15610
844.708	15739
844.844	15915
844.98	15808
845.117	15682
845.253	15717
845.389	15530
845.525	15591
845.661	15606
845.798	15644
845.934	15656
846.07	15538
846.206	15610
846.342	15663
846.478	15625
846.614	15496
846.75	15291
846.886	15294
847.022	15302
847.158	15275
847.294	15256
847.429	15351
847.565	15226
847.701	15462
847.837	14982
847.972	14990
848.108	15127
848.244	15169
848.379	14899
848.515	14937
848.65	14872
848.786	14819
848.921	14895
849.057	14857
849.192	14929
849.328	14872
849.463	14864
849.598	14864
849.734	14746
849.869	14697
850.004	14632
850.14	14636
850.275	14648
850.41	14617
850.545	14511
850.68	14583
850.815	14705
850.95	14587
851.085	14746
851.22	14640
851.355	14590
851.49	14514
851.625	14629
851.76	14648
851.895	14499
852.03	14476
852.165	14549
852.299	14682
852.434	14689
852.569	14610
852.703	14648
852.838	14762
852.973	14800
853.107	14823
853.242	14648
853.376	14514
853.511	14393
853.645	14423
853.78	14629
853.914	14587
854.048	14450
854.183	14514
854.317	14473
854.451	14670
854.585	14415
854.72	14419
854.854	14579
854.988	14396
855.122	14480
855.256	14298
855.39	14476
855.524	14526
855.658	14469
855.792	14564
855.926	14499
856.06	14480
856.194	14575
856.327	14514
856.461	14385
856.595	14370
856.729	14446
856.862	14568
856.996	14545
857.13	14461
857.263	14617
857.397	14541
857.53	14522
857.664	14514
857.797	14579
857.931	14712
858.064	14503
858.197	14594
858.331	14503
858.464	14480
858.597	14385
858.731	14514
858.864	14560
858.997	14415
859.13	14533
859.263	14488
859.396	14492
859.529	14457
859.662	14484
859.795	14461
859.928	14404
860.061	14552
860.194	14625
860.327	14469
860.46	14507
860.592	14621
860.725	14579
860.858	14537
860.99	14526
861.123	14362
861.256	14374
861.388	14552
861.521	15230
861.653	14381
861.786	14278
861.918	14305
862.05	14366
862.183	14575
862.315	14450
862.447	14415
862.58	14412
862.712	14290
862.844	14206
862.976	14328
863.108	14229
863.24	14682
863.372	14286
863.504	14229
863.636	14187
863.768	14324
863.9	14339
864.032	14229
864.164	14278
864.296	14286
864.428	14423
864.559	14256
864.691	14358
864.823	14317
864.954	14256
865.086	14263
865.217	14221
865.349	14206
865.48	14256
865.612	14317
865.743	14377
865.875	14225
866.006	14206
866.137	14233
866.269	14180
866.4	14294
866.531	14157
866.662	14176
866.793	14138
866.924	14172
867.055	14320
867.186	14240
867.317	14153
867.448	14206
867.579	14210
867.71	14229
867.841	14195
867.972	14195
868.103	14191
868.233	14259
868.364	14225
868.495	14263
868.625	14438
868.756	14564
868.886	14473
869.017	14526
869.147	14602
869.278	14606
869.408	14636
869.539	14518
869.669	14564
869.799	14530
869.929	14682
870.06	14617
870.19	14785
870.32	14705
870.45	14868
870.58	14883
870.71	14971
870.84	15009
870.97	14876
871.1	14819
871.23	15142
871.36	15039
871.489	14891
871.619	14990
871.749	15001
871.879	15157
872.008	15264
872.138	15165
872.267	15032
872.397	15001
872.526	14902
872.656	14918
872.785	14918
872.915	15055
873.044	15272
873.173	15123
873.303	15161
873.432	15176
873.561	15245
873.69	15093
873.819	15146
873.948	15272
874.077	15161
874.206	15070
874.335	15203
874.464	15283
874.593	15454
874.722	15351
874.851	15462
874.979	15511
875.108	15481
875.237	15393
875.365	15416
875.494	15340
875.623	15496
875.751	15393
875.88	15424
876.008	15500
876.136	15644
876.265	15804
876.393	15972
876.521	15827
876.65	15960
876.778	15941
876.906	15880
877.034	15812
877.162	15934
877.29	15857
877.418	15831
877.546	15854
877.674	15835
877.802	15941
877.93	15789
878.058	15857
878.185	15759
878.313	15728
878.441	15854
878.568	15842
878.696	15835
878.824	15842
878.951	15854
879.079	15968
879.206	16120
879.333	16029
879.461	15903
879.588	15960
879.715	16116
879.842	16162
879.97	15983
880.097	15789
880.224	15724
880.351	15755
880.478	15781
880.605	15717
880.732	15717
880.859	15960
880.986	15755
881.112	15713
881.239	15523
881.366	15507
881.493	15420
881.619	15386
881.746	15374
881.872	15325
881.999	15306
882.125	15302
882.252	15412
882.378	15424
882.505	15485
882.631	15272
882.757	15272
882.883	15154
883.01	15245
883.136	15146
883.262	15028
883.388	14998
883.514	15222
883.64	15211
883.766	15157
883.892	14975
884.018	14956
884.143	15135
884.269	15123
884.395	14979
884.52	14853
884.646	14906
884.772	14853
884.897	14739
885.023	14842
885.148	14944
885.274	15097
885.399	14925
885.524	14895
885.65	14785
885.775	14933
885.9	14800
886.025	14899
886.15	15005
886.275	14906
886.4	14819
886.525	14849
886.65	14895
886.775	14811
886.9	15051
887.025	15005
887.149	14754
887.274	14697
887.399	14648
887.523	14617
887.648	14727
887.773	14636
887.897	14830
888.021	14701
888.146	14682
888.27	14678
888.395	14842
888.519	14746
888.643	14811
888.767	14777
888.891	14648
889.015	14473
889.139	14575
889.263	14632
889.387	14716
889.511	14655
889.635	14644
889.759	14507
889.883	14560
890.006	14648
890.13	14762
890.254	14549
890.377	14457
890.501	14393
890.624	14374
890.748	14434
890.871	14263
890.995	14218
891.118	14248
891.241	14358
891.364	14324
891.488	14324
891.611	14202
891.734	14362
891.857	14328
891.98	14286
892.103	14214
892.226	14282
892.349	14298
892.471	14149
892.594	14180
892.717	14252
892.839	14229
892.962	14214
893.085	14309
893.207	14298
893.33	14142
893.452	14256
893.575	14317
893.697	14301
893.819	14370
893.941	14339
894.064	14286
894.186	14290
894.308	14168
894.43	14415
894.552	14427
894.674	14415
894.796	14225
894.918	14309
895.04	14233
895.161	14339
895.283	14381
895.405	14309
895.526	14396
895.648	14347
895.769	14400
895.891	14541
896.012	14518
896.134	14503
896.255	14347
896.376	14389
896.498	14522
896.619	14484
896.74	14431
896.861	14476
896.982	14792
897.103	14910
897.224	14727
897.345	14689
897.466	14640
897.587	14590
897.708	14830
897.828	14712
897.949	14720
898.07	14541
898.19	14689
898.311	14796
898.431	14663
898.552	14796
898.672	14864
898.792	14944
898.913	14701
899.033	14727
899.153	14670
899.273	14514
899.393	14617
899.513	14724
899.633	14625
899.753	14545
899.873	14610
899.993	14613
900.113	14575
900.232	14781
900.352	14686
900.472	14495
900.591	14499
900.711	14450
900.83	14465
900.95	14533
901.069	14552
901.189	14507
901.308	14199
901.427	14142
901.546	14206
901.665	14183
901.784	14176
901.904	14077
902.023	13993
902.141	13776
902.26	13746
902.379	13928
902.498	13746
902.617	13689
902.735	13761
902.854	13685
902.973	13769
903.091	13487
903.21	13460
903.328	13533
903.446	13362
903.565	13358
903.683	13365
903.801	13228
903.919	13316
904.038	13327
904.156	13141
904.274	13141
904.392	13129
904.51	13156
904.627	13084
904.745	13118
904.863	13183
904.981	12875
905.098	12768
905.216	12764
905.334	12776
905.451	12779
905.569	12654
905.686	12848
905.803	12821
905.921	12585
906.038	12741
906.155	12593
906.272	12528
906.389	12578
906.506	12365
906.623	12334
906.74	12369
906.857	12266
906.974	12228
907.091	12437
907.208	12540
907.324	12467
907.441	12216
907.557	12235
907.674	12125
907.79	12095
907.907	12053
908.023	12148
908.139	12087
908.256	11988
908.372	12171
908.488	11996
908.604	11897
908.72	11866
908.836	11874
908.952	11863
909.068	11984
909.184	11965
909.3	11904
909.415	11878
909.531	11992
909.647	11703
909.762	11596
909.878	11619
909.993	11611
910.108	11619
910.224	11691
910.339	11672
910.454	11592
910.57	11512
910.685	11524
910.8	11809
910.915	11699
911.03	11585
911.145	11356
911.259	11345
911.374	11353
911.489	11242
911.604	11254
911.718	11212
911.833	11140
911.947	11003
912.062	10991
912.176	11143
912.291	11056
912.405	11155
912.519	11334
912.633	11269
912.748	11193
912.862	11170
912.976	10987
913.09	10854
913.204	10961
913.318	10976
913.431	11079
913.545	11060
913.659	11037
913.772	10915
913.886	10854
914	10889
914.113	10904
914.226	10938
914.34	10919
914.453	10812
914.566	10904
914.68	10820
914.793	10862
914.906	10706
915.019	10630
915.132	10493
915.245	10580
915.358	10675
915.47	10611
915.583	10630
915.696	10683
915.809	10820
915.921	10698
916.034	10596
916.146	10550
916.259	10596
916.371	10683
916.483	10645
916.595	10527
916.708	10550
916.82	10584
916.932	10554
917.044	10584
917.156	10550
917.268	10394
917.38	10523
917.491	10443
917.603	10424
917.715	10485
917.826	10596
917.938	10497
918.049	10257
918.161	10428
918.272	10577
918.384	10653
918.495	10504
918.606	10329
918.717	10265
918.828	10337
918.939	10367
919.05	10223
919.161	10227
919.272	10124
919.383	10249
919.494	10333
919.604	10569
919.715	10318
919.826	10329
919.936	10223
920.047	10318
920.157	10417
920.267	10527
920.378	10402
920.488	10344
920.598	10527
920.708	10675
920.818	10531
920.928	10573
921.038	10637
921.148	10611
921.258	10375
921.368	10280
921.477	10204
921.587	10238
921.697	10025
921.806	10192
921.916	10074
922.025	9983
922.134	10002
922.244	9846
922.353	9880
922.462	9774
922.571	9789
922.68	9694
922.789	9580
922.898	9564
923.007	9534
923.116	9599
923.224	9534
923.333	9599
923.442	9428
923.55	9382
923.659	9473
923.767	9485
923.876	9485
923.984	9530
924.092	9420
924.201	9435
924.309	9458
924.417	9454
924.525	9405
924.633	9439
924.741	10147
924.849	9230
924.956	9298
925.064	9245
925.172	9119
925.279	9214
925.387	9203
925.494	9253
925.602	9374
925.709	9344
925.816	9138
925.924	9211
926.031	9279
926.138	9195
926.245	9313
926.352	9211
926.459	9283
926.566	9306
926.673	9100
926.779	9100
926.886	9104
926.993	9020
927.099	8948
927.206	8956
927.312	8792
927.419	8963
927.525	8933
927.631	9024
927.737	8883
927.843	8826
927.95	8754
928.056	8811
928.162	8880
928.267	8849
928.373	9340
928.479	8899
928.585	8689
928.69	8891
928.796	8849
928.901	8724
929.007	8583
929.112	8823
929.218	8788
929.323	8629
929.428	8648
929.533	8815
929.638	8598
929.743	8590
929.848	8670
929.953	8659
930.058	8564
930.163	8393
930.267	8419
930.372	8530
930.477	8298
930.581	8617
930.685	8469
930.79	8381
930.894	8370
930.998	8275
931.103	8499
931.207	8157
931.311	8100
931.415	8130
931.519	7826
931.623	7883
