Data from test_V78500241_3146.txt Node
Date: Fri Mar 25 14:55:37 CST 2022
User: usil
Spectrometer: V785-0024
Trigger mode: 0
Integration Time (sec): 4.000000E-1
Scans to average: 1
Nonlinearity correction enabled: false
Boxcar width: 0
Storing dark spectrum: false
XAxis mode: Wavelengths
Number of Pixels in Spectrum: 1024
>>>>>Begin Spectral Data<<<<<
801.071	22078
801.214	21915
801.356	21793
801.499	21652
801.641	21519
801.783	21332
801.926	21397
802.068	21321
802.211	21283
802.353	21245
802.496	21013
802.638	20845
802.78	20887
802.923	20804
803.065	20667
803.208	20705
803.35	20739
803.492	20826
803.635	20937
803.777	20708
803.919	20895
804.061	21154
804.204	20769
804.346	20697
804.488	20663
804.63	20724
804.773	20655
804.915	20693
805.057	20743
805.199	20602
805.341	20785
805.483	20811
805.626	20804
805.768	20583
805.91	20762
806.052	20667
806.194	20682
806.336	20864
806.478	20556
806.62	20583
806.762	20731
806.904	20849
807.046	20971
807.188	20994
807.33	20963
807.472	21081
807.614	20895
807.756	20838
807.898	20864
808.04	20667
808.182	20651
808.324	20708
808.465	20746
808.607	20880
808.749	21001
808.891	21138
809.033	21268
809.174	21005
809.316	21017
809.458	20967
809.6	21192
809.741	20986
809.883	21108
810.025	21237
810.166	21306
810.308	21119
810.45	21089
810.591	21013
810.733	20952
810.875	20800
811.016	20716
811.158	20804
811.299	20982
811.441	21001
811.582	20845
811.724	20712
811.865	20731
812.007	20769
812.148	20727
812.29	20796
812.431	20887
812.573	21081
812.714	21203
812.855	21268
812.997	21428
813.138	21606
813.279	21420
813.421	21332
813.562	21142
813.703	21036
813.845	20921
813.986	20708
814.127	20606
814.268	20434
814.41	20393
814.551	20396
814.692	20427
814.833	20202
814.974	20339
815.115	20271
815.256	20259
815.397	20229
815.539	20199
815.68	20130
815.821	20065
815.962	20103
816.103	19925
816.244	19845
816.385	19845
816.526	19643
816.666	19605
816.807	19506
816.948	19518
817.089	19594
817.23	19590
817.371	19460
817.512	19495
817.653	19384
817.793	19369
817.934	19559
818.075	19521
818.216	19510
818.356	19400
818.497	19381
818.638	19137
818.778	19171
818.919	19187
819.06	19240
819.2	19263
819.341	19403
819.481	19327
819.622	19487
819.762	19708
819.903	19639
820.043	19426
820.184	19403
820.324	19525
820.465	19552
820.605	19411
820.746	19339
820.886	19274
821.026	19369
821.167	19434
821.307	19537
821.447	19422
821.588	19255
821.728	19034
821.868	19053
822.008	18829
822.149	18783
822.289	18802
822.429	18540
822.569	18509
822.709	18555
822.849	18395
822.99	18346
823.13	18273
823.27	18205
823.41	18171
823.55	18144
823.69	18106
823.83	18171
823.97	18057
824.11	17916
824.25	17912
824.389	17798
824.529	18072
824.669	17935
824.809	17908
824.949	17931
825.089	18007
825.228	17927
825.368	17726
825.508	17745
825.648	17691
825.787	17794
825.927	17726
826.067	17596
826.206	17672
826.346	17611
826.485	17619
826.625	17676
826.765	17771
826.904	17752
827.044	17490
827.183	17391
827.323	17349
827.462	17398
827.601	17391
827.741	17315
827.88	17421
828.02	17189
828.159	17353
828.298	17341
828.437	17421
828.577	17356
828.716	17467
828.855	17360
828.994	17067
829.134	17227
829.273	17056
829.412	17048
829.551	17037
829.69	17185
829.829	17083
829.968	17193
830.107	17162
830.246	17174
830.385	17140
830.524	17056
830.663	16957
830.802	16930
830.941	16778
831.08	16740
831.219	16729
831.357	16843
831.496	16786
831.635	16778
831.774	16580
831.913	16596
832.051	16615
832.19	16474
832.329	16550
832.467	16493
832.606	16341
832.744	16421
832.883	16405
833.022	16440
833.16	16417
833.299	16554
833.437	16504
833.576	16417
833.714	16432
833.852	16504
833.991	16474
834.129	16592
834.267	16542
834.406	16447
834.544	16504
834.682	16527
834.821	16512
834.959	16694
835.097	16371
835.235	16500
835.373	16459
835.511	16481
835.65	16386
835.788	16402
835.926	16287
836.064	16166
836.202	16257
836.34	16516
836.478	16470
836.615	16413
836.753	16375
836.891	16436
837.029	16417
837.167	16337
837.305	16249
837.443	16204
837.58	16306
837.718	16268
837.856	16295
837.993	16257
838.131	16261
838.269	16090
838.406	16131
838.544	16120
838.681	16025
838.819	15800
838.956	15857
839.094	15785
839.231	15831
839.369	15968
839.506	16143
839.643	16032
839.781	15857
839.918	15755
840.055	15861
840.193	15846
840.33	15743
840.467	15701
840.604	15892
840.742	15972
840.879	15732
841.016	15660
841.153	15720
841.29	15907
841.427	15842
841.564	15869
841.701	15808
841.838	15827
841.975	15755
842.112	15755
842.249	15526
842.385	15557
842.522	15720
842.659	15530
842.796	15530
842.933	15591
843.069	15557
843.206	15515
843.343	15622
843.479	15603
843.616	15686
843.752	15500
843.889	15348
844.025	15507
844.162	15386
844.298	15488
844.435	15340
844.571	15329
844.708	15424
844.844	15504
844.98	15538
845.117	15515
845.253	15230
845.389	15329
845.525	15317
845.661	15074
845.798	15119
845.934	15203
846.07	15119
846.206	15142
846.342	15291
846.478	15036
846.614	14979
846.75	14948
846.886	14918
847.022	15047
847.158	14918
847.294	14960
847.429	14876
847.565	14925
847.701	15085
847.837	14625
847.972	14670
848.108	14811
848.244	14697
848.379	14613
848.515	14537
848.65	14522
848.786	14594
848.921	14564
849.057	14594
849.192	14686
849.328	14606
849.463	14499
849.598	14492
849.734	14507
849.869	14389
850.004	14336
850.14	14332
850.275	14343
850.41	14267
850.545	14305
850.68	14248
850.815	14153
850.95	14290
851.085	14537
851.22	14393
851.355	14309
851.49	14282
851.625	14294
851.76	14275
851.895	14164
852.03	14130
852.165	14233
852.299	14328
852.434	14381
852.569	14336
852.703	14256
852.838	14343
852.973	14522
853.107	14442
853.242	14210
853.376	14225
853.511	14126
853.645	14050
853.78	14259
853.914	14138
854.048	14100
854.183	14107
854.317	14202
854.451	14457
854.585	14126
854.72	14153
854.854	14301
854.988	14027
855.122	14062
855.256	14043
855.39	14126
855.524	14259
855.658	14180
855.792	14229
855.926	14252
856.06	14256
856.194	14278
856.327	14126
856.461	14161
856.595	14100
856.729	14096
856.862	14282
856.996	14195
857.13	14206
857.263	14256
857.397	14317
857.53	14157
857.664	14275
857.797	14294
857.931	14294
858.064	14240
858.197	14351
858.331	14191
858.464	14180
858.597	14046
858.731	14161
858.864	14229
858.997	14161
859.13	14138
859.263	14275
859.396	14355
859.529	14237
859.662	14088
859.795	14195
859.928	14161
860.061	14278
860.194	14320
860.327	14233
860.46	14103
860.592	14317
860.725	14408
860.858	14294
860.99	14157
861.123	14088
861.256	14050
861.388	14142
861.521	14834
861.653	14062
861.786	13986
861.918	14111
862.05	14084
862.183	14084
862.315	14282
862.447	14191
862.58	14119
862.712	14008
862.844	13856
862.976	13970
863.108	13974
863.24	14332
863.372	13993
863.504	13860
863.636	13974
863.768	14020
863.9	14016
864.032	13894
864.164	13959
864.296	14012
864.428	14035
864.559	14100
864.691	14119
864.823	13947
864.954	14062
865.086	13982
865.217	13944
865.349	13925
865.48	13963
865.612	13997
865.743	14069
865.875	13936
866.006	13883
866.137	13993
866.269	13841
866.4	14008
866.531	13940
866.662	13913
866.793	13898
866.924	13879
867.055	13951
867.186	13963
867.317	13906
867.448	13902
867.579	13883
867.71	13902
867.841	13849
867.972	13989
868.103	13883
868.233	13982
868.364	14001
868.495	13955
868.625	14164
868.756	14294
868.886	14012
869.017	14248
869.147	14294
869.278	14202
869.408	14233
869.539	14092
869.669	14187
869.799	14252
869.929	14301
870.06	14290
870.19	14465
870.32	14549
870.45	14488
870.58	14560
870.71	14739
870.84	14686
870.97	14606
871.1	14564
871.23	14838
871.36	14857
871.489	14686
871.619	14762
871.749	14785
871.879	14880
872.008	14906
872.138	14781
872.267	14792
872.397	14667
872.526	14556
872.656	14560
872.785	14648
872.915	14758
873.044	14963
873.173	14746
873.303	14929
873.432	14895
873.561	14979
873.69	14887
873.819	14861
873.948	14971
874.077	14868
874.206	14762
874.335	14746
874.464	15013
874.593	15058
874.722	15077
874.851	15123
874.979	15157
875.108	15355
875.237	15058
875.365	15058
875.494	15051
875.623	15256
875.751	15146
875.88	15192
876.008	15359
876.136	15351
876.265	15610
876.393	15675
876.521	15675
876.65	15717
876.778	15572
876.906	15466
877.034	15515
877.162	15568
877.29	15477
877.418	15663
877.546	15504
877.674	15603
877.802	15591
877.93	15542
878.058	15538
878.185	15370
878.313	15618
878.441	15671
878.568	15462
878.696	15428
878.824	15648
878.951	15698
879.079	15724
879.206	15892
879.333	15770
879.461	15709
879.588	15652
879.715	15873
879.842	15979
879.97	15603
880.097	15447
880.224	15359
880.351	15454
880.478	15443
880.605	15412
880.732	15477
880.859	15766
880.986	15450
881.112	15591
881.239	15317
881.366	15199
881.493	15081
881.619	15036
881.746	15123
881.872	15165
881.999	15104
882.125	15157
882.252	15097
882.378	15199
882.505	15252
882.631	15013
882.757	14906
882.883	14960
883.01	14929
883.136	14906
883.262	14826
883.388	14735
883.514	14918
883.64	14887
883.766	14849
883.892	14724
884.018	14686
884.143	14944
884.269	14948
884.395	14648
884.52	14564
884.646	14629
884.772	14602
884.897	14511
885.023	14617
885.148	14708
885.274	14651
885.399	14705
885.524	14613
885.65	14667
885.775	14610
885.9	14583
886.025	14731
886.15	14644
886.275	14613
886.4	14503
886.525	14545
886.65	14545
886.775	14514
886.9	14712
887.025	14762
887.149	14549
887.274	14377
887.399	14336
887.523	14480
887.648	14415
887.773	14320
887.897	14583
888.021	14606
888.146	14415
888.27	14568
888.395	14575
888.519	14560
888.643	14560
888.767	14473
888.891	14370
889.015	14259
889.139	14305
889.263	14244
889.387	14412
889.511	14488
889.635	14465
889.759	14290
889.883	14267
890.006	14313
890.13	14431
890.254	14210
890.377	14267
890.501	14153
890.624	14077
890.748	14130
890.871	14001
890.995	13982
891.118	13887
891.241	14092
891.364	14020
891.488	14142
891.611	13982
891.734	13951
891.857	13970
891.98	14130
892.103	14149
892.226	14050
892.349	13909
892.471	13871
892.594	13890
892.717	14008
892.839	13936
892.962	14043
893.085	14069
893.207	14024
893.33	13868
893.452	13928
893.575	14035
893.697	13978
893.819	14153
893.941	14248
894.064	14206
894.186	13944
894.308	14016
894.43	14111
894.552	14191
894.674	14107
894.796	13921
894.918	14062
895.04	14027
895.161	14168
895.283	14035
895.405	14020
895.526	14142
895.648	14145
895.769	14221
895.891	14195
896.012	14225
896.134	14263
896.255	14263
896.376	14176
896.498	14168
896.619	14332
896.74	14176
896.861	14225
896.982	14488
897.103	14670
897.224	14450
897.345	14358
897.466	14423
897.587	14423
897.708	14473
897.828	14469
897.949	14431
898.07	14347
898.19	14377
898.311	14651
898.431	14438
898.552	14526
898.672	14648
898.792	14606
898.913	14659
899.033	14450
899.153	14343
899.273	14351
899.393	14431
899.513	14404
899.633	14336
899.753	14400
899.873	14301
899.993	14438
900.113	14328
900.232	14400
900.352	14393
900.472	14313
900.591	14176
900.711	14267
900.83	14138
900.95	14343
901.069	14366
901.189	14164
901.308	14035
901.427	13864
901.546	13955
901.665	14039
901.784	13967
901.904	13731
902.023	13666
902.141	13529
902.26	13514
902.379	13578
902.498	13419
902.617	13521
902.735	13578
902.854	13476
902.973	13438
903.091	13316
903.21	13274
903.328	13206
903.446	13179
903.565	13160
903.683	13118
903.801	12989
903.919	13057
904.038	13027
904.156	12954
904.274	12901
904.392	12821
904.51	12954
904.627	12909
904.745	12947
904.863	12882
904.981	12779
905.098	12601
905.216	12669
905.334	12665
905.451	12631
905.569	12662
905.686	12681
905.803	12582
905.921	12433
906.038	12559
906.155	12471
906.272	12330
906.389	12273
906.506	12213
906.623	12258
906.74	12209
906.857	12102
906.974	12148
907.091	12228
907.208	12372
907.324	12205
907.441	12186
907.557	11980
907.674	12019
907.79	11901
907.907	11961
908.023	12038
908.139	11999
908.256	11954
908.372	11859
908.488	11897
908.604	11695
908.72	11729
908.836	11703
908.952	11646
909.068	11703
909.184	11855
909.3	11779
909.415	11745
909.531	11760
909.647	11516
909.762	11490
909.878	11406
909.993	11528
910.108	11444
910.224	11421
910.339	11532
910.454	11444
910.57	11246
910.685	11261
910.8	11543
910.915	11585
911.03	11471
911.145	11220
911.259	11204
911.374	11185
911.489	11098
911.604	11006
911.718	10911
911.833	10972
911.947	10854
912.062	10721
912.176	10987
912.291	10965
912.405	10995
912.519	11128
912.633	11086
912.748	11090
912.862	10984
912.976	10877
913.09	10706
913.204	10831
913.318	10797
913.431	10889
913.545	10942
913.659	10949
913.772	10801
913.886	10740
914	10740
914.113	10866
914.226	10896
914.34	10759
914.453	10649
914.566	10729
914.68	10664
914.793	10668
914.906	10527
915.019	10379
915.132	10322
915.245	10440
915.358	10455
915.47	10485
915.583	10523
915.696	10478
915.809	10565
915.921	10634
916.034	10447
916.146	10303
916.259	10489
916.371	10531
916.483	10497
916.595	10344
916.708	10428
916.82	10375
916.932	10341
917.044	10390
917.156	10348
917.268	10295
917.38	10360
917.491	10276
917.603	10299
917.715	10379
917.826	10329
917.938	10169
918.049	10173
918.161	10215
918.272	10512
918.384	10363
918.495	10303
918.606	10105
918.717	10063
918.828	10158
918.939	10131
919.05	10071
919.161	10211
919.272	9941
919.383	10112
919.494	10207
919.604	10493
919.715	10223
919.826	10150
919.936	10154
920.047	10192
920.157	10192
920.267	10363
920.378	10223
920.488	10154
920.598	10360
920.708	10531
920.818	10322
920.928	10405
921.038	10527
921.148	10535
921.258	10196
921.368	10139
921.477	10006
921.587	10048
921.697	9876
921.806	10067
921.916	9994
922.025	9762
922.134	9747
922.244	9679
922.353	9873
922.462	9587
922.571	9599
922.68	9412
922.789	9370
922.898	9458
923.007	9348
923.116	9507
923.224	9462
923.333	9504
923.442	9340
923.55	9329
923.659	9348
923.767	9431
923.876	9325
923.984	9393
924.092	9272
924.201	9260
924.309	9374
924.417	9310
924.525	9268
924.633	9359
924.741	10192
924.849	9131
924.956	9321
925.064	9058
925.172	8918
925.279	9043
925.387	9077
925.494	9093
925.602	9275
925.709	9241
925.816	9116
925.924	9036
926.031	9165
926.138	9112
926.245	9195
926.352	9032
926.459	9192
926.566	9237
926.673	9043
926.779	8990
926.886	9001
926.993	8838
927.099	8804
927.206	8769
927.312	8762
927.419	8872
927.525	8796
927.631	8853
927.737	8735
927.843	8701
927.95	8564
928.056	8788
928.162	8678
928.267	8792
928.373	9325
928.479	8895
928.585	8606
928.69	8727
928.796	8769
928.901	8594
929.007	8476
929.112	8636
929.218	8651
929.323	8568
929.428	8530
929.533	8644
929.638	8511
929.743	8488
929.848	8598
929.953	8522
930.058	8438
930.163	8282
930.267	8279
930.372	8431
930.477	8244
930.581	8492
930.685	8381
930.79	8271
930.894	8275
930.998	8298
931.103	8396
931.207	8043
931.311	7978
931.415	7925
931.519	7772
931.623	7761
