Data from test_V78500241_441.txt Node
Date: Fri Mar 25 14:36:47 CST 2022
User: usil
Spectrometer: V785-0024
Trigger mode: 0
Integration Time (sec): 4.000000E-1
Scans to average: 1
Nonlinearity correction enabled: false
Boxcar width: 0
Storing dark spectrum: false
XAxis mode: Wavelengths
Number of Pixels in Spectrum: 1024
>>>>>Begin Spectral Data<<<<<
801.071	26434
801.214	26431
801.356	26278
801.499	26077
801.641	26073
801.783	26039
801.926	26027
802.068	25932
802.211	25849
802.353	25860
802.496	25635
802.638	25727
802.78	25609
802.923	25662
803.065	25468
803.208	25400
803.35	25479
803.492	25571
803.635	25761
803.777	25529
803.919	25575
804.061	25784
804.204	25502
804.346	25396
804.488	25491
804.63	25590
804.773	25396
804.915	25430
805.057	25670
805.199	25548
805.341	25540
805.483	25594
805.626	25548
805.768	25476
805.91	25670
806.052	25472
806.194	25499
806.336	25628
806.478	25556
806.62	25476
806.762	25742
806.904	25837
807.046	25959
807.188	25906
807.33	25776
807.472	25917
807.614	25788
807.756	25742
807.898	25784
808.04	25719
808.182	25670
808.324	25704
808.465	25715
808.607	25860
808.749	26035
808.891	25986
809.033	26282
809.174	26210
809.316	25989
809.458	26031
809.6	25879
809.741	26016
809.883	26096
810.025	26313
810.166	26317
810.308	26176
810.45	26240
810.591	25982
810.733	26012
810.875	25860
811.016	25719
811.158	25776
811.299	25928
811.441	26081
811.582	25837
811.724	25894
811.865	25784
812.007	25826
812.148	25898
812.29	25890
812.431	25989
812.573	26084
812.714	26263
812.855	26309
812.997	26465
813.138	26549
813.279	26457
813.421	26374
813.562	26347
813.703	26111
813.845	26122
813.986	25746
814.127	25571
814.268	25460
814.41	25521
814.551	25415
814.692	25582
814.833	25377
814.974	25270
815.115	25312
815.256	25198
815.397	25206
815.539	25122
815.68	25160
815.821	25164
815.962	25065
816.103	25095
816.244	25050
816.385	24890
816.526	24802
816.666	24802
816.807	24681
816.948	24646
817.089	24791
817.23	24582
817.371	24574
817.512	24604
817.653	24528
817.793	24486
817.934	24388
818.075	24521
818.216	24578
818.356	24525
818.497	24258
818.638	24239
818.778	24148
818.919	24235
819.06	24311
819.2	24399
819.341	24391
819.481	24361
819.622	24608
819.762	24677
819.903	24635
820.043	24593
820.184	24563
820.324	24448
820.465	24661
820.605	24563
820.746	24498
820.886	24311
821.026	24467
821.167	24498
821.307	24483
821.447	24429
821.588	24346
821.728	24300
821.868	24022
822.008	23965
822.149	23851
822.289	23813
822.429	23589
822.569	23516
822.709	23516
822.849	23379
822.99	23318
823.13	23414
823.27	23223
823.41	23181
823.55	23075
823.69	23170
823.83	23151
823.97	23075
824.11	22877
824.25	22900
824.389	22942
824.529	22801
824.669	22862
824.809	23033
824.949	22942
825.089	23128
825.228	22911
825.368	22774
825.508	22721
825.648	22660
825.787	22683
825.927	22649
826.067	22664
826.206	22656
826.346	22831
826.485	22748
826.625	22611
826.765	22809
826.904	22774
827.044	22474
827.183	22402
827.323	22405
827.462	22394
827.601	22356
827.741	22344
827.88	22371
828.02	22169
828.159	22299
828.298	22379
828.437	22363
828.577	22356
828.716	22432
828.855	22356
828.994	22063
829.134	22124
829.273	22131
829.412	21998
829.551	21953
829.69	22017
829.829	22116
829.968	22109
830.107	22090
830.246	22093
830.385	21979
830.524	21983
830.663	21884
830.802	21781
830.941	21633
831.08	21648
831.219	21789
831.357	21759
831.496	21842
831.635	21663
831.774	21523
831.913	21447
832.051	21454
832.19	21344
832.329	21485
832.467	21363
832.606	21291
832.744	21222
832.883	21428
833.022	21157
833.16	21272
833.299	21302
833.437	21351
833.576	21344
833.714	21329
833.852	21386
833.991	21370
834.129	21393
834.267	21439
834.406	21302
834.544	21355
834.682	21359
834.821	21154
834.959	21477
835.097	21150
835.235	21332
835.373	21294
835.511	21119
835.65	21199
835.788	21150
835.926	21104
836.064	20937
836.202	20975
836.34	21188
836.478	21192
836.615	21169
836.753	21165
836.891	21142
837.029	21230
837.167	21138
837.305	21108
837.443	21096
837.58	20937
837.718	21047
837.856	21013
837.993	20967
838.131	20849
838.269	20910
838.406	20853
838.544	20857
838.681	20686
838.819	20716
838.956	20476
839.094	20480
839.231	20606
839.369	20777
839.506	20918
839.643	20792
839.781	20457
839.918	20400
840.055	20564
840.193	20351
840.33	20362
840.467	20358
840.604	20438
840.742	20617
840.879	20240
841.016	20317
841.153	20263
841.29	20495
841.427	20427
841.564	20370
841.701	20419
841.838	20126
841.975	20240
842.112	20317
842.249	20161
842.385	20069
842.522	20317
842.659	20191
842.796	20134
842.933	20043
843.069	19989
843.206	20039
843.343	20218
843.479	20138
843.616	20073
843.752	19856
843.889	19864
844.025	19997
844.162	19811
844.298	19925
844.435	19841
844.571	19731
844.708	19868
844.844	19982
844.98	19986
845.117	20039
845.253	19731
845.389	19761
845.525	19791
845.661	19655
845.798	19552
845.934	19666
846.07	19639
846.206	19704
846.342	19696
846.478	19639
846.614	19392
846.75	19362
846.886	19354
847.022	19400
847.158	19343
847.294	19126
847.429	19274
847.565	19327
847.701	19575
847.837	19084
847.972	18924
848.108	19175
848.244	19171
848.379	18875
848.515	18802
848.65	18764
848.786	18795
848.921	18924
849.057	19012
849.192	18897
849.328	18943
849.463	18973
849.598	18897
849.734	18810
849.869	18779
850.004	18650
850.14	18639
850.275	18639
850.41	18532
850.545	18601
850.68	18559
850.815	18665
850.95	18696
851.085	18749
851.22	18707
851.355	18642
851.49	18612
851.625	18604
851.76	18604
851.895	18433
852.03	18566
852.165	18593
852.299	18536
852.434	18631
852.569	18669
852.703	18661
852.838	18639
852.973	18677
853.107	18681
853.242	18578
853.376	18372
853.511	18289
853.645	18391
853.78	18547
853.914	18410
854.048	18311
854.183	18418
854.317	18506
854.451	18604
854.585	18445
854.72	18372
854.854	18418
854.988	18315
855.122	18384
855.256	18266
855.39	18540
855.524	18509
855.658	18342
855.792	18467
855.926	18433
856.06	18418
856.194	18490
856.327	18395
856.461	18407
856.595	18311
856.729	18369
856.862	18547
856.996	18441
857.13	18445
857.263	18483
857.397	18506
857.53	18422
857.664	18475
857.797	18445
857.931	18536
858.064	18456
858.197	18513
858.331	18361
858.464	18357
858.597	18426
858.731	18353
858.864	18304
858.997	18346
859.13	18319
859.263	18456
859.396	18498
859.529	18353
859.662	18323
859.795	18311
859.928	18486
860.061	18555
860.194	18585
860.327	18418
860.46	18483
860.592	18479
860.725	18521
860.858	18448
860.99	18376
861.123	18289
861.256	18327
861.388	18407
861.521	19031
861.653	18353
861.786	18296
861.918	18178
862.05	18254
862.183	18361
862.315	18437
862.447	18593
862.58	18380
862.712	18174
862.844	18186
862.976	18254
863.108	18171
863.24	18464
863.372	17999
863.504	18026
863.636	18174
863.768	18064
863.9	18190
864.032	18064
864.164	17939
864.296	18144
864.428	18228
864.559	18140
864.691	18079
864.823	18155
864.954	18030
865.086	18129
865.217	17950
865.349	17935
865.48	18022
865.612	18030
865.743	18121
865.875	18102
866.006	18045
866.137	18019
866.269	18038
866.4	18072
866.531	17988
866.662	18072
866.793	17939
866.924	17897
867.055	18003
867.186	18045
867.317	17961
867.448	17783
867.579	18011
867.71	18019
867.841	18003
867.972	17961
868.103	18057
868.233	18026
868.364	17999
868.495	17950
868.625	18106
868.756	18327
868.886	18144
869.017	18167
869.147	18342
869.278	18372
869.408	18247
869.539	18087
869.669	18292
869.799	18247
869.929	18323
870.06	18270
870.19	18422
870.32	18388
870.45	18661
870.58	18627
870.71	18738
870.84	18707
870.97	18627
871.1	18494
871.23	18635
871.36	18821
871.489	18650
871.619	18753
871.749	18711
871.879	18882
872.008	18852
872.138	18802
872.267	18768
872.397	18642
872.526	18722
872.656	18563
872.785	18684
872.915	18859
873.044	18848
873.173	18814
873.303	18821
873.432	18981
873.561	18871
873.69	18871
873.819	18901
873.948	18829
874.077	18920
874.206	18886
874.335	18783
874.464	18943
874.593	19088
874.722	19095
874.851	19194
874.979	19099
875.108	19171
875.237	19084
875.365	19050
875.494	19126
875.623	19156
875.751	19053
875.88	19129
876.008	19251
876.136	19346
876.265	19502
876.393	19784
876.521	19601
876.65	19685
876.778	19502
876.906	19540
877.034	19422
877.162	19506
877.29	19396
877.418	19445
877.546	19594
877.674	19457
877.802	19506
877.93	19419
878.058	19415
878.185	19350
878.313	19518
878.441	19468
878.568	19362
878.696	19483
878.824	19628
878.951	19586
879.079	19689
879.206	19791
879.333	19639
879.461	19590
879.588	19647
879.715	19727
879.842	19803
879.97	19521
880.097	19339
880.224	19225
880.351	19293
880.478	19388
880.605	19282
880.732	19362
880.859	19582
880.986	19331
881.112	19392
881.239	19141
881.366	19076
881.493	18939
881.619	19114
881.746	19008
881.872	18977
881.999	19023
882.125	18924
882.252	19076
882.378	18913
882.505	19061
882.631	18871
882.757	18711
882.883	18875
883.01	18772
883.136	18684
883.262	18513
883.388	18635
883.514	18745
883.64	18749
883.766	18642
883.892	18544
884.018	18578
884.143	18703
884.269	18719
884.395	18604
884.52	18433
884.646	18388
884.772	18281
884.897	18308
885.023	18365
885.148	18388
885.274	18475
885.399	18475
885.524	18350
885.65	18365
885.775	18506
885.9	18410
886.025	18502
886.15	18372
886.275	18239
886.4	18174
886.525	18277
886.65	18266
886.775	18308
886.9	18448
887.025	18536
887.149	18372
887.274	18098
887.399	18171
887.523	18148
887.648	17992
887.773	18136
887.897	18155
888.021	18171
888.146	18121
888.27	18201
888.395	18163
888.519	18121
888.643	18232
888.767	18273
888.891	18038
889.015	18034
889.139	18057
889.263	17863
889.387	18057
889.511	18053
889.635	18110
889.759	17999
889.883	17942
890.006	17908
890.13	18087
890.254	17832
890.377	17916
890.501	17745
890.624	17729
890.748	17798
890.871	17684
890.995	17649
891.118	17539
891.241	17630
891.364	17581
891.488	17726
891.611	17581
891.734	17623
891.857	17577
891.98	17684
892.103	17619
892.226	17577
892.349	17649
892.471	17345
892.594	17573
892.717	17512
892.839	17528
892.962	17535
893.085	17547
893.207	17455
893.33	17452
893.452	17452
893.575	17478
893.697	17596
893.819	17665
893.941	17634
894.064	17596
894.186	17562
894.308	17368
894.43	17562
894.552	17756
894.674	17592
894.796	17486
894.918	17516
895.04	17501
895.161	17623
895.283	17649
895.405	17433
895.526	17577
895.648	17497
895.769	17687
895.891	17566
896.012	17676
896.134	17589
896.255	17623
896.376	17581
896.498	17668
896.619	17619
896.74	17714
896.861	17699
896.982	17859
897.103	18095
897.224	17942
897.345	17927
897.466	17668
897.587	17756
897.708	17996
897.828	17912
897.949	17748
898.07	17680
898.19	17855
898.311	17935
898.431	17821
898.552	17847
898.672	17885
898.792	17897
898.913	17821
899.033	17775
899.153	17619
899.273	17558
899.393	17505
899.513	17608
899.633	17581
899.753	17684
899.873	17558
899.993	17684
900.113	17619
900.232	17646
900.352	17585
900.472	17459
900.591	17429
900.711	17463
900.83	17383
900.95	17604
901.069	17581
901.189	17368
901.308	17189
901.427	16995
901.546	17083
901.665	17094
901.784	17227
901.904	16972
902.023	16915
902.141	16596
902.26	16691
902.379	16596
902.498	16622
902.617	16622
902.735	16668
902.854	16569
902.973	16580
903.091	16363
903.21	16352
903.328	16390
903.446	16226
903.565	16116
903.683	16177
903.801	16086
903.919	16071
904.038	16021
904.156	15983
904.274	15956
904.392	15960
904.51	15823
904.627	15880
904.745	15975
904.863	15930
904.981	15679
905.098	15614
905.216	15488
905.334	15572
905.451	15644
905.569	15656
905.686	15576
905.803	15584
905.921	15389
906.038	15466
906.155	15382
906.272	15287
906.389	15298
906.506	15176
906.623	15100
906.74	15013
906.857	14979
906.974	15066
907.091	15157
907.208	15359
907.324	15142
907.441	15058
907.557	14921
907.674	14887
907.79	14746
907.907	14743
908.023	14842
908.139	14823
908.256	14746
908.372	14754
908.488	14648
908.604	14560
908.72	14552
908.836	14610
908.952	14511
909.068	14545
909.184	14670
909.3	14480
909.415	14514
909.531	14518
909.647	14244
909.762	14301
909.878	14176
909.993	14195
910.108	14176
910.224	14195
910.339	14248
910.454	14180
910.57	14077
910.685	14126
910.8	14161
910.915	14187
911.03	14005
911.145	13925
911.259	13818
911.374	13837
911.489	13833
911.604	13761
911.718	13670
911.833	13670
911.947	13472
912.062	13487
912.176	13639
912.291	13647
912.405	13556
912.519	13830
912.633	13772
912.748	13662
912.862	13567
912.976	13540
913.09	13339
913.204	13373
913.318	13460
913.431	13529
913.545	13457
913.659	13559
913.772	13430
913.886	13331
914	13324
914.113	13377
914.226	13438
914.34	13373
914.453	13240
914.566	13419
914.68	13297
914.793	13213
914.906	12943
915.019	12890
915.132	12920
915.245	12996
915.358	13000
915.47	13057
915.583	12989
915.696	13031
915.809	13209
915.921	13149
916.034	12943
916.146	12935
916.259	12935
916.371	12924
916.483	13023
916.595	12863
916.708	12878
916.82	12867
916.932	12757
917.044	12833
917.156	12772
917.268	12700
917.38	12707
917.491	12673
917.603	12627
917.715	12757
917.826	12863
917.938	12616
918.049	12582
918.161	12722
918.272	12806
918.384	12677
918.495	12677
918.606	12486
918.717	12475
918.828	12460
918.939	12475
919.05	12467
919.161	12437
919.272	12247
919.383	12266
919.494	12555
919.604	12684
919.715	12475
919.826	12452
919.936	12506
920.047	12574
920.157	12502
920.267	12639
920.378	12429
920.488	12452
920.598	12570
920.708	12848
920.818	12547
920.928	12578
921.038	12821
921.148	12783
921.258	12475
921.368	12388
921.477	12247
921.587	12232
921.697	12125
921.806	12254
921.916	12140
922.025	11935
922.134	11954
922.244	11874
922.353	11901
922.462	11817
922.571	11737
922.68	11573
922.789	11630
922.898	11581
923.007	11486
923.116	11566
923.224	11509
923.333	11528
923.442	11421
923.55	11455
923.659	11490
923.767	11524
923.876	11318
923.984	11459
924.092	11322
924.201	11410
924.309	11311
924.417	11322
924.525	11334
924.633	11277
924.741	12197
924.849	11132
924.956	11269
925.064	11151
925.172	10987
925.279	11025
925.387	11086
925.494	11128
925.602	11307
925.709	11147
925.816	11037
925.924	11090
926.031	11189
926.138	11128
926.245	11128
926.352	10919
926.459	11083
926.566	11151
926.673	10957
926.779	10881
926.886	10869
926.993	10672
927.099	10721
927.206	10630
927.312	10679
927.419	10733
927.525	10763
927.631	10733
927.737	10542
927.843	10611
927.95	10447
928.056	10569
928.162	10626
928.267	10554
928.373	11201
928.479	10675
928.585	10474
928.69	10592
928.796	10573
928.901	10519
929.007	10322
929.112	10455
929.218	10363
929.323	10329
929.428	10344
929.533	10443
929.638	10280
929.743	10310
929.848	10299
929.953	10325
930.058	10207
930.163	9998
930.267	10090
930.372	10181
930.477	10105
930.581	10287
930.685	10154
930.79	10006
930.894	9994
930.998	9987
931.103	10044
931.207	9762
931.311	9701
931.415	9599
931.519	9405
931.623	9412
