Data from test_V78500241_782.txt Node
Date: Fri Mar 25 14:39:09 CST 2022
User: usil
Spectrometer: V785-0024
Trigger mode: 0
Integration Time (sec): 4.000000E-1
Scans to average: 1
Nonlinearity correction enabled: false
Boxcar width: 0
Storing dark spectrum: false
XAxis mode: Wavelengths
Number of Pixels in Spectrum: 1024
>>>>>Begin Spectral Data<<<<<
801.071	26758
801.214	26861
801.356	26431
801.499	26404
801.641	26244
801.783	26138
801.926	26149
802.068	26054
802.211	25947
802.353	25887
802.496	25693
802.638	25575
802.78	25578
802.923	25567
803.065	25533
803.208	25487
803.35	25441
803.492	25597
803.635	25814
803.777	25578
803.919	25761
804.061	26062
804.204	25719
804.346	25670
804.488	25643
804.63	25845
804.773	25753
804.915	25925
805.057	26126
805.199	25989
805.341	26214
805.483	26168
805.626	26358
805.768	26164
805.91	26412
806.052	26446
806.194	26461
806.336	26975
806.478	26948
806.62	27032
806.762	27313
806.904	27701
807.046	28101
807.188	28580
807.33	28809
807.472	29410
807.614	29931
807.756	30871
807.898	31753
808.04	33104
808.182	34888
808.324	37263
808.465	39850
808.607	42863
808.749	45606
808.891	47136
809.033	47482
809.174	45880
809.316	43137
809.458	40017
809.6	37084
809.741	34790
809.883	32746
810.025	31274
810.166	30178
810.308	29638
810.45	29113
810.591	28557
810.733	28082
810.875	27644
811.016	27233
811.158	27096
811.299	27055
811.441	27199
811.582	26982
811.724	26693
811.865	26438
812.007	26545
812.148	26332
812.29	26385
812.431	26484
812.573	26648
812.714	26564
812.855	26461
812.997	26632
813.138	26701
813.279	26629
813.421	26484
813.562	26412
813.703	26282
813.845	26081
813.986	25681
814.127	25510
814.268	25228
814.41	25449
814.551	25343
814.692	25335
814.833	25194
814.974	25187
815.115	25282
815.256	25019
815.397	25019
815.539	24905
815.68	24920
815.821	24810
815.962	24890
816.103	24783
816.244	24608
816.385	24669
816.526	24525
816.666	24338
816.807	24095
816.948	24167
817.089	24338
817.23	24197
817.371	24098
817.512	24072
817.653	24129
817.793	23939
817.934	23961
818.075	24041
818.216	24159
818.356	24018
818.497	23939
818.638	23790
818.778	23840
818.919	23832
819.06	23920
819.2	23828
819.341	24053
819.481	23794
819.622	24076
819.762	24296
819.903	24140
820.043	24121
820.184	24121
820.324	23946
820.465	24026
820.605	23946
820.746	23920
820.886	23764
821.026	23821
821.167	23729
821.307	23843
821.447	23882
821.588	23672
821.728	23455
821.868	23223
822.008	23216
822.149	23178
822.289	23223
822.429	22957
822.569	22656
822.709	22892
822.849	22630
822.99	22618
823.13	22554
823.27	22512
823.41	22436
823.55	22310
823.69	22417
823.83	22497
823.97	22363
824.11	22074
824.25	22223
824.389	22086
824.529	22204
824.669	22139
824.809	22284
824.949	22295
825.089	22390
825.228	22158
825.368	22074
825.508	21854
825.648	22078
825.787	21903
825.927	22044
826.067	21854
826.206	21873
826.346	21915
826.485	22017
826.625	21903
826.765	22044
826.904	21937
827.044	21622
827.183	21618
827.323	21504
827.462	21842
827.601	21622
827.741	21576
827.88	21610
828.02	21568
828.159	21583
828.298	21511
828.437	21698
828.577	21542
828.716	21576
828.855	21500
828.994	21386
829.134	21310
829.273	21424
829.412	21294
829.551	21310
829.69	21199
829.829	21287
829.968	21424
830.107	21287
830.246	21268
830.385	21241
830.524	21298
830.663	21154
830.802	20902
830.941	20842
831.08	20815
831.219	20982
831.357	20830
831.496	20982
831.635	20906
831.774	20933
831.913	20746
832.051	20689
832.19	20697
832.329	20880
832.467	20670
832.606	20750
832.744	20819
832.883	20815
833.022	20792
833.16	20948
833.299	20948
833.437	21085
833.576	21184
833.714	21367
833.852	21469
833.991	21561
834.129	21701
834.267	21789
834.406	21561
834.544	21701
834.682	21485
834.821	21507
834.959	21530
835.097	21028
835.235	21089
835.373	20963
835.511	20937
835.65	20739
835.788	20701
835.926	20511
836.064	20419
836.202	20385
836.34	20415
836.478	20530
836.615	20461
836.753	20549
836.891	20499
837.029	20412
837.167	20423
837.305	20221
837.443	20275
837.58	20187
837.718	20385
837.856	20278
837.993	20210
838.131	20339
838.269	20256
838.406	20157
838.544	19982
838.681	19791
838.819	19883
838.956	19746
839.094	19658
839.231	19563
839.369	19940
839.506	20046
839.643	19898
839.781	19723
839.918	19578
840.055	19624
840.193	19655
840.33	19658
840.467	19624
840.604	19681
840.742	19955
840.879	19567
841.016	19578
841.153	19533
841.29	19681
841.427	19594
841.564	19632
841.701	19681
841.838	19685
841.975	19571
842.112	19582
842.249	19480
842.385	19499
842.522	19601
842.659	19533
842.796	19384
842.933	19514
843.069	19480
843.206	19540
843.343	19590
843.479	19483
843.616	19609
843.752	19377
843.889	19491
844.025	19655
844.162	19514
844.298	19791
844.435	19795
844.571	19940
844.708	20328
844.844	20659
844.98	21100
845.117	21549
845.253	22508
845.389	24091
845.525	27283
845.661	32613
845.798	38659
845.934	43483
846.07	45192
846.206	43845
846.342	39816
846.478	33526
846.614	28219
846.75	24757
846.886	22679
847.022	21545
847.158	20686
847.294	20161
847.429	19776
847.565	19537
847.701	19628
847.837	18981
847.972	18882
848.108	18954
848.244	18852
848.379	18719
848.515	18563
848.65	18483
848.786	18475
848.921	18490
849.057	18544
849.192	18433
849.328	18513
849.463	18319
849.598	18441
849.734	18365
849.869	18369
850.004	18171
850.14	18197
850.275	18087
850.41	18045
850.545	18068
850.68	18041
850.815	18087
850.95	18098
851.085	18270
851.22	18220
851.355	18060
851.49	18174
851.625	18110
851.76	18034
851.895	17977
852.03	18007
852.165	18121
852.299	18194
852.434	18174
852.569	18140
852.703	18178
852.838	18289
852.973	18330
853.107	18384
853.242	18076
853.376	18102
853.511	17999
853.645	18114
853.78	18323
853.914	18330
854.048	18304
854.183	18308
854.317	18319
854.451	18502
854.585	18285
854.72	18235
854.854	18281
854.988	18076
855.122	18186
855.256	18106
855.39	18117
855.524	18239
855.658	18091
855.792	18121
855.926	18110
856.06	18030
856.194	18053
856.327	17897
856.461	17897
856.595	17897
856.729	17935
856.862	17961
856.996	17984
857.13	17920
857.263	17882
857.397	18076
857.53	17935
857.664	17988
857.797	18003
857.931	17992
858.064	17908
858.197	18011
858.331	17893
858.464	17790
858.597	17783
858.731	17691
858.864	17840
858.997	17714
859.13	17783
859.263	17897
859.396	17794
859.529	17775
859.662	17733
859.795	17783
859.928	17737
860.061	17908
860.194	18011
860.327	17783
860.46	17710
860.592	17931
860.725	17897
860.858	17794
860.99	17752
861.123	17676
861.256	17665
861.388	17699
861.521	18357
861.653	17596
861.786	17554
861.918	17638
862.05	17657
862.183	17726
862.315	17714
862.447	17885
862.58	17627
862.712	17360
862.844	17353
862.976	17490
863.108	17501
863.24	17980
863.372	17337
863.504	17326
863.636	17520
863.768	17474
863.9	17440
864.032	17296
864.164	17410
864.296	17482
864.428	17471
864.559	17490
864.691	17520
864.823	17562
864.954	17398
865.086	17334
865.217	17379
865.349	17265
865.48	17402
865.612	17299
865.743	17463
865.875	17429
866.006	17315
866.137	17288
866.269	17429
866.4	17414
866.531	17360
866.662	17212
866.793	17265
866.924	17334
867.055	17414
867.186	17337
867.317	17220
867.448	17197
867.579	17258
867.71	17212
867.841	17296
867.972	17353
868.103	17421
868.233	17429
868.364	17299
868.495	17299
868.625	17463
868.756	17726
868.886	17486
869.017	17604
869.147	17699
869.278	17756
869.408	17600
869.539	17608
869.669	17619
869.799	17630
869.929	17794
870.06	17775
870.19	17863
870.32	17950
870.45	17984
870.58	17996
870.71	18201
870.84	18068
870.97	18064
871.1	18015
871.23	18163
871.36	18171
871.489	18209
871.619	18315
871.749	18388
871.879	18353
872.008	18433
872.138	18251
872.267	18334
872.397	18243
872.526	18148
872.656	18148
872.785	18285
872.915	18376
873.044	18448
873.173	18353
873.303	18498
873.432	18547
873.561	18711
873.69	18490
873.819	18654
873.948	18745
874.077	18692
874.206	18635
874.335	18745
874.464	18882
874.593	18951
874.722	18901
874.851	19031
874.979	19050
875.108	19148
875.237	19129
875.365	19091
875.494	19084
875.623	19244
875.751	19152
875.88	19316
876.008	19567
876.136	19582
876.265	19932
876.393	19986
876.521	20046
876.65	19997
876.778	20050
876.906	20058
877.034	20039
877.162	20218
877.29	20134
877.418	20336
877.546	20408
877.674	20590
877.802	20629
877.93	20689
878.058	20952
878.185	21020
878.313	21306
878.441	21568
878.568	21827
878.696	22485
878.824	23109
878.951	24140
879.079	25586
879.206	27523
879.333	29242
879.461	30894
879.588	31906
879.715	32065
879.842	31168
879.97	29463
880.097	27469
880.224	25932
880.351	24916
880.478	24064
880.605	23490
880.732	23071
880.859	23117
880.986	22744
881.112	22694
881.239	22379
881.366	22402
881.493	22257
881.619	22166
881.746	22280
881.872	22344
881.999	22379
882.125	22352
882.252	22405
882.378	22512
882.505	22618
882.631	22371
882.757	22348
882.883	22382
883.01	22344
883.136	22287
883.262	22211
883.388	22067
883.514	22268
883.64	22238
883.766	22257
883.892	22010
884.018	22029
884.143	22284
884.269	22261
884.395	22150
884.52	22044
884.646	21987
884.772	21934
884.897	21827
885.023	22059
885.148	22109
885.274	22101
885.399	21983
885.524	21728
885.65	21743
885.775	21572
885.9	21519
886.025	21481
886.15	21272
886.275	21055
886.4	20883
886.525	20800
886.65	20667
886.775	20545
886.9	20560
887.025	20552
887.149	20412
887.274	20115
887.399	19993
887.523	19868
887.648	19746
887.773	19742
887.897	19776
888.021	19761
888.146	19468
888.27	19624
888.395	19525
888.519	19533
888.643	19472
888.767	19365
888.891	19175
889.015	19190
889.139	19190
889.263	18981
889.387	19164
889.511	19179
889.635	19099
889.759	18817
889.883	18932
890.006	18905
890.13	18913
890.254	18772
890.377	18779
890.501	18566
890.624	18486
890.748	18506
890.871	18338
890.995	18273
891.118	18144
891.241	18251
891.364	18205
891.488	18315
891.611	18182
891.734	18159
891.857	18121
891.98	18140
892.103	18091
892.226	18102
892.349	17931
892.471	17855
892.594	17821
892.717	17885
892.839	17729
892.962	17847
893.085	17996
893.207	17695
893.33	17703
893.452	17566
893.575	17760
893.697	17638
893.819	17832
893.941	17851
894.064	17718
894.186	17501
894.308	17482
894.43	17649
894.552	17752
894.674	17665
894.796	17444
894.918	17535
895.04	17463
895.161	17596
895.283	17539
895.405	17318
895.526	17414
895.648	17345
895.769	17543
895.891	17478
896.012	17528
896.134	17398
896.255	17406
896.376	17391
896.498	17322
896.619	17406
896.74	17452
896.861	17372
896.982	17745
897.103	17912
897.224	17638
897.345	17573
897.466	17459
897.587	17554
897.708	17684
897.828	17528
897.949	17471
898.07	17452
898.19	17554
898.311	17600
898.431	17535
898.552	17573
898.672	17726
898.792	17729
898.913	17596
899.033	17414
899.153	17436
899.273	17337
899.393	17402
899.513	17497
899.633	17406
899.753	17501
899.873	17337
899.993	17463
900.113	17410
900.232	17364
900.352	17326
900.472	17239
900.591	17052
900.711	17170
900.83	17200
900.95	17162
901.069	17254
901.189	17075
901.308	16858
901.427	16744
901.546	16793
901.665	16919
901.784	16797
901.904	16748
902.023	16504
902.141	16310
902.26	16287
902.379	16299
902.498	16303
902.617	16246
902.735	16280
902.854	16074
902.973	16215
903.091	15937
903.21	15892
903.328	15880
903.446	15778
903.565	15732
903.683	15694
903.801	15500
903.919	15652
904.038	15675
904.156	15511
904.274	15644
904.392	15481
904.51	15435
904.627	15488
904.745	15473
904.863	15401
904.981	15211
905.098	15112
905.216	15058
905.334	15169
905.451	15081
905.569	15024
905.686	15131
905.803	15104
905.921	14925
906.038	14918
906.155	14899
906.272	14800
906.389	14872
906.506	14746
906.623	14610
906.74	14549
906.857	14480
906.974	14492
907.091	14689
907.208	14788
907.324	14632
907.441	14571
907.557	14381
907.674	14362
907.79	14332
907.907	14366
908.023	14282
908.139	14290
908.256	14275
908.372	14183
908.488	14229
908.604	14126
908.72	14039
908.836	14088
908.952	13986
909.068	14058
909.184	14123
909.3	14088
909.415	14027
909.531	14069
909.647	13894
909.762	13727
909.878	13811
909.993	13826
910.108	13791
910.224	13769
910.339	13856
910.454	13677
910.57	13632
910.685	13533
910.8	13871
910.915	13670
911.03	13552
911.145	13495
911.259	13415
911.374	13502
911.489	13426
911.604	13400
911.718	13270
911.833	13164
911.947	13145
912.062	12981
912.176	13168
912.291	13183
912.405	13217
912.519	13396
912.633	13381
912.748	13289
912.862	13114
912.976	13050
913.09	12882
913.204	12985
913.318	13027
913.431	13118
913.545	13133
913.659	13091
913.772	12985
913.886	12875
914	12920
914.113	12916
914.226	13046
914.34	13034
914.453	12768
914.566	12951
914.68	12787
914.793	12787
914.906	12669
915.019	12525
915.132	12502
915.245	12627
915.358	12608
915.47	12620
915.583	12665
915.696	12616
915.809	12665
915.921	12768
916.034	12623
916.146	12593
916.259	12585
916.371	12684
916.483	12631
916.595	12547
916.708	12486
916.82	12506
916.932	12532
917.044	12460
917.156	12532
917.268	12365
917.38	12319
917.491	12380
917.603	12296
917.715	12437
917.826	12486
917.938	12289
918.049	12190
918.161	12365
918.272	12429
918.384	12422
918.495	12346
918.606	12140
918.717	12083
918.828	12121
918.939	12182
919.05	12026
919.161	12045
919.272	11954
919.383	12038
919.494	12190
919.604	12296
919.715	12068
919.826	12144
919.936	12106
920.047	12144
920.157	12087
920.267	12334
920.378	12117
920.488	12095
920.598	12296
920.708	12426
920.818	12190
920.928	12300
921.038	12422
921.148	12448
921.258	12155
921.368	11961
921.477	11843
921.587	11965
921.697	11707
921.806	11923
921.916	11764
922.025	11630
922.134	11551
922.244	11524
922.353	11680
922.462	11558
922.571	11421
922.68	11280
922.789	11250
922.898	11277
923.007	11242
923.116	11235
923.224	11178
923.333	11220
923.442	11197
923.55	11151
923.659	11136
923.767	11045
923.876	11052
923.984	11132
924.092	10900
924.201	11052
924.309	11037
924.417	11006
924.525	11033
924.633	10991
924.741	11923
924.849	10653
924.956	10877
925.064	10793
925.172	10714
925.279	10782
925.387	10801
925.494	10740
925.602	10908
925.709	10854
925.816	10694
925.924	10755
926.031	10892
926.138	10710
926.245	10755
926.352	10645
926.459	10748
926.566	10862
926.673	10675
926.779	10592
926.886	10664
926.993	10527
927.099	10459
927.206	10440
927.312	10303
927.419	10531
927.525	10424
927.631	10466
927.737	10295
927.843	10249
927.95	10242
928.056	10276
928.162	10325
928.267	10382
928.373	10995
928.479	10417
928.585	10071
928.69	10227
928.796	10261
928.901	10246
929.007	10040
929.112	10128
929.218	10147
929.323	10071
929.428	10105
929.533	10211
929.638	9998
929.743	10074
929.848	10128
929.953	10090
930.058	9945
930.163	9823
930.267	9865
930.372	9918
930.477	9747
930.581	9994
930.685	9979
930.79	9747
930.894	9800
930.998	9698
931.103	9884
931.207	9485
931.311	9439
931.415	9363
931.519	9195
931.623	9195
