Data from test_V78500241_2782.txt Node
Date: Fri Mar 25 14:53:05 CST 2022
User: usil
Spectrometer: V785-0024
Trigger mode: 0
Integration Time (sec): 4.000000E-1
Scans to average: 1
Nonlinearity correction enabled: false
Boxcar width: 0
Storing dark spectrum: false
XAxis mode: Wavelengths
Number of Pixels in Spectrum: 1024
>>>>>Begin Spectral Data<<<<<
801.071	21998
801.214	21922
801.356	21690
801.499	21690
801.641	21492
801.783	21397
801.926	21458
802.068	21344
802.211	21389
802.353	21218
802.496	21066
802.638	21013
802.78	20849
802.923	20823
803.065	20670
803.208	20720
803.35	20739
803.492	20971
803.635	20933
803.777	20693
803.919	20823
804.061	21085
804.204	20781
804.346	20731
804.488	20587
804.63	20754
804.773	20727
804.915	20571
805.057	20682
805.199	20609
805.341	20769
805.483	20731
805.626	20651
805.768	20552
805.91	20663
806.052	20693
806.194	20579
806.336	20933
806.478	20682
806.62	20632
806.762	20857
806.904	20788
807.046	21028
807.188	20910
807.33	21039
807.472	21070
807.614	20910
807.756	20857
807.898	20804
808.04	20686
808.182	20632
808.324	20765
808.465	20762
808.607	20906
808.749	21005
808.891	21093
809.033	21116
809.174	21138
809.316	20906
809.458	21074
809.6	20952
809.741	21051
809.883	21089
810.025	21173
810.166	21108
810.308	21173
810.45	21112
810.591	21062
810.733	20948
810.875	20758
811.016	20765
811.158	20663
811.299	20861
811.441	20899
811.582	20937
811.724	20743
811.865	20785
812.007	20785
812.148	20750
812.29	20785
812.431	20838
812.573	21100
812.714	21154
812.855	21138
812.997	21370
813.138	21431
813.279	21439
813.421	21272
813.562	21184
813.703	21077
813.845	20838
813.986	20701
814.127	20415
814.268	20351
814.41	20465
814.551	20442
814.692	20396
814.833	20351
814.974	20290
815.115	20271
815.256	20130
815.397	20024
815.539	20145
815.68	20237
815.821	20016
815.962	20020
816.103	19940
816.244	20008
816.385	19841
816.526	19700
816.666	19601
816.807	19331
816.948	19529
817.089	19571
817.23	19464
817.371	19407
817.512	19415
817.653	19480
817.793	19381
817.934	19403
818.075	19464
818.216	19487
818.356	19403
818.497	19247
818.638	19118
818.778	19217
818.919	19133
819.06	19114
819.2	19270
819.341	19373
819.481	19388
819.622	19529
819.762	19700
819.903	19597
820.043	19578
820.184	19460
820.324	19426
820.465	19396
820.605	19411
820.746	19419
820.886	19324
821.026	19377
821.167	19285
821.307	19403
821.447	19316
821.588	19293
821.728	19122
821.868	18954
822.008	18840
822.149	18814
822.289	18814
822.429	18521
822.569	18578
822.709	18650
822.849	18448
822.99	18342
823.13	18220
823.27	18300
823.41	18178
823.55	18060
823.69	18117
823.83	18159
823.97	18011
824.11	17870
824.25	17851
824.389	17996
824.529	17939
824.669	17863
824.809	17977
824.949	17939
825.089	17916
825.228	17885
825.368	17809
825.508	17676
825.648	17851
825.787	17756
825.927	17733
826.067	17638
826.206	17703
826.346	17767
826.485	17832
826.625	17726
826.765	17722
826.904	17680
827.044	17505
827.183	17486
827.323	17406
827.462	17535
827.601	17425
827.741	17360
827.88	17326
828.02	17269
828.159	17395
828.298	17433
828.437	17474
828.577	17353
828.716	17562
828.855	17349
828.994	17174
829.134	17079
829.273	17162
829.412	17121
829.551	17086
829.69	17212
829.829	17159
829.968	17223
830.107	17204
830.246	17159
830.385	17151
830.524	17067
830.663	16949
830.802	16850
830.941	16824
831.08	16755
831.219	16679
831.357	16759
831.496	16930
831.635	16729
831.774	16691
831.913	16580
832.051	16630
832.19	16550
832.329	16577
832.467	16462
832.606	16497
832.744	16466
832.883	16466
833.022	16462
833.16	16459
833.299	16417
833.437	16504
833.576	16516
833.714	16481
833.852	16459
833.991	16554
834.129	16634
834.267	16649
834.406	16497
834.544	16584
834.682	16474
834.821	16470
834.959	16672
835.097	16386
835.235	16565
835.373	16455
835.511	16481
835.65	16436
835.788	16371
835.926	16257
836.064	16280
836.202	16200
836.34	16398
836.478	16527
836.615	16409
836.753	16546
836.891	16478
837.029	16459
837.167	16459
837.305	16299
837.443	16363
837.58	16215
837.718	16398
837.856	16325
837.993	16265
838.131	16322
838.269	16215
838.406	16177
838.544	16154
838.681	16006
838.819	15991
838.956	15892
839.094	15789
839.231	15876
839.369	15865
839.506	16299
839.643	15994
839.781	15831
839.918	15793
840.055	15747
840.193	15907
840.33	15724
840.467	15751
840.604	15656
840.742	16013
840.879	15679
841.016	15679
841.153	15804
841.29	15953
841.427	15918
841.564	15865
841.701	15869
841.838	15781
841.975	15793
842.112	15739
842.249	15603
842.385	15511
842.522	15667
842.659	15698
842.796	15599
842.933	15667
843.069	15568
843.206	15614
843.343	15705
843.479	15599
843.616	15679
843.752	15382
843.889	15466
844.025	15549
844.162	15382
844.298	15564
844.435	15431
844.571	15332
844.708	15553
844.844	15610
844.98	15625
845.117	15561
845.253	15382
845.389	15188
845.525	15321
845.661	15332
845.798	15180
845.934	15150
846.07	15135
846.206	15264
846.342	15279
846.478	15188
846.614	14994
846.75	14994
846.886	14925
847.022	15039
847.158	15013
847.294	15009
847.429	15013
847.565	14918
847.701	15203
847.837	14670
847.972	14712
848.108	14804
848.244	14746
848.379	14701
848.515	14606
848.65	14556
848.786	14511
848.921	14560
849.057	14754
849.192	14674
849.328	14659
849.463	14602
849.598	14564
849.734	14450
849.869	14495
850.004	14408
850.14	14366
850.275	14309
850.41	14305
850.545	14343
850.68	14320
850.815	14298
850.95	14275
851.085	14469
851.22	14473
851.355	14343
851.49	14362
851.625	14343
851.76	14244
851.895	14229
852.03	14176
852.165	14313
852.299	14278
852.434	14355
852.569	14351
852.703	14339
852.838	14469
852.973	14503
853.107	14495
853.242	14347
853.376	14161
853.511	14096
853.645	14168
853.78	14339
853.914	14290
854.048	14195
854.183	14100
854.317	14256
854.451	14385
854.585	14195
854.72	14210
854.854	14275
854.988	14103
855.122	14145
855.256	14084
855.39	14123
855.524	14271
855.658	14275
855.792	14233
855.926	14187
856.06	14233
856.194	14271
856.327	14298
856.461	14172
856.595	14153
856.729	14237
856.862	14267
856.996	14278
857.13	14366
857.263	14301
857.397	14389
857.53	14130
857.664	14282
857.797	14252
857.931	14366
858.064	14301
858.197	14343
858.331	14206
858.464	14096
858.597	14100
858.731	14206
858.864	14168
858.997	14218
859.13	14252
859.263	14237
859.396	14317
859.529	14164
859.662	14134
859.795	14126
859.928	14199
860.061	14343
860.194	14454
860.327	14267
860.46	14195
860.592	14339
860.725	14301
860.858	14286
860.99	14123
861.123	14107
861.256	14130
861.388	14202
861.521	14849
861.653	14077
861.786	14050
861.918	14046
862.05	14161
862.183	14176
862.315	14298
862.447	14252
862.58	14134
862.712	13959
862.844	13925
862.976	14027
863.108	14027
863.24	14377
863.372	13947
863.504	14092
863.636	14069
863.768	14107
863.9	14020
864.032	13951
864.164	13932
864.296	14024
864.428	14050
864.559	14187
864.691	14103
864.823	14077
864.954	13989
865.086	14103
865.217	13864
865.349	13894
865.48	13989
865.612	13967
865.743	14225
865.875	14016
866.006	14043
866.137	13978
866.269	13955
866.4	13978
866.531	14024
866.662	13833
866.793	13967
866.924	13860
867.055	14073
867.186	13982
867.317	13860
867.448	13894
867.579	13860
867.71	13909
867.841	13894
867.972	13967
868.103	13890
868.233	13978
868.364	13982
868.495	14069
868.625	14119
868.756	14286
868.886	14153
869.017	14153
869.147	14313
869.278	14400
869.408	14298
869.539	14355
869.669	14324
869.799	14214
869.929	14286
870.06	14320
870.19	14480
870.32	14564
870.45	14537
870.58	14678
870.71	14606
870.84	14606
870.97	14625
871.1	14598
871.23	14769
871.36	14743
871.489	14746
871.619	14830
871.749	14819
871.879	14963
872.008	14921
872.138	14918
872.267	14807
872.397	14750
872.526	14598
872.656	14575
872.785	14629
872.915	14895
873.044	14971
873.173	14883
873.303	14914
873.432	14979
873.561	15036
873.69	14906
873.819	14826
873.948	14918
874.077	14857
874.206	14796
874.335	14872
874.464	15055
874.593	15195
874.722	15165
874.851	15176
874.979	15260
875.108	15195
875.237	15127
875.365	15184
875.494	15195
875.623	15275
875.751	15207
875.88	15222
876.008	15348
876.136	15439
876.265	15568
876.393	15739
876.521	15610
876.65	15720
876.778	15652
876.906	15584
877.034	15641
877.162	15618
877.29	15610
877.418	15637
877.546	15724
877.674	15720
877.802	15701
877.93	15595
878.058	15603
878.185	15549
878.313	15584
878.441	15606
878.568	15507
878.696	15538
878.824	15591
878.951	15667
879.079	15785
879.206	15922
879.333	15778
879.461	15663
879.588	15789
879.715	15793
879.842	15922
879.97	15633
880.097	15458
880.224	15450
880.351	15515
880.478	15496
880.605	15370
880.732	15507
880.859	15720
880.986	15549
881.112	15530
881.239	15302
881.366	15150
881.493	15165
881.619	15097
881.746	15165
881.872	15157
881.999	15036
882.125	15154
882.252	15165
882.378	15150
882.505	15146
882.631	15089
882.757	15028
882.883	15055
883.01	15039
883.136	14948
883.262	14815
883.388	14708
883.514	14998
883.64	15009
883.766	14925
883.892	14830
884.018	14720
884.143	14937
884.269	14998
884.395	14705
884.52	14533
884.646	14667
884.772	14552
884.897	14492
885.023	14701
885.148	14743
885.274	14853
885.399	14754
885.524	14701
885.65	14625
885.775	14693
885.9	14651
886.025	14716
886.15	14777
886.275	14564
886.4	14446
886.525	14575
886.65	14575
886.775	14663
886.9	14689
887.025	14857
887.149	14697
887.274	14476
887.399	14499
887.523	14362
887.648	14438
887.773	14370
887.897	14545
888.021	14549
888.146	14419
888.27	14514
888.395	14594
888.519	14568
888.643	14530
888.767	14629
888.891	14393
889.015	14362
889.139	14389
889.263	14263
889.387	14377
889.511	14575
889.635	14431
889.759	14290
889.883	14355
890.006	14328
890.13	14419
890.254	14267
890.377	14263
890.501	14115
890.624	14130
890.748	14240
890.871	14039
890.995	13932
891.118	13940
891.241	13989
891.364	13993
891.488	14100
891.611	14012
891.734	14123
891.857	14157
891.98	13989
892.103	14050
892.226	14100
892.349	14035
892.471	13940
892.594	14012
892.717	14084
892.839	14020
892.962	14043
893.085	14039
893.207	14046
893.33	13868
893.452	13917
893.575	14016
893.697	13982
893.819	14210
893.941	14225
894.064	14172
894.186	14092
894.308	14039
894.43	14229
894.552	14237
894.674	14263
894.796	14039
894.918	14103
895.04	14115
895.161	14252
895.283	14202
895.405	14210
895.526	14157
895.648	14100
895.769	14195
895.891	14240
896.012	14343
896.134	14218
896.255	14225
896.376	14157
896.498	14180
896.619	14278
896.74	14305
896.861	14305
896.982	14613
897.103	14746
897.224	14492
897.345	14400
897.466	14366
897.587	14423
897.708	14621
897.828	14594
897.949	14488
898.07	14301
898.19	14469
898.311	14583
898.431	14560
898.552	14518
898.672	14648
898.792	14659
898.913	14621
899.033	14488
899.153	14461
899.273	14256
899.393	14301
899.513	14450
899.633	14358
899.753	14408
899.873	14450
899.993	14511
900.113	14317
900.232	14461
900.352	14393
900.472	14233
900.591	14275
900.711	14362
900.83	14267
900.95	14374
901.069	14427
901.189	14282
901.308	14035
901.427	13898
901.546	14027
901.665	13955
901.784	14062
901.904	13837
902.023	13719
902.141	13628
902.26	13521
902.379	13620
902.498	13510
902.617	13449
902.735	13567
902.854	13540
902.973	13438
903.091	13289
903.21	13175
903.328	13346
903.446	13228
903.565	13160
903.683	13095
903.801	13015
903.919	13015
904.038	13126
904.156	12890
904.274	13015
904.392	12901
904.51	12886
904.627	12856
904.745	12966
904.863	13031
904.981	12719
905.098	12547
905.216	12616
905.334	12662
905.451	12631
905.569	12574
905.686	12582
905.803	12604
905.921	12418
906.038	12456
906.155	12369
906.272	12292
906.389	12361
906.506	12334
906.623	12178
906.74	12178
906.857	12049
906.974	12038
907.091	12315
907.208	12228
907.324	12235
907.441	12152
907.557	11961
907.674	11977
907.79	11866
907.907	11950
908.023	11988
908.139	11961
908.256	11863
908.372	11893
908.488	11798
908.604	11767
908.72	11668
908.836	11726
908.952	11665
909.068	11783
909.184	11832
909.3	11653
909.415	11786
909.531	11695
909.647	11535
909.762	11448
909.878	11383
909.993	11535
910.108	11455
910.224	11395
910.339	11440
910.454	11376
910.57	11372
910.685	11265
910.8	11589
910.915	11417
911.03	11395
911.145	11113
911.259	11113
911.374	11166
911.489	11117
911.604	11060
911.718	10942
911.833	10930
911.947	10801
912.062	10706
912.176	10843
912.291	10927
912.405	11014
912.519	11090
912.633	11147
912.748	10930
912.862	10961
912.976	10831
913.09	10786
913.204	10721
913.318	10831
913.431	10961
913.545	10930
913.659	10858
913.772	10820
913.886	10725
914	10630
914.113	10801
914.226	10809
914.34	10767
914.453	10694
914.566	10812
914.68	10649
914.793	10691
914.906	10462
915.019	10386
915.132	10390
915.245	10409
915.358	10455
915.47	10474
915.583	10462
915.696	10481
915.809	10516
915.921	10558
916.034	10421
916.146	10447
916.259	10306
916.371	10542
916.483	10413
916.595	10337
916.708	10436
916.82	10424
916.932	10348
917.044	10360
917.156	10265
917.268	10299
917.38	10284
917.491	10204
917.603	10310
917.715	10337
917.826	10375
917.938	10299
918.049	10105
918.161	10325
918.272	10474
918.384	10443
918.495	10272
918.606	10120
918.717	10112
918.828	10265
918.939	10246
919.05	10055
919.161	10097
919.272	9892
919.383	10025
919.494	10230
919.604	10398
919.715	10177
919.826	10067
919.936	10204
920.047	10188
920.157	10204
920.267	10379
920.378	10249
920.488	10211
920.598	10382
920.708	10592
920.818	10341
920.928	10424
921.038	10523
921.148	10535
921.258	10215
921.368	10158
921.477	10090
921.587	9991
921.697	9911
921.806	10071
921.916	9884
922.025	9808
922.134	9686
922.244	9682
922.353	9747
922.462	9564
922.571	9568
922.68	9500
922.789	9389
922.898	9443
923.007	9367
923.116	9504
923.224	9443
923.333	9393
923.442	9329
923.55	9310
923.659	9355
923.767	9401
923.876	9268
923.984	9370
924.092	9203
924.201	9332
924.309	9283
924.417	9256
924.525	9237
924.633	9264
924.741	10036
924.849	9074
924.956	9336
925.064	9100
925.172	8929
925.279	9047
925.387	9047
925.494	9066
925.602	9188
925.709	9157
925.816	9036
925.924	9116
926.031	9150
926.138	9176
926.245	9074
926.352	9028
926.459	9108
926.566	9188
926.673	9058
926.779	8921
926.886	8921
926.993	8883
927.099	8842
927.206	8697
927.312	8811
927.419	8777
927.525	8838
927.631	8918
927.737	8716
927.843	8697
927.95	8629
928.056	8746
928.162	8651
928.267	8750
928.373	9367
928.479	8792
928.585	8556
928.69	8651
928.796	8769
928.901	8610
929.007	8552
929.112	8689
929.218	8507
929.323	8522
929.428	8511
929.533	8670
929.638	8522
929.743	8514
929.848	8518
929.953	8507
930.058	8412
930.163	8206
930.267	8248
930.372	8355
930.477	8286
930.581	8503
930.685	8279
930.79	8244
930.894	8301
930.998	8225
931.103	8332
931.207	8027
931.311	7970
931.415	7947
931.519	7818
931.623	7723
