Data from test_V78500241_2765.txt Node
Date: Fri Mar 25 14:52:58 CST 2022
User: usil
Spectrometer: V785-0024
Trigger mode: 0
Integration Time (sec): 4.000000E-1
Scans to average: 1
Nonlinearity correction enabled: false
Boxcar width: 0
Storing dark spectrum: false
XAxis mode: Wavelengths
Number of Pixels in Spectrum: 1024
>>>>>Begin Spectral Data<<<<<
801.071	22051
801.214	21789
801.356	21709
801.499	21587
801.641	21351
801.783	21424
801.926	21466
802.068	21405
802.211	21233
802.353	21169
802.496	20948
802.638	20842
802.78	20769
802.923	20861
803.065	20777
803.208	20777
803.35	20651
803.492	20857
803.635	20895
803.777	20762
803.919	20750
804.061	21020
804.204	20777
804.346	20644
804.488	20594
804.63	20644
804.773	20590
804.915	20636
805.057	20663
805.199	20644
805.341	20735
805.483	20746
805.626	20621
805.768	20541
805.91	20708
806.052	20651
806.194	20545
806.336	20777
806.478	20530
806.62	20648
806.762	20609
806.904	20891
807.046	21013
807.188	21028
807.33	20933
807.472	20910
807.614	20929
807.756	20929
807.898	20853
808.04	20705
808.182	20739
808.324	20701
808.465	20686
808.607	20910
808.749	20982
808.891	21051
809.033	21176
809.174	21055
809.316	20990
809.458	21024
809.6	21017
809.741	21089
809.883	20967
810.025	21184
810.166	21279
810.308	21142
810.45	21058
810.591	20982
810.733	20918
810.875	20792
811.016	20667
811.158	20674
811.299	20804
811.441	20868
811.582	20918
811.724	20724
811.865	20762
812.007	20807
812.148	20629
812.29	20864
812.431	20998
812.573	21096
812.714	21222
812.855	21150
812.997	21237
813.138	21458
813.279	21340
813.421	21249
813.562	21180
813.703	20990
813.845	20990
813.986	20617
814.127	20503
814.268	20427
814.41	20347
814.551	20305
814.692	20393
814.833	20381
814.974	20256
815.115	20301
815.256	20206
815.397	20157
815.539	20199
815.68	19978
815.821	19925
815.962	20043
816.103	20001
816.244	19883
816.385	19715
816.526	19715
816.666	19609
816.807	19521
816.948	19502
817.089	19525
817.23	19445
817.371	19392
817.512	19468
817.653	19426
817.793	19407
817.934	19388
818.075	19400
818.216	19506
818.356	19388
818.497	19206
818.638	19164
818.778	19095
818.919	19221
819.06	19152
819.2	19274
819.341	19293
819.481	19278
819.622	19449
819.762	19609
819.903	19658
820.043	19575
820.184	19468
820.324	19377
820.465	19468
820.605	19434
820.746	19445
820.886	19350
821.026	19365
821.167	19346
821.307	19422
821.447	19297
821.588	19156
821.728	19164
821.868	18871
822.008	18882
822.149	18821
822.289	18798
822.429	18627
822.569	18509
822.709	18570
822.849	18304
822.99	18308
823.13	18281
823.27	18281
823.41	18087
823.55	17984
823.69	18186
823.83	18155
823.97	18053
824.11	17999
824.25	17855
824.389	17794
824.529	17980
824.669	17988
824.809	18034
824.949	17950
825.089	18007
825.228	17946
825.368	17665
825.508	17748
825.648	17646
825.787	17680
825.927	17760
826.067	17661
826.206	17703
826.346	17733
826.485	17714
826.625	17611
826.765	17748
826.904	17771
827.044	17296
827.183	17353
827.323	17322
827.462	17463
827.601	17303
827.741	17379
827.88	17433
828.02	17159
828.159	17379
828.298	17395
828.437	17417
828.577	17345
828.716	17520
828.855	17315
828.994	17064
829.134	17083
829.273	17155
829.412	17060
829.551	17075
829.69	17060
829.829	17147
829.968	17235
830.107	17128
830.246	17113
830.385	17105
830.524	17094
830.663	16953
830.802	16790
830.941	16778
831.08	16835
831.219	16812
831.357	16812
831.496	16976
831.635	16641
831.774	16630
831.913	16622
832.051	16584
832.19	16573
832.329	16641
832.467	16470
832.606	16466
832.744	16386
832.883	16348
833.022	16325
833.16	16413
833.299	16519
833.437	16531
833.576	16413
833.714	16455
833.852	16542
833.991	16443
834.129	16538
834.267	16542
834.406	16447
834.544	16500
834.682	16599
834.821	16413
834.959	16645
835.097	16531
835.235	16615
835.373	16523
835.511	16565
835.65	16485
835.788	16436
835.926	16299
836.064	16196
836.202	16249
836.34	16382
836.478	16485
836.615	16405
836.753	16470
836.891	16451
837.029	16462
837.167	16352
837.305	16344
837.443	16363
837.58	16299
837.718	16344
837.856	16367
837.993	16158
838.131	16261
838.269	16169
838.406	16147
838.544	16169
838.681	15983
838.819	15953
838.956	15789
839.094	15876
839.231	15804
839.369	15854
839.506	16131
839.643	16074
839.781	15827
839.918	15785
840.055	15819
840.193	15808
840.33	15770
840.467	15816
840.604	15793
840.742	16048
840.879	15686
841.016	15637
841.153	15728
841.29	15937
841.427	15842
841.564	15831
841.701	15876
841.838	15759
841.975	15652
842.112	15778
842.249	15580
842.385	15576
842.522	15728
842.659	15663
842.796	15595
842.933	15576
843.069	15576
843.206	15549
843.343	15724
843.479	15682
843.616	15625
843.752	15378
843.889	15462
844.025	15542
844.162	15325
844.298	15485
844.435	15374
844.571	15344
844.708	15435
844.844	15526
844.98	15530
845.117	15443
845.253	15329
845.389	15199
845.525	15363
845.661	15344
845.798	15207
845.934	15211
846.07	15028
846.206	15252
846.342	15382
846.478	15199
846.614	14971
846.75	14929
846.886	14994
847.022	15203
847.158	14857
847.294	15020
847.429	14925
847.565	14944
847.701	15119
847.837	14659
847.972	14613
848.108	14807
848.244	14826
848.379	14674
848.515	14606
848.65	14480
848.786	14541
848.921	14640
849.057	14686
849.192	14651
849.328	14651
849.463	14640
849.598	14568
849.734	14385
849.869	14393
850.004	14412
850.14	14434
850.275	14393
850.41	14309
850.545	14301
850.68	14351
850.815	14336
850.95	14290
851.085	14549
851.22	14484
851.355	14339
851.49	14351
851.625	14336
851.76	14317
851.895	14187
852.03	14153
852.165	14225
852.299	14366
852.434	14358
852.569	14244
852.703	14290
852.838	14442
852.973	14537
853.107	14427
853.242	14263
853.376	14195
853.511	14043
853.645	14153
853.78	14358
853.914	14195
854.048	14142
854.183	14134
854.317	14191
854.451	14309
854.585	14233
854.72	14187
854.854	14259
854.988	14119
855.122	14180
855.256	14073
855.39	14134
855.524	14240
855.658	14214
855.792	14275
855.926	14286
856.06	14313
856.194	14286
856.327	14256
856.461	14180
856.595	14096
856.729	14202
856.862	14290
856.996	14252
857.13	14385
857.263	14294
857.397	14381
857.53	14153
857.664	14256
857.797	14248
857.931	14358
858.064	14187
858.197	14237
858.331	14199
858.464	14130
858.597	14142
858.731	14225
858.864	14195
858.997	14199
859.13	14320
859.263	14252
859.396	14328
859.529	14202
859.662	14123
859.795	14191
859.928	14134
860.061	14412
860.194	14362
860.327	14168
860.46	14115
860.592	14244
860.725	14381
860.858	14259
860.99	14138
861.123	14153
861.256	14115
861.388	14168
861.521	14880
861.653	14077
861.786	14005
861.918	14123
862.05	14149
862.183	14206
862.315	14081
862.447	14119
862.58	14145
862.712	13978
862.844	13925
862.976	14123
863.108	14035
863.24	14415
863.372	13963
863.504	13989
863.636	13955
863.768	14092
863.9	13993
864.032	13978
864.164	13955
864.296	13986
864.428	14123
864.559	14062
864.691	14115
864.823	14065
864.954	13986
865.086	13974
865.217	13974
865.349	13928
865.48	13868
865.612	14039
865.743	14138
865.875	13974
866.006	13982
866.137	13978
866.269	13982
866.4	13928
866.531	14001
866.662	13845
866.793	13883
866.924	13936
867.055	13982
867.186	13890
867.317	13902
867.448	13864
867.579	13936
867.71	13902
867.841	13890
867.972	13913
868.103	13974
868.233	14012
868.364	13936
868.495	14062
868.625	14191
868.756	14263
868.886	14111
869.017	14225
869.147	14267
869.278	14309
869.408	14339
869.539	14229
869.669	14263
869.799	14229
869.929	14294
870.06	14355
870.19	14488
870.32	14476
870.45	14606
870.58	14629
870.71	14659
870.84	14781
870.97	14598
871.1	14629
871.23	14781
871.36	14807
871.489	14705
871.619	14796
871.749	14811
871.879	14861
872.008	14876
872.138	14804
872.267	14708
872.397	14746
872.526	14648
872.656	14629
872.785	14693
872.915	14823
873.044	14982
873.173	14861
873.303	14796
873.432	14895
873.561	15036
873.69	14849
873.819	14857
873.948	15001
874.077	14944
874.206	14792
874.335	14849
874.464	14937
874.593	15081
874.722	15142
874.851	15165
874.979	15142
875.108	15279
875.237	15180
875.365	15047
875.494	15184
875.623	15222
875.751	15138
875.88	15237
876.008	15450
876.136	15435
876.265	15717
876.393	15766
876.521	15739
876.65	15663
876.778	15652
876.906	15591
877.034	15618
877.162	15641
877.29	15545
877.418	15675
877.546	15606
877.674	15610
877.802	15587
877.93	15606
878.058	15580
878.185	15549
878.313	15686
878.441	15603
878.568	15439
878.696	15519
878.824	15633
878.951	15637
879.079	15720
879.206	15934
879.333	15854
879.461	15542
879.588	15770
879.715	15899
879.842	15888
879.97	15694
880.097	15469
880.224	15450
880.351	15485
880.478	15405
880.605	15447
880.732	15469
880.859	15595
880.986	15496
881.112	15519
881.239	15389
881.366	15199
881.493	15272
881.619	15077
881.746	15131
881.872	15074
881.999	15051
882.125	15112
882.252	15173
882.378	15058
882.505	15245
882.631	15070
882.757	14952
882.883	15047
883.01	14887
883.136	14906
883.262	14773
883.388	14739
883.514	14944
883.64	14941
883.766	14823
883.892	14758
884.018	14762
884.143	15077
884.269	15070
884.395	14610
884.52	14564
884.646	14655
884.772	14560
884.897	14522
885.023	14724
885.148	14720
885.274	14777
885.399	14629
885.524	14632
885.65	14686
885.775	14777
885.9	14507
886.025	14705
886.15	14750
886.275	14640
886.4	14522
886.525	14648
886.65	14518
886.775	14507
886.9	14743
887.025	14800
887.149	14636
887.274	14541
887.399	14434
887.523	14499
887.648	14358
887.773	14336
887.897	14613
888.021	14522
888.146	14377
888.27	14556
888.395	14667
888.519	14476
888.643	14469
888.767	14556
888.891	14313
889.015	14298
889.139	14282
889.263	14317
889.387	14396
889.511	14415
889.635	14476
889.759	14237
889.883	14362
890.006	14320
890.13	14454
890.254	14286
890.377	14282
890.501	14126
890.624	14111
890.748	14214
890.871	14081
890.995	13978
891.118	14050
891.241	14138
891.364	14016
891.488	14180
891.611	13963
891.734	14126
891.857	14073
891.98	14073
892.103	14077
892.226	14145
892.349	13944
892.471	13879
892.594	14008
892.717	14065
892.839	14016
892.962	13963
893.085	14202
893.207	14092
893.33	13875
893.452	13978
893.575	14024
893.697	14081
893.819	14267
893.941	14320
894.064	14168
894.186	14077
894.308	14077
894.43	14149
894.552	14202
894.674	14134
894.796	14012
894.918	14069
895.04	14054
895.161	14286
895.283	14172
895.405	14096
895.526	14187
895.648	14164
895.769	14244
895.891	14233
896.012	14351
896.134	14233
896.255	14237
896.376	14202
896.498	14248
896.619	14385
896.74	14221
896.861	14339
896.982	14667
897.103	14670
897.224	14621
897.345	14545
897.466	14434
897.587	14446
897.708	14659
897.828	14632
897.949	14518
898.07	14343
898.19	14469
898.311	14686
898.431	14507
898.552	14651
898.672	14663
898.792	14743
898.913	14568
899.033	14492
899.153	14419
899.273	14385
899.393	14450
899.513	14480
899.633	14446
899.753	14480
899.873	14381
899.993	14488
900.113	14499
900.232	14427
900.352	14473
900.472	14328
900.591	14259
900.711	14313
900.83	14328
900.95	14404
901.069	14480
901.189	14229
901.308	14077
901.427	13955
901.546	13978
901.665	14039
901.784	14043
901.904	13868
902.023	13761
902.141	13723
902.26	13567
902.379	13670
902.498	13464
902.617	13537
902.735	13582
902.854	13590
902.973	13453
903.091	13266
903.21	13221
903.328	13240
903.446	13240
903.565	13110
903.683	13065
903.801	13099
903.919	13076
904.038	13084
904.156	13000
904.274	13027
904.392	13114
904.51	12958
904.627	12920
904.745	13027
904.863	12909
904.981	12753
905.098	12593
905.216	12635
905.334	12654
905.451	12677
905.569	12563
905.686	12700
905.803	12616
905.921	12460
906.038	12578
906.155	12525
906.272	12410
906.389	12418
906.506	12182
906.623	12232
906.74	12270
906.857	12098
906.974	12155
907.091	12277
907.208	12361
907.324	12266
907.441	12079
907.557	11901
907.674	12022
907.79	11942
907.907	11912
908.023	12076
908.139	11958
908.256	11946
908.372	11893
908.488	11893
908.604	11802
908.72	11714
908.836	11786
908.952	11707
909.068	11836
909.184	11882
909.3	11722
909.415	11882
909.531	11748
909.647	11478
909.762	11543
909.878	11395
909.993	11471
910.108	11532
910.224	11486
910.339	11566
910.454	11292
910.57	11341
910.685	11277
910.8	11623
910.915	11532
911.03	11406
911.145	11242
911.259	11258
911.374	11254
911.489	11086
911.604	11136
911.718	11029
911.833	10938
911.947	10797
912.062	10854
912.176	10980
912.291	10972
912.405	10923
912.519	11197
912.633	11132
912.748	11052
912.862	10999
912.976	10843
913.09	10778
913.204	10790
913.318	10850
913.431	10915
913.545	10972
913.659	10980
913.772	10843
913.886	10790
914	10645
914.113	10850
914.226	10919
914.34	10771
914.453	10729
914.566	10767
914.68	10687
914.793	10687
914.906	10485
915.019	10512
915.132	10485
915.245	10474
915.358	10542
915.47	10451
915.583	10527
915.696	10516
915.809	10561
915.921	10550
916.034	10432
916.146	10382
916.259	10462
916.371	10512
916.483	10497
916.595	10466
916.708	10382
916.82	10371
916.932	10405
917.044	10363
917.156	10394
917.268	10268
917.38	10291
917.491	10265
917.603	10379
917.715	10394
917.826	10322
917.938	10284
918.049	10230
918.161	10322
918.272	10371
918.384	10413
918.495	10402
918.606	10147
918.717	10120
918.828	10109
918.939	10158
919.05	10101
919.161	10200
919.272	10021
919.383	10086
919.494	10261
919.604	10348
919.715	10211
919.826	10143
919.936	10143
920.047	10265
920.157	10139
920.267	10474
920.378	10207
920.488	10074
920.598	10436
920.708	10550
920.818	10371
920.928	10337
921.038	10577
921.148	10558
921.258	10299
921.368	10166
921.477	10032
921.587	10101
921.697	9975
921.806	10021
921.916	9937
922.025	9774
922.134	9755
922.244	9709
922.353	9800
922.462	9667
922.571	9686
922.68	9416
922.789	9469
922.898	9538
923.007	9443
923.116	9439
923.224	9450
923.333	9405
923.442	9214
923.55	9355
923.659	9393
923.767	9420
923.876	9306
923.984	9416
924.092	9336
924.201	9325
924.309	9336
924.417	9382
924.525	9272
924.633	9359
924.741	10036
924.849	9123
924.956	9260
925.064	9085
925.172	9112
925.279	9070
925.387	9146
925.494	9131
925.602	9233
925.709	9214
925.816	9077
925.924	9055
926.031	9260
926.138	9203
926.245	9188
926.352	9077
926.459	9176
926.566	9226
926.673	9043
926.779	9017
926.886	9001
926.993	8880
927.099	8762
927.206	8823
927.312	8777
927.419	8876
927.525	8826
927.631	8929
927.737	8811
927.843	8705
927.95	8670
928.056	8651
928.162	8769
928.267	8876
928.373	9378
928.479	8883
928.585	8644
928.69	8708
928.796	8762
928.901	8590
929.007	8514
929.112	8590
929.218	8640
929.323	8518
929.428	8568
929.533	8773
929.638	8492
929.743	8465
929.848	8571
929.953	8492
930.058	8469
930.163	8259
930.267	8332
930.372	8492
930.477	8252
930.581	8556
930.685	8351
930.79	8309
930.894	8275
930.998	8183
931.103	8355
931.207	8065
931.311	7989
931.415	7940
931.519	7807
931.623	7681
