Data from test_V78500241_836.txt Node
Date: Fri Mar 25 14:39:32 CST 2022
User: usil
Spectrometer: V785-0024
Trigger mode: 0
Integration Time (sec): 4.000000E-1
Scans to average: 1
Nonlinearity correction enabled: false
Boxcar width: 0
Storing dark spectrum: false
XAxis mode: Wavelengths
Number of Pixels in Spectrum: 1024
>>>>>Begin Spectral Data<<<<<
801.071	26020
801.214	25989
801.356	25620
801.499	25514
801.641	25514
801.783	25491
801.926	25468
802.068	25335
802.211	25213
802.353	25118
802.496	24924
802.638	24939
802.78	24909
802.923	24768
803.065	24764
803.208	24783
803.35	24909
803.492	24867
803.635	24943
803.777	24837
803.919	24970
804.061	25148
804.204	25042
804.346	24920
804.488	24852
804.63	24882
804.773	24886
804.915	25004
805.057	25080
805.199	25084
805.341	25278
805.483	25278
805.626	25358
805.768	25266
805.91	25449
806.052	25339
806.194	25331
806.336	25982
806.478	25765
806.62	25814
806.762	26126
806.904	26305
807.046	26697
807.188	26815
807.33	27154
807.472	27610
807.614	27838
807.756	28577
807.898	29185
808.04	30003
808.182	31339
808.324	32952
808.465	34774
808.607	36833
808.749	38655
808.891	39766
809.033	39914
809.174	38689
809.316	36836
809.458	34839
809.6	32701
809.741	31080
809.883	29813
810.025	28896
810.166	28322
810.308	27595
810.45	27389
810.591	26967
810.733	26545
810.875	26453
811.016	26073
811.158	26126
811.299	25970
811.441	26008
811.582	25909
811.724	25525
811.865	25559
812.007	25510
812.148	25563
812.29	25472
812.431	25548
812.573	25666
812.714	25784
812.855	25811
812.997	25894
813.138	25932
813.279	25807
813.421	25757
813.562	25651
813.703	25434
813.845	25278
813.986	25061
814.127	24954
814.268	24837
814.41	24661
814.551	24525
814.692	24669
814.833	24517
814.974	24631
815.115	24570
815.256	24342
815.397	24365
815.539	24429
815.68	24106
815.821	24083
815.962	24224
816.103	24270
816.244	24087
816.385	23935
816.526	23817
816.666	23813
816.807	23554
816.948	23627
817.089	23608
817.23	23619
817.371	23691
817.512	23646
817.653	23554
817.793	23463
817.934	23486
818.075	23535
818.216	23490
818.356	23326
818.497	23296
818.638	23075
818.778	23174
818.919	23117
819.06	23239
819.2	23402
819.341	23440
819.481	23372
819.622	23562
819.762	23741
819.903	23653
820.043	23577
820.184	23486
820.324	23353
820.465	23345
820.605	23448
820.746	23474
820.886	23204
821.026	23296
821.167	23216
821.307	23318
821.447	23170
821.588	23159
821.728	23022
821.868	22797
822.008	22694
822.149	22763
822.289	22675
822.429	22394
822.569	22325
822.709	22314
822.849	22196
822.99	22158
823.13	21987
823.27	22158
823.41	21800
823.55	21937
823.69	21880
823.83	21960
823.97	21785
824.11	21667
824.25	21595
824.389	21732
824.529	21743
824.669	21701
824.809	21724
824.949	21793
825.089	21759
825.228	21816
825.368	21515
825.508	21507
825.648	21447
825.787	21492
825.927	21614
826.067	21325
826.206	21397
826.346	21428
826.485	21519
826.625	21473
826.765	21447
826.904	21511
827.044	21142
827.183	21119
827.323	21245
827.462	21100
827.601	21119
827.741	21138
827.88	21066
828.02	21039
828.159	21055
828.298	20960
828.437	21176
828.577	20975
828.716	21176
828.855	20975
828.994	20720
829.134	20853
829.273	20906
829.412	20750
829.551	20731
829.69	20883
829.829	20861
829.968	20963
830.107	20811
830.246	20838
830.385	20625
830.524	20716
830.663	20583
830.802	20598
830.941	20343
831.08	20469
831.219	20423
831.357	20400
831.496	20636
831.635	20317
831.774	20290
831.913	20218
832.051	20221
832.19	20240
832.329	20324
832.467	20164
832.606	20088
832.744	20275
832.883	20225
833.022	20168
833.16	20267
833.299	20381
833.437	20556
833.576	20682
833.714	20708
833.852	20629
833.991	20853
834.129	20956
834.267	20914
834.406	20876
834.544	20849
834.682	20651
834.821	20568
834.959	20686
835.097	20404
835.235	20499
835.373	20195
835.511	20355
835.65	20195
835.788	20039
835.926	19852
836.064	19860
836.202	19818
836.34	19913
836.478	20065
836.615	19932
836.753	20107
836.891	20020
837.029	19963
837.167	19898
837.305	19875
837.443	19776
837.58	19780
837.718	19875
837.856	19826
837.993	19563
838.131	19799
838.269	19708
838.406	19803
838.544	19693
838.681	19377
838.819	19388
838.956	19225
839.094	19339
839.231	19247
839.369	19388
839.506	19605
839.643	19426
839.781	19247
839.918	19202
840.055	19175
840.193	19206
840.33	19137
840.467	19164
840.604	19266
840.742	19316
840.879	19008
841.016	19118
841.153	19072
841.29	19350
841.427	19179
841.564	19171
841.701	19137
841.838	19114
841.975	19080
842.112	19088
842.249	18954
842.385	18894
842.522	19160
842.659	19015
842.796	19080
842.933	18977
843.069	18863
843.206	19031
843.343	19042
843.479	18954
843.616	18954
843.752	18837
843.889	18905
844.025	19107
844.162	18924
844.298	19103
844.435	19129
844.571	19213
844.708	19476
844.844	19795
844.98	20024
845.117	20423
845.253	20800
845.389	21812
845.525	23832
845.661	27211
845.798	31472
845.934	34805
846.07	36106
846.206	35501
846.342	32910
846.478	28584
846.614	24867
846.75	22478
846.886	20883
847.022	20199
847.158	19533
847.294	19091
847.429	18939
847.565	18696
847.701	18878
847.837	18346
847.972	18220
848.108	18296
848.244	18350
848.379	17992
848.515	17969
848.65	17939
848.786	17904
848.921	18030
849.057	17878
849.192	17923
849.328	17965
849.463	17866
849.598	17832
849.734	17695
849.869	17760
850.004	17646
850.14	17783
850.275	17539
850.41	17592
850.545	17558
850.68	17630
850.815	17604
850.95	17592
851.085	17779
851.22	17699
851.355	17573
851.49	17528
851.625	17493
851.76	17554
851.895	17414
852.03	17547
852.165	17653
852.299	17668
852.434	17783
852.569	17581
852.703	17611
852.838	17608
852.973	17817
853.107	17870
853.242	17615
853.376	17573
853.511	17528
853.645	17562
853.78	17718
853.914	17577
854.048	17608
854.183	17649
854.317	17809
854.451	17832
854.585	17741
854.72	17642
854.854	17623
854.988	17547
855.122	17676
855.256	17486
855.39	17539
855.524	17608
855.658	17566
855.792	17509
855.926	17524
856.06	17501
856.194	17539
856.327	17395
856.461	17368
856.595	17478
856.729	17429
856.862	17562
856.996	17429
857.13	17482
857.263	17573
857.397	17577
857.53	17448
857.664	17444
857.797	17512
857.931	17471
858.064	17440
858.197	17391
858.331	17353
858.464	17402
858.597	17326
858.731	17292
858.864	17406
858.997	17223
859.13	17322
859.263	17349
859.396	17398
859.529	17288
859.662	17246
859.795	17254
859.928	17376
860.061	17425
860.194	17497
860.327	17212
860.46	17330
860.592	17315
860.725	17315
860.858	17330
860.99	17239
861.123	17220
861.256	17330
861.388	17330
861.521	17817
861.653	17159
861.786	17162
861.918	17086
862.05	17086
862.183	17273
862.315	17250
862.447	17376
862.58	17208
862.712	17056
862.844	17052
862.976	17086
863.108	17159
863.24	17315
863.372	16919
863.504	16949
863.636	17037
863.768	17048
863.9	17045
864.032	16972
864.164	16961
864.296	16987
864.428	17010
864.559	17025
864.691	17079
864.823	17064
864.954	16934
865.086	17064
865.217	16961
865.349	16946
865.48	16984
865.612	16999
865.743	17132
865.875	17041
866.006	16942
866.137	16953
866.269	17052
866.4	16972
866.531	16843
866.662	16790
866.793	16927
866.924	16850
867.055	16965
867.186	16911
867.317	16839
867.448	16949
867.579	16908
867.71	16889
867.841	16812
867.972	16923
868.103	16908
868.233	16927
868.364	16965
868.495	17052
868.625	17200
868.756	17330
868.886	17128
869.017	17307
869.147	17280
869.278	17436
869.408	17227
869.539	17132
869.669	17162
869.799	17254
869.929	17216
870.06	17265
870.19	17490
870.32	17463
870.45	17482
870.58	17554
870.71	17676
870.84	17714
870.97	17570
871.1	17619
871.23	17828
871.36	17786
871.489	17684
871.619	17809
871.749	17840
871.879	17885
872.008	17939
872.138	17843
872.267	17882
872.397	17668
872.526	17718
872.656	17691
872.785	17771
872.915	17958
873.044	18022
873.173	17965
873.303	18091
873.432	18007
873.561	18083
873.69	18114
873.819	18076
873.948	18178
874.077	18019
874.206	18049
874.335	18224
874.464	18323
874.593	18365
874.722	18365
874.851	18467
874.979	18502
875.108	18544
875.237	18426
875.365	18365
875.494	18517
875.623	18642
875.751	18467
875.88	18585
876.008	18833
876.136	18920
876.265	19042
876.393	19251
876.521	19213
876.65	19350
876.778	19301
876.906	19190
877.034	19289
877.162	19217
877.29	19350
877.418	19487
877.546	19487
877.674	19567
877.802	19533
877.93	19575
878.058	19765
878.185	19837
878.313	20092
878.441	20233
878.568	20404
878.696	20880
878.824	21439
878.951	22124
879.079	23170
879.206	24334
879.333	25689
879.461	26674
879.588	27485
879.715	27462
879.842	26975
879.97	25544
880.097	24125
880.224	23151
880.351	22519
880.478	22055
880.605	21519
880.732	21336
880.859	21393
880.986	21032
881.112	21043
881.239	20819
881.366	20887
881.493	20564
881.619	20461
881.746	20663
881.872	20564
881.999	20720
882.125	20579
882.252	20785
882.378	20773
882.505	20815
882.631	20716
882.757	20667
882.883	20712
883.01	20465
883.136	20461
883.262	20492
883.388	20389
883.514	20530
883.64	20678
883.766	20503
883.892	20275
884.018	20252
884.143	20613
884.269	20594
884.395	20454
884.52	20286
884.646	20282
884.772	20408
884.897	20183
885.023	20229
885.148	20374
885.274	20355
885.399	20267
885.524	20069
885.65	20100
885.775	19936
885.9	19936
886.025	19894
886.15	19731
886.275	19514
886.4	19430
886.525	19350
886.65	19236
886.775	19209
886.9	19381
887.025	19365
887.149	19095
887.274	18924
887.399	18806
887.523	18753
887.648	18711
887.773	18555
887.897	18623
888.021	18631
888.146	18509
888.27	18616
888.395	18635
888.519	18429
888.643	18456
888.767	18365
888.891	18277
889.015	18152
889.139	18220
889.263	18205
889.387	18209
889.511	18361
889.635	18330
889.759	17992
889.883	17965
890.006	18057
890.13	18072
890.254	17923
890.377	17756
890.501	17775
890.624	17672
890.748	17809
890.871	17604
890.995	17608
891.118	17353
891.241	17429
891.364	17436
891.488	17524
891.611	17478
891.734	17417
891.857	17474
891.98	17436
892.103	17425
892.226	17433
892.349	17288
892.471	17151
892.594	17265
892.717	17258
892.839	17155
892.962	17235
893.085	17227
893.207	17143
893.33	17052
893.452	17064
893.575	17117
893.697	17048
893.819	17166
893.941	17254
894.064	17315
894.186	16991
894.308	16987
894.43	17006
894.552	17235
894.674	17124
894.796	16854
894.918	17033
895.04	17010
895.161	17003
895.283	17014
895.405	16835
895.526	17033
895.648	17003
895.769	16881
895.891	17010
896.012	16995
896.134	16923
896.255	16847
896.376	16991
896.498	17014
896.619	16999
896.74	17025
896.861	17022
896.982	17220
897.103	17364
897.224	17288
897.345	17242
897.466	17060
897.587	17094
897.708	17231
897.828	17189
897.949	17128
898.07	17037
898.19	17121
898.311	17265
898.431	17136
898.552	17162
898.672	17273
898.792	17277
898.913	17216
899.033	17124
899.153	17056
899.273	17048
899.393	17033
899.513	16991
899.633	16942
899.753	16995
899.873	16968
899.993	17079
900.113	16915
900.232	17048
900.352	16938
900.472	16797
900.591	16767
900.711	16885
900.83	16824
900.95	16889
901.069	16930
901.189	16702
901.308	16615
901.427	16379
901.546	16447
901.665	16436
901.784	16447
901.904	16291
902.023	16223
902.141	16032
902.26	15953
902.379	16044
902.498	15915
902.617	15846
902.735	15812
902.854	15911
902.973	15888
903.091	15553
903.21	15500
903.328	15504
903.446	15458
903.565	15344
903.683	15447
903.801	15306
903.919	15370
904.038	15431
904.156	15211
904.274	15317
904.392	15131
904.51	15135
904.627	15180
904.745	15226
904.863	15264
904.981	14937
905.098	14845
905.216	14807
905.334	14857
905.451	14796
905.569	14777
905.686	14868
905.803	14705
905.921	14568
906.038	14743
906.155	14590
906.272	14507
906.389	14556
906.506	14313
906.623	14366
906.74	14332
906.857	14180
906.974	14221
907.091	14457
907.208	14495
907.324	14305
907.441	14225
907.557	14084
907.674	14046
907.79	14016
907.907	14081
908.023	14027
908.139	14050
908.256	14024
908.372	13921
908.488	13909
908.604	13830
908.72	13822
908.836	13909
908.952	13734
909.068	13776
909.184	13856
909.3	13837
909.415	13856
909.531	13784
909.647	13548
909.762	13518
909.878	13449
909.993	13556
910.108	13487
910.224	13525
910.339	13499
910.454	13460
910.57	13198
910.685	13362
910.8	13651
910.915	13529
911.03	13373
911.145	13198
911.259	13171
911.374	13187
911.489	13133
911.604	13042
911.718	12954
911.833	12951
911.947	12833
912.062	12753
912.176	12973
912.291	12951
912.405	12878
912.519	13072
912.633	13141
912.748	12981
912.862	12951
912.976	12795
913.09	12631
913.204	12722
913.318	12760
913.431	12916
913.545	12821
913.659	12901
913.772	12738
913.886	12635
914	12547
914.113	12719
914.226	12745
914.34	12730
914.453	12574
914.566	12703
914.68	12570
914.793	12555
914.906	12365
915.019	12266
915.132	12239
915.245	12300
915.358	12346
915.47	12327
915.583	12311
915.696	12376
915.809	12506
915.921	12494
916.034	12338
916.146	12323
916.259	12239
916.371	12414
916.483	12456
916.595	12258
916.708	12296
916.82	12239
916.932	12235
917.044	12258
917.156	12254
917.268	12163
917.38	12201
917.491	12117
917.603	12136
917.715	12201
917.826	12178
917.938	12057
918.049	12019
918.161	12121
918.272	12148
918.384	12159
918.495	12019
918.606	11878
918.717	11878
918.828	11961
918.939	11866
919.05	11817
919.161	11805
919.272	11676
919.383	11794
919.494	11942
919.604	12098
919.715	11927
919.826	11752
919.936	11885
920.047	12045
920.157	11904
920.267	12053
920.378	11863
920.488	11878
920.598	12064
920.708	12159
920.818	12038
920.928	12106
921.038	12194
921.148	12140
921.258	11931
921.368	11733
921.477	11714
921.587	11573
921.697	11566
921.806	11680
921.916	11512
922.025	11493
922.134	11353
922.244	11303
922.353	11379
922.462	11197
922.571	11208
922.68	11025
922.789	11029
922.898	11029
923.007	11006
923.116	10999
923.224	11014
923.333	11041
923.442	10816
923.55	10850
923.659	10904
923.767	10900
923.876	10881
923.984	10946
924.092	10847
924.201	10847
924.309	10942
924.417	10843
924.525	10835
924.633	10748
924.741	11752
924.849	10603
924.956	10790
925.064	10588
925.172	10603
925.279	10618
925.387	10603
925.494	10565
925.602	10889
925.709	10706
925.816	10436
925.924	10573
926.031	10630
926.138	10577
926.245	10569
926.352	10470
926.459	10649
926.566	10630
926.673	10497
926.779	10386
926.886	10379
926.993	10238
927.099	10230
927.206	10268
927.312	10200
927.419	10306
927.525	10272
927.631	10268
927.737	10135
927.843	10173
927.95	9994
928.056	10188
928.162	10071
928.267	10147
928.373	10733
928.479	10147
928.585	10010
928.69	10124
928.796	10173
928.901	10063
929.007	9911
929.112	10029
929.218	10044
929.323	9918
929.428	9857
929.533	10040
929.638	9785
929.743	9804
929.848	9922
929.953	9861
930.058	9819
930.163	9644
930.267	9584
930.372	9808
930.477	9614
930.581	9846
930.685	9679
930.79	9622
930.894	9542
930.998	9534
931.103	9637
931.207	9329
931.311	9245
931.415	9150
931.519	8998
931.623	9070
