Data from test_V78500241_2278.txt Node
Date: Fri Mar 25 14:49:34 CST 2022
User: usil
Spectrometer: V785-0024
Trigger mode: 0
Integration Time (sec): 4.000000E-1
Scans to average: 1
Nonlinearity correction enabled: false
Boxcar width: 0
Storing dark spectrum: false
XAxis mode: Wavelengths
Number of Pixels in Spectrum: 1024
>>>>>Begin Spectral Data<<<<<
801.071	22314
801.214	22040
801.356	21808
801.499	21717
801.641	21644
801.783	21580
801.926	21679
802.068	21412
802.211	21351
802.353	21279
802.496	21154
802.638	20925
802.78	21039
802.923	20929
803.065	20883
803.208	20853
803.35	20929
803.492	20994
803.635	21020
803.777	20899
803.919	20990
804.061	21256
804.204	21020
804.346	20796
804.488	20777
804.63	20845
804.773	20727
804.915	20777
805.057	20834
805.199	20811
805.341	20876
805.483	20891
805.626	20880
805.768	20796
805.91	20804
806.052	20963
806.194	20762
806.336	20906
806.478	20750
806.62	20727
806.762	20815
806.904	20956
807.046	21233
807.188	21275
807.33	21024
807.472	21100
807.614	21093
807.756	21123
807.898	20967
808.04	20842
808.182	20902
808.324	20800
808.465	20960
808.607	21192
808.749	21188
808.891	21222
809.033	21416
809.174	21237
809.316	21077
809.458	21188
809.6	21165
809.741	21218
809.883	21321
810.025	21351
810.166	21340
810.308	21447
810.45	21298
810.591	21294
810.733	21017
810.875	20971
811.016	20918
811.158	20967
811.299	21047
811.441	21043
811.582	21089
811.724	21032
811.865	20861
812.007	20944
812.148	20967
812.29	20979
812.431	21142
812.573	21256
812.714	21420
812.855	21485
812.997	21568
813.138	21701
813.279	21557
813.421	21492
813.562	21458
813.703	21142
813.845	21062
813.986	20823
814.127	20609
814.268	20484
814.41	20476
814.551	20446
814.692	20629
814.833	20476
814.974	20358
815.115	20537
815.256	20324
815.397	20400
815.539	20377
815.68	20126
815.821	20256
815.962	20290
816.103	20328
816.244	20157
816.385	20012
816.526	19906
816.666	19803
816.807	19670
816.948	19681
817.089	19811
817.23	19639
817.371	19666
817.512	19666
817.653	19651
817.793	19529
817.934	19689
818.075	19715
818.216	19734
818.356	19616
818.497	19537
818.638	19266
818.778	19247
818.919	19396
819.06	19350
819.2	19548
819.341	19556
819.481	19567
819.622	19632
819.762	19849
819.903	19719
820.043	19712
820.184	19655
820.324	19651
820.465	19681
820.605	19544
820.746	19620
820.886	19449
821.026	19502
821.167	19632
821.307	19578
821.447	19597
821.588	19457
821.728	19198
821.868	19129
822.008	18985
822.149	19027
822.289	19027
822.429	18703
822.569	18745
822.709	18764
822.849	18460
822.99	18448
823.13	18517
823.27	18361
823.41	18372
823.55	18247
823.69	18273
823.83	18319
823.97	18247
824.11	18026
824.25	17992
824.389	18133
824.529	18064
824.669	18053
824.809	18171
824.949	18163
825.089	18152
825.228	18091
825.368	17916
825.508	17908
825.648	17809
825.787	17859
825.927	17935
826.067	17904
826.206	17794
826.346	17855
826.485	17863
826.625	17760
826.765	18011
826.904	17889
827.044	17649
827.183	17608
827.323	17573
827.462	17570
827.601	17524
827.741	17634
827.88	17532
828.02	17497
828.159	17570
828.298	17490
828.437	17554
828.577	17417
828.716	17699
828.855	17467
828.994	17311
829.134	17318
829.273	17360
829.412	17299
829.551	17105
829.69	17227
829.829	17204
829.968	17364
830.107	17311
830.246	17349
830.385	17174
830.524	17159
830.663	17189
830.802	17155
830.941	16923
831.08	16938
831.219	16885
831.357	17117
831.496	17071
831.635	16968
831.774	16774
831.913	16847
832.051	16694
832.19	16679
832.329	16660
832.467	16634
832.606	16592
832.744	16508
832.883	16554
833.022	16550
833.16	16550
833.299	16668
833.437	16656
833.576	16580
833.714	16523
833.852	16569
833.991	16603
834.129	16736
834.267	16679
834.406	16618
834.544	16717
834.682	16615
834.821	16630
834.959	16759
835.097	16592
835.235	16736
835.373	16641
835.511	16653
835.65	16500
835.788	16489
835.926	16379
836.064	16230
836.202	16333
836.34	16478
836.478	16580
836.615	16519
836.753	16584
836.891	16679
837.029	16519
837.167	16424
837.305	16535
837.443	16489
837.58	16329
837.718	16451
837.856	16306
837.993	16348
838.131	16371
838.269	16181
838.406	16356
838.544	16135
838.681	16139
838.819	16032
838.956	15972
839.094	15941
839.231	16025
839.369	16048
839.506	16280
839.643	16211
839.781	15884
839.918	15835
840.055	15945
840.193	15987
840.33	16010
840.467	15918
840.604	16017
840.742	16242
840.879	15926
841.016	15797
841.153	15857
841.29	16040
841.427	15964
841.564	15785
841.701	15998
841.838	15842
841.975	15751
842.112	15876
842.249	15701
842.385	15660
842.522	15876
842.659	15709
842.796	15637
842.933	15705
843.069	15610
843.206	15641
843.343	15781
843.479	15625
843.616	15637
843.752	15523
843.889	15504
844.025	15633
844.162	15500
844.298	15504
844.435	15523
844.571	15469
844.708	15572
844.844	15671
844.98	15694
845.117	15633
845.253	15481
845.389	15382
845.525	15424
845.661	15351
845.798	15260
845.934	15256
846.07	15249
846.206	15348
846.342	15348
846.478	15275
846.614	15256
846.75	15100
846.886	14948
847.022	15146
847.158	15005
847.294	15036
847.429	15108
847.565	15173
847.701	15226
847.837	14838
847.972	14754
848.108	14982
848.244	14883
848.379	14769
848.515	14705
848.65	14667
848.786	14735
848.921	14659
849.057	14739
849.192	14712
849.328	14583
849.463	14701
849.598	14552
849.734	14488
849.869	14530
850.004	14457
850.14	14526
850.275	14480
850.41	14434
850.545	14343
850.68	14389
850.815	14381
850.95	14461
851.085	14701
851.22	14564
851.355	14385
851.49	14419
851.625	14351
851.76	14419
851.895	14351
852.03	14206
852.165	14431
852.299	14408
852.434	14530
852.569	14503
852.703	14469
852.838	14492
852.973	14583
853.107	14541
853.242	14415
853.376	14347
853.511	14218
853.645	14130
853.78	14427
853.914	14351
854.048	14282
854.183	14282
854.317	14370
854.451	14488
854.585	14271
854.72	14298
854.854	14294
854.988	14320
855.122	14263
855.256	14214
855.39	14263
855.524	14290
855.658	14415
855.792	14317
855.926	14370
856.06	14412
856.194	14434
856.327	14286
856.461	14244
856.595	14286
856.729	14282
856.862	14332
856.996	14309
857.13	14366
857.263	14396
857.397	14473
857.53	14298
857.664	14377
857.797	14412
857.931	14404
858.064	14278
858.197	14488
858.331	14263
858.464	14286
858.597	14153
858.731	14317
858.864	14214
858.997	14263
859.13	14275
859.263	14282
859.396	14393
859.529	14229
859.662	14248
859.795	14267
859.928	14343
860.061	14427
860.194	14408
860.327	14343
860.46	14202
860.592	14408
860.725	14431
860.858	14278
860.99	14252
861.123	14275
861.256	14218
861.388	14347
861.521	14838
861.653	14142
861.786	14096
861.918	14149
862.05	14153
862.183	14233
862.315	14267
862.447	14309
862.58	14210
862.712	14088
862.844	14027
862.976	14202
863.108	14176
863.24	14351
863.372	14005
863.504	14065
863.636	14092
863.768	14142
863.9	14001
864.032	13993
864.164	14069
864.296	14016
864.428	14221
864.559	14126
864.691	14180
864.823	14153
864.954	14088
865.086	14058
865.217	14111
865.349	14016
865.48	14046
865.612	14096
865.743	14240
865.875	14027
866.006	14065
866.137	14115
866.269	14024
866.4	14050
866.531	14016
866.662	13894
866.793	14142
866.924	14088
867.055	14069
867.186	14016
867.317	14024
867.448	13997
867.579	14115
867.71	13993
867.841	13887
867.972	14005
868.103	14096
868.233	14130
868.364	14081
868.495	14149
868.625	14278
868.756	14408
868.886	14164
869.017	14294
869.147	14362
869.278	14404
869.408	14343
869.539	14313
869.669	14476
869.799	14389
869.929	14545
870.06	14400
870.19	14648
870.32	14621
870.45	14708
870.58	14724
870.71	14781
870.84	14765
870.97	14701
871.1	14735
871.23	14842
871.36	14891
871.489	14853
871.619	14823
871.749	14842
871.879	14929
872.008	15097
872.138	14853
872.267	14823
872.397	14838
872.526	14765
872.656	14727
872.785	14765
872.915	14933
873.044	14921
873.173	14948
873.303	15066
873.432	15024
873.561	15039
873.69	14895
873.819	14906
873.948	14975
874.077	15093
874.206	14887
874.335	14998
874.464	15199
874.593	15237
874.722	15268
874.851	15298
874.979	15344
875.108	15386
875.237	15214
875.365	15173
875.494	15252
875.623	15287
875.751	15104
875.88	15359
876.008	15363
876.136	15481
876.265	15614
876.393	15774
876.521	15797
876.65	15724
876.778	15743
876.906	15679
877.034	15595
877.162	15648
877.29	15633
877.418	15663
877.546	15686
877.674	15622
877.802	15732
877.93	15591
878.058	15591
878.185	15557
878.313	15599
878.441	15618
878.568	15492
878.696	15606
878.824	15686
878.951	15793
879.079	15812
879.206	15994
879.333	15831
879.461	15698
879.588	15774
879.715	15812
879.842	16120
879.97	15690
880.097	15599
880.224	15443
880.351	15553
880.478	15534
880.605	15473
880.732	15458
880.859	15698
880.986	15603
881.112	15591
881.239	15408
881.366	15249
881.493	15230
881.619	15123
881.746	15161
881.872	15199
881.999	15157
882.125	15226
882.252	15230
882.378	15188
882.505	15302
882.631	15051
882.757	14979
882.883	15032
883.01	15104
883.136	14891
883.262	14883
883.388	14777
883.514	15028
883.64	14994
883.766	15013
883.892	14739
884.018	14819
884.143	14998
884.269	15093
884.395	14785
884.52	14705
884.646	14796
884.772	14651
884.897	14636
885.023	14781
885.148	14735
885.274	14845
885.399	14807
885.524	14689
885.65	14708
885.775	14800
885.9	14674
886.025	14796
886.15	14830
886.275	14663
886.4	14621
886.525	14556
886.65	14632
886.775	14606
886.9	14876
887.025	14982
887.149	14762
887.274	14480
887.399	14533
887.523	14575
887.648	14579
887.773	14389
887.897	14632
888.021	14587
888.146	14415
888.27	14648
888.395	14602
888.519	14590
888.643	14629
888.767	14617
888.891	14473
889.015	14385
889.139	14385
889.263	14362
889.387	14404
889.511	14537
889.635	14514
889.759	14336
889.883	14389
890.006	14400
890.13	14499
890.254	14332
890.377	14294
890.501	14164
890.624	14191
890.748	14298
890.871	14126
890.995	14046
891.118	13997
891.241	14050
891.364	14092
891.488	14172
891.611	14126
891.734	14172
891.857	14180
891.98	14115
892.103	14096
892.226	14046
892.349	14096
892.471	13928
892.594	13986
892.717	14092
892.839	14050
892.962	14111
893.085	14153
893.207	13993
893.33	14020
893.452	13917
893.575	14206
893.697	14027
893.819	14183
893.941	14248
894.064	14309
894.186	14054
894.308	14077
894.43	14195
894.552	14396
894.674	14214
894.796	14046
894.918	14115
895.04	14126
895.161	14259
895.283	14195
895.405	14138
895.526	14164
895.648	14157
895.769	14229
895.891	14164
896.012	14286
896.134	14358
896.255	14317
896.376	14199
896.498	14305
896.619	14355
896.74	14214
896.861	14324
896.982	14625
897.103	14705
897.224	14514
897.345	14541
897.466	14488
897.587	14537
897.708	14667
897.828	14571
897.949	14495
898.07	14454
898.19	14552
898.311	14598
898.431	14571
898.552	14648
898.672	14708
898.792	14758
898.913	14621
899.033	14651
899.153	14457
899.273	14450
899.393	14438
899.513	14492
899.633	14442
899.753	14488
899.873	14473
899.993	14503
900.113	14438
900.232	14484
900.352	14530
900.472	14492
900.591	14343
900.711	14442
900.83	14431
900.95	14442
901.069	14442
901.189	14180
901.308	14043
901.427	14046
901.546	14008
901.665	14046
901.784	14062
901.904	13993
902.023	13833
902.141	13731
902.26	13620
902.379	13628
902.498	13601
902.617	13460
902.735	13563
902.854	13601
902.973	13529
903.091	13358
903.21	13354
903.328	13316
903.446	13225
903.565	13122
903.683	13206
903.801	13080
903.919	13187
904.038	13095
904.156	12996
904.274	13152
904.392	12970
904.51	12989
904.627	13008
904.745	13015
904.863	12989
904.981	12844
905.098	12631
905.216	12673
905.334	12738
905.451	12730
905.569	12692
905.686	12722
905.803	12673
905.921	12536
906.038	12540
906.155	12506
906.272	12407
906.389	12346
906.506	12308
906.623	12209
906.74	12216
906.857	12114
906.974	12186
907.091	12300
907.208	12395
907.324	12239
907.441	12064
907.557	12060
907.674	12019
907.79	11999
907.907	11984
908.023	12007
908.139	11961
908.256	11973
908.372	11954
908.488	11904
908.604	11828
908.72	11809
908.836	11688
908.952	11699
909.068	11779
909.184	11863
909.3	11710
909.415	11805
909.531	11786
909.647	11672
909.762	11501
909.878	11444
909.993	11505
910.108	11604
910.224	11524
910.339	11528
910.454	11516
910.57	11391
910.685	11303
910.8	11501
910.915	11547
911.03	11356
911.145	11193
911.259	11288
911.374	11242
911.489	11128
911.604	11033
911.718	10911
911.833	10999
911.947	10934
912.062	10782
912.176	10961
912.291	10991
912.405	10965
912.519	11216
912.633	11197
912.748	11075
912.862	10991
912.976	10824
913.09	10748
913.204	10828
913.318	10858
913.431	10949
913.545	10957
913.659	10949
913.772	10889
913.886	10763
914	10641
914.113	10835
914.226	10942
914.34	10873
914.453	10649
914.566	10797
914.68	10664
914.793	10664
914.906	10516
915.019	10478
915.132	10428
915.245	10440
915.358	10546
915.47	10554
915.583	10493
915.696	10531
915.809	10618
915.921	10649
916.034	10470
916.146	10398
916.259	10417
916.371	10504
916.483	10535
916.595	10413
916.708	10417
916.82	10344
916.932	10462
917.044	10474
917.156	10443
917.268	10280
917.38	10382
917.491	10280
917.603	10249
917.715	10455
917.826	10474
917.938	10325
918.049	10223
918.161	10352
918.272	10455
918.384	10424
918.495	10261
918.606	10272
918.717	10120
918.828	10227
918.939	10257
919.05	10128
919.161	10150
919.272	9979
919.383	10116
919.494	10211
919.604	10474
919.715	10280
919.826	10101
919.936	10207
920.047	10303
920.157	10295
920.267	10386
920.378	10287
920.488	10162
920.598	10443
920.708	10512
920.818	10405
920.928	10455
921.038	10523
921.148	10481
921.258	10169
921.368	10207
921.477	10093
921.587	10071
921.697	9937
921.806	10128
921.916	9979
922.025	9857
922.134	9740
922.244	9755
922.353	9827
922.462	9743
922.571	9648
922.68	9500
922.789	9473
922.898	9481
923.007	9424
923.116	9564
923.224	9450
923.333	9488
923.442	9389
923.55	9332
923.659	9313
923.767	9481
923.876	9336
923.984	9408
924.092	9195
924.201	9405
924.309	9424
924.417	9367
924.525	9249
924.633	9363
924.741	10230
924.849	9058
924.956	9268
925.064	9104
925.172	9036
925.279	9146
925.387	9173
925.494	9184
925.602	9249
925.709	9195
925.816	9097
925.924	9218
926.031	9203
926.138	9176
926.245	9207
926.352	9043
926.459	9176
926.566	9302
926.673	9055
926.779	8971
926.886	8990
926.993	8857
927.099	8899
927.206	8792
927.312	8697
927.419	8891
927.525	8834
927.631	8876
927.737	8762
927.843	8712
927.95	8560
928.056	8701
928.162	8708
928.267	8796
928.373	9439
928.479	8925
928.585	8606
928.69	8781
928.796	8800
928.901	8640
929.007	8488
929.112	8632
929.218	8568
929.323	8568
929.428	8598
929.533	8670
929.638	8526
929.743	8522
929.848	8564
929.953	8533
930.058	8446
930.163	8370
930.267	8393
930.372	8469
930.477	8263
930.581	8549
930.685	8377
930.79	8256
930.894	8362
930.998	8301
931.103	8454
931.207	8031
931.311	7997
931.415	7925
931.519	7841
931.623	7757
