Data from test_V78500241_2687.txt Node
Date: Fri Mar 25 14:52:25 CST 2022
User: usil
Spectrometer: V785-0024
Trigger mode: 0
Integration Time (sec): 4.000000E-1
Scans to average: 1
Nonlinearity correction enabled: false
Boxcar width: 0
Storing dark spectrum: false
XAxis mode: Wavelengths
Number of Pixels in Spectrum: 1024
>>>>>Begin Spectral Data<<<<<
801.071	22010
801.214	21873
801.356	21572
801.499	21557
801.641	21344
801.783	21450
801.926	21355
802.068	21389
802.211	21142
802.353	21085
802.496	20975
802.638	20956
802.78	20819
802.923	20785
803.065	20579
803.208	20716
803.35	20895
803.492	20743
803.635	20895
803.777	20743
803.919	20701
804.061	21104
804.204	20788
804.346	20788
804.488	20594
804.63	20568
804.773	20549
804.915	20552
805.057	20731
805.199	20636
805.341	20769
805.483	20735
805.626	20720
805.768	20556
805.91	20697
806.052	20564
806.194	20530
806.336	20716
806.478	20594
806.62	20575
806.762	20720
806.904	20800
807.046	20963
807.188	20990
807.33	20842
807.472	20910
807.614	20914
807.756	20823
807.898	20754
808.04	20575
808.182	20705
808.324	20640
808.465	20663
808.607	20910
808.749	21058
808.891	21093
809.033	21131
809.174	21047
809.316	20998
809.458	21017
809.6	20883
809.741	20971
809.883	21036
810.025	21055
810.166	21024
810.308	21100
810.45	20929
810.591	20963
810.733	20785
810.875	20655
811.016	20655
811.158	20560
811.299	20720
811.441	20823
811.582	20857
811.724	20769
811.865	20651
812.007	20644
812.148	20724
812.29	20697
812.431	20868
812.573	21119
812.714	21104
812.855	21192
812.997	21275
813.138	21321
813.279	21374
813.421	21211
813.562	21150
813.703	21024
813.845	20925
813.986	20590
814.127	20446
814.268	20263
814.41	20305
814.551	20320
814.692	20473
814.833	20263
814.974	20142
815.115	20252
815.256	20103
815.397	20084
815.539	20164
815.68	19993
815.821	19906
815.962	20024
816.103	19982
816.244	19841
816.385	19772
816.526	19674
816.666	19674
816.807	19441
816.948	19582
817.089	19609
817.23	19460
817.371	19392
817.512	19388
817.653	19441
817.793	19384
817.934	19411
818.075	19430
818.216	19468
818.356	19430
818.497	19312
818.638	19053
818.778	19168
818.919	19042
819.06	19004
819.2	19110
819.341	19301
819.481	19358
819.622	19445
819.762	19571
819.903	19552
820.043	19620
820.184	19392
820.324	19476
820.465	19495
820.605	19396
820.746	19304
820.886	19289
821.026	19358
821.167	19274
821.307	19403
821.447	19324
821.588	19232
821.728	19080
821.868	18977
822.008	18787
822.149	18890
822.289	18753
822.429	18566
822.569	18486
822.709	18532
822.849	18262
822.99	18300
823.13	18292
823.27	18304
823.41	18239
823.55	18045
823.69	18057
823.83	18019
823.97	18110
824.11	17904
824.25	17878
824.389	17802
824.529	17931
824.669	17885
824.809	17969
824.949	17889
825.089	18007
825.228	17908
825.368	17802
825.508	17733
825.648	17566
825.787	17703
825.927	17783
826.067	17592
826.206	17630
826.346	17691
826.485	17741
826.625	17562
826.765	17756
826.904	17722
827.044	17410
827.183	17406
827.323	17280
827.462	17387
827.601	17341
827.741	17387
827.88	17433
828.02	17273
828.159	17242
828.298	17387
828.437	17535
828.577	17402
828.716	17425
828.855	17311
828.994	17223
829.134	17227
829.273	17128
829.412	17147
829.551	16946
829.69	17090
829.829	17124
829.968	17170
830.107	17200
830.246	17181
830.385	17041
830.524	17060
830.663	16908
830.802	16748
830.941	16717
831.08	16755
831.219	16687
831.357	16740
831.496	17025
831.635	16782
831.774	16603
831.913	16554
832.051	16558
832.19	16588
832.329	16645
832.467	16432
832.606	16459
832.744	16485
832.883	16409
833.022	16265
833.16	16432
833.299	16470
833.437	16459
833.576	16508
833.714	16527
833.852	16447
833.991	16535
834.129	16470
834.267	16531
834.406	16382
834.544	16542
834.682	16527
834.821	16485
834.959	16698
835.097	16470
835.235	16459
835.373	16470
835.511	16470
835.65	16371
835.788	16417
835.926	16272
836.064	16162
836.202	16230
836.34	16428
836.478	16447
836.615	16371
836.753	16500
836.891	16485
837.029	16455
837.167	16421
837.305	16177
837.443	16371
837.58	16318
837.718	16371
837.856	16261
837.993	16219
838.131	16291
838.269	16246
838.406	16280
838.544	16181
838.681	15888
838.819	16006
838.956	15842
839.094	15907
839.231	15884
839.369	16021
839.506	16371
839.643	16173
839.781	15869
839.918	15789
840.055	15899
840.193	15899
840.33	15816
840.467	15781
840.604	15918
840.742	16090
840.879	15701
841.016	15743
841.153	15808
841.29	15873
841.427	15922
841.564	15835
841.701	15759
841.838	15857
841.975	15644
842.112	15831
842.249	15652
842.385	15709
842.522	15789
842.659	15736
842.796	15572
842.933	15641
843.069	15610
843.206	15614
843.343	15690
843.479	15698
843.616	15515
843.752	15428
843.889	15382
844.025	15523
844.162	15363
844.298	15545
844.435	15336
844.571	15272
844.708	15492
844.844	15576
844.98	15606
845.117	15622
845.253	15355
845.389	15291
845.525	15389
845.661	15351
845.798	15184
845.934	15233
846.07	15184
846.206	15249
846.342	15336
846.478	15222
846.614	15028
846.75	14967
846.886	14914
847.022	15123
847.158	14937
847.294	14998
847.429	14963
847.565	14899
847.701	15211
847.837	14861
847.972	14823
848.108	14792
848.244	14773
848.379	14579
848.515	14610
848.65	14590
848.786	14537
848.921	14579
849.057	14655
849.192	14640
849.328	14598
849.463	14659
849.598	14518
849.734	14526
849.869	14488
850.004	14408
850.14	14457
850.275	14328
850.41	14233
850.545	14381
850.68	14370
850.815	14404
850.95	14294
851.085	14533
851.22	14473
851.355	14305
851.49	14332
851.625	14286
851.76	14282
851.895	14256
852.03	14214
852.165	14252
852.299	14431
852.434	14469
852.569	14317
852.703	14351
852.838	14339
852.973	14533
853.107	14499
853.242	14309
853.376	14225
853.511	14195
853.645	14130
853.78	14271
853.914	14206
854.048	14221
854.183	14123
854.317	14263
854.451	14393
854.585	14210
854.72	14202
854.854	14317
854.988	14145
855.122	14145
855.256	14039
855.39	14107
855.524	14294
855.658	14347
855.792	14218
855.926	14263
856.06	14248
856.194	14339
856.327	14237
856.461	14199
856.595	14183
856.729	14111
856.862	14282
856.996	14237
857.13	14301
857.263	14259
857.397	14301
857.53	14275
857.664	14343
857.797	14324
857.931	14290
858.064	14294
858.197	14256
858.331	14256
858.464	14134
858.597	14054
858.731	14130
858.864	14225
858.997	14248
859.13	14229
859.263	14290
859.396	14339
859.529	14256
859.662	14157
859.795	14225
859.928	14225
860.061	14358
860.194	14294
860.327	14244
860.46	14183
860.592	14286
860.725	14320
860.858	14389
860.99	14225
861.123	14119
861.256	14123
861.388	14267
861.521	14815
861.653	14157
861.786	14050
861.918	14103
862.05	14187
862.183	14073
862.315	14180
862.447	14278
862.58	14142
862.712	14031
862.844	13993
862.976	14035
863.108	14062
863.24	14488
863.372	13913
863.504	14088
863.636	14001
863.768	14020
863.9	13982
864.032	13913
864.164	13959
864.296	14020
864.428	14172
864.559	14065
864.691	14024
864.823	14005
864.954	14046
865.086	14016
865.217	14008
865.349	13997
865.48	13925
865.612	13997
865.743	14077
865.875	13955
866.006	13993
866.137	13993
866.269	14020
866.4	13989
866.531	13898
866.662	13845
866.793	13970
866.924	14054
867.055	13982
867.186	14043
867.317	14016
867.448	13818
867.579	13974
867.71	13875
867.841	13906
867.972	14027
868.103	13951
868.233	14024
868.364	14016
868.495	14088
868.625	14240
868.756	14347
868.886	14176
869.017	14233
869.147	14366
869.278	14400
869.408	14278
869.539	14256
869.669	14362
869.799	14313
869.929	14336
870.06	14282
870.19	14590
870.32	14552
870.45	14552
870.58	14594
870.71	14686
870.84	14796
870.97	14590
871.1	14579
871.23	14724
871.36	14826
871.489	14705
871.619	14826
871.749	14811
871.879	14887
872.008	14925
872.138	14910
872.267	14796
872.397	14682
872.526	14590
872.656	14686
872.785	14674
872.915	14868
873.044	14944
873.173	14857
873.303	14891
873.432	14906
873.561	14979
873.69	14891
873.819	14788
873.948	14986
874.077	14876
874.206	14864
874.335	14941
874.464	14986
874.593	15173
874.722	15150
874.851	15256
874.979	15268
875.108	15298
875.237	15081
875.365	15184
875.494	15165
875.623	15329
875.751	15233
875.88	15195
876.008	15313
876.136	15405
876.265	15629
876.393	15755
876.521	15667
876.65	15762
876.778	15606
876.906	15724
877.034	15500
877.162	15580
877.29	15515
877.418	15644
877.546	15633
877.674	15648
877.802	15709
877.93	15637
878.058	15572
878.185	15576
878.313	15599
878.441	15648
878.568	15416
878.696	15469
878.824	15633
878.951	15679
879.079	15766
879.206	15876
879.333	15781
879.461	15747
879.588	15694
879.715	15800
879.842	15888
879.97	15606
880.097	15458
880.224	15435
880.351	15466
880.478	15450
880.605	15435
880.732	15393
880.859	15743
880.986	15523
881.112	15561
881.239	15355
881.366	15218
881.493	15154
881.619	15074
881.746	15055
881.872	15123
881.999	15070
882.125	15173
882.252	15249
882.378	15233
882.505	15351
882.631	14975
882.757	15020
882.883	15051
883.01	14861
883.136	14902
883.262	14689
883.388	14788
883.514	15055
883.64	14963
883.766	14887
883.892	14667
884.018	14823
884.143	15077
884.269	15070
884.395	14735
884.52	14674
884.646	14659
884.772	14571
884.897	14473
885.023	14689
885.148	14823
885.274	14910
885.399	14807
885.524	14625
885.65	14629
885.775	14629
885.9	14549
886.025	14670
886.15	14663
886.275	14594
886.4	14636
886.525	14568
886.65	14667
886.775	14579
886.9	14697
887.025	14937
887.149	14670
887.274	14526
887.399	14560
887.523	14434
887.648	14427
887.773	14271
887.897	14552
888.021	14621
888.146	14488
888.27	14571
888.395	14587
888.519	14533
888.643	14564
888.767	14541
888.891	14495
889.015	14320
889.139	14362
889.263	14358
889.387	14446
889.511	14552
889.635	14511
889.759	14221
889.883	14389
890.006	14328
890.13	14461
890.254	14313
890.377	14347
890.501	14183
890.624	14138
890.748	14187
890.871	14001
890.995	13997
891.118	13989
891.241	14050
891.364	14039
891.488	14130
891.611	14065
891.734	14027
891.857	14054
891.98	13921
892.103	14153
892.226	14107
892.349	14096
892.471	13871
892.594	14100
892.717	14088
892.839	13974
892.962	14069
893.085	14100
893.207	13906
893.33	13925
893.452	13951
893.575	14180
893.697	13974
893.819	14237
893.941	14259
894.064	14172
894.186	14084
894.308	13993
894.43	14221
894.552	14180
894.674	14206
894.796	14043
894.918	14149
895.04	14065
895.161	14092
895.283	14153
895.405	14069
895.526	14172
895.648	14206
895.769	14142
895.891	14172
896.012	14214
896.134	14244
896.255	14176
896.376	14225
896.498	14172
896.619	14278
896.74	14237
896.861	14244
896.982	14579
897.103	14598
897.224	14404
897.345	14488
897.466	14446
897.587	14492
897.708	14556
897.828	14587
897.949	14408
898.07	14370
898.19	14377
898.311	14610
898.431	14545
898.552	14461
898.672	14632
898.792	14590
898.913	14632
899.033	14484
899.153	14484
899.273	14343
899.393	14446
899.513	14389
899.633	14503
899.753	14423
899.873	14385
899.993	14617
900.113	14465
900.232	14286
900.352	14400
900.472	14351
900.591	14244
900.711	14381
900.83	14259
900.95	14355
901.069	14396
901.189	14096
901.308	13993
901.427	13852
901.546	13890
901.665	14043
901.784	14073
901.904	13811
902.023	13704
902.141	13483
902.26	13506
902.379	13559
902.498	13480
902.617	13445
902.735	13460
902.854	13540
902.973	13381
903.091	13308
903.21	13232
903.328	13187
903.446	13164
903.565	13072
903.683	13057
903.801	13015
903.919	13091
904.038	13076
904.156	12802
904.274	12973
904.392	12867
904.51	12905
904.627	12772
904.745	12916
904.863	12962
904.981	12738
905.098	12646
905.216	12631
905.334	12627
905.451	12563
905.569	12620
905.686	12684
905.803	12574
905.921	12365
906.038	12540
906.155	12319
906.272	12361
906.389	12350
906.506	12224
906.623	12178
906.74	12213
906.857	12110
906.974	12159
907.091	12224
907.208	12361
907.324	12235
907.441	12197
907.557	11977
907.674	11946
907.79	11809
907.907	11942
908.023	12095
908.139	12003
908.256	11961
908.372	11847
908.488	11832
908.604	11726
908.72	11661
908.836	11665
908.952	11707
909.068	11779
909.184	11783
909.3	11684
909.415	11794
909.531	11794
909.647	11486
909.762	11448
909.878	11501
909.993	11440
910.108	11452
910.224	11444
910.339	11490
910.454	11497
910.57	11360
910.685	11322
910.8	11600
910.915	11459
911.03	11436
911.145	11223
911.259	11273
911.374	11277
911.489	11132
911.604	11124
911.718	10995
911.833	10995
911.947	10854
912.062	10797
912.176	10904
912.291	10980
912.405	10946
912.519	11166
912.633	11174
912.748	11117
912.862	11029
912.976	10915
913.09	10771
913.204	10790
913.318	10850
913.431	10938
913.545	10953
913.659	11025
913.772	10816
913.886	10805
914	10767
914.113	10786
914.226	10858
914.34	10854
914.453	10679
914.566	10854
914.68	10725
914.793	10675
914.906	10504
915.019	10390
915.132	10440
915.245	10508
915.358	10580
915.47	10443
915.583	10519
915.696	10535
915.809	10721
915.921	10664
916.034	10455
916.146	10493
916.259	10360
916.371	10588
916.483	10440
916.595	10440
916.708	10462
916.82	10409
916.932	10367
917.044	10356
917.156	10341
917.268	10265
917.38	10363
917.491	10272
917.603	10322
917.715	10409
917.826	10382
917.938	10348
918.049	10276
918.161	10352
918.272	10402
918.384	10474
918.495	10325
918.606	10287
918.717	10147
918.828	10143
918.939	10177
919.05	10147
919.161	10185
919.272	10071
919.383	10029
919.494	10272
919.604	10497
919.715	10329
919.826	10150
919.936	10276
920.047	10268
920.157	10261
920.267	10417
920.378	10314
920.488	10265
920.598	10341
920.708	10558
920.818	10402
920.928	10424
921.038	10615
921.148	10447
921.258	10291
921.368	10306
921.477	10097
921.587	10097
921.697	9899
921.806	10093
921.916	9975
922.025	9766
922.134	9736
922.244	9686
922.353	9816
922.462	9663
922.571	9656
922.68	9466
922.789	9439
922.898	9481
923.007	9488
923.116	9507
923.224	9477
923.333	9458
923.442	9336
923.55	9302
923.659	9382
923.767	9439
923.876	9359
923.984	9386
924.092	9367
924.201	9325
924.309	9348
924.417	9291
924.525	9283
924.633	9351
924.741	10036
924.849	9116
924.956	9279
925.064	9108
925.172	8982
925.279	9104
925.387	9203
925.494	9104
925.602	9230
925.709	9241
925.816	9062
925.924	9123
926.031	9157
926.138	9135
926.245	9146
926.352	9062
926.459	9157
926.566	9249
926.673	9070
926.779	8979
926.886	8967
926.993	8853
927.099	8845
927.206	8853
927.312	8826
927.419	8918
927.525	8857
927.631	8868
927.737	8674
927.843	8781
927.95	8598
928.056	8720
928.162	8773
928.267	8842
928.373	9450
928.479	8842
928.585	8575
928.69	8750
928.796	8750
928.901	8632
929.007	8492
929.112	8678
929.218	8644
929.323	8552
929.428	8598
929.533	8682
929.638	8511
929.743	8530
929.848	8579
929.953	8522
930.058	8492
930.163	8275
930.267	8279
930.372	8457
930.477	8370
930.581	8503
930.685	8404
930.79	8317
930.894	8294
930.998	8286
931.103	8415
931.207	8084
931.311	8012
931.415	7917
931.519	7731
931.623	7799
