Data from test_V78500241_1788.txt Node
Date: Fri Mar 25 14:46:09 CST 2022
User: usil
Spectrometer: V785-0024
Trigger mode: 0
Integration Time (sec): 4.000000E-1
Scans to average: 1
Nonlinearity correction enabled: false
Boxcar width: 0
Storing dark spectrum: false
XAxis mode: Wavelengths
Number of Pixels in Spectrum: 1024
>>>>>Begin Spectral Data<<<<<
801.071	22185
801.214	22063
801.356	21823
801.499	21747
801.641	21583
801.783	21492
801.926	21424
802.068	21500
802.211	21424
802.353	21344
802.496	21055
802.638	21039
802.78	21001
802.923	20952
803.065	20845
803.208	20830
803.35	20952
803.492	21093
803.635	21005
803.777	20921
803.919	20902
804.061	21233
804.204	20933
804.346	20895
804.488	20743
804.63	20906
804.773	20804
804.915	20750
805.057	20895
805.199	20819
805.341	20891
805.483	20952
805.626	20880
805.768	20777
805.91	21032
806.052	20632
806.194	20689
806.336	20963
806.478	20819
806.62	20819
806.762	20796
806.904	20967
807.046	21085
807.188	21184
807.33	21188
807.472	21218
807.614	21055
807.756	21024
807.898	20994
808.04	20800
808.182	20876
808.324	20815
808.465	20910
808.607	21020
808.749	21173
808.891	21317
809.033	21287
809.174	21294
809.316	21138
809.458	21283
809.6	21150
809.741	21245
809.883	21264
810.025	21321
810.166	21397
810.308	21287
810.45	21230
810.591	21176
810.733	20982
810.875	20967
811.016	20880
811.158	20830
811.299	21013
811.441	20998
811.582	21028
811.724	20929
811.865	20929
812.007	21013
812.148	20906
812.29	21070
812.431	21024
812.573	21252
812.714	21420
812.855	21568
812.997	21515
813.138	21686
813.279	21583
813.421	21382
813.562	21412
813.703	21291
813.845	21169
813.986	20853
814.127	20735
814.268	20499
814.41	20587
814.551	20396
814.692	20450
814.833	20427
814.974	20446
815.115	20431
815.256	20495
815.397	20343
815.539	20252
815.68	20282
815.821	20107
815.962	20305
816.103	20252
816.244	20126
816.385	20046
816.526	19902
816.666	19670
816.807	19795
816.948	19677
817.089	19826
817.23	19704
817.371	19647
817.512	19658
817.653	19731
817.793	19605
817.934	19639
818.075	19575
818.216	19723
818.356	19563
818.497	19419
818.638	19289
818.778	19358
818.919	19285
819.06	19491
819.2	19449
819.341	19540
819.481	19518
819.622	19658
819.762	19826
819.903	19681
820.043	19616
820.184	19567
820.324	19556
820.465	19666
820.605	19696
820.746	19655
820.886	19540
821.026	19647
821.167	19685
821.307	19609
821.447	19506
821.588	19483
821.728	19304
821.868	19133
822.008	19065
822.149	18977
822.289	18993
822.429	18783
822.569	18665
822.709	18669
822.849	18521
822.99	18528
823.13	18547
823.27	18502
823.41	18327
823.55	18308
823.69	18353
823.83	18311
823.97	18251
824.11	18007
824.25	18038
824.389	18110
824.529	18102
824.669	18155
824.809	18125
824.949	18098
825.089	18098
825.228	18011
825.368	17904
825.508	17836
825.648	17805
825.787	17920
825.927	17935
826.067	17836
826.206	17889
826.346	17870
826.485	17904
826.625	17786
826.765	17996
826.904	17954
827.044	17646
827.183	17722
827.323	17524
827.462	17649
827.601	17467
827.741	17512
827.88	17649
828.02	17520
828.159	17516
828.298	17680
828.437	17649
828.577	17630
828.716	17611
828.855	17459
828.994	17368
829.134	17273
829.273	17353
829.412	17341
829.551	17337
829.69	17265
829.829	17360
829.968	17372
830.107	17311
830.246	17383
830.385	17242
830.524	17326
830.663	17056
830.802	17155
830.941	16942
831.08	16934
831.219	17006
831.357	17064
831.496	17162
831.635	16889
831.774	16869
831.913	16786
832.051	16630
832.19	16755
832.329	16866
832.467	16679
832.606	16580
832.744	16641
832.883	16649
833.022	16580
833.16	16542
833.299	16691
833.437	16653
833.576	16649
833.714	16672
833.852	16683
833.991	16744
834.129	16778
834.267	16706
834.406	16641
834.544	16793
834.682	16771
834.821	16740
834.959	16889
835.097	16554
835.235	16801
835.373	16611
835.511	16706
835.65	16675
835.788	16611
835.926	16432
836.064	16459
836.202	16367
836.34	16622
836.478	16740
836.615	16599
836.753	16550
836.891	16664
837.029	16622
837.167	16561
837.305	16478
837.443	16474
837.58	16485
837.718	16523
837.856	16421
837.993	16432
838.131	16516
838.269	16379
838.406	16413
838.544	16314
838.681	16116
838.819	16181
838.956	15998
839.094	16021
839.231	16044
839.369	16135
839.506	16424
839.643	16135
839.781	16013
839.918	15869
840.055	16036
840.193	15983
840.33	15911
840.467	15937
840.604	16002
840.742	16223
840.879	15934
841.016	15880
841.153	15804
841.29	16207
841.427	16040
841.564	16051
841.701	16048
841.838	15987
841.975	15880
842.112	15823
842.249	15736
842.385	15774
842.522	15926
842.659	15751
842.796	15804
842.933	15789
843.069	15785
843.206	15701
843.343	15888
843.479	15808
843.616	15827
843.752	15561
843.889	15603
844.025	15701
844.162	15580
844.298	15671
844.435	15652
844.571	15519
844.708	15663
844.844	15690
844.98	15835
845.117	15618
845.253	15553
845.389	15485
845.525	15485
845.661	15500
845.798	15340
845.934	15325
846.07	15351
846.206	15382
846.342	15622
846.478	15321
846.614	15203
846.75	15116
846.886	15047
847.022	15287
847.158	15256
847.294	15077
847.429	15180
847.565	15036
847.701	15321
847.837	14849
847.972	14815
848.108	14937
848.244	14944
848.379	14811
848.515	14720
848.65	14785
848.786	14648
848.921	14785
849.057	14796
849.192	14876
849.328	14830
849.463	14826
849.598	14651
849.734	14659
849.869	14587
850.004	14564
850.14	14537
850.275	14556
850.41	14408
850.545	14389
850.68	14522
850.815	14457
850.95	14507
851.085	14648
851.22	14686
851.355	14552
851.49	14499
851.625	14503
851.76	14374
851.895	14305
852.03	14480
852.165	14522
852.299	14545
852.434	14625
852.569	14541
852.703	14530
852.838	14564
852.973	14621
853.107	14674
853.242	14541
853.376	14396
853.511	14275
853.645	14351
853.78	14549
853.914	14488
854.048	14206
854.183	14343
854.317	14461
854.451	14469
854.585	14328
854.72	14317
854.854	14381
854.988	14263
855.122	14442
855.256	14248
855.39	14252
855.524	14541
855.658	14351
855.792	14393
855.926	14446
856.06	14393
856.194	14461
856.327	14415
856.461	14301
856.595	14305
856.729	14332
856.862	14442
856.996	14396
857.13	14434
857.263	14533
857.397	14556
857.53	14294
857.664	14374
857.797	14434
857.931	14560
858.064	14362
858.197	14511
858.331	14385
858.464	14377
858.597	14278
858.731	14305
858.864	14309
858.997	14298
859.13	14442
859.263	14442
859.396	14507
859.529	14336
859.662	14381
859.795	14370
859.928	14434
860.061	14541
860.194	14480
860.327	14514
860.46	14408
860.592	14484
860.725	14533
860.858	14579
860.99	14351
861.123	14313
861.256	14358
861.388	14324
861.521	15146
861.653	14278
861.786	14149
861.918	14180
862.05	14294
862.183	14355
862.315	14317
862.447	14442
862.58	14305
862.712	14119
862.844	14126
862.976	14195
863.108	14278
863.24	14530
863.372	14054
863.504	14119
863.636	14073
863.768	14187
863.9	14172
864.032	14035
864.164	14111
864.296	14168
864.428	14351
864.559	14248
864.691	14309
864.823	14138
864.954	14210
865.086	14195
865.217	14248
865.349	14073
865.48	14183
865.612	14229
865.743	14202
865.875	14134
866.006	14123
866.137	14058
866.269	14164
866.4	14119
866.531	14138
866.662	14031
866.793	14069
866.924	14134
867.055	14054
867.186	14058
867.317	14145
867.448	14012
867.579	14119
867.71	14065
867.841	14157
867.972	14103
868.103	14111
868.233	14199
868.364	14218
868.495	14271
868.625	14362
868.756	14465
868.886	14328
869.017	14457
869.147	14537
869.278	14469
869.408	14370
869.539	14427
869.669	14408
869.799	14450
869.929	14511
870.06	14518
870.19	14743
870.32	14686
870.45	14777
870.58	14750
870.71	14906
870.84	14868
870.97	14819
871.1	14754
871.23	14921
871.36	14960
871.489	14975
871.619	14960
871.749	14937
871.879	15074
872.008	15005
872.138	15062
872.267	14933
872.397	14823
872.526	14777
872.656	14781
872.785	14819
872.915	15001
873.044	15222
873.173	14929
873.303	15051
873.432	15058
873.561	15203
873.69	15036
873.819	15055
873.948	15116
874.077	15024
874.206	14941
874.335	14975
874.464	15154
874.593	15332
874.722	15218
874.851	15283
874.979	15260
875.108	15378
875.237	15374
875.365	15264
875.494	15310
875.623	15389
875.751	15317
875.88	15496
876.008	15572
876.136	15564
876.265	15812
876.393	15998
876.521	15861
876.65	15865
876.778	15842
876.906	15667
877.034	15701
877.162	15736
877.29	15728
877.418	15736
877.546	15846
877.674	15717
877.802	15724
877.93	15823
878.058	15568
878.185	15652
878.313	15652
878.441	15732
878.568	15629
878.696	15652
878.824	15819
878.951	15800
879.079	15880
879.206	16101
879.333	15949
879.461	15876
879.588	15937
879.715	15960
879.842	16055
879.97	15778
880.097	15656
880.224	15667
880.351	15622
880.478	15629
880.605	15549
880.732	15538
880.859	15816
880.986	15633
881.112	15629
881.239	15504
881.366	15382
881.493	15245
881.619	15321
881.746	15245
881.872	15302
881.999	15317
882.125	15260
882.252	15260
882.378	15272
882.505	15348
882.631	15207
882.757	15150
882.883	15207
883.01	15100
883.136	15001
883.262	15051
883.388	14956
883.514	15097
883.64	15112
883.766	15013
883.892	14838
884.018	15013
884.143	15055
884.269	15230
884.395	14838
884.52	14750
884.646	14781
884.772	14754
884.897	14689
885.023	14800
885.148	14834
885.274	14967
885.399	14944
885.524	14876
885.65	14845
885.775	14750
885.9	14804
886.025	14853
886.15	14887
886.275	14792
886.4	14705
886.525	14720
886.65	14693
886.775	14712
886.9	14933
887.025	15062
887.149	14819
887.274	14659
887.399	14613
887.523	14579
887.648	14594
887.773	14454
887.897	14727
888.021	14663
888.146	14632
888.27	14705
888.395	14735
888.519	14686
888.643	14701
888.767	14682
888.891	14545
889.015	14511
889.139	14533
889.263	14465
889.387	14625
889.511	14686
889.635	14537
889.759	14431
889.883	14518
890.006	14438
890.13	14568
890.254	14522
890.377	14446
890.501	14351
890.624	14324
890.748	14339
890.871	14176
890.995	14126
891.118	14054
891.241	14206
891.364	14084
891.488	14195
891.611	14153
891.734	14275
891.857	14301
891.98	14195
892.103	14221
892.226	14218
892.349	14282
892.471	14050
892.594	14111
892.717	14298
892.839	14138
892.962	14202
893.085	14229
893.207	14183
893.33	14035
893.452	14111
893.575	14290
893.697	14050
893.819	14309
893.941	14438
894.064	14355
894.186	14134
894.308	14221
894.43	14317
894.552	14412
894.674	14305
894.796	14134
894.918	14176
895.04	14195
895.161	14324
895.283	14404
895.405	14218
895.526	14309
895.648	14290
895.769	14355
895.891	14267
896.012	14324
896.134	14377
896.255	14400
896.376	14336
896.498	14358
896.619	14393
896.74	14324
896.861	14484
896.982	14682
897.103	14914
897.224	14655
897.345	14659
897.466	14617
897.587	14564
897.708	14754
897.828	14765
897.949	14663
898.07	14499
898.19	14625
898.311	14838
898.431	14568
898.552	14689
898.672	14792
898.792	14807
898.913	14735
899.033	14571
899.153	14560
899.273	14507
899.393	14454
899.513	14575
899.633	14419
899.753	14606
899.873	14514
899.993	14651
900.113	14511
900.232	14560
900.352	14499
900.472	14427
900.591	14355
900.711	14393
900.83	14301
900.95	14594
901.069	14522
901.189	14317
901.308	14142
901.427	14126
901.546	14168
901.665	14058
901.784	13997
901.904	13997
902.023	13830
902.141	13677
902.26	13719
902.379	13753
902.498	13708
902.617	13529
902.735	13662
902.854	13696
902.973	13636
903.091	13384
903.21	13308
903.328	13377
903.446	13171
903.565	13190
903.683	13198
903.801	13095
903.919	13255
904.038	13187
904.156	13057
904.274	13126
904.392	12996
904.51	13034
904.627	12973
904.745	13099
904.863	13069
904.981	12840
905.098	12692
905.216	12772
905.334	12791
905.451	12772
905.569	12745
905.686	12791
905.803	12665
905.921	12437
906.038	12654
906.155	12513
906.272	12589
906.389	12414
906.506	12357
906.623	12395
906.74	12327
906.857	12266
906.974	12296
907.091	12426
907.208	12445
907.324	12422
907.441	12182
907.557	12148
907.674	12079
907.79	11988
907.907	12053
908.023	12106
908.139	12133
908.256	12079
908.372	11980
908.488	12072
908.604	11920
908.72	11775
908.836	11863
908.952	11775
909.068	11817
909.184	11954
909.3	11920
909.415	11977
909.531	11843
909.647	11680
909.762	11532
909.878	11570
909.993	11684
910.108	11611
910.224	11600
910.339	11703
910.454	11619
910.57	11459
910.685	11414
910.8	11707
910.915	11608
911.03	11459
911.145	11337
911.259	11364
911.374	11391
911.489	11246
911.604	11170
911.718	11090
911.833	11033
911.947	10976
912.062	10919
912.176	11098
912.291	11159
912.405	11071
912.519	11311
912.633	11341
912.748	11181
912.862	11064
912.976	10930
913.09	10866
913.204	10942
913.318	10942
913.431	11037
913.545	11045
913.659	11132
913.772	10919
913.886	10809
914	10843
914.113	10938
914.226	11003
914.34	10965
914.453	10881
914.566	10881
914.68	10801
914.793	10805
914.906	10698
915.019	10558
915.132	10527
915.245	10542
915.358	10580
915.47	10611
915.583	10641
915.696	10721
915.809	10729
915.921	10748
916.034	10516
916.146	10500
916.259	10538
916.371	10580
916.483	10634
916.595	10462
916.708	10561
916.82	10512
916.932	10497
917.044	10470
917.156	10516
917.268	10371
917.38	10519
917.491	10306
917.603	10341
917.715	10535
917.826	10599
917.938	10325
918.049	10249
918.161	10356
918.272	10500
918.384	10561
918.495	10436
918.606	10253
918.717	10253
918.828	10428
918.939	10344
919.05	10230
919.161	10306
919.272	10154
919.383	10128
919.494	10386
919.604	10535
919.715	10261
919.826	10299
919.936	10318
920.047	10322
920.157	10341
920.267	10538
920.378	10367
920.488	10306
920.598	10550
920.708	10653
920.818	10478
920.928	10516
921.038	10649
921.148	10637
921.258	10325
921.368	10234
921.477	10238
921.587	10169
921.697	9991
921.806	10067
921.916	10071
922.025	9846
922.134	9774
922.244	9819
922.353	9888
922.462	9808
922.571	9705
922.68	9511
922.789	9496
922.898	9542
923.007	9485
923.116	9603
923.224	9526
923.333	9591
923.442	9466
923.55	9428
923.659	9454
923.767	9481
923.876	9382
923.984	9496
924.092	9397
924.201	9462
924.309	9355
924.417	9408
924.525	9294
924.633	9325
924.741	10227
924.849	9195
924.956	9401
925.064	9176
925.172	9047
925.279	9188
925.387	9241
925.494	9188
925.602	9332
925.709	9302
925.816	9108
925.924	9173
926.031	9256
926.138	9207
926.245	9214
926.352	9161
926.459	9199
926.566	9279
926.673	9135
926.779	9062
926.886	9043
926.993	8952
927.099	8861
927.206	8906
927.312	8887
927.419	8963
927.525	8864
927.631	8906
927.737	8823
927.843	8826
927.95	8693
928.056	8807
928.162	8830
928.267	8857
928.373	9443
928.479	8944
928.585	8655
928.69	8823
928.796	8792
928.901	8762
929.007	8602
929.112	8796
929.218	8727
929.323	8678
929.428	8648
929.533	8731
929.638	8568
929.743	8552
929.848	8689
929.953	8648
930.058	8598
930.163	8351
930.267	8461
930.372	8587
930.477	8362
930.581	8678
930.685	8465
930.79	8301
930.894	8358
930.998	8374
931.103	8480
931.207	8168
931.311	8065
931.415	7997
931.519	7818
931.623	7856
