Data from test_V78500241_3632.txt Node
Date: Fri Mar 25 14:59:00 CST 2022
User: usil
Spectrometer: V785-0024
Trigger mode: 0
Integration Time (sec): 4.000000E-1
Scans to average: 1
Nonlinearity correction enabled: false
Boxcar width: 0
Storing dark spectrum: false
XAxis mode: Wavelengths
Number of Pixels in Spectrum: 1024
>>>>>Begin Spectral Data<<<<<
801.071	21766
801.214	21774
801.356	21526
801.499	21439
801.641	21279
801.783	21245
801.926	21218
802.068	21214
802.211	21138
802.353	21036
802.496	20853
802.638	20754
802.78	20697
802.923	20655
803.065	20476
803.208	20632
803.35	20594
803.492	20674
803.635	20651
803.777	20651
803.919	20739
804.061	20861
804.204	20674
804.346	20484
804.488	20549
804.63	20598
804.773	20423
804.915	20514
805.057	20583
805.199	20431
805.341	20537
805.483	20739
805.626	20514
805.768	20480
805.91	20488
806.052	20606
806.194	20396
806.336	20625
806.478	20530
806.62	20609
806.762	20499
806.904	20625
807.046	20861
807.188	20883
807.33	20929
807.472	20910
807.614	20739
807.756	20754
807.898	20621
808.04	20518
808.182	20450
808.324	20663
808.465	20621
808.607	20857
808.749	20868
808.891	20998
809.033	21032
809.174	20819
809.316	20739
809.458	20727
809.6	20906
809.741	20891
809.883	20792
810.025	21009
810.166	20971
810.308	21077
810.45	20906
810.591	20857
810.733	20705
810.875	20640
811.016	20530
811.158	20518
811.299	20602
811.441	20663
811.582	20720
811.724	20621
811.865	20575
812.007	20670
812.148	20670
812.29	20499
812.431	20621
812.573	20883
812.714	20956
812.855	20986
812.997	21272
813.138	21344
813.279	21222
813.421	21081
813.562	20944
813.703	20925
813.845	20823
813.986	20571
814.127	20317
814.268	20237
814.41	20168
814.551	20195
814.692	20252
814.833	20065
814.974	20031
815.115	20210
815.256	20039
815.397	20027
815.539	19947
815.68	19887
815.821	19871
815.962	19913
816.103	19902
816.244	19696
816.385	19677
816.526	19769
816.666	19502
816.807	19343
816.948	19320
817.089	19396
817.23	19266
817.371	19133
817.512	19339
817.653	19282
817.793	19266
817.934	19198
818.075	19312
818.216	19137
818.356	19217
818.497	19065
818.638	19015
818.778	18954
818.919	19012
819.06	18958
819.2	19145
819.341	19141
819.481	19183
819.622	19518
819.762	19460
819.903	19453
820.043	19285
820.184	19270
820.324	19308
820.465	19365
820.605	19282
820.746	19266
820.886	19168
821.026	19213
821.167	19225
821.307	19228
821.447	19236
821.588	19072
821.728	18848
821.868	18833
822.008	18798
822.149	18681
822.289	18681
822.429	18414
822.569	18353
822.709	18372
822.849	18125
822.99	18224
823.13	18224
823.27	18095
823.41	18079
823.55	18019
823.69	18019
823.83	18098
823.97	17855
824.11	17760
824.25	17741
824.389	17657
824.529	17832
824.669	17638
824.809	17863
824.949	17851
825.089	17760
825.228	17714
825.368	17554
825.508	17585
825.648	17562
825.787	17581
825.927	17627
826.067	17474
826.206	17585
826.346	17581
826.485	17615
826.625	17528
826.765	17592
826.904	17509
827.044	17341
827.183	17277
827.323	17181
827.462	17258
827.601	17105
827.741	17265
827.88	17246
828.02	17117
828.159	17143
828.298	17280
828.437	17277
828.577	17143
828.716	17353
828.855	17212
828.994	16995
829.134	16949
829.273	17010
829.412	16869
829.551	16820
829.69	17041
829.829	17048
829.968	17090
830.107	17041
830.246	16942
830.385	16972
830.524	17010
830.663	16847
830.802	16759
830.941	16577
831.08	16500
831.219	16580
831.357	16649
831.496	16824
831.635	16759
831.774	16561
831.913	16516
832.051	16360
832.19	16405
832.329	16432
832.467	16226
832.606	16360
832.744	16284
832.883	16314
833.022	16310
833.16	16192
833.299	16405
833.437	16291
833.576	16280
833.714	16371
833.852	16417
833.991	16344
834.129	16447
834.267	16432
834.406	16375
834.544	16356
834.682	16379
834.821	16226
834.959	16554
835.097	16284
835.235	16322
835.373	16470
835.511	16466
835.65	16280
835.788	16230
835.926	16097
836.064	16131
836.202	16177
836.34	16363
836.478	16314
836.615	16242
836.753	16390
836.891	16375
837.029	16421
837.167	16280
837.305	16211
837.443	16166
837.58	16124
837.718	16200
837.856	16280
837.993	16109
838.131	16215
838.269	16063
838.406	16166
838.544	16029
838.681	15857
838.819	15850
838.956	15747
839.094	15694
839.231	15778
839.369	15945
839.506	16078
839.643	15960
839.781	15717
839.918	15652
840.055	15766
840.193	15705
840.33	15622
840.467	15656
840.604	15728
840.742	15949
840.879	15572
841.016	15644
841.153	15584
841.29	15892
841.427	15739
841.564	15804
841.701	15759
841.838	15701
841.975	15622
842.112	15591
842.249	15511
842.385	15504
842.522	15698
842.659	15545
842.796	15568
842.933	15500
843.069	15473
843.206	15526
843.343	15587
843.479	15557
843.616	15576
843.752	15321
843.889	15321
844.025	15496
844.162	15260
844.298	15344
844.435	15287
844.571	15218
844.708	15336
844.844	15477
844.98	15545
845.117	15492
845.253	15195
845.389	15279
845.525	15264
845.661	15173
845.798	15062
845.934	15157
846.07	15085
846.206	15249
846.342	15241
846.478	15066
846.614	14944
846.75	14792
846.886	14845
847.022	14921
847.158	14887
847.294	14883
847.429	14857
847.565	14982
847.701	15047
847.837	14602
847.972	14434
848.108	14746
848.244	14800
848.379	14503
848.515	14454
848.65	14469
848.786	14480
848.921	14495
849.057	14590
849.192	14568
849.328	14499
849.463	14495
849.598	14438
849.734	14404
849.869	14298
850.004	14278
850.14	14324
850.275	14248
850.41	14252
850.545	14240
850.68	14195
850.815	14202
850.95	14252
851.085	14495
851.22	14320
851.355	14286
851.49	14218
851.625	14221
851.76	14164
851.895	14058
852.03	14103
852.165	14202
852.299	14290
852.434	14362
852.569	14225
852.703	14168
852.838	14358
852.973	14362
853.107	14298
853.242	14282
853.376	14210
853.511	13997
853.645	14058
853.78	14164
853.914	14126
854.048	14054
854.183	14081
854.317	14069
854.451	14317
854.585	14123
854.72	14111
854.854	14096
854.988	14046
855.122	14027
855.256	13967
855.39	14058
855.524	14183
855.658	14084
855.792	14107
855.926	14202
856.06	14172
856.194	14187
856.327	14027
856.461	14027
856.595	14039
856.729	14073
856.862	14210
856.996	14069
857.13	14180
857.263	14214
857.397	14145
857.53	14138
857.664	14119
857.797	14210
857.931	14233
858.064	14237
858.197	14202
858.331	14119
858.464	14050
858.597	13997
858.731	14195
858.864	14126
858.997	14081
859.13	14100
859.263	14225
859.396	14199
859.529	14119
859.662	14069
859.795	14100
859.928	14130
860.061	14282
860.194	14366
860.327	14130
860.46	14054
860.592	14168
860.725	14271
860.858	14210
860.99	14130
861.123	14012
861.256	14016
861.388	14092
861.521	14864
861.653	13963
861.786	13799
861.918	13928
862.05	14020
862.183	13997
862.315	14103
862.447	14088
862.58	14153
862.712	13974
862.844	13852
862.976	13970
863.108	13826
863.24	14320
863.372	13750
863.504	13894
863.636	13883
863.768	13841
863.9	13947
864.032	13807
864.164	13967
864.296	13906
864.428	14016
864.559	14081
864.691	13951
864.823	14073
864.954	13909
865.086	13967
865.217	13898
865.349	13788
865.48	13932
865.612	13887
865.743	14039
865.875	13830
866.006	13879
866.137	13871
866.269	13909
866.4	13959
866.531	13780
866.662	13890
866.793	13841
866.924	13864
867.055	13959
867.186	13909
867.317	13811
867.448	13795
867.579	13902
867.71	13803
867.841	13849
867.972	13875
868.103	13951
868.233	13875
868.364	13917
868.495	14050
868.625	14100
868.756	14259
868.886	14054
869.017	14123
869.147	14244
869.278	14225
869.408	14126
869.539	14126
869.669	14305
869.799	14237
869.929	14199
870.06	14248
870.19	14381
870.32	14556
870.45	14473
870.58	14507
870.71	14625
870.84	14610
870.97	14610
871.1	14571
871.23	14758
871.36	14724
871.489	14545
871.619	14727
871.749	14823
871.879	14743
872.008	14887
872.138	14739
872.267	14686
872.397	14651
872.526	14545
872.656	14587
872.785	14564
872.915	14781
873.044	14853
873.173	14781
873.303	14887
873.432	14906
873.561	14872
873.69	14826
873.819	14807
873.948	14906
874.077	14769
874.206	14762
874.335	14777
874.464	14990
874.593	15157
874.722	15062
874.851	15112
874.979	15089
875.108	15150
875.237	15047
875.365	14994
875.494	15081
875.623	15195
875.751	15085
875.88	15131
876.008	15214
876.136	15397
876.265	15500
876.393	15656
876.521	15584
876.65	15671
876.778	15557
876.906	15485
877.034	15454
877.162	15450
877.29	15469
877.418	15477
877.546	15549
877.674	15603
877.802	15553
877.93	15561
878.058	15374
878.185	15397
878.313	15614
878.441	15542
878.568	15317
878.696	15405
878.824	15568
878.951	15488
879.079	15774
879.206	15808
879.333	15690
879.461	15557
879.588	15660
879.715	15682
879.842	15846
879.97	15705
880.097	15378
880.224	15249
880.351	15310
880.478	15428
880.605	15367
880.732	15336
880.859	15663
880.986	15363
881.112	15386
881.239	15188
881.366	15241
881.493	15070
881.619	15055
881.746	15150
881.872	15062
881.999	14986
882.125	15100
882.252	15032
882.378	15024
882.505	15260
882.631	15058
882.757	14830
882.883	14899
883.01	14804
883.136	14781
883.262	14765
883.388	14731
883.514	14929
883.64	14864
883.766	14857
883.892	14594
884.018	14587
884.143	14868
884.269	14929
884.395	14583
884.52	14629
884.646	14667
884.772	14476
884.897	14393
885.023	14590
885.148	14686
885.274	14712
885.399	14617
885.524	14492
885.65	14560
885.775	14575
885.9	14511
886.025	14727
886.15	14629
886.275	14541
886.4	14495
886.525	14571
886.65	14454
886.775	14488
886.9	14735
887.025	14739
887.149	14431
887.274	14396
887.399	14320
887.523	14317
887.648	14324
887.773	14351
887.897	14476
888.021	14419
888.146	14419
888.27	14495
888.395	14568
888.519	14522
888.643	14450
888.767	14473
888.891	14214
889.015	14221
889.139	14393
889.263	14248
889.387	14320
889.511	14495
889.635	14320
889.759	14229
889.883	14286
890.006	14358
890.13	14313
890.254	14221
890.377	14210
890.501	14043
890.624	14092
890.748	14115
890.871	13993
890.995	14081
891.118	13898
891.241	13856
891.364	13970
891.488	14065
891.611	13936
891.734	13921
891.857	13978
891.98	14012
892.103	14024
892.226	13989
892.349	13917
892.471	13753
892.594	13868
892.717	13997
892.839	13970
892.962	14046
893.085	14084
893.207	13894
893.33	13871
893.452	13970
893.575	14073
893.697	14012
893.819	14096
893.941	14149
894.064	14077
894.186	13955
894.308	13982
894.43	14046
894.552	14130
894.674	14024
894.796	13875
894.918	13959
895.04	14069
895.161	14164
895.283	14103
895.405	14012
895.526	14012
895.648	14043
895.769	14180
895.891	14054
896.012	14206
896.134	14191
896.255	14176
896.376	14020
896.498	14157
896.619	14195
896.74	14024
896.861	14142
896.982	14434
897.103	14632
897.224	14427
897.345	14400
897.466	14309
897.587	14381
897.708	14495
897.828	14499
897.949	14366
898.07	14237
898.19	14480
898.311	14590
898.431	14336
898.552	14568
898.672	14651
898.792	14518
898.913	14568
899.033	14427
899.153	14332
899.273	14309
899.393	14317
899.513	14351
899.633	14317
899.753	14362
899.873	14282
899.993	14328
900.113	14343
900.232	14324
900.352	14366
900.472	14320
900.591	14134
900.711	14180
900.83	14153
900.95	14237
901.069	14229
901.189	14103
901.308	13951
901.427	13807
901.546	13879
901.665	13868
901.784	13833
901.904	13704
902.023	13609
902.141	13430
902.26	13438
902.379	13537
902.498	13415
902.617	13331
902.735	13400
902.854	13346
902.973	13457
903.091	13175
903.21	13137
903.328	13141
903.446	13053
903.565	13114
903.683	13031
903.801	12905
903.919	12977
904.038	13008
904.156	12894
904.274	12924
904.392	12798
904.51	12856
904.627	12825
904.745	12909
904.863	12844
904.981	12623
905.098	12506
905.216	12585
905.334	12551
905.451	12525
905.569	12448
905.686	12593
905.803	12506
905.921	12380
906.038	12566
906.155	12327
906.272	12213
906.389	12285
906.506	12148
906.623	12133
906.74	12178
906.857	11999
906.974	12041
907.091	12220
907.208	12194
907.324	12163
907.441	12102
907.557	11908
907.674	11946
907.79	11863
907.907	11817
908.023	11912
908.139	11885
908.256	11889
908.372	11798
908.488	11748
908.604	11665
908.72	11596
908.836	11691
908.952	11554
909.068	11596
909.184	11695
909.3	11615
909.415	11695
909.531	11627
909.647	11493
909.762	11509
909.878	11299
909.993	11478
910.108	11387
910.224	11433
910.339	11463
910.454	11379
910.57	11303
910.685	11185
910.8	11410
910.915	11429
911.03	11303
911.145	11037
911.259	11128
911.374	11124
911.489	11075
911.604	11010
911.718	10869
911.833	10953
911.947	10839
912.062	10694
912.176	10828
912.291	10835
912.405	10877
912.519	11033
912.633	10995
912.748	10900
912.862	10862
912.976	10755
913.09	10592
913.204	10721
913.318	10702
913.431	10854
913.545	10911
913.659	10824
913.772	10721
913.886	10569
914	10618
914.113	10660
914.226	10820
914.34	10683
914.453	10580
914.566	10717
914.68	10584
914.793	10561
914.906	10371
915.019	10211
915.132	10299
915.245	10344
915.358	10428
915.47	10436
915.583	10421
915.696	10500
915.809	10615
915.921	10611
916.034	10386
916.146	10337
916.259	10268
916.371	10337
916.483	10447
916.595	10223
916.708	10344
916.82	10318
916.932	10303
917.044	10310
917.156	10268
917.268	10185
917.38	10265
917.491	10177
917.603	10310
917.715	10371
917.826	10276
917.938	10238
918.049	10059
918.161	10303
918.272	10382
918.384	10352
918.495	10265
918.606	10071
918.717	10051
918.828	10090
918.939	10128
919.05	10101
919.161	10078
919.272	9915
919.383	10051
919.494	10177
919.604	10356
919.715	10128
919.826	10059
919.936	10093
920.047	10188
920.157	10173
920.267	10295
920.378	10109
920.488	10109
920.598	10310
920.708	10462
920.818	10344
920.928	10333
921.038	10474
921.148	10481
921.258	10124
921.368	10048
921.477	10017
921.587	9960
921.697	9797
921.806	9911
921.916	9956
922.025	9717
922.134	9705
922.244	9667
922.353	9762
922.462	9553
922.571	9488
922.68	9435
922.789	9382
922.898	9386
923.007	9351
923.116	9329
923.224	9401
923.333	9408
923.442	9332
923.55	9241
923.659	9256
923.767	9348
923.876	9253
923.984	9275
924.092	9211
924.201	9226
924.309	9222
924.417	9237
924.525	9184
924.633	9173
924.741	9956
924.849	9066
924.956	9108
925.064	9039
925.172	8941
925.279	8963
925.387	9108
925.494	9058
925.602	9180
925.709	9116
925.816	8994
925.924	9032
926.031	9116
926.138	9070
926.245	9036
926.352	8956
926.459	9157
926.566	9195
926.673	8952
926.779	8944
926.886	8880
926.993	8735
927.099	8739
927.206	8697
927.312	8697
927.419	8735
927.525	8800
927.631	8804
927.737	8743
927.843	8659
927.95	8556
928.056	8625
928.162	8594
928.267	8758
928.373	9203
928.479	8735
928.585	8514
928.69	8625
928.796	8632
928.901	8579
929.007	8438
929.112	8530
929.218	8507
929.323	8530
929.428	8431
929.533	8568
929.638	8431
929.743	8457
929.848	8598
929.953	8480
930.058	8355
930.163	8263
930.267	8244
930.372	8408
930.477	8183
930.581	8457
930.685	8351
930.79	8096
930.894	8298
930.998	8180
931.103	8339
931.207	7940
931.311	7894
931.415	7917
931.519	7792
931.623	7746
