Data from test_V78500241_1572.txt Node
Date: Fri Mar 25 14:44:39 CST 2022
User: usil
Spectrometer: V785-0024
Trigger mode: 0
Integration Time (sec): 4.000000E-1
Scans to average: 1
Nonlinearity correction enabled: false
Boxcar width: 0
Storing dark spectrum: false
XAxis mode: Wavelengths
Number of Pixels in Spectrum: 1024
>>>>>Begin Spectral Data<<<<<
801.071	22421
801.214	22287
801.356	22082
801.499	21968
801.641	21591
801.783	21797
801.926	21724
802.068	21694
802.211	21701
802.353	21545
802.496	21412
802.638	21344
802.78	21264
802.923	21119
803.065	21104
803.208	20960
803.35	21138
803.492	21306
803.635	21249
803.777	21077
803.919	21260
804.061	21523
804.204	21157
804.346	21062
804.488	20941
804.63	21085
804.773	21058
804.915	21096
805.057	21146
805.199	21077
805.341	21032
805.483	21169
805.626	21116
805.768	20994
805.91	21039
806.052	21058
806.194	20921
806.336	21096
806.478	21047
806.62	21119
806.762	20982
806.904	21131
807.046	21367
807.188	21443
807.33	21363
807.472	21454
807.614	21211
807.756	21291
807.898	21226
808.04	21180
808.182	21211
808.324	21173
808.465	21241
808.607	21507
808.749	21599
808.891	21660
809.033	21694
809.174	21675
809.316	21519
809.458	21477
809.6	21348
809.741	21519
809.883	21542
810.025	21686
810.166	21698
810.308	21610
810.45	21526
810.591	21462
810.733	21348
810.875	21321
811.016	21119
811.158	21043
811.299	21405
811.441	21287
811.582	21332
811.724	21218
811.865	21108
812.007	21131
812.148	21176
812.29	21222
812.431	21492
812.573	21504
812.714	21466
812.855	21823
812.997	21854
813.138	21808
813.279	21797
813.421	21793
813.562	21667
813.703	21542
813.845	21424
813.986	21108
814.127	20982
814.268	20785
814.41	20872
814.551	20811
814.692	20921
814.833	20594
814.974	20659
815.115	20735
815.256	20495
815.397	20625
815.539	20648
815.68	20473
815.821	20499
815.962	20469
816.103	20423
816.244	20290
816.385	20271
816.526	20244
816.666	20058
816.807	19856
816.948	20077
817.089	19997
817.23	19913
817.371	19883
817.512	19849
817.653	19875
817.793	19978
817.934	19974
818.075	20012
818.216	19974
818.356	19814
818.497	19784
818.638	19666
818.778	19483
818.919	19578
819.06	19586
819.2	19689
819.341	19814
819.481	19727
819.622	19902
819.762	20001
819.903	20024
820.043	19955
820.184	19799
820.324	19864
820.465	19963
820.605	19860
820.746	19841
820.886	19655
821.026	19856
821.167	19860
821.307	19852
821.447	19738
821.588	19681
821.728	19594
821.868	19426
822.008	19289
822.149	19187
822.289	19225
822.429	19076
822.569	18958
822.709	18890
822.849	18829
822.99	18722
823.13	18776
823.27	18787
823.41	18593
823.55	18502
823.69	18738
823.83	18627
823.97	18460
824.11	18426
824.25	18323
824.389	18327
824.529	18395
824.669	18365
824.809	18391
824.949	18426
825.089	18338
825.228	18213
825.368	18152
825.508	18106
825.648	18095
825.787	18163
825.927	18140
826.067	18091
826.206	18060
826.346	18095
826.485	18148
826.625	18182
826.765	18102
826.904	18121
827.044	17977
827.183	17893
827.323	17798
827.462	17920
827.601	17828
827.741	17680
827.88	17851
828.02	17638
828.159	17752
828.298	17847
828.437	17882
828.577	17821
828.716	17828
828.855	17843
828.994	17497
829.134	17535
829.273	17657
829.412	17391
829.551	17585
829.69	17577
829.829	17699
829.968	17539
830.107	17524
830.246	17608
830.385	17615
830.524	17474
830.663	17452
830.802	17200
830.941	17197
831.08	17140
831.219	17265
831.357	17311
831.496	17372
831.635	17124
831.774	17086
831.913	17041
832.051	16949
832.19	16995
832.329	17006
832.467	16831
832.606	16889
832.744	16786
832.883	16740
833.022	16946
833.16	16733
833.299	16885
833.437	16790
833.576	16953
833.714	16957
833.852	16949
833.991	16976
834.129	16923
834.267	16934
834.406	16809
834.544	16953
834.682	16961
834.821	16866
834.959	17067
835.097	16934
835.235	16934
835.373	16923
835.511	16820
835.65	16801
835.788	16725
835.926	16774
836.064	16641
836.202	16702
836.34	16915
836.478	16858
836.615	16729
836.753	16763
836.891	16835
837.029	16790
837.167	16771
837.305	16710
837.443	16634
837.58	16618
837.718	16698
837.856	16615
837.993	16504
838.131	16656
838.269	16599
838.406	16523
838.544	16527
838.681	16356
838.819	16238
838.956	16219
839.094	16135
839.231	16234
839.369	16341
839.506	16474
839.643	16417
839.781	16185
839.918	16207
840.055	16162
840.193	16192
840.33	16177
840.467	16158
840.604	16314
840.742	16436
840.879	16097
841.016	16120
841.153	16128
841.29	16333
841.427	16226
841.564	16204
841.701	16265
841.838	16093
841.975	16029
842.112	16059
842.249	16055
842.385	15953
842.522	16131
842.659	15915
842.796	16010
842.933	15911
843.069	15991
843.206	15930
843.343	16017
843.479	15922
843.616	15987
843.752	15675
843.889	15827
844.025	15880
844.162	15724
844.298	15869
844.435	15804
844.571	15778
844.708	15728
844.844	15911
844.98	15861
845.117	15865
845.253	15644
845.389	15614
845.525	15698
845.661	15671
845.798	15686
845.934	15732
846.07	15663
846.206	15652
846.342	15850
846.478	15671
846.614	15367
846.75	15325
846.886	15401
847.022	15329
847.158	15348
847.294	15306
847.429	15332
847.565	15344
847.701	15530
847.837	15062
847.972	15062
848.108	15161
848.244	15055
848.379	14937
848.515	14842
848.65	14861
848.786	14902
848.921	14918
849.057	15009
849.192	14914
849.328	14960
849.463	14842
849.598	14861
849.734	14800
849.869	14750
850.004	14651
850.14	14731
850.275	14651
850.41	14648
850.545	14678
850.68	14636
850.815	14731
850.95	14564
851.085	14800
851.22	14590
851.355	14663
851.49	14621
851.625	14610
851.76	14613
851.895	14537
852.03	14568
852.165	14602
852.299	14556
852.434	14701
852.569	14758
852.703	14670
852.838	14823
852.973	14807
853.107	14796
853.242	14617
853.376	14446
853.511	14404
853.645	14473
853.78	14667
853.914	14598
854.048	14571
854.183	14492
854.317	14530
854.451	14720
854.585	14590
854.72	14495
854.854	14617
854.988	14492
855.122	14415
855.256	14305
855.39	14503
855.524	14552
855.658	14602
855.792	14545
855.926	14610
856.06	14579
856.194	14606
856.327	14465
856.461	14545
856.595	14465
856.729	14492
856.862	14667
856.996	14606
857.13	14533
857.263	14575
857.397	14636
857.53	14583
857.664	14552
857.797	14674
857.931	14617
858.064	14446
858.197	14575
858.331	14522
858.464	14476
858.597	14423
858.731	14610
858.864	14518
858.997	14518
859.13	14579
859.263	14568
859.396	14552
859.529	14590
859.662	14530
859.795	14488
859.928	14568
860.061	14697
860.194	14640
860.327	14606
860.46	14610
860.592	14613
860.725	14625
860.858	14602
860.99	14511
861.123	14450
861.256	14358
861.388	14545
861.521	15211
861.653	14415
861.786	14393
861.918	14396
862.05	14499
862.183	14503
862.315	14537
862.447	14564
862.58	14355
862.712	14324
862.844	14317
862.976	14389
863.108	14305
863.24	14769
863.372	14229
863.504	14355
863.636	14294
863.768	14313
863.9	14343
864.032	14252
864.164	14237
864.296	14366
864.428	14434
864.559	14476
864.691	14377
864.823	14290
864.954	14393
865.086	14355
865.217	14225
865.349	14229
865.48	14347
865.612	14328
865.743	14442
865.875	14336
866.006	14153
866.137	14408
866.269	14252
866.4	14233
866.531	14229
866.662	14180
866.793	14237
866.924	14370
867.055	14259
867.186	14313
867.317	14278
867.448	14183
867.579	14229
867.71	14214
867.841	14180
867.972	14221
868.103	14278
868.233	14180
868.364	14298
868.495	14385
868.625	14522
868.756	14560
868.886	14381
869.017	14473
869.147	14610
869.278	14655
869.408	14602
869.539	14503
869.669	14636
869.799	14640
869.929	14686
870.06	14602
870.19	14785
870.32	14834
870.45	14895
870.58	14838
870.71	15024
870.84	15066
870.97	14921
871.1	15013
871.23	15074
871.36	15180
871.489	14994
871.619	14979
871.749	15138
871.879	15226
872.008	15211
872.138	15131
872.267	15093
872.397	15036
872.526	14887
872.656	14895
872.785	14979
872.915	15150
873.044	15222
873.173	15169
873.303	15252
873.432	15203
873.561	15272
873.69	15214
873.819	15207
873.948	15207
874.077	15157
874.206	15138
874.335	15131
874.464	15405
874.593	15363
874.722	15363
874.851	15447
874.979	15504
875.108	15553
875.237	15382
875.365	15325
875.494	15473
875.623	15538
875.751	15431
875.88	15511
876.008	15660
876.136	15663
876.265	15903
876.393	15892
876.521	16090
876.65	15953
876.778	15979
876.906	15816
877.034	15903
877.162	15918
877.29	15793
877.418	15975
877.546	15835
877.674	15975
877.802	15880
877.93	15991
878.058	15934
878.185	15732
878.313	15934
878.441	15915
878.568	15880
878.696	15888
878.824	15972
878.951	16017
879.079	16063
879.206	16249
879.333	16044
879.461	15949
879.588	16154
879.715	16238
879.842	16200
879.97	16044
880.097	15842
880.224	15736
880.351	15804
880.478	15671
880.605	15850
880.732	15770
880.859	16044
880.986	15720
881.112	15751
881.239	15656
881.366	15492
881.493	15378
881.619	15416
881.746	15397
881.872	15500
881.999	15477
882.125	15439
882.252	15450
882.378	15485
882.505	15622
882.631	15370
882.757	15142
882.883	15260
883.01	15321
883.136	15230
883.262	15058
883.388	15074
883.514	15279
883.64	15268
883.766	15249
883.892	15047
884.018	15116
884.143	15310
884.269	15291
884.395	14960
884.52	14899
884.646	14929
884.772	14868
884.897	14762
885.023	14906
885.148	15085
885.274	15081
885.399	14986
885.524	14864
885.65	14979
885.775	14967
885.9	14861
886.025	14994
886.15	15024
886.275	14910
886.4	14800
886.525	14872
886.65	14804
886.775	14773
886.9	15058
887.025	15070
887.149	14933
887.274	14788
887.399	14632
887.523	14800
887.648	14663
887.773	14705
887.897	14845
888.021	14781
888.146	14693
888.27	14800
888.395	14864
888.519	14769
888.643	14769
888.767	14777
888.891	14667
889.015	14522
889.139	14621
889.263	14590
889.387	14632
889.511	14800
889.635	14739
889.759	14587
889.883	14556
890.006	14602
890.13	14727
890.254	14476
890.377	14564
890.501	14377
890.624	14347
890.748	14461
890.871	14427
890.995	14214
891.118	14202
891.241	14263
891.364	14271
891.488	14358
891.611	14343
891.734	14294
891.857	14305
891.98	14423
892.103	14355
892.226	14400
892.349	14286
892.471	14145
892.594	14248
892.717	14263
892.839	14400
892.962	14271
893.085	14370
893.207	14229
893.33	14206
893.452	14282
893.575	14408
893.697	14263
893.819	14377
893.941	14450
894.064	14393
894.186	14218
894.308	14278
894.43	14446
894.552	14442
894.674	14457
894.796	14206
894.918	14294
895.04	14278
895.161	14431
895.283	14488
895.405	14259
895.526	14419
895.648	14408
895.769	14495
895.891	14461
896.012	14552
896.134	14530
896.255	14537
896.376	14389
896.498	14427
896.619	14526
896.74	14549
896.861	14514
896.982	14727
897.103	14971
897.224	14785
897.345	14689
897.466	14644
897.587	14815
897.708	14853
897.828	14781
897.949	14682
898.07	14674
898.19	14663
898.311	14838
898.431	14769
898.552	14758
898.672	14902
898.792	14895
898.913	14823
899.033	14876
899.153	14556
899.273	14560
899.393	14587
899.513	14693
899.633	14651
899.753	14590
899.873	14636
899.993	14724
900.113	14640
900.232	14682
900.352	14663
900.472	14606
900.591	14465
900.711	14606
900.83	14594
900.95	14640
901.069	14617
901.189	14507
901.308	14286
901.427	14206
901.546	14183
901.665	14290
901.784	14320
901.904	14065
902.023	14062
902.141	13852
902.26	13791
902.379	13795
902.498	13746
902.617	13689
902.735	13807
902.854	13799
902.973	13753
903.091	13525
903.21	13502
903.328	13472
903.446	13445
903.565	13384
903.683	13301
903.801	13247
903.919	13339
904.038	13301
904.156	13129
904.274	13133
904.392	13206
904.51	13114
904.627	13152
904.745	13141
904.863	13145
904.981	13004
905.098	12859
905.216	12768
905.334	12852
905.451	12848
905.569	12844
905.686	12730
905.803	12852
905.921	12654
906.038	12779
906.155	12726
906.272	12555
906.389	12559
906.506	12426
906.623	12456
906.74	12460
906.857	12391
906.974	12380
907.091	12536
907.208	12494
907.324	12506
907.441	12365
907.557	12254
907.674	12209
907.79	12102
907.907	12224
908.023	12171
908.139	12197
908.256	12175
908.372	12186
908.488	12110
908.604	11935
908.72	11942
908.836	11980
908.952	11878
909.068	11973
909.184	12041
909.3	11939
909.415	11977
909.531	11908
909.647	11680
909.762	11623
909.878	11623
909.993	11699
910.108	11665
910.224	11638
910.339	11684
910.454	11604
910.57	11573
910.685	11433
910.8	11802
910.915	11608
911.03	11566
911.145	11440
911.259	11376
911.374	11318
911.489	11406
911.604	11296
911.718	11079
911.833	11204
911.947	11067
912.062	10957
912.176	11128
912.291	11094
912.405	11166
912.519	11277
912.633	11345
912.748	11265
912.862	11181
912.976	11048
913.09	10919
913.204	10908
913.318	11045
913.431	11079
913.545	11105
913.659	11151
913.772	11109
913.886	10923
914	10927
914.113	11010
914.226	11041
914.34	11086
914.453	10915
914.566	10965
914.68	10869
914.793	10911
914.906	10622
915.019	10599
915.132	10440
915.245	10649
915.358	10626
915.47	10675
915.583	10626
915.696	10725
915.809	10809
915.921	10820
916.034	10618
916.146	10588
916.259	10550
916.371	10694
916.483	10626
916.595	10481
916.708	10584
916.82	10584
916.932	10569
917.044	10577
917.156	10531
917.268	10470
917.38	10497
917.491	10455
917.603	10432
917.715	10493
917.826	10542
917.938	10398
918.049	10276
918.161	10504
918.272	10599
918.384	10481
918.495	10470
918.606	10310
918.717	10318
918.828	10363
918.939	10424
919.05	10238
919.161	10318
919.272	10105
919.383	10158
919.494	10459
919.604	10546
919.715	10272
919.826	10291
919.936	10402
920.047	10489
920.157	10360
920.267	10588
920.378	10367
920.488	10348
920.598	10516
920.708	10725
920.818	10504
920.928	10558
921.038	10691
921.148	10615
921.258	10402
921.368	10257
921.477	10219
921.587	10196
921.697	10139
921.806	10246
921.916	10067
922.025	9934
922.134	9945
922.244	9854
922.353	9960
922.462	9800
922.571	9789
922.68	9610
922.789	9568
922.898	9614
923.007	9511
923.116	9698
923.224	9599
923.333	9587
923.442	9553
923.55	9526
923.659	9507
923.767	9545
923.876	9435
923.984	9530
924.092	9405
924.201	9435
924.309	9439
924.417	9542
924.525	9420
924.633	9378
924.741	10280
924.849	9233
924.956	9435
925.064	9268
925.172	9199
925.279	9154
925.387	9302
925.494	9237
925.602	9416
925.709	9378
925.816	9169
925.924	9192
926.031	9272
926.138	9237
926.245	9272
926.352	9241
926.459	9329
926.566	9378
926.673	9154
926.779	9081
926.886	9089
926.993	8948
927.099	8929
927.206	8921
927.312	8952
927.419	9005
927.525	8918
927.631	9093
927.737	8914
927.843	8811
927.95	8659
928.056	8895
928.162	8864
928.267	8895
928.373	9378
928.479	8925
928.585	8735
928.69	8811
928.796	8876
928.901	8754
929.007	8610
929.112	8777
929.218	8735
929.323	8785
929.428	8686
929.533	8762
929.638	8598
929.743	8705
929.848	8682
929.953	8667
930.058	8556
930.163	8461
930.267	8461
930.372	8571
930.477	8415
930.581	8663
930.685	8545
930.79	8347
930.894	8469
930.998	8336
931.103	8480
931.207	8157
931.311	8164
931.415	8096
931.519	7951
931.623	7890
