Data from test_V78500241_484.txt Node
Date: Fri Mar 25 14:37:05 CST 2022
User: usil
Spectrometer: V785-0024
Trigger mode: 0
Integration Time (sec): 4.000000E-1
Scans to average: 1
Nonlinearity correction enabled: false
Boxcar width: 0
Storing dark spectrum: false
XAxis mode: Wavelengths
Number of Pixels in Spectrum: 1024
>>>>>Begin Spectral Data<<<<<
801.071	26560
801.214	26461
801.356	26259
801.499	26054
801.641	25982
801.783	25936
801.926	25902
802.068	25970
802.211	25761
802.353	25845
802.496	25544
802.638	25460
802.78	25632
802.923	25407
803.065	25392
803.208	25575
803.35	25518
803.492	25514
803.635	25468
803.777	25388
803.919	25419
804.061	25822
804.204	25696
804.346	25438
804.488	25354
804.63	25525
804.773	25415
804.915	25506
805.057	25476
805.199	25449
805.341	25533
805.483	25544
805.626	25468
805.768	25346
805.91	25556
806.052	25403
806.194	25285
806.336	25632
806.478	25384
806.62	25472
806.762	25628
806.904	25833
807.046	26058
807.188	25947
807.33	25849
807.472	25753
807.614	25811
807.756	25799
807.898	25681
808.04	25628
808.182	25628
808.324	25696
808.465	25685
808.607	25974
808.749	26233
808.891	26259
809.033	26248
809.174	26130
809.316	26016
809.458	26088
809.6	26065
809.741	26218
809.883	26142
810.025	26206
810.166	26164
810.308	26065
810.45	26103
810.591	26050
810.733	25974
810.875	25868
811.016	25784
811.158	25635
811.299	25860
811.441	25947
811.582	25875
811.724	25944
811.865	25788
812.007	25670
812.148	25788
812.29	25795
812.431	25826
812.573	26062
812.714	26191
812.855	26313
812.997	26355
813.138	26590
813.279	26396
813.421	26320
813.562	26233
813.703	26191
813.845	25822
813.986	25540
814.127	25567
814.268	25457
814.41	25407
814.551	25270
814.692	25400
814.833	25236
814.974	25255
815.115	25293
815.256	25141
815.397	25194
815.539	25171
815.68	25118
815.821	25012
815.962	25050
816.103	25080
816.244	24863
816.385	24791
816.526	24817
816.666	24585
816.807	24483
816.948	24528
817.089	24525
817.23	24486
817.371	24464
817.512	24467
817.653	24467
817.793	24395
817.934	24467
818.075	24361
818.216	24479
818.356	24414
818.497	24270
818.638	24129
818.778	24121
818.919	24148
819.06	24277
819.2	24277
819.341	24319
819.481	24289
819.622	24395
819.762	24646
819.903	24589
820.043	24467
820.184	24380
820.324	24376
820.465	24570
820.605	24380
820.746	24490
820.886	24319
821.026	24384
821.167	24281
821.307	24467
821.447	24445
821.588	24163
821.728	24121
821.868	23859
822.008	23790
822.149	23786
822.289	23771
822.429	23528
822.569	23425
822.709	23452
822.849	23242
822.99	23216
823.13	23246
823.27	23212
823.41	23109
823.55	22961
823.69	23102
823.83	23109
823.97	23010
824.11	22835
824.25	22755
824.389	22824
824.529	22847
824.669	22946
824.809	22919
824.949	22778
825.089	22778
825.228	22774
825.368	22736
825.508	22603
825.648	22615
825.787	22561
825.927	22656
826.067	22580
826.206	22550
826.346	22542
826.485	22588
826.625	22584
826.765	22683
826.904	22497
827.044	22265
827.183	22280
827.323	22280
827.462	22337
827.601	22299
827.741	22310
827.88	22337
828.02	22101
828.159	22318
828.298	22223
828.437	22284
828.577	22200
828.716	22246
828.855	22086
828.994	22101
829.134	22051
829.273	22070
829.412	21835
829.551	21960
829.69	21937
829.829	21964
829.968	21991
830.107	22021
830.246	21934
830.385	21945
830.524	21736
830.663	21774
830.802	21755
830.941	21603
831.08	21492
831.219	21538
831.357	21549
831.496	21564
831.635	21523
831.774	21408
831.913	21351
832.051	21355
832.19	21329
832.329	21351
832.467	21222
832.606	21085
832.744	21157
832.883	21283
833.022	21249
833.16	21123
833.299	21256
833.437	21104
833.576	21192
833.714	21188
833.852	21241
833.991	21207
834.129	21367
834.267	21279
834.406	21161
834.544	21241
834.682	21237
834.821	21112
834.959	21344
835.097	21066
835.235	21161
835.373	21218
835.511	21100
835.65	21062
835.788	21009
835.926	20861
836.064	20834
836.202	20906
836.34	20960
836.478	21104
836.615	20948
836.753	21093
836.891	21146
837.029	21070
837.167	21005
837.305	20918
837.443	20811
837.58	20842
837.718	20990
837.856	20891
837.993	20815
838.131	20895
838.269	20785
838.406	20800
838.544	20720
838.681	20545
838.819	20522
838.956	20419
839.094	20328
839.231	20362
839.369	20442
839.506	20739
839.643	20579
839.781	20336
839.918	20317
840.055	20469
840.193	20187
840.33	20210
840.467	20229
840.604	20240
840.742	20594
840.879	20046
841.016	20149
841.153	20107
841.29	20385
841.427	20374
841.564	20138
841.701	20259
841.838	20161
841.975	20176
842.112	20134
842.249	19986
842.385	20062
842.522	20191
842.659	20035
842.796	20039
842.933	19978
843.069	19879
843.206	19887
843.343	20046
843.479	19936
843.616	19967
843.752	19883
843.889	19795
844.025	19868
844.162	19772
844.298	19795
844.435	19696
844.571	19734
844.708	19852
844.844	19875
844.98	19826
845.117	19830
845.253	19651
845.389	19613
845.525	19761
845.661	19700
845.798	19632
845.934	19769
846.07	19734
846.206	19811
846.342	19811
846.478	19620
846.614	19506
846.75	19221
846.886	19107
847.022	19343
847.158	19236
847.294	19179
847.429	19251
847.565	19187
847.701	19400
847.837	18985
847.972	18993
848.108	19107
848.244	18973
848.379	18711
848.515	18840
848.65	18749
848.786	18757
848.921	18802
849.057	18852
849.192	18859
849.328	18738
849.463	18692
849.598	18779
849.734	18635
849.869	18623
850.004	18479
850.14	18429
850.275	18574
850.41	18566
850.545	18441
850.68	18471
850.815	18540
850.95	18479
851.085	18627
851.22	18490
851.355	18418
851.49	18403
851.625	18475
851.76	18414
851.895	18296
852.03	18285
852.165	18403
852.299	18547
852.434	18578
852.569	18544
852.703	18456
852.838	18654
852.973	18631
853.107	18658
853.242	18365
853.376	18372
853.511	18258
853.645	18429
853.78	18509
853.914	18300
854.048	18323
854.183	18239
854.317	18361
854.451	18429
854.585	18311
854.72	18285
854.854	18414
854.988	18323
855.122	18243
855.256	18106
855.39	18254
855.524	18437
855.658	18342
855.792	18247
855.926	18285
856.06	18448
856.194	18372
856.327	18342
856.461	18254
856.595	18254
856.729	18258
856.862	18426
856.996	18376
857.13	18353
857.263	18437
857.397	18403
857.53	18273
857.664	18353
857.797	18376
857.931	18452
858.064	18361
858.197	18376
858.331	18277
858.464	18190
858.597	18194
858.731	18201
858.864	18353
858.997	18197
859.13	18304
859.263	18346
859.396	18384
859.529	18262
859.662	18182
859.795	18334
859.928	18273
860.061	18418
860.194	18391
860.327	18258
860.46	18186
860.592	18395
860.725	18308
860.858	18323
860.99	18247
861.123	18038
861.256	18201
861.388	18209
861.521	18947
861.653	18091
861.786	18083
861.918	18155
862.05	18262
862.183	18327
862.315	18388
862.447	18311
862.58	18292
862.712	18110
862.844	17977
862.976	17977
863.108	18163
863.24	18433
863.372	18019
863.504	17931
863.636	17973
863.768	17939
863.9	17939
864.032	17980
864.164	17939
864.296	18060
864.428	18045
864.559	18011
864.691	18091
864.823	17939
864.954	17965
865.086	17939
865.217	17980
865.349	17726
865.48	17847
865.612	17931
865.743	18106
865.875	17878
866.006	17980
866.137	17965
866.269	17912
866.4	17893
866.531	17790
866.662	17771
866.793	17874
866.924	17897
867.055	17794
867.186	17805
867.317	17859
867.448	17752
867.579	17847
867.71	17745
867.841	17729
867.972	17893
868.103	17859
868.233	17832
868.364	17821
868.495	17958
868.625	17996
868.756	18182
868.886	17961
869.017	18007
869.147	18152
869.278	18174
869.408	18190
869.539	18072
869.669	18163
869.799	18106
869.929	18289
870.06	18213
870.19	18422
870.32	18281
870.45	18422
870.58	18437
870.71	18578
870.84	18502
870.97	18376
871.1	18483
871.23	18566
871.36	18608
871.489	18585
871.619	18631
871.749	18627
871.879	18776
872.008	18924
872.138	18684
872.267	18635
872.397	18620
872.526	18540
872.656	18513
872.785	18540
872.915	18791
873.044	18882
873.173	18661
873.303	18646
873.432	18730
873.561	18722
873.69	18707
873.819	18696
873.948	18829
874.077	18821
874.206	18635
874.335	18753
874.464	18966
874.593	19061
874.722	18837
874.851	19072
874.979	18970
875.108	19031
875.237	18856
875.365	18943
875.494	18973
875.623	18977
875.751	18977
875.88	19031
876.008	19137
876.136	19282
876.265	19354
876.393	19582
876.521	19426
876.65	19407
876.778	19365
876.906	19407
877.034	19251
877.162	19392
877.29	19392
877.418	19468
877.546	19365
877.674	19392
877.802	19377
877.93	19518
878.058	19304
878.185	19202
878.313	19320
878.441	19476
878.568	19297
878.696	19388
878.824	19362
878.951	19464
879.079	19693
879.206	19757
879.333	19750
879.461	19586
879.588	19582
879.715	19734
879.842	19685
879.97	19559
880.097	19316
880.224	19278
880.351	19266
880.478	19255
880.605	19145
880.732	19232
880.859	19449
880.986	19209
881.112	19228
881.239	19122
881.366	19012
881.493	19000
881.619	18844
881.746	18886
881.872	18764
881.999	18825
882.125	18894
882.252	18905
882.378	18776
882.505	19038
882.631	18806
882.757	18703
882.883	18783
883.01	18658
883.136	18673
883.262	18604
883.388	18506
883.514	18635
883.64	18700
883.766	18635
883.892	18486
884.018	18395
884.143	18547
884.269	18711
884.395	18506
884.52	18319
884.646	18277
884.772	18296
884.897	18152
885.023	18395
885.148	18410
885.274	18426
885.399	18448
885.524	18266
885.65	18262
885.775	18327
885.9	18296
886.025	18346
886.15	18410
886.275	18254
886.4	18110
886.525	18209
886.65	18197
886.775	18220
886.9	18399
887.025	18429
887.149	18182
887.274	18057
887.399	18129
887.523	18140
887.648	17927
887.773	17935
887.897	18072
888.021	18011
888.146	17954
888.27	18216
888.395	18197
888.519	18136
888.643	18125
888.767	18121
888.891	17927
889.015	17817
889.139	17832
889.263	17885
889.387	17988
889.511	17939
889.635	17885
889.759	17809
889.883	17821
890.006	17882
890.13	17977
890.254	17779
890.377	17684
890.501	17695
890.624	17653
890.748	17657
890.871	17520
890.995	17493
891.118	17414
891.241	17516
891.364	17486
891.488	17608
891.611	17490
891.734	17551
891.857	17516
891.98	17509
892.103	17589
892.226	17532
892.349	17554
892.471	17334
892.594	17410
892.717	17459
892.839	17376
892.962	17429
893.085	17436
893.207	17562
893.33	17349
893.452	17292
893.575	17455
893.697	17410
893.819	17638
893.941	17581
894.064	17577
894.186	17482
894.308	17277
894.43	17577
894.552	17551
894.674	17619
894.796	17334
894.918	17444
895.04	17433
895.161	17528
895.283	17486
895.405	17448
895.526	17402
895.648	17463
895.769	17551
895.891	17516
896.012	17627
896.134	17520
896.255	17493
896.376	17387
896.498	17474
896.619	17558
896.74	17558
896.861	17611
896.982	17916
897.103	18007
897.224	17798
897.345	17863
897.466	17745
897.587	17699
897.708	17893
897.828	17760
897.949	17684
898.07	17634
898.19	17764
898.311	17912
898.431	17718
898.552	17786
898.672	17824
898.792	17836
898.913	17790
899.033	17615
899.153	17634
899.273	17414
899.393	17505
899.513	17509
899.633	17581
899.753	17589
899.873	17452
899.993	17512
900.113	17604
900.232	17661
900.352	17444
900.472	17417
900.591	17330
900.711	17318
900.83	17288
900.95	17535
901.069	17467
901.189	17315
901.308	17075
901.427	16991
901.546	17083
901.665	17029
901.784	16919
901.904	17003
902.023	16782
902.141	16569
902.26	16478
902.379	16577
902.498	16474
902.617	16489
902.735	16516
902.854	16447
902.973	16538
903.091	16109
903.21	16211
903.328	16173
903.446	16230
903.565	16071
903.683	16112
903.801	15930
903.919	15972
904.038	16029
904.156	15895
904.274	15911
904.392	15838
904.51	15747
904.627	15838
904.745	15759
904.863	15903
904.981	15671
905.098	15492
905.216	15526
905.334	15496
905.451	15538
905.569	15450
905.686	15477
905.803	15469
905.921	15214
906.038	15393
906.155	15329
906.272	15157
906.389	15150
906.506	15043
906.623	15089
906.74	15013
906.857	14941
906.974	14925
907.091	15108
907.208	15222
907.324	15081
907.441	14895
907.557	14765
907.674	14735
907.79	14678
907.907	14689
908.023	14807
908.139	14781
908.256	14712
908.372	14625
908.488	14674
908.604	14427
908.72	14358
908.836	14507
908.952	14442
909.068	14484
909.184	14522
909.3	14389
909.415	14461
909.531	14488
909.647	14157
909.762	14199
909.878	14195
909.993	14115
910.108	14103
910.224	14191
910.339	14221
910.454	14081
910.57	13974
910.685	14005
910.8	14183
910.915	14084
911.03	14054
911.145	13822
911.259	13765
911.374	13780
911.489	13666
911.604	13681
911.718	13578
911.833	13559
911.947	13468
912.062	13400
912.176	13529
912.291	13487
912.405	13453
912.519	13742
912.633	13681
912.748	13483
912.862	13548
912.976	13343
913.09	13266
913.204	13365
913.318	13312
913.431	13506
913.545	13407
913.659	13556
913.772	13384
913.886	13236
914	13126
914.113	13259
914.226	13362
914.34	13297
914.453	13187
914.566	13213
914.68	13084
914.793	13126
914.906	12943
915.019	12977
915.132	12878
915.245	12962
915.358	12958
915.47	12905
915.583	12916
915.696	12985
915.809	12939
915.921	13099
916.034	12901
916.146	12863
916.259	12863
916.371	12924
916.483	12802
916.595	12772
916.708	12798
916.82	12840
916.932	12844
917.044	12700
917.156	12692
917.268	12608
917.38	12585
917.491	12642
917.603	12654
917.715	12681
917.826	12719
917.938	12544
918.049	12498
918.161	12646
918.272	12715
918.384	12730
918.495	12677
918.606	12536
918.717	12289
918.828	12418
918.939	12437
919.05	12327
919.161	12384
919.272	12243
919.383	12239
919.494	12418
919.604	12673
919.715	12433
919.826	12304
919.936	12319
920.047	12422
920.157	12369
920.267	12639
920.378	12418
920.488	12353
920.598	12601
920.708	12726
920.818	12563
920.928	12544
921.038	12700
921.148	12665
921.258	12429
921.368	12338
921.477	12175
921.587	12171
921.697	12049
921.806	12247
921.916	12068
922.025	11828
922.134	11790
922.244	11790
922.353	11821
922.462	11745
922.571	11672
922.68	11455
922.789	11524
922.898	11520
923.007	11528
923.116	11459
923.224	11547
923.333	11455
923.442	11360
923.55	11303
923.659	11364
923.767	11452
923.876	11288
923.984	11334
924.092	11231
924.201	11322
924.309	11356
924.417	11254
924.525	11197
924.633	11220
924.741	12129
924.849	11090
924.956	11151
925.064	11045
925.172	11075
925.279	11083
925.387	11143
925.494	11045
925.602	11250
925.709	11075
925.816	10968
925.924	11067
926.031	11162
926.138	11052
926.245	11006
926.352	10908
926.459	11079
926.566	11067
926.673	10957
926.779	10816
926.886	10847
926.993	10733
927.099	10706
927.206	10596
927.312	10550
927.419	10664
927.525	10599
927.631	10710
927.737	10546
927.843	10550
927.95	10367
928.056	10519
928.162	10577
928.267	10596
928.373	11117
928.479	10561
928.585	10390
928.69	10508
928.796	10512
928.901	10398
929.007	10257
929.112	10516
929.218	10417
929.323	10329
929.428	10344
929.533	10371
929.638	10303
929.743	10268
929.848	10295
929.953	10344
930.058	10139
930.163	10010
930.267	9994
930.372	10154
930.477	10029
930.581	10223
930.685	10082
930.79	9994
930.894	9945
930.998	9816
931.103	9979
931.207	9701
931.311	9629
931.415	9587
931.519	9355
931.623	9363
