Data from test_V78500241_1563.txt Node
Date: Fri Mar 25 14:44:35 CST 2022
User: usil
Spectrometer: V785-0024
Trigger mode: 0
Integration Time (sec): 4.000000E-1
Scans to average: 1
Nonlinearity correction enabled: false
Boxcar width: 0
Storing dark spectrum: false
XAxis mode: Wavelengths
Number of Pixels in Spectrum: 1024
>>>>>Begin Spectral Data<<<<<
801.071	22493
801.214	22223
801.356	21972
801.499	21842
801.641	21835
801.783	21892
801.926	21838
802.068	21690
802.211	21667
802.353	21568
802.496	21283
802.638	21211
802.78	21218
802.923	21119
803.065	21081
803.208	21051
803.35	21096
803.492	21203
803.635	21233
803.777	21108
803.919	21199
804.061	21545
804.204	21116
804.346	21089
804.488	20944
804.63	21055
804.773	20895
804.915	21005
805.057	21104
805.199	21032
805.341	20952
805.483	21131
805.626	21165
805.768	20998
805.91	21096
806.052	21036
806.194	20902
806.336	21058
806.478	21009
806.62	20979
806.762	21081
806.904	21176
807.046	21378
807.188	21374
807.33	21439
807.472	21526
807.614	21298
807.756	21462
807.898	21256
808.04	21222
808.182	21150
808.324	21249
808.465	21329
808.607	21492
808.749	21534
808.891	21595
809.033	21667
809.174	21587
809.316	21401
809.458	21469
809.6	21439
809.741	21576
809.883	21614
810.025	21850
810.166	21686
810.308	21572
810.45	21576
810.591	21542
810.733	21222
810.875	21287
811.016	21169
811.158	21096
811.299	21294
811.441	21264
811.582	21481
811.724	21123
811.865	21233
812.007	21245
812.148	21081
812.29	21291
812.431	21435
812.573	21488
812.714	21755
812.855	21717
812.997	21827
813.138	21888
813.279	21766
813.421	21724
813.562	21622
813.703	21431
813.845	21302
813.986	21062
814.127	20952
814.268	20925
814.41	20853
814.551	20682
814.692	20937
814.833	20724
814.974	20686
815.115	20811
815.256	20537
815.397	20617
815.539	20667
815.68	20473
815.821	20533
815.962	20526
816.103	20465
816.244	20256
816.385	20195
816.526	20237
816.666	20046
816.807	19932
816.948	19989
817.089	20077
817.23	19932
817.371	19936
817.512	19864
817.653	19898
817.793	19761
817.934	19845
818.075	19807
818.216	19837
818.356	19784
818.497	19746
818.638	19487
818.778	19620
818.919	19548
819.06	19586
819.2	19784
819.341	19822
819.481	19696
819.622	19959
819.762	20168
819.903	20024
820.043	19890
820.184	19932
820.324	19955
820.465	19906
820.605	19890
820.746	19830
820.886	19635
821.026	19898
821.167	19761
821.307	19925
821.447	19837
821.588	19677
821.728	19613
821.868	19388
822.008	19274
822.149	19160
822.289	19270
822.429	19027
822.569	18977
822.709	18897
822.849	18795
822.99	18825
823.13	18734
823.27	18703
823.41	18692
823.55	18372
823.69	18555
823.83	18593
823.97	18460
824.11	18338
824.25	18266
824.389	18266
824.529	18372
824.669	18395
824.809	18471
824.949	18414
825.089	18460
825.228	18327
825.368	18186
825.508	18133
825.648	18178
825.787	18186
825.927	18220
826.067	18110
826.206	18026
826.346	18098
826.485	18152
826.625	18114
826.765	18205
826.904	18072
827.044	18015
827.183	17885
827.323	17847
827.462	17874
827.601	17836
827.741	17684
827.88	17847
828.02	17585
828.159	17771
828.298	17729
828.437	17904
828.577	17798
828.716	17901
828.855	17840
828.994	17566
829.134	17573
829.273	17573
829.412	17512
829.551	17425
829.69	17539
829.829	17611
829.968	17722
830.107	17551
830.246	17646
830.385	17551
830.524	17459
830.663	17414
830.802	17311
830.941	17124
831.08	17109
831.219	17254
831.357	17181
831.496	17372
831.635	17178
831.774	17064
831.913	17045
832.051	16896
832.19	16991
832.329	16934
832.467	16881
832.606	16729
832.744	16820
832.883	16733
833.022	16881
833.16	16858
833.299	16915
833.437	16839
833.576	16946
833.714	17010
833.852	16904
833.991	16949
834.129	17018
834.267	16946
834.406	16843
834.544	16900
834.682	16869
834.821	16858
834.959	17098
835.097	16915
835.235	16911
835.373	16930
835.511	16972
835.65	16782
835.788	16774
835.926	16592
836.064	16641
836.202	16641
836.34	16683
836.478	16881
836.615	16752
836.753	16809
836.891	16904
837.029	16858
837.167	16721
837.305	16645
837.443	16668
837.58	16634
837.718	16744
837.856	16725
837.993	16668
838.131	16664
838.269	16607
838.406	16622
838.544	16485
838.681	16322
838.819	16238
838.956	16226
839.094	16238
839.231	16215
839.369	16443
839.506	16538
839.643	16409
839.781	16207
839.918	16204
840.055	16211
840.193	16154
840.33	16207
840.467	16185
840.604	16200
840.742	16493
840.879	16097
841.016	16147
841.153	16032
841.29	16303
841.427	16242
841.564	16268
841.701	16154
841.838	16078
841.975	16059
842.112	16097
842.249	15892
842.385	15884
842.522	16120
842.659	16025
842.796	15956
842.933	16032
843.069	15991
843.206	15895
843.343	16071
843.479	15926
843.616	15937
843.752	15739
843.889	15766
844.025	15835
844.162	15785
844.298	15850
844.435	15766
844.571	15633
844.708	15831
844.844	15903
844.98	15911
845.117	15876
845.253	15667
845.389	15641
845.525	15705
845.661	15686
845.798	15644
845.934	15755
846.07	15637
846.206	15819
846.342	15808
846.478	15648
846.614	15416
846.75	15329
846.886	15374
847.022	15344
847.158	15393
847.294	15306
847.429	15405
847.565	15249
847.701	15572
847.837	14960
847.972	15039
848.108	15058
848.244	15081
848.379	14990
848.515	14967
848.65	14895
848.786	14845
848.921	14902
849.057	15039
849.192	15024
849.328	14933
849.463	14948
849.598	14807
849.734	14830
849.869	14857
850.004	14682
850.14	14781
850.275	14556
850.41	14602
850.545	14663
850.68	14762
850.815	14686
850.95	14693
851.085	14838
851.22	14796
851.355	14705
851.49	14644
851.625	14590
851.76	14552
851.895	14556
852.03	14583
852.165	14727
852.299	14750
852.434	14648
852.569	14701
852.703	14765
852.838	14765
852.973	14849
853.107	14899
853.242	14636
853.376	14651
853.511	14400
853.645	14438
853.78	14613
853.914	14568
854.048	14541
854.183	14568
854.317	14541
854.451	14632
854.585	14644
854.72	14408
854.854	14636
854.988	14396
855.122	14583
855.256	14377
855.39	14514
855.524	14590
855.658	14545
855.792	14667
855.926	14602
856.06	14712
856.194	14754
856.327	14549
856.461	14431
856.595	14488
856.729	14457
856.862	14610
856.996	14549
857.13	14568
857.263	14720
857.397	14693
857.53	14556
857.664	14659
857.797	14644
857.931	14640
858.064	14629
858.197	14530
858.331	14564
858.464	14499
858.597	14495
858.731	14431
858.864	14480
858.997	14473
859.13	14606
859.263	14537
859.396	14556
859.529	14522
859.662	14522
859.795	14499
859.928	14461
860.061	14800
860.194	14613
860.327	14442
860.46	14450
860.592	14712
860.725	14644
860.858	14644
860.99	14514
861.123	14427
861.256	14457
861.388	14636
861.521	15154
861.653	14438
861.786	14370
861.918	14488
862.05	14412
862.183	14526
862.315	14469
862.447	14568
862.58	14469
862.712	14271
862.844	14282
862.976	14389
863.108	14412
863.24	14739
863.372	14172
863.504	14301
863.636	14286
863.768	14427
863.9	14317
864.032	14240
864.164	14271
864.296	14339
864.428	14457
864.559	14374
864.691	14415
864.823	14332
864.954	14317
865.086	14328
865.217	14248
865.349	14237
865.48	14313
865.612	14305
865.743	14507
865.875	14263
866.006	14324
866.137	14366
866.269	14229
866.4	14256
866.531	14195
866.662	14206
866.793	14286
866.924	14206
867.055	14218
867.186	14221
867.317	14267
867.448	14233
867.579	14180
867.71	14195
867.841	14161
867.972	14263
868.103	14278
868.233	14351
868.364	14286
868.495	14389
868.625	14541
868.756	14530
868.886	14434
869.017	14583
869.147	14663
869.278	14564
869.408	14625
869.539	14530
869.669	14640
869.799	14507
869.929	14651
870.06	14659
870.19	14823
870.32	14925
870.45	14857
870.58	14895
870.71	14963
870.84	15020
870.97	14990
871.1	14849
871.23	15097
871.36	15051
871.489	14914
871.619	15058
871.749	15119
871.879	15169
872.008	15241
872.138	15074
872.267	15199
872.397	14975
872.526	14910
872.656	14929
872.785	14956
872.915	15131
873.044	15180
873.173	15138
873.303	15298
873.432	15256
873.561	15252
873.69	15180
873.819	15233
873.948	15176
874.077	15161
874.206	15093
874.335	15195
874.464	15454
874.593	15458
874.722	15507
874.851	15511
874.979	15481
875.108	15584
875.237	15485
875.365	15393
875.494	15367
875.623	15511
875.751	15439
875.88	15542
876.008	15690
876.136	15671
876.265	15930
876.393	16044
876.521	15983
876.65	16021
876.778	15911
876.906	15892
877.034	15865
877.162	15850
877.29	15842
877.418	15991
877.546	15911
877.674	15918
877.802	15861
877.93	15956
878.058	15865
878.185	15846
878.313	15819
878.441	15888
878.568	15797
878.696	15808
878.824	15873
878.951	15945
879.079	16124
879.206	16238
879.333	16150
879.461	16059
879.588	16021
879.715	16139
879.842	16177
879.97	16002
880.097	15827
880.224	15694
880.351	15819
880.478	15861
880.605	15778
880.732	15831
880.859	15964
880.986	15861
881.112	15838
881.239	15622
881.366	15599
881.493	15485
881.619	15416
881.746	15447
881.872	15454
881.999	15359
882.125	15447
882.252	15477
882.378	15401
882.505	15682
882.631	15291
882.757	15241
882.883	15207
883.01	15287
883.136	15230
883.262	15093
883.388	15032
883.514	15275
883.64	15313
883.766	15192
883.892	14998
884.018	14994
884.143	15260
884.269	15367
884.395	15081
884.52	14891
884.646	14944
884.772	14845
884.897	14788
885.023	14975
885.148	15077
885.274	15138
885.399	15066
885.524	14960
885.65	14990
885.775	15028
885.9	14872
886.025	15131
886.15	14925
886.275	14826
886.4	14864
886.525	14910
886.65	14876
886.775	14941
886.9	15055
887.025	15138
887.149	14857
887.274	14735
887.399	14716
887.523	14701
887.648	14743
887.773	14701
887.897	14872
888.021	14857
888.146	14792
888.27	14857
888.395	14819
888.519	14899
888.643	14746
888.767	14777
888.891	14724
889.015	14602
889.139	14750
889.263	14594
889.387	14750
889.511	14815
889.635	14792
889.759	14629
889.883	14552
890.006	14629
890.13	14765
890.254	14533
890.377	14454
890.501	14488
890.624	14396
890.748	14518
890.871	14336
890.995	14320
891.118	14267
891.241	14164
891.364	14286
891.488	14343
891.611	14252
891.734	14389
891.857	14339
891.98	14336
892.103	14374
892.226	14377
892.349	14343
892.471	14130
892.594	14248
892.717	14275
892.839	14290
892.962	14370
893.085	14366
893.207	14366
893.33	14161
893.452	14237
893.575	14362
893.697	14336
893.819	14476
893.941	14446
894.064	14377
894.186	14301
894.308	14240
894.43	14503
894.552	14442
894.674	14495
894.796	14275
894.918	14278
895.04	14305
895.161	14377
895.283	14412
895.405	14347
895.526	14355
895.648	14389
895.769	14465
895.891	14552
896.012	14590
896.134	14552
896.255	14454
896.376	14313
896.498	14503
896.619	14469
896.74	14492
896.861	14644
896.982	14910
897.103	14941
897.224	14769
897.345	14777
897.466	14746
897.587	14648
897.708	14960
897.828	14804
897.949	14644
898.07	14689
898.19	14670
898.311	14971
898.431	14731
898.552	14876
898.672	14891
898.792	14849
898.913	14868
899.033	14792
899.153	14746
899.273	14636
899.393	14648
899.513	14689
899.633	14663
899.753	14689
899.873	14632
899.993	14765
900.113	14697
900.232	14773
900.352	14587
900.472	14587
900.591	14484
900.711	14511
900.83	14514
900.95	14655
901.069	14598
901.189	14590
901.308	14343
901.427	14233
901.546	14271
901.665	14256
901.784	14218
901.904	14134
902.023	14016
902.141	13875
902.26	13761
902.379	13845
902.498	13761
902.617	13761
902.735	13849
902.854	13784
902.973	13628
903.091	13510
903.21	13476
903.328	13480
903.446	13464
903.565	13343
903.683	13324
903.801	13316
903.919	13343
904.038	13346
904.156	13217
904.274	13225
904.392	13088
904.51	13198
904.627	13141
904.745	13206
904.863	13232
904.981	12962
905.098	12833
905.216	12791
905.334	12867
905.451	12867
905.569	12894
905.686	12886
905.803	12821
905.921	12627
906.038	12802
906.155	12635
906.272	12574
906.389	12627
906.506	12566
906.623	12479
906.74	12384
906.857	12346
906.974	12315
907.091	12429
907.208	12578
907.324	12479
907.441	12399
907.557	12224
907.674	12148
907.79	12163
907.907	12106
908.023	12201
908.139	12292
908.256	12079
908.372	12083
908.488	12011
908.604	12049
908.72	11939
908.836	11931
908.952	11939
909.068	11984
909.184	12079
909.3	11882
909.415	12003
909.531	12011
909.647	11691
909.762	11760
909.878	11592
909.993	11745
910.108	11684
910.224	11596
910.339	11729
910.454	11619
910.57	11627
910.685	11505
910.8	11851
910.915	11714
911.03	11501
911.145	11398
911.259	11383
911.374	11429
911.489	11296
911.604	11261
911.718	11124
911.833	11197
911.947	11094
912.062	11037
912.176	11178
912.291	11166
912.405	11143
912.519	11299
912.633	11307
912.748	11212
912.862	11117
912.976	11075
913.09	10915
913.204	11079
913.318	11075
913.431	11166
913.545	11086
913.659	11159
913.772	10949
913.886	10972
914	10908
914.113	10930
914.226	10999
914.34	11041
914.453	10908
914.566	11022
914.68	10858
914.793	10949
914.906	10759
915.019	10588
915.132	10592
915.245	10710
915.358	10653
915.47	10653
915.583	10687
915.696	10675
915.809	10744
915.921	10835
916.034	10622
916.146	10554
916.259	10558
916.371	10679
916.483	10645
916.595	10588
916.708	10565
916.82	10542
916.932	10558
917.044	10516
917.156	10493
917.268	10455
917.38	10481
917.491	10462
917.603	10489
917.715	10592
917.826	10527
917.938	10375
918.049	10325
918.161	10451
918.272	10622
918.384	10573
918.495	10470
918.606	10310
918.717	10287
918.828	10390
918.939	10394
919.05	10207
919.161	10379
919.272	10169
919.383	10173
919.494	10394
919.604	10554
919.715	10341
919.826	10265
919.936	10344
920.047	10409
920.157	10390
920.267	10531
920.378	10379
920.488	10329
920.598	10531
920.708	10710
920.818	10489
920.928	10527
921.038	10694
921.148	10748
921.258	10478
921.368	10360
921.477	10261
921.587	10192
921.697	10059
921.806	10196
921.916	10074
922.025	9979
922.134	9945
922.244	9934
922.353	10025
922.462	9808
922.571	9720
922.68	9599
922.789	9587
922.898	9545
923.007	9637
923.116	9686
923.224	9648
923.333	9557
923.442	9511
923.55	9485
923.659	9576
923.767	9557
923.876	9454
923.984	9572
924.092	9428
924.201	9447
924.309	9454
924.417	9428
924.525	9374
924.633	9363
924.741	10360
924.849	9237
924.956	9336
925.064	9245
925.172	9135
925.279	9241
925.387	9256
925.494	9241
925.602	9363
925.709	9355
925.816	9154
925.924	9222
926.031	9298
926.138	9237
926.245	9310
926.352	9237
926.459	9275
926.566	9378
926.673	9195
926.779	9104
926.886	9062
926.993	8982
927.099	8971
927.206	8952
927.312	8849
927.419	9001
927.525	8971
927.631	8963
927.737	8861
927.843	8891
927.95	8804
928.056	8857
928.162	8792
928.267	8872
928.373	9393
928.479	8921
928.585	8724
928.69	8883
928.796	8910
928.901	8785
929.007	8617
929.112	8796
929.218	8750
929.323	8705
929.428	8716
929.533	8689
929.638	8632
929.743	8648
929.848	8720
929.953	8682
930.058	8575
930.163	8408
930.267	8423
930.372	8579
930.477	8457
930.581	8670
930.685	8526
930.79	8355
930.894	8355
930.998	8351
931.103	8488
931.207	8138
931.311	8157
931.415	8096
931.519	7909
931.623	7856
