Data from test_V78500241_2476.txt Node
Date: Fri Mar 25 14:50:57 CST 2022
User: usil
Spectrometer: V785-0024
Trigger mode: 0
Integration Time (sec): 4.000000E-1
Scans to average: 1
Nonlinearity correction enabled: false
Boxcar width: 0
Storing dark spectrum: false
XAxis mode: Wavelengths
Number of Pixels in Spectrum: 1024
>>>>>Begin Spectral Data<<<<<
801.071	21964
801.214	21937
801.356	21819
801.499	21618
801.641	21549
801.783	21374
801.926	21412
802.068	21340
802.211	21214
802.353	21142
802.496	21218
802.638	20918
802.78	20838
802.923	20895
803.065	20590
803.208	20792
803.35	20785
803.492	20918
803.635	20902
803.777	20845
803.919	20819
804.061	21108
804.204	20800
804.346	20750
804.488	20693
804.63	20823
804.773	20667
804.915	20545
805.057	20773
805.199	20621
805.341	20682
805.483	20800
805.626	20819
805.768	20663
805.91	20762
806.052	20701
806.194	20579
806.336	20876
806.478	20762
806.62	20686
806.762	20670
806.904	20921
807.046	21039
807.188	21043
807.33	20963
807.472	20921
807.614	20895
807.756	20842
807.898	20864
808.04	20834
808.182	20838
808.324	20796
808.465	20891
808.607	21032
808.749	21043
808.891	21062
809.033	21291
809.174	21184
809.316	20967
809.458	21051
809.6	20986
809.741	21233
809.883	21214
810.025	21184
810.166	21237
810.308	21207
810.45	21138
810.591	20975
810.733	20975
810.875	20887
811.016	20739
811.158	20678
811.299	20792
811.441	21024
811.582	20967
811.724	20880
811.865	20765
812.007	20906
812.148	20849
812.29	20838
812.431	20982
812.573	21089
812.714	21176
812.855	21351
812.997	21481
813.138	21469
813.279	21386
813.421	21249
813.562	21264
813.703	21070
813.845	20933
813.986	20811
814.127	20446
814.268	20442
814.41	20423
814.551	20381
814.692	20324
814.833	20282
814.974	20495
815.115	20381
815.256	20187
815.397	20122
815.539	20202
815.68	20195
815.821	20126
815.962	20134
816.103	20031
816.244	19822
816.385	19833
816.526	19818
816.666	19643
816.807	19460
816.948	19635
817.089	19601
817.23	19468
817.371	19483
817.512	19460
817.653	19411
817.793	19495
817.934	19499
818.075	19548
818.216	19441
818.356	19445
818.497	19438
818.638	19137
818.778	19171
818.919	19221
819.06	19232
819.2	19293
819.341	19381
819.481	19388
819.622	19510
819.762	19734
819.903	19670
820.043	19571
820.184	19586
820.324	19472
820.465	19544
820.605	19483
820.746	19460
820.886	19350
821.026	19434
821.167	19365
821.307	19552
821.447	19403
821.588	19251
821.728	19320
821.868	19213
822.008	18981
822.149	18985
822.289	18745
822.429	18585
822.569	18563
822.709	18578
822.849	18445
822.99	18475
823.13	18441
823.27	18239
823.41	18270
823.55	18163
823.69	18251
823.83	18232
823.97	18216
824.11	18060
824.25	17961
824.389	18026
824.529	18133
824.669	17954
824.809	18079
824.949	18220
825.089	18133
825.228	18019
825.368	17790
825.508	17714
825.648	17718
825.787	17794
825.927	17798
826.067	17687
826.206	17691
826.346	17767
826.485	17821
826.625	17783
826.765	17901
826.904	17855
827.044	17619
827.183	17558
827.323	17387
827.462	17657
827.601	17471
827.741	17425
827.88	17505
828.02	17258
828.159	17478
828.298	17467
828.437	17558
828.577	17410
828.716	17657
828.855	17417
828.994	17261
829.134	17212
829.273	17280
829.412	17273
829.551	17181
829.69	17185
829.829	17227
829.968	17368
830.107	17364
830.246	17227
830.385	17250
830.524	17155
830.663	17029
830.802	16885
830.941	16809
831.08	16816
831.219	16957
831.357	16858
831.496	17128
831.635	16877
831.774	16725
831.913	16672
832.051	16645
832.19	16698
832.329	16599
832.467	16558
832.606	16424
832.744	16493
832.883	16447
833.022	16554
833.16	16504
833.299	16550
833.437	16531
833.576	16573
833.714	16550
833.852	16599
833.991	16554
834.129	16668
834.267	16573
834.406	16656
834.544	16554
834.682	16611
834.821	16626
834.959	16615
835.097	16512
835.235	16698
835.373	16660
835.511	16516
835.65	16489
835.788	16478
835.926	16409
836.064	16284
836.202	16261
836.34	16523
836.478	16558
836.615	16462
836.753	16375
836.891	16538
837.029	16542
837.167	16367
837.305	16485
837.443	16318
837.58	16402
837.718	16462
837.856	16363
837.993	16257
838.131	16413
838.269	16306
838.406	16253
838.544	16249
838.681	16154
838.819	15991
838.956	15960
839.094	15880
839.231	16048
839.369	16093
839.506	16329
839.643	16200
839.781	15876
839.918	15812
840.055	15930
840.193	15827
840.33	15873
840.467	15876
840.604	15987
840.742	16109
840.879	15781
841.016	15781
841.153	15854
841.29	15953
841.427	15968
841.564	15934
841.701	15945
841.838	15816
841.975	15778
842.112	15755
842.249	15667
842.385	15603
842.522	15903
842.659	15751
842.796	15789
842.933	15770
843.069	15625
843.206	15667
843.343	15861
843.479	15690
843.616	15625
843.752	15542
843.889	15469
844.025	15618
844.162	15359
844.298	15625
844.435	15534
844.571	15386
844.708	15587
844.844	15759
844.98	15549
845.117	15633
845.253	15378
845.389	15332
845.525	15466
845.661	15397
845.798	15218
845.934	15279
846.07	15252
846.206	15241
846.342	15420
846.478	15291
846.614	15119
846.75	15032
846.886	14960
847.022	15138
847.158	15058
847.294	15013
847.429	15051
847.565	14998
847.701	15245
847.837	14708
847.972	14716
848.108	14872
848.244	14845
848.379	14663
848.515	14590
848.65	14568
848.786	14693
848.921	14686
849.057	14701
849.192	14785
849.328	14686
849.463	14640
849.598	14636
849.734	14560
849.869	14499
850.004	14552
850.14	14484
850.275	14408
850.41	14347
850.545	14389
850.68	14301
850.815	14385
850.95	14434
851.085	14667
851.22	14511
851.355	14423
851.49	14336
851.625	14343
851.76	14336
851.895	14305
852.03	14298
852.165	14362
852.299	14480
852.434	14503
852.569	14476
852.703	14412
852.838	14499
852.973	14533
853.107	14621
853.242	14480
853.376	14370
853.511	14153
853.645	14301
853.78	14526
853.914	14324
854.048	14202
854.183	14263
854.317	14343
854.451	14495
854.585	14206
854.72	14191
854.854	14355
854.988	14176
855.122	14199
855.256	14202
855.39	14271
855.524	14415
855.658	14412
855.792	14313
855.926	14351
856.06	14343
856.194	14328
856.327	14275
856.461	14320
856.595	14233
856.729	14237
856.862	14290
856.996	14377
857.13	14343
857.263	14423
857.397	14389
857.53	14286
857.664	14347
857.797	14298
857.931	14355
858.064	14313
858.197	14393
858.331	14286
858.464	14233
858.597	14111
858.731	14256
858.864	14240
858.997	14157
859.13	14278
859.263	14320
859.396	14469
859.529	14278
859.662	14183
859.795	14336
859.928	14256
860.061	14476
860.194	14442
860.327	14362
860.46	14168
860.592	14438
860.725	14396
860.858	14457
860.99	14263
861.123	14355
861.256	14183
861.388	14278
861.521	14864
861.653	14077
861.786	14111
861.918	14123
862.05	14149
862.183	14214
862.315	14263
862.447	14320
862.58	14210
862.712	14058
862.844	13959
862.976	14126
863.108	14134
863.24	14366
863.372	13997
863.504	14081
863.636	14043
863.768	14073
863.9	14077
864.032	14001
864.164	13986
864.296	14092
864.428	14195
864.559	14142
864.691	14005
864.823	14157
864.954	14054
865.086	14103
865.217	14020
865.349	14012
865.48	14100
865.612	13970
865.743	14126
865.875	14084
866.006	13970
866.137	14043
866.269	14138
866.4	14073
866.531	14046
866.662	13970
866.793	14031
866.924	13944
867.055	14096
867.186	13944
867.317	13967
867.448	13932
867.579	13909
867.71	14054
867.841	13921
867.972	14065
868.103	14062
868.233	14046
868.364	14065
868.495	14130
868.625	14259
868.756	14377
868.886	14218
869.017	14309
869.147	14412
869.278	14339
869.408	14298
869.539	14412
869.669	14408
869.799	14320
869.929	14400
870.06	14389
870.19	14617
870.32	14613
870.45	14678
870.58	14594
870.71	14769
870.84	14914
870.97	14697
871.1	14610
871.23	14887
871.36	14815
871.489	14800
871.619	14925
871.749	14883
871.879	14929
872.008	15013
872.138	15051
872.267	14902
872.397	14758
872.526	14724
872.656	14796
872.785	14769
872.915	14902
873.044	15009
873.173	14960
873.303	14956
873.432	14994
873.561	14990
873.69	14960
873.819	14994
873.948	14910
874.077	14944
874.206	14952
874.335	14979
874.464	15108
874.593	15199
874.722	15249
874.851	15287
874.979	15264
875.108	15283
875.237	15207
875.365	15131
875.494	15260
875.623	15283
875.751	15268
875.88	15260
876.008	15405
876.136	15507
876.265	15595
876.393	15743
876.521	15698
876.65	15846
876.778	15675
876.906	15553
877.034	15641
877.162	15629
877.29	15599
877.418	15633
877.546	15766
877.674	15671
877.802	15614
877.93	15603
878.058	15625
878.185	15500
878.313	15671
878.441	15743
878.568	15561
878.696	15572
878.824	15648
878.951	15770
879.079	15953
879.206	15972
879.333	15850
879.461	15751
879.588	15789
879.715	15819
879.842	15899
879.97	15713
880.097	15504
880.224	15359
880.351	15519
880.478	15428
880.605	15469
880.732	15469
880.859	15770
880.986	15469
881.112	15523
881.239	15363
881.366	15279
881.493	15256
881.619	15207
881.746	15245
881.872	15169
881.999	15135
882.125	15157
882.252	15214
882.378	15237
882.505	15279
882.631	15123
882.757	14998
882.883	14994
883.01	14986
883.136	14887
883.262	14868
883.388	14861
883.514	15062
883.64	15150
883.766	15036
883.892	14861
884.018	14891
884.143	15036
884.269	15043
884.395	14804
884.52	14746
884.646	14705
884.772	14731
884.897	14537
885.023	14788
885.148	14758
885.274	14891
885.399	14849
885.524	14670
885.65	14701
885.775	14750
885.9	14594
886.025	14807
886.15	14708
886.275	14613
886.4	14556
886.525	14659
886.65	14644
886.775	14735
886.9	14838
887.025	14925
887.149	14735
887.274	14503
887.399	14545
887.523	14442
887.648	14423
887.773	14404
887.897	14564
888.021	14610
888.146	14446
888.27	14602
888.395	14655
888.519	14541
888.643	14571
888.767	14670
888.891	14480
889.015	14385
889.139	14473
889.263	14332
889.387	14571
889.511	14514
889.635	14454
889.759	14290
889.883	14374
890.006	14434
890.13	14514
890.254	14374
890.377	14400
890.501	14130
890.624	14298
890.748	14339
890.871	14020
890.995	14145
891.118	13921
891.241	14073
891.364	14123
891.488	14168
891.611	14138
891.734	14119
891.857	14195
891.98	14115
892.103	14252
892.226	14058
892.349	14024
892.471	13936
892.594	14035
892.717	14092
892.839	14069
892.962	14081
893.085	14149
893.207	14046
893.33	13974
893.452	13955
893.575	14077
893.697	14145
893.819	14252
893.941	14267
894.064	14229
894.186	14126
894.308	14100
894.43	14248
894.552	14278
894.674	14305
894.796	13967
894.918	14153
895.04	14073
895.161	14145
895.283	14237
895.405	14130
895.526	14267
895.648	14077
895.769	14126
895.891	14214
896.012	14199
896.134	14358
896.255	14248
896.376	14191
896.498	14221
896.619	14275
896.74	14229
896.861	14324
896.982	14583
897.103	14743
897.224	14537
897.345	14442
897.466	14457
897.587	14480
897.708	14712
897.828	14602
897.949	14583
898.07	14454
898.19	14503
898.311	14678
898.431	14465
898.552	14606
898.672	14621
898.792	14697
898.913	14541
899.033	14442
899.153	14499
899.273	14370
899.393	14503
899.513	14564
899.633	14389
899.753	14556
899.873	14438
899.993	14507
900.113	14434
900.232	14549
900.352	14473
900.472	14267
900.591	14366
900.711	14339
900.83	14320
900.95	14408
901.069	14457
901.189	14305
901.308	13997
901.427	13993
901.546	14046
901.665	13963
901.784	13947
901.904	13879
902.023	13879
902.141	13609
902.26	13620
902.379	13639
902.498	13544
902.617	13525
902.735	13582
902.854	13537
902.973	13514
903.091	13316
903.21	13407
903.328	13301
903.446	13164
903.565	13160
903.683	13160
903.801	13034
903.919	13065
904.038	13065
904.156	12947
904.274	13053
904.392	12920
904.51	12958
904.627	12924
904.745	13000
904.863	12981
904.981	12757
905.098	12692
905.216	12612
905.334	12608
905.451	12608
905.569	12669
905.686	12639
905.803	12654
905.921	12456
906.038	12494
906.155	12456
906.272	12281
906.389	12327
906.506	12281
906.623	12235
906.74	12133
906.857	12114
906.974	12155
907.091	12369
907.208	12296
907.324	12209
907.441	12155
907.557	12038
907.674	12011
907.79	11992
907.907	11912
908.023	11973
908.139	11980
908.256	11893
908.372	11874
908.488	11863
908.604	11817
908.72	11764
908.836	11798
908.952	11729
909.068	11733
909.184	11805
909.3	11722
909.415	11737
909.531	11726
909.647	11619
909.762	11611
909.878	11471
909.993	11554
910.108	11474
910.224	11474
910.339	11436
910.454	11395
910.57	11288
910.685	11364
910.8	11524
910.915	11436
911.03	11372
911.145	11204
911.259	11124
911.374	11181
911.489	11136
911.604	11010
911.718	10984
911.833	10995
911.947	10889
912.062	10786
912.176	10919
912.291	10972
912.405	10915
912.519	11113
912.633	11136
912.748	11067
912.862	10942
912.976	10869
913.09	10725
913.204	10824
913.318	10839
913.431	10915
913.545	10934
913.659	10991
913.772	10809
913.886	10702
914	10668
914.113	10790
914.226	10881
914.34	10793
914.453	10626
914.566	10809
914.68	10725
914.793	10641
914.906	10474
915.019	10474
915.132	10413
915.245	10436
915.358	10493
915.47	10504
915.583	10512
915.696	10542
915.809	10603
915.921	10603
916.034	10474
916.146	10413
916.259	10386
916.371	10508
916.483	10504
916.595	10500
916.708	10398
916.82	10428
916.932	10402
917.044	10337
917.156	10375
917.268	10295
917.38	10310
917.491	10238
917.603	10291
917.715	10337
917.826	10432
917.938	10280
918.049	10188
918.161	10322
918.272	10382
918.384	10462
918.495	10325
918.606	10204
918.717	10048
918.828	10181
918.939	10200
919.05	10044
919.161	10215
919.272	10032
919.383	10032
919.494	10204
919.604	10379
919.715	10188
919.826	10131
919.936	10097
920.047	10268
920.157	10215
920.267	10436
920.378	10318
920.488	10169
920.598	10356
920.708	10596
920.818	10443
920.928	10379
921.038	10561
921.148	10558
921.258	10318
921.368	10139
921.477	10067
921.587	10029
921.697	9934
921.806	10109
921.916	9956
922.025	9717
922.134	9705
922.244	9701
922.353	9827
922.462	9572
922.571	9564
922.68	9447
922.789	9435
922.898	9519
923.007	9405
923.116	9511
923.224	9515
923.333	9443
923.442	9393
923.55	9336
923.659	9310
923.767	9355
923.876	9310
923.984	9386
924.092	9214
924.201	9302
924.309	9321
924.417	9321
924.525	9336
924.633	9279
924.741	10029
924.849	9135
924.956	9233
925.064	9097
925.172	9047
925.279	9074
925.387	9051
925.494	9093
925.602	9249
925.709	9146
925.816	9062
925.924	9138
926.031	9203
926.138	9157
926.245	9157
926.352	8952
926.459	9169
926.566	9222
926.673	9081
926.779	9032
926.886	8960
926.993	8883
927.099	8792
927.206	8746
927.312	8758
927.419	8880
927.525	8800
927.631	8819
927.737	8804
927.843	8731
927.95	8610
928.056	8667
928.162	8762
928.267	8792
928.373	9378
928.479	8754
928.585	8644
928.69	8716
928.796	8697
928.901	8629
929.007	8488
929.112	8659
929.218	8590
929.323	8579
929.428	8514
929.533	8697
929.638	8533
929.743	8533
929.848	8533
929.953	8530
930.058	8415
930.163	8259
930.267	8309
930.372	8480
930.477	8305
930.581	8530
930.685	8332
930.79	8290
930.894	8294
930.998	8252
931.103	8400
931.207	8073
931.311	7970
931.415	7947
931.519	7795
931.623	7765
