Data from test_V78500241_1974.txt Node
Date: Fri Mar 25 14:47:27 CST 2022
User: usil
Spectrometer: V785-0024
Trigger mode: 0
Integration Time (sec): 4.000000E-1
Scans to average: 1
Nonlinearity correction enabled: false
Boxcar width: 0
Storing dark spectrum: false
XAxis mode: Wavelengths
Number of Pixels in Spectrum: 1024
>>>>>Begin Spectral Data<<<<<
801.071	22139
801.214	21953
801.356	21713
801.499	21644
801.641	21515
801.783	21526
801.926	21538
802.068	21370
802.211	21260
802.353	21195
802.496	21020
802.638	20921
802.78	20941
802.923	20887
803.065	20716
803.208	20815
803.35	20750
803.492	20788
803.635	20994
803.777	20667
803.919	20883
804.061	21032
804.204	20830
804.346	20777
804.488	20564
804.63	20735
804.773	20552
804.915	20697
805.057	20838
805.199	20705
805.341	20754
805.483	20811
805.626	20914
805.768	20575
805.91	20765
806.052	20693
806.194	20659
806.336	20815
806.478	20712
806.62	20708
806.762	20663
806.904	20918
807.046	21066
807.188	21036
807.33	20975
807.472	21146
807.614	21043
807.756	20941
807.898	20845
808.04	20781
808.182	20644
808.324	20830
808.465	20838
808.607	20861
808.749	21081
808.891	21275
809.033	21207
809.174	21237
809.316	21047
809.458	21138
809.6	20933
809.741	21146
809.883	21264
810.025	21317
810.166	21359
810.308	21226
810.45	21173
810.591	21062
810.733	20948
810.875	20960
811.016	20765
811.158	20842
811.299	20849
811.441	21036
811.582	20956
811.724	20815
811.865	20712
812.007	20792
812.148	20849
812.29	20746
812.431	21093
812.573	21169
812.714	21138
812.855	21374
812.997	21317
813.138	21587
813.279	21450
813.421	21397
813.562	21302
813.703	21036
813.845	21116
813.986	20735
814.127	20613
814.268	20457
814.41	20473
814.551	20575
814.692	20393
814.833	20320
814.974	20317
815.115	20415
815.256	20294
815.397	20225
815.539	20237
815.68	20172
815.821	20161
815.962	20225
816.103	20126
816.244	19955
816.385	19803
816.526	19902
816.666	19738
816.807	19552
816.948	19670
817.089	19723
817.23	19674
817.371	19506
817.512	19674
817.653	19453
817.793	19533
817.934	19483
818.075	19510
818.216	19533
818.356	19529
818.497	19320
818.638	19255
818.778	19244
818.919	19225
819.06	19194
819.2	19331
819.341	19434
819.481	19480
819.622	19620
819.762	19799
819.903	19651
820.043	19639
820.184	19483
820.324	19529
820.465	19540
820.605	19628
820.746	19537
820.886	19285
821.026	19384
821.167	19460
821.307	19537
821.447	19518
821.588	19335
821.728	19232
821.868	19107
822.008	18844
822.149	19031
822.289	18817
822.429	18582
822.569	18616
822.709	18544
822.849	18399
822.99	18464
823.13	18388
823.27	18540
823.41	18220
823.55	18201
823.69	18224
823.83	18254
823.97	18224
824.11	18007
824.25	17961
824.389	18045
824.529	18079
824.669	18057
824.809	18136
824.949	18049
825.089	18064
825.228	18034
825.368	17805
825.508	17733
825.648	17741
825.787	17866
825.927	17866
826.067	17798
826.206	17695
826.346	17859
826.485	17817
826.625	17805
826.765	17878
826.904	17794
827.044	17577
827.183	17459
827.323	17425
827.462	17493
827.601	17436
827.741	17414
827.88	17440
828.02	17448
828.159	17535
828.298	17486
828.437	17486
828.577	17452
828.716	17585
828.855	17311
828.994	17258
829.134	17212
829.273	17227
829.412	17265
829.551	17113
829.69	17265
829.829	17212
829.968	17288
830.107	17250
830.246	17189
830.385	17162
830.524	17086
830.663	17090
830.802	16980
830.941	16927
831.08	16839
831.219	16881
831.357	16923
831.496	17170
831.635	16809
831.774	16736
831.913	16653
832.051	16698
832.19	16603
832.329	16740
832.467	16599
832.606	16531
832.744	16512
832.883	16500
833.022	16485
833.16	16679
833.299	16656
833.437	16702
833.576	16588
833.714	16630
833.852	16603
833.991	16645
834.129	16679
834.267	16561
834.406	16683
834.544	16622
834.682	16645
834.821	16558
834.959	16656
835.097	16588
835.235	16656
835.373	16588
835.511	16550
835.65	16512
835.788	16550
835.926	16382
836.064	16268
836.202	16402
836.34	16462
836.478	16645
836.615	16485
836.753	16481
836.891	16641
837.029	16512
837.167	16531
837.305	16424
837.443	16386
837.58	16363
837.718	16489
837.856	16447
837.993	16276
838.131	16272
838.269	16299
838.406	16428
838.544	16280
838.681	16067
838.819	16071
838.956	15930
839.094	15903
839.231	15903
839.369	15998
839.506	16272
839.643	16143
839.781	15964
839.918	15915
840.055	15972
840.193	15983
840.33	15945
840.467	15888
840.604	15797
840.742	16093
840.879	15873
841.016	15819
841.153	15838
841.29	15975
841.427	15953
841.564	15941
841.701	16010
841.838	16017
841.975	15835
842.112	15865
842.249	15743
842.385	15671
842.522	15915
842.659	15762
842.796	15819
842.933	15629
843.069	15679
843.206	15679
843.343	15850
843.479	15755
843.616	15656
843.752	15496
843.889	15587
844.025	15720
844.162	15530
844.298	15591
844.435	15496
844.571	15428
844.708	15545
844.844	15694
844.98	15682
845.117	15656
845.253	15462
845.389	15439
845.525	15519
845.661	15428
845.798	15283
845.934	15382
846.07	15249
846.206	15374
846.342	15393
846.478	15241
846.614	15150
846.75	15051
846.886	15146
847.022	15173
847.158	15039
847.294	15074
847.429	15066
847.565	15066
847.701	15317
847.837	14864
847.972	14682
848.108	14887
848.244	14872
848.379	14739
848.515	14686
848.65	14648
848.786	14663
848.921	14678
849.057	14682
849.192	14739
849.328	14731
849.463	14720
849.598	14560
849.734	14640
849.869	14590
850.004	14431
850.14	14434
850.275	14408
850.41	14438
850.545	14381
850.68	14473
850.815	14431
850.95	14370
851.085	14579
851.22	14594
851.355	14351
851.49	14450
851.625	14461
851.76	14438
851.895	14408
852.03	14328
852.165	14423
852.299	14549
852.434	14473
852.569	14465
852.703	14412
852.838	14568
852.973	14549
853.107	14530
853.242	14434
853.376	14324
853.511	14187
853.645	14263
853.78	14396
853.914	14320
854.048	14237
854.183	14248
854.317	14385
854.451	14552
854.585	14290
854.72	14271
854.854	14434
854.988	14286
855.122	14187
855.256	14191
855.39	14278
855.524	14476
855.658	14370
855.792	14408
855.926	14370
856.06	14434
856.194	14408
856.327	14298
856.461	14210
856.595	14282
856.729	14404
856.862	14465
856.996	14351
857.13	14408
857.263	14431
857.397	14374
857.53	14336
857.664	14469
857.797	14518
857.931	14431
858.064	14328
858.197	14419
858.331	14431
858.464	14313
858.597	14252
858.731	14214
858.864	14339
858.997	14271
859.13	14499
859.263	14427
859.396	14450
859.529	14343
859.662	14332
859.795	14396
859.928	14366
860.061	14533
860.194	14537
860.327	14389
860.46	14343
860.592	14393
860.725	14530
860.858	14415
860.99	14366
861.123	14294
861.256	14271
861.388	14377
861.521	15112
861.653	14218
861.786	14180
861.918	14282
862.05	14362
862.183	14259
862.315	14248
862.447	14385
862.58	14332
862.712	14161
862.844	14092
862.976	14199
863.108	14244
863.24	14434
863.372	14016
863.504	14153
863.636	14145
863.768	14248
863.9	14126
864.032	14123
864.164	14115
864.296	14240
864.428	14263
864.559	14202
864.691	14214
864.823	14176
864.954	14256
865.086	14172
865.217	14008
865.349	14088
865.48	14065
865.612	14134
865.743	14313
865.875	14142
866.006	14103
866.137	14126
866.269	14130
866.4	14145
866.531	14115
866.662	14107
866.793	14100
866.924	14024
867.055	14153
867.186	14027
867.317	14073
867.448	14054
867.579	14054
867.71	14012
867.841	14069
867.972	14130
868.103	14096
868.233	14115
868.364	14100
868.495	14145
868.625	14362
868.756	14450
868.886	14309
869.017	14351
869.147	14484
869.278	14518
869.408	14320
869.539	14339
869.669	14465
869.799	14408
869.929	14457
870.06	14480
870.19	14716
870.32	14655
870.45	14697
870.58	14765
870.71	14914
870.84	14792
870.97	14739
871.1	14781
871.23	14967
871.36	14910
871.489	14773
871.619	14788
871.749	14979
871.879	15001
872.008	15020
872.138	14872
872.267	14929
872.397	14777
872.526	14811
872.656	14750
872.785	14826
872.915	15066
873.044	15081
873.173	14960
873.303	15051
873.432	15074
873.561	15173
873.69	14937
873.819	15032
873.948	15135
874.077	15097
874.206	15066
874.335	15036
874.464	15119
874.593	15374
874.722	15233
874.851	15329
874.979	15336
875.108	15329
875.237	15272
875.365	15310
875.494	15332
875.623	15382
875.751	15370
875.88	15363
876.008	15469
876.136	15625
876.265	15759
876.393	16021
876.521	15739
876.65	15854
876.778	15781
876.906	15679
877.034	15671
877.162	15679
877.29	15679
877.418	15732
877.546	15766
877.674	15667
877.802	15671
877.93	15778
878.058	15694
878.185	15599
878.313	15751
878.441	15751
878.568	15542
878.696	15709
878.824	15686
878.951	15785
879.079	15869
879.206	15994
879.333	15934
879.461	15861
879.588	15861
879.715	15903
879.842	16082
879.97	15816
880.097	15507
880.224	15584
880.351	15633
880.478	15625
880.605	15473
880.732	15610
880.859	15850
880.986	15682
881.112	15603
881.239	15511
881.366	15325
881.493	15310
881.619	15237
881.746	15256
881.872	15363
881.999	15306
882.125	15199
882.252	15222
882.378	15207
882.505	15401
882.631	15173
882.757	15157
882.883	15199
883.01	15097
883.136	14948
883.262	14883
883.388	14941
883.514	15058
883.64	15104
883.766	14971
883.892	14918
884.018	14929
884.143	15127
884.269	15081
884.395	14826
884.52	14804
884.646	14762
884.772	14765
884.897	14708
885.023	14754
885.148	14773
885.274	14914
885.399	14868
885.524	14689
885.65	14743
885.775	14765
885.9	14811
886.025	14925
886.15	14830
886.275	14693
886.4	14629
886.525	14716
886.65	14727
886.775	14670
886.9	14823
887.025	14971
887.149	14830
887.274	14617
887.399	14503
887.523	14518
887.648	14476
887.773	14492
887.897	14663
888.021	14651
888.146	14560
888.27	14670
888.395	14727
888.519	14651
888.643	14648
888.767	14697
888.891	14450
889.015	14450
889.139	14415
889.263	14419
889.387	14556
889.511	14644
889.635	14674
889.759	14400
889.883	14431
890.006	14469
890.13	14514
890.254	14396
890.377	14434
890.501	14233
890.624	14324
890.748	14301
890.871	14263
890.995	14069
891.118	14012
891.241	14138
891.364	14115
891.488	14271
891.611	14107
891.734	14084
891.857	14336
891.98	14237
892.103	14237
892.226	14142
892.349	14130
892.471	13932
892.594	14168
892.717	14191
892.839	14172
892.962	14111
893.085	14237
893.207	14107
893.33	14054
893.452	14077
893.575	14176
893.697	14138
893.819	14317
893.941	14339
894.064	14290
894.186	14035
894.308	14130
894.43	14271
894.552	14393
894.674	14305
894.796	14142
894.918	14199
895.04	14187
895.161	14324
895.283	14240
895.405	14084
895.526	14309
895.648	14313
895.769	14339
895.891	14320
896.012	14351
896.134	14412
896.255	14271
896.376	14221
896.498	14301
896.619	14408
896.74	14370
896.861	14469
896.982	14697
897.103	14796
897.224	14693
897.345	14552
897.466	14499
897.587	14617
897.708	14716
897.828	14587
897.949	14541
898.07	14434
898.19	14659
898.311	14716
898.431	14541
898.552	14655
898.672	14701
898.792	14712
898.913	14739
899.033	14556
899.153	14492
899.273	14377
899.393	14545
899.513	14457
899.633	14484
899.753	14514
899.873	14484
899.993	14552
900.113	14469
900.232	14587
900.352	14473
900.472	14404
900.591	14267
900.711	14412
900.83	14343
900.95	14423
901.069	14450
901.189	14210
901.308	14100
901.427	14039
901.546	14054
901.665	14077
901.784	14065
901.904	14024
902.023	13913
902.141	13677
902.26	13605
902.379	13780
902.498	13571
902.617	13460
902.735	13791
902.854	13647
902.973	13582
903.091	13396
903.21	13346
903.328	13308
903.446	13209
903.565	13263
903.683	13217
903.801	13107
903.919	13202
904.038	13221
904.156	12985
904.274	13160
904.392	12993
904.51	12981
904.627	13072
904.745	13027
904.863	13069
904.981	12776
905.098	12688
905.216	12700
905.334	12848
905.451	12715
905.569	12612
905.686	12730
905.803	12776
905.921	12616
906.038	12650
906.155	12483
906.272	12403
906.389	12433
906.506	12311
906.623	12334
906.74	12323
906.857	12194
906.974	12136
907.091	12437
907.208	12464
907.324	12327
907.441	12266
907.557	12076
907.674	11958
907.79	11851
907.907	11897
908.023	12136
908.139	12083
908.256	12095
908.372	11923
908.488	11950
908.604	11737
908.72	11832
908.836	11771
908.952	11771
909.068	11893
909.184	11889
909.3	11783
909.415	11836
909.531	11832
909.647	11676
909.762	11596
909.878	11585
909.993	11570
910.108	11524
910.224	11486
910.339	11604
910.454	11482
910.57	11402
910.685	11406
910.8	11619
910.915	11528
911.03	11490
911.145	11334
911.259	11315
911.374	11292
911.489	11204
911.604	11117
911.718	10957
911.833	11056
911.947	10938
912.062	10858
912.176	11006
912.291	11083
912.405	11022
912.519	11162
912.633	11189
912.748	11083
912.862	11071
912.976	10961
913.09	10797
913.204	10831
913.318	10942
913.431	10984
913.545	10953
913.659	11041
913.772	10919
913.886	10778
914	10736
914.113	10892
914.226	10885
914.34	10828
914.453	10649
914.566	10885
914.68	10782
914.793	10725
914.906	10592
915.019	10459
915.132	10390
915.245	10497
915.358	10512
915.47	10523
915.583	10603
915.696	10538
915.809	10694
915.921	10653
916.034	10535
916.146	10504
916.259	10417
916.371	10542
916.483	10538
916.595	10459
916.708	10519
916.82	10436
916.932	10394
917.044	10394
917.156	10535
917.268	10306
917.38	10318
917.491	10257
917.603	10402
917.715	10535
917.826	10489
917.938	10379
918.049	10295
918.161	10348
918.272	10466
918.384	10550
918.495	10356
918.606	10299
918.717	10185
918.828	10185
918.939	10207
919.05	10124
919.161	10265
919.272	10071
919.383	10093
919.494	10268
919.604	10466
919.715	10299
919.826	10192
919.936	10215
920.047	10284
920.157	10303
920.267	10500
920.378	10337
920.488	10204
920.598	10428
920.708	10656
920.818	10428
920.928	10527
921.038	10573
921.148	10565
921.258	10322
921.368	10192
921.477	10158
921.587	10131
921.697	10010
921.806	10109
921.916	9972
922.025	9854
922.134	9911
922.244	9705
922.353	9846
922.462	9759
922.571	9633
922.68	9580
922.789	9500
922.898	9481
923.007	9477
923.116	9561
923.224	9504
923.333	9507
923.442	9462
923.55	9340
923.659	9416
923.767	9477
923.876	9393
923.984	9530
924.092	9340
924.201	9416
924.309	9336
924.417	9386
924.525	9325
924.633	9363
924.741	10325
924.849	9127
924.956	9332
925.064	9199
925.172	9165
925.279	9146
925.387	9192
925.494	9214
925.602	9291
925.709	9275
925.816	9081
925.924	9192
926.031	9302
926.138	9214
926.245	9230
926.352	9104
926.459	9256
926.566	9321
926.673	9131
926.779	9001
926.886	9039
926.993	8918
927.099	8941
927.206	8914
927.312	8868
927.419	8906
927.525	8914
927.631	8986
927.737	8857
927.843	8769
927.95	8590
928.056	8762
928.162	8815
928.267	8819
928.373	9447
928.479	8914
928.585	8708
928.69	8777
928.796	8861
928.901	8746
929.007	8549
929.112	8655
929.218	8651
929.323	8629
929.428	8667
929.533	8743
929.638	8598
929.743	8636
929.848	8621
929.953	8621
930.058	8503
930.163	8396
930.267	8400
930.372	8552
930.477	8358
930.581	8602
930.685	8438
930.79	8294
930.894	8389
930.998	8336
931.103	8427
931.207	8107
931.311	8092
931.415	7955
931.519	7799
931.623	7818
