Data from test_V78500241_831.txt Node
Date: Fri Mar 25 14:39:30 CST 2022
User: usil
Spectrometer: V785-0024
Trigger mode: 0
Integration Time (sec): 4.000000E-1
Scans to average: 1
Nonlinearity correction enabled: false
Boxcar width: 0
Storing dark spectrum: false
XAxis mode: Wavelengths
Number of Pixels in Spectrum: 1024
>>>>>Begin Spectral Data<<<<<
801.071	26138
801.214	26027
801.356	25738
801.499	25647
801.641	25426
801.783	25441
801.926	25495
802.068	25400
802.211	25183
802.353	25160
802.496	25050
802.638	24996
802.78	25004
802.923	24935
803.065	24726
803.208	24939
803.35	24954
803.492	25004
803.635	24977
803.777	24932
803.919	25023
804.061	25308
804.204	25050
804.346	25046
804.488	25019
804.63	24951
804.773	25019
804.915	25031
805.057	25327
805.199	25225
805.341	25278
805.483	25495
805.626	25491
805.768	25251
805.91	25460
806.052	25731
806.194	25605
806.336	25997
806.478	25940
806.62	25963
806.762	26366
806.904	26602
807.046	26918
807.188	27051
807.33	27287
807.472	27873
807.614	28055
807.756	28763
807.898	29539
808.04	30338
808.182	31727
808.324	33504
808.465	35444
808.607	37647
808.749	39386
808.891	40409
809.033	40557
809.174	39606
809.316	37544
809.458	35356
809.6	33150
809.741	31426
809.883	29946
810.025	29223
810.166	28538
810.308	27998
810.45	27599
810.591	27245
810.733	26826
810.875	26431
811.016	26161
811.158	26202
811.299	26202
811.441	26145
811.582	25871
811.724	25791
811.865	25643
812.007	25643
812.148	25597
812.29	25594
812.431	25670
812.573	25791
812.714	25856
812.855	25833
812.997	26027
813.138	26119
813.279	26020
813.421	25849
813.562	25689
813.703	25620
813.845	25369
813.986	25133
814.127	24973
814.268	24859
814.41	24783
814.551	24661
814.692	24768
814.833	24654
814.974	24654
815.115	24608
815.256	24471
815.397	24289
815.539	24486
815.68	24441
815.821	24323
815.962	24315
816.103	24357
816.244	24224
816.385	23984
816.526	23942
816.666	23817
816.807	23691
816.948	23741
817.089	23775
817.23	23748
817.371	23554
817.512	23668
817.653	23570
817.793	23589
817.934	23512
818.075	23619
818.216	23695
818.356	23440
818.497	23429
818.638	23231
818.778	23410
818.919	23330
819.06	23395
819.2	23543
819.341	23448
819.481	23376
819.622	23589
819.762	23699
819.903	23710
820.043	23558
820.184	23665
820.324	23566
820.465	23577
820.605	23471
820.746	23433
820.886	23395
821.026	23497
821.167	23417
821.307	23505
821.447	23326
821.588	23254
821.728	23117
821.868	22942
822.008	22869
822.149	22839
822.289	22733
822.429	22508
822.569	22561
822.709	22455
822.849	22192
822.99	22147
823.13	22223
823.27	22112
823.41	22063
823.55	21953
823.69	22078
823.83	22082
823.97	21884
824.11	21797
824.25	21857
824.389	21895
824.529	21899
824.669	21793
824.809	21808
824.949	21975
825.089	21762
825.228	21812
825.368	21557
825.508	21606
825.648	21583
825.787	21614
825.927	21595
826.067	21606
826.206	21595
826.346	21629
826.485	21595
826.625	21625
826.765	21610
826.904	21595
827.044	21321
827.183	21199
827.323	21233
827.462	21226
827.601	21256
827.741	21344
827.88	21230
828.02	21055
828.159	21199
828.298	21131
828.437	21325
828.577	21218
828.716	21203
828.855	21233
828.994	20902
829.134	20910
829.273	20838
829.412	21077
829.551	20963
829.69	20979
829.829	20971
829.968	21055
830.107	20956
830.246	20872
830.385	20918
830.524	20735
830.663	20697
830.802	20632
830.941	20552
831.08	20446
831.219	20533
831.357	20522
831.496	20701
831.635	20488
831.774	20480
831.913	20324
832.051	20301
832.19	20457
832.329	20408
832.467	20320
832.606	20218
832.744	20320
832.883	20377
833.022	20362
833.16	20488
833.299	20575
833.437	20526
833.576	20663
833.714	20769
833.852	20861
833.991	21013
834.129	21058
834.267	21127
834.406	21009
834.544	20906
834.682	20838
834.821	20765
834.959	20701
835.097	20575
835.235	20598
835.373	20415
835.511	20488
835.65	20259
835.788	20370
835.926	20058
836.064	19955
836.202	19955
836.34	20103
836.478	20202
836.615	20024
836.753	20088
836.891	20115
837.029	20164
837.167	20088
837.305	19845
837.443	19925
837.58	19780
837.718	19883
837.856	19921
837.993	19837
838.131	19860
838.269	19723
838.406	19780
838.544	19685
838.681	19354
838.819	19502
838.956	19396
839.094	19377
839.231	19240
839.369	19464
839.506	19708
839.643	19597
839.781	19324
839.918	19251
840.055	19350
840.193	19232
840.33	19396
840.467	19194
840.604	19320
840.742	19537
840.879	19179
841.016	19244
841.153	19278
841.29	19438
841.427	19304
841.564	19244
841.701	19156
841.838	19278
841.975	19122
842.112	19152
842.249	19080
842.385	19031
842.522	19194
842.659	19012
842.796	19031
842.933	19099
843.069	18928
843.206	19095
843.343	19171
843.479	19126
843.616	19141
843.752	18989
843.889	19129
844.025	19259
844.162	19122
844.298	19293
844.435	19270
844.571	19346
844.708	19647
844.844	19795
844.98	20153
845.117	20480
845.253	21032
845.389	22173
845.525	24277
845.661	27991
845.798	32164
845.934	35809
846.07	37251
846.206	36517
846.342	33713
846.478	29307
846.614	25327
846.75	22668
846.886	21093
847.022	20259
847.158	19712
847.294	19320
847.429	19057
847.565	18886
847.701	19057
847.837	18555
847.972	18330
848.108	18353
848.244	18403
848.379	18125
848.515	18091
848.65	18095
848.786	18129
848.921	18098
849.057	18133
849.192	18030
849.328	17965
849.463	17939
849.598	17977
849.734	17828
849.869	17855
850.004	17798
850.14	17741
850.275	17726
850.41	17611
850.545	17672
850.68	17703
850.815	17714
850.95	17638
851.085	17885
851.22	17733
851.355	17699
851.49	17707
851.625	17623
851.76	17668
851.895	17676
852.03	17509
852.165	17710
852.299	17710
852.434	17710
852.569	17737
852.703	17745
852.838	17714
852.973	17889
853.107	17851
853.242	17748
853.376	17668
853.511	17535
853.645	17611
853.78	17874
853.914	17703
854.048	17661
854.183	17767
854.317	17726
854.451	17954
854.585	17630
854.72	17748
854.854	17828
854.988	17737
855.122	17703
855.256	17501
855.39	17634
855.524	17775
855.658	17703
855.792	17684
855.926	17539
856.06	17615
856.194	17726
856.327	17638
856.461	17478
856.595	17539
856.729	17554
856.862	17760
856.996	17448
857.13	17718
857.263	17680
857.397	17646
857.53	17493
857.664	17516
857.797	17543
857.931	17680
858.064	17474
858.197	17589
858.331	17341
858.464	17448
858.597	17440
858.731	17414
858.864	17433
858.997	17322
859.13	17444
859.263	17395
859.396	17577
859.529	17395
859.662	17425
859.795	17425
859.928	17414
860.061	17554
860.194	17566
860.327	17334
860.46	17433
860.592	17509
860.725	17528
860.858	17551
860.99	17353
861.123	17311
861.256	17372
861.388	17436
861.521	17954
861.653	17265
861.786	17216
861.918	17105
862.05	17318
862.183	17414
862.315	17395
862.447	17459
862.58	17337
862.712	17136
862.844	17102
862.976	17132
863.108	17185
863.24	17471
863.372	17064
863.504	17124
863.636	17121
863.768	17136
863.9	17166
864.032	16965
864.164	17033
864.296	17155
864.428	17197
864.559	17277
864.691	17189
864.823	17109
864.954	17109
865.086	17159
865.217	17052
865.349	16942
865.48	17162
865.612	17075
865.743	17079
865.875	17064
866.006	17067
866.137	17041
866.269	17025
866.4	16949
866.531	17037
866.662	16968
866.793	17010
866.924	16923
867.055	16999
867.186	17045
867.317	16938
867.448	16968
867.579	16968
867.71	16980
867.841	16877
867.972	16972
868.103	17006
868.233	17075
868.364	16965
868.495	16923
868.625	17250
868.756	17398
868.886	17143
869.017	17284
869.147	17360
869.278	17398
869.408	17261
869.539	17383
869.669	17376
869.799	17356
869.929	17318
870.06	17376
870.19	17687
870.32	17630
870.45	17619
870.58	17710
870.71	17737
870.84	17832
870.97	17699
871.1	17718
871.23	17912
871.36	17969
871.489	17847
871.619	17950
871.749	17855
871.879	18098
872.008	18068
872.138	17984
872.267	17946
872.397	17771
872.526	17714
872.656	17809
872.785	17805
872.915	17916
873.044	18114
873.173	18091
873.303	18140
873.432	18178
873.561	18163
873.69	18079
873.819	18098
873.948	18239
874.077	18190
874.206	18106
874.335	18076
874.464	18395
874.593	18483
874.722	18547
874.851	18528
874.979	18593
875.108	18597
875.237	18597
875.365	18597
875.494	18700
875.623	18726
875.751	18639
875.88	18825
876.008	18871
876.136	18916
876.265	19202
876.393	19400
876.521	19339
876.65	19388
876.778	19430
876.906	19350
877.034	19327
877.162	19533
877.29	19392
877.418	19445
877.546	19620
877.674	19746
877.802	19681
877.93	19852
878.058	19963
878.185	19997
878.313	20180
878.441	20556
878.568	20598
878.696	21036
878.824	21755
878.951	22394
879.079	23414
879.206	24700
879.333	26054
879.461	27218
879.588	27979
879.715	27922
879.842	27507
879.97	26035
880.097	24688
880.224	23516
880.351	22805
880.478	22257
880.605	21739
880.732	21633
880.859	21526
880.986	21169
881.112	21279
881.239	21074
881.366	20944
881.493	20845
881.619	20758
881.746	20948
881.872	20830
881.999	20804
882.125	20906
882.252	20967
882.378	20914
882.505	21169
882.631	20956
882.757	20724
882.883	20948
883.01	20762
883.136	20887
883.262	20636
883.388	20590
883.514	20697
883.64	20769
883.766	20731
883.892	20514
884.018	20549
884.143	20697
884.269	20720
884.395	20594
884.52	20446
884.646	20488
884.772	20404
884.897	20358
885.023	20465
885.148	20492
885.274	20480
885.399	20526
885.524	20278
885.65	20187
885.775	20084
885.9	20138
886.025	20027
886.15	19928
886.275	19681
886.4	19620
886.525	19506
886.65	19575
886.775	19449
886.9	19529
887.025	19537
887.149	19232
887.274	19046
887.399	18905
887.523	18943
887.648	18833
887.773	18688
887.897	18825
888.021	18760
888.146	18604
888.27	18890
888.395	18745
888.519	18627
888.643	18616
888.767	18521
888.891	18311
889.015	18292
889.139	18342
889.263	18163
889.387	18319
889.511	18376
889.635	18300
889.759	18167
889.883	18133
890.006	18102
890.13	18114
890.254	18041
890.377	17950
890.501	17866
890.624	17737
890.748	17783
890.871	17695
890.995	17634
891.118	17577
891.241	17562
891.364	17558
891.488	17566
891.611	17649
891.734	17516
891.857	17535
891.98	17505
892.103	17463
892.226	17410
892.349	17414
892.471	17299
892.594	17376
892.717	17318
892.839	17292
892.962	17364
893.085	17364
893.207	17235
893.33	17117
893.452	17060
893.575	17261
893.697	17079
893.819	17311
893.941	17395
894.064	17379
894.186	17029
894.308	17140
894.43	17170
894.552	17223
894.674	17185
894.796	17045
894.918	17048
895.04	16995
895.161	17143
895.283	17067
895.405	16927
895.526	17056
895.648	17003
895.769	17075
895.891	17079
896.012	17151
896.134	16984
896.255	17117
896.376	17018
896.498	17098
896.619	17064
896.74	17037
896.861	17181
896.982	17292
897.103	17353
897.224	17387
897.345	17136
897.466	17307
897.587	17296
897.708	17360
897.828	17258
897.949	17185
898.07	17090
898.19	17223
898.311	17334
898.431	17242
898.552	17216
898.672	17296
898.792	17261
898.913	17212
899.033	17094
899.153	16987
899.273	17037
899.393	16957
899.513	17136
899.633	17014
899.753	17064
899.873	16957
899.993	17151
900.113	16991
900.232	17064
900.352	17056
900.472	16866
900.591	16854
900.711	16873
900.83	16919
900.95	16961
901.069	16987
901.189	16835
901.308	16440
901.427	16516
901.546	16607
901.665	16497
901.784	16538
901.904	16386
902.023	16249
902.141	16055
902.26	16029
902.379	16120
902.498	16029
902.617	15895
902.735	15972
902.854	15880
902.973	15865
903.091	15701
903.21	15656
903.328	15599
903.446	15587
903.565	15477
903.683	15416
903.801	15412
903.919	15447
904.038	15466
904.156	15306
904.274	15306
904.392	15195
904.51	15211
904.627	15176
904.745	15291
904.863	15317
904.981	15055
905.098	14895
905.216	14804
905.334	14853
905.451	14815
905.569	14815
905.686	14906
905.803	14773
905.921	14758
906.038	14773
906.155	14655
906.272	14575
906.389	14579
906.506	14412
906.623	14431
906.74	14305
906.857	14259
906.974	14332
907.091	14366
907.208	14556
907.324	14377
907.441	14305
907.557	14145
907.674	14138
907.79	14046
907.907	14134
908.023	14119
908.139	14149
908.256	14077
908.372	13982
908.488	13970
908.604	13917
908.72	13807
908.836	13822
908.952	13784
909.068	13837
909.184	13944
909.3	13845
909.415	13845
909.531	13750
909.647	13628
909.762	13525
909.878	13552
909.993	13624
910.108	13586
910.224	13597
910.339	13563
910.454	13419
910.57	13301
910.685	13304
910.8	13689
910.915	13537
911.03	13403
911.145	13259
911.259	13209
911.374	13308
911.489	13141
911.604	13141
911.718	13038
911.833	13050
911.947	12837
912.062	12837
912.176	12939
912.291	12973
912.405	12970
912.519	12970
912.633	13206
912.748	13095
912.862	12913
912.976	12821
913.09	12711
913.204	12757
913.318	12821
913.431	12848
913.545	12947
913.659	12943
913.772	12806
913.886	12681
914	12650
914.113	12654
914.226	12776
914.34	12715
914.453	12593
914.566	12741
914.68	12658
914.793	12521
914.906	12422
915.019	12395
915.132	12365
915.245	12357
915.358	12334
915.47	12456
915.583	12342
915.696	12494
915.809	12551
915.921	12555
916.034	12414
916.146	12338
916.259	12353
916.371	12418
916.483	12452
916.595	12273
916.708	12273
916.82	12330
916.932	12334
917.044	12254
917.156	12186
917.268	12194
917.38	12144
917.491	12114
917.603	12121
917.715	12247
917.826	12243
917.938	12106
918.049	12076
918.161	12133
918.272	12304
918.384	12296
918.495	12125
918.606	11984
918.717	11935
918.828	11950
918.939	11984
919.05	11908
919.161	11935
919.272	11767
919.383	11707
919.494	11980
919.604	12159
919.715	11969
919.826	11840
919.936	11882
920.047	11973
920.157	12030
920.267	12136
920.378	11920
920.488	11912
920.598	12121
920.708	12194
920.818	12117
920.928	12110
921.038	12197
921.148	12213
921.258	11942
921.368	11843
921.477	11767
921.587	11699
921.697	11539
921.806	11802
921.916	11589
922.025	11383
922.134	11341
922.244	11417
922.353	11501
922.462	11345
922.571	11246
922.68	11079
922.789	10908
922.898	11037
923.007	10980
923.116	11128
923.224	11041
923.333	11006
923.442	10949
923.55	10850
923.659	10930
923.767	11010
923.876	10881
923.984	10991
924.092	10862
924.201	10900
924.309	10896
924.417	10881
924.525	10835
924.633	10889
924.741	11722
924.849	10622
924.956	10767
925.064	10660
925.172	10577
925.279	10649
925.387	10653
925.494	10504
925.602	10774
925.709	10714
925.816	10569
925.924	10607
926.031	10702
926.138	10569
926.245	10641
926.352	10527
926.459	10668
926.566	10687
926.673	10565
926.779	10428
926.886	10386
926.993	10295
927.099	10261
927.206	10215
927.312	10238
927.419	10329
927.525	10337
927.631	10287
927.737	10162
927.843	10192
927.95	9994
928.056	10105
928.162	10147
928.267	10188
928.373	10755
928.479	10173
928.585	9861
928.69	10177
928.796	10173
928.901	9964
929.007	9926
929.112	10055
929.218	10074
929.323	9895
929.428	9991
929.533	10010
929.638	9934
929.743	9865
929.848	9930
929.953	9930
930.058	9785
930.163	9644
930.267	9641
930.372	9873
930.477	9694
930.581	9922
930.685	9652
930.79	9656
930.894	9641
930.998	9606
931.103	9679
931.207	9363
931.311	9321
931.415	9279
931.519	9005
931.623	9066
