Data from test_V78500241_707.txt Node
Date: Fri Mar 25 14:38:38 CST 2022
User: usil
Spectrometer: V785-0024
Trigger mode: 0
Integration Time (sec): 4.000000E-1
Scans to average: 1
Nonlinearity correction enabled: false
Boxcar width: 0
Storing dark spectrum: false
XAxis mode: Wavelengths
Number of Pixels in Spectrum: 1024
>>>>>Begin Spectral Data<<<<<
801.071	27751
801.214	27519
801.356	27348
801.499	27325
801.641	27272
801.783	27081
801.926	27051
802.068	26902
802.211	26861
802.353	26853
802.496	26667
802.638	26651
802.78	26571
802.923	26526
803.065	26453
803.208	26526
803.35	26530
803.492	26583
803.635	26651
803.777	26629
803.919	26777
804.061	27119
804.204	26788
804.346	26731
804.488	26826
804.63	26864
804.773	26739
804.915	27047
805.057	27047
805.199	27112
805.341	27222
805.483	27272
805.626	27435
805.768	27283
805.91	27310
806.052	27679
806.194	27583
806.336	28040
806.478	28166
806.62	28234
806.762	28634
806.904	28946
807.046	29360
807.188	29661
807.33	30167
807.472	30738
807.614	31263
807.756	32366
807.898	33519
808.04	34892
808.182	36932
808.324	39660
808.465	42665
808.607	45876
808.749	48882
808.891	50800
809.033	50758
809.174	49198
809.316	46413
809.458	42909
809.6	39374
809.741	36525
809.883	34519
810.025	33001
810.166	31909
810.308	31190
810.45	30399
810.591	29923
810.733	29277
810.875	28824
811.016	28470
811.158	28295
811.299	28147
811.441	28192
811.582	28044
811.724	27797
811.865	27644
812.007	27622
812.148	27454
812.29	27447
812.431	27507
812.573	27545
812.714	27675
812.855	27580
812.997	27751
813.138	27869
813.279	27686
813.421	27519
813.562	27344
813.703	27275
813.845	27142
813.986	26629
814.127	26617
814.268	26442
814.41	26450
814.551	26465
814.692	26374
814.833	26183
814.974	26214
815.115	26275
815.256	26020
815.397	26027
815.539	26035
815.68	25868
815.821	25894
815.962	25955
816.103	25791
816.244	25677
816.385	25552
816.526	25464
816.666	25259
816.807	24989
816.948	25236
817.089	25301
817.23	25187
817.371	25152
817.512	25217
817.653	25076
817.793	24992
817.934	25069
818.075	25046
818.216	25141
818.356	25038
818.497	24966
818.638	24734
818.778	24722
818.919	24738
819.06	24745
819.2	24894
819.341	24996
819.481	24791
819.622	24977
819.762	25365
819.903	25221
820.043	25042
820.184	24951
820.324	25042
820.465	25000
820.605	24973
820.746	25004
820.886	24703
821.026	24882
821.167	24783
821.307	24886
821.447	24719
821.588	24578
821.728	24532
821.868	24292
822.008	24258
822.149	24102
822.289	24140
822.429	23908
822.569	23684
822.709	23863
822.849	23741
822.99	23737
823.13	23608
823.27	23554
823.41	23406
823.55	23292
823.69	23471
823.83	23490
823.97	23307
824.11	23166
824.25	23109
824.389	23197
824.529	23143
824.669	23178
824.809	23105
824.949	23235
825.089	23151
825.228	23185
825.368	23044
825.508	23060
825.648	22934
825.787	22999
825.927	23048
826.067	22866
826.206	22809
826.346	23006
826.485	22908
826.625	22847
826.765	22965
826.904	22896
827.044	22710
827.183	22599
827.323	22611
827.462	22679
827.601	22618
827.741	22542
827.88	22634
828.02	22478
828.159	22584
828.298	22630
828.437	22561
828.577	22440
828.716	22611
828.855	22417
828.994	22382
829.134	22226
829.273	22303
829.412	22124
829.551	22200
829.69	22276
829.829	22280
829.968	22219
830.107	22234
830.246	22268
830.385	22246
830.524	22139
830.663	22013
830.802	22036
830.941	21911
831.08	21762
831.219	21865
831.357	21907
831.496	22086
831.635	21930
831.774	21751
831.913	21800
832.051	21724
832.19	21637
832.329	21770
832.467	21633
832.606	21637
832.744	21553
832.883	21808
833.022	21835
833.16	21930
833.299	22059
833.437	22162
833.576	22272
833.714	22447
833.852	22683
833.991	22725
834.129	22866
834.267	22934
834.406	22748
834.544	22694
834.682	22611
834.821	22455
834.959	22440
835.097	22150
835.235	22124
835.373	22010
835.511	21937
835.65	21831
835.788	21679
835.926	21496
836.064	21401
836.202	21317
836.34	21447
836.478	21545
836.615	21481
836.753	21291
836.891	21412
837.029	21462
837.167	21336
837.305	21272
837.443	21298
837.58	21241
837.718	21112
837.856	21188
837.993	21127
838.131	21154
838.269	21161
838.406	21089
838.544	21055
838.681	20796
838.819	20861
838.956	20613
839.094	20678
839.231	20667
839.369	20849
839.506	21119
839.643	20895
839.781	20667
839.918	20617
840.055	20651
840.193	20549
840.33	20556
840.467	20663
840.604	20503
840.742	20777
840.879	20473
841.016	20549
841.153	20454
841.29	20708
841.427	20537
841.564	20579
841.701	20617
841.838	20587
841.975	20503
842.112	20473
842.249	20431
842.385	20465
842.522	20537
842.659	20476
842.796	20438
842.933	20465
843.069	20526
843.206	20415
843.343	20651
843.479	20590
843.616	20488
843.752	20434
843.889	20522
844.025	20682
844.162	20438
844.298	20686
844.435	20857
844.571	20914
844.708	21458
844.844	21785
844.98	22169
845.117	22858
845.253	23737
845.389	25597
845.525	29490
845.661	35254
845.798	42190
845.934	47223
846.07	49160
846.206	47748
846.342	42901
846.478	35786
846.614	30114
846.75	26168
846.886	23946
847.022	22653
847.158	21591
847.294	21112
847.429	20754
847.565	20541
847.701	20396
847.837	20012
847.972	19791
848.108	19826
848.244	19784
848.379	19480
848.515	19510
848.65	19476
848.786	19419
848.921	19476
849.057	19426
849.192	19438
849.328	19350
849.463	19419
849.598	19168
849.734	19209
849.869	19171
850.004	19084
850.14	19065
850.275	18993
850.41	18947
850.545	18928
850.68	18935
850.815	18993
850.95	19012
851.085	19225
851.22	19145
851.355	19027
851.49	18970
851.625	18966
851.76	18951
851.895	18829
852.03	18875
852.165	18916
852.299	19099
852.434	19034
852.569	19095
852.703	19126
852.838	19122
852.973	19217
853.107	19221
853.242	19164
853.376	19171
853.511	18871
853.645	19122
853.78	19225
853.914	19168
854.048	19285
854.183	19171
854.317	19282
854.451	19411
854.585	19301
854.72	19171
854.854	19126
854.988	19091
855.122	19084
855.256	18928
855.39	19004
855.524	19175
855.658	19114
855.792	18985
855.926	18962
856.06	18943
856.194	18890
856.327	18700
856.461	18734
856.595	18821
856.729	18753
856.862	18882
856.996	18795
857.13	18806
857.263	18901
857.397	18779
857.53	18768
857.664	18859
857.797	18833
857.931	18947
858.064	18821
858.197	18810
858.331	18688
858.464	18608
858.597	18665
858.731	18661
858.864	18703
858.997	18707
859.13	18661
859.263	18684
859.396	18711
859.529	18540
859.662	18673
859.795	18684
859.928	18639
860.061	18707
860.194	18757
860.327	18631
860.46	18517
860.592	18734
860.725	18745
860.858	18859
860.99	18536
861.123	18475
861.256	18578
861.388	18730
861.521	19282
861.653	18388
861.786	18475
861.918	18429
862.05	18456
862.183	18506
862.315	18570
862.447	18688
862.58	18528
862.712	18479
862.844	18277
862.976	18365
863.108	18460
863.24	18616
863.372	18266
863.504	18315
863.636	18304
863.768	18330
863.9	18330
864.032	18136
864.164	18270
864.296	18353
864.428	18380
864.559	18292
864.691	18323
864.823	18224
864.954	18304
865.086	18228
865.217	18197
865.349	18163
865.48	18270
865.612	18273
865.743	18308
865.875	18220
866.006	18148
866.137	18152
866.269	18148
866.4	18182
866.531	18091
866.662	18072
866.793	18117
866.924	18277
867.055	18068
867.186	18197
867.317	18095
867.448	18129
867.579	18197
867.71	18102
867.841	18144
867.972	18171
868.103	18220
868.233	18247
868.364	18289
868.495	18304
868.625	18414
868.756	18563
868.886	18403
869.017	18395
869.147	18536
869.278	18528
869.408	18525
869.539	18448
869.669	18665
869.799	18513
869.929	18703
870.06	18646
870.19	18863
870.32	18878
870.45	18764
870.58	18859
870.71	19031
870.84	18973
870.97	18924
871.1	18958
871.23	19069
871.36	19156
871.489	19076
871.619	19133
871.749	19171
871.879	19225
872.008	19266
872.138	19225
872.267	19198
872.397	19179
872.526	19061
872.656	19137
872.785	19137
872.915	19282
873.044	19365
873.173	19316
873.303	19487
873.432	19464
873.561	19586
873.69	19480
873.819	19449
873.948	19468
874.077	19502
874.206	19472
874.335	19647
874.464	19761
874.593	19822
874.722	19738
874.851	19940
874.979	20043
875.108	20027
875.237	20103
875.365	20020
875.494	20005
875.623	20134
875.751	20164
875.88	20343
876.008	20446
876.136	20598
876.265	20727
876.393	20880
876.521	21036
876.65	21001
876.778	21051
876.906	20963
877.034	21093
877.162	20960
877.29	21188
877.418	21393
877.546	21359
877.674	21504
877.802	21614
877.93	21698
878.058	21915
878.185	21979
878.313	22405
878.441	22752
878.568	23018
878.696	23535
878.824	24479
878.951	25639
879.079	27131
879.206	29303
879.333	31362
879.461	33146
879.588	34253
879.715	34188
879.842	33283
879.97	31540
880.097	29216
880.224	27542
880.351	26385
880.478	25594
880.605	24867
880.732	24574
880.859	24467
880.986	24114
881.112	24003
881.239	23824
881.366	23642
881.493	23615
881.619	23611
881.746	23608
881.872	23623
881.999	23619
882.125	23665
882.252	23901
882.378	23863
882.505	23824
882.631	23707
882.757	23680
882.883	23775
883.01	23676
883.136	23596
883.262	23406
883.388	23433
883.514	23581
883.64	23539
883.766	23455
883.892	23311
884.018	23265
884.143	23459
884.269	23623
884.395	23471
884.52	23353
884.646	23421
884.772	23220
884.897	23356
885.023	23299
885.148	23398
885.274	23185
885.399	23250
885.524	22991
885.65	22984
885.775	22866
885.9	22687
886.025	22656
886.15	22508
886.275	22291
886.4	22048
886.525	21930
886.65	21907
886.775	21629
886.9	21606
887.025	21724
887.149	21397
887.274	21165
887.399	21081
887.523	21005
887.648	20857
887.773	20640
887.897	20804
888.021	20731
888.146	20537
888.27	20629
888.395	20484
888.519	20415
888.643	20347
888.767	20431
888.891	20237
889.015	20111
889.139	20138
889.263	20008
889.387	20138
889.511	20199
889.635	20073
889.759	19776
889.883	19708
890.006	19799
890.13	19879
890.254	19814
890.377	19677
890.501	19358
890.624	19354
890.748	19468
890.871	19266
890.995	19152
891.118	19114
891.241	19141
891.364	19088
891.488	19141
891.611	19034
891.734	18977
891.857	19080
891.98	19031
892.103	19046
892.226	18973
892.349	18776
892.471	18711
892.594	18741
892.717	18711
892.839	18692
892.962	18673
893.085	18669
893.207	18673
893.33	18570
893.452	18460
893.575	18551
893.697	18479
893.819	18684
893.941	18707
894.064	18627
894.186	18346
894.308	18311
894.43	18353
894.552	18544
894.674	18418
894.796	18285
894.918	18251
895.04	18300
895.161	18399
895.283	18300
895.405	18270
895.526	18235
895.648	18129
895.769	18148
895.891	18148
896.012	18235
896.134	18277
896.255	18140
896.376	18213
896.498	18167
896.619	18159
896.74	18190
896.861	18167
896.982	18441
897.103	18631
897.224	18369
897.345	18350
897.466	18140
897.587	18338
897.708	18361
897.828	18422
897.949	18224
898.07	18106
898.19	18205
898.311	18338
898.431	18315
898.552	18292
898.672	18357
898.792	18376
898.913	18304
899.033	18235
899.153	18076
899.273	18076
899.393	18030
899.513	18201
899.633	18106
899.753	18079
899.873	18079
899.993	18133
900.113	18038
900.232	18133
900.352	18133
900.472	17980
900.591	17745
900.711	17843
900.83	17794
900.95	17916
901.069	17912
901.189	17589
901.308	17482
901.427	17444
901.546	17433
901.665	17478
901.784	17414
901.904	17292
902.023	17147
902.141	16976
902.26	16923
902.379	16965
902.498	16869
902.617	16843
902.735	16869
902.854	16740
902.973	16896
903.091	16565
903.21	16535
903.328	16447
903.446	16440
903.565	16325
903.683	16394
903.801	16200
903.919	16329
904.038	16276
904.156	16116
904.274	16150
904.392	16036
904.51	16112
904.627	16074
904.745	16169
904.863	16032
904.981	15800
905.098	15663
905.216	15713
905.334	15762
905.451	15686
905.569	15614
905.686	15797
905.803	15682
905.921	15553
906.038	15595
906.155	15530
906.272	15420
906.389	15408
906.506	15256
906.623	15264
906.74	15180
906.857	15009
906.974	15127
907.091	15279
907.208	15355
907.324	15214
907.441	15146
907.557	14948
907.674	14975
907.79	14899
907.907	15001
908.023	14971
908.139	14921
908.256	14880
908.372	14864
908.488	14826
908.604	14773
908.72	14648
908.836	14644
908.952	14674
909.068	14678
909.184	14708
909.3	14674
909.415	14625
909.531	14712
909.647	14476
909.762	14313
909.878	14400
909.993	14427
910.108	14358
910.224	14347
910.339	14233
910.454	14240
910.57	14103
910.685	14115
910.8	14469
910.915	14389
911.03	14145
911.145	14024
911.259	14043
911.374	13917
911.489	14016
911.604	13875
911.718	13765
911.833	13780
911.947	13708
912.062	13582
912.176	13734
912.291	13712
912.405	13746
912.519	13932
912.633	13925
912.748	13788
912.862	13765
912.976	13529
913.09	13422
913.204	13578
913.318	13605
913.431	13636
913.545	13624
913.659	13788
913.772	13605
913.886	13487
914	13441
914.113	13632
914.226	13518
914.34	13544
914.453	13343
914.566	13578
914.68	13362
914.793	13240
914.906	13171
915.019	13145
915.132	13122
915.245	13114
915.358	13145
915.47	13198
915.583	13202
915.696	13236
915.809	13255
915.921	13278
916.034	13107
916.146	13027
916.259	13053
916.371	13160
916.483	13206
916.595	13080
916.708	13236
916.82	13179
916.932	13091
917.044	13095
917.156	13023
917.268	12924
917.38	12943
917.491	12833
917.603	12932
917.715	12932
917.826	12951
917.938	12848
918.049	12753
918.161	12837
918.272	12970
918.384	13000
918.495	12768
918.606	12662
918.717	12623
918.828	12627
918.939	12703
919.05	12578
919.161	12559
919.272	12445
919.383	12525
919.494	12631
919.604	12814
919.715	12646
919.826	12604
919.936	12555
920.047	12734
920.157	12650
920.267	12821
920.378	12650
920.488	12544
920.598	12711
920.708	12894
920.818	12772
920.928	12738
921.038	12973
921.148	12863
921.258	12593
921.368	12559
921.477	12388
921.587	12418
921.697	12258
921.806	12445
921.916	12300
922.025	12178
922.134	11923
922.244	12007
922.353	12095
922.462	11950
922.571	11847
922.68	11684
922.789	11668
922.898	11653
923.007	11661
923.116	11726
923.224	11608
923.333	11699
923.442	11577
923.55	11433
923.659	11528
923.767	11657
923.876	11497
923.984	11611
924.092	11474
924.201	11589
924.309	11452
924.417	11448
924.525	11455
924.633	11444
924.741	12346
924.849	11208
924.956	11414
925.064	11258
925.172	11136
925.279	11201
925.387	11223
925.494	11178
925.602	11356
925.709	11181
925.816	11132
925.924	11197
926.031	11341
926.138	11204
926.245	11166
926.352	11064
926.459	11223
926.566	11265
926.673	11124
926.779	10953
926.886	11029
926.993	10805
927.099	10835
927.206	10786
927.312	10885
927.419	10782
927.525	10831
927.631	10824
927.737	10763
927.843	10717
927.95	10584
928.056	10618
928.162	10645
928.267	10767
928.373	11315
928.479	10790
928.585	10618
928.69	10634
928.796	10641
928.901	10630
929.007	10443
929.112	10626
929.218	10565
929.323	10500
929.428	10478
929.533	10588
929.638	10398
929.743	10424
929.848	10459
929.953	10481
930.058	10310
930.163	10238
930.267	10185
930.372	10443
930.477	10169
930.581	10402
930.685	10242
930.79	10082
930.894	10143
930.998	10120
931.103	10207
931.207	9873
931.311	9778
931.415	9736
931.519	9507
931.623	9515
