Data from test_V78500241_2789.txt Node
Date: Fri Mar 25 14:53:08 CST 2022
User: usil
Spectrometer: V785-0024
Trigger mode: 0
Integration Time (sec): 4.000000E-1
Scans to average: 1
Nonlinearity correction enabled: false
Boxcar width: 0
Storing dark spectrum: false
XAxis mode: Wavelengths
Number of Pixels in Spectrum: 1024
>>>>>Begin Spectral Data<<<<<
801.071	22131
801.214	21960
801.356	21667
801.499	21663
801.641	21450
801.783	21454
801.926	21458
802.068	21367
802.211	21359
802.353	21104
802.496	21009
802.638	20842
802.78	20990
802.923	20823
803.065	20765
803.208	20720
803.35	20811
803.492	20777
803.635	20857
803.777	20632
803.919	20792
804.061	21058
804.204	20834
804.346	20739
804.488	20545
804.63	20826
804.773	20499
804.915	20686
805.057	20746
805.199	20499
805.341	20743
805.483	20796
805.626	20693
805.768	20648
805.91	20689
806.052	20571
806.194	20495
806.336	20792
806.478	20499
806.62	20537
806.762	20602
806.904	20811
807.046	20975
807.188	21005
807.33	20998
807.472	20998
807.614	20887
807.756	20823
807.898	20693
808.04	20651
808.182	20701
808.324	20693
808.465	20815
808.607	20834
808.749	21028
808.891	21093
809.033	21195
809.174	21081
809.316	20979
809.458	21116
809.6	21108
809.741	21024
809.883	21032
810.025	21241
810.166	21207
810.308	21119
810.45	21211
810.591	21112
810.733	20815
810.875	20819
811.016	20777
811.158	20670
811.299	20845
811.441	20895
811.582	20952
811.724	20769
811.865	20727
812.007	20819
812.148	20724
812.29	20800
812.431	20845
812.573	21043
812.714	21188
812.855	21306
812.997	21370
813.138	21485
813.279	21458
813.421	21359
813.562	21321
813.703	21058
813.845	20861
813.986	20629
814.127	20621
814.268	20377
814.41	20404
814.551	20362
814.692	20400
814.833	20286
814.974	20278
815.115	20218
815.256	20214
815.397	20278
815.539	20271
815.68	20065
815.821	19963
815.962	20062
816.103	20069
816.244	19856
816.385	19799
816.526	19765
816.666	19727
816.807	19533
816.948	19540
817.089	19590
817.23	19457
817.371	19327
817.512	19392
817.653	19438
817.793	19518
817.934	19430
818.075	19468
818.216	19499
818.356	19445
818.497	19206
818.638	19023
818.778	19148
818.919	19206
819.06	19171
819.2	19293
819.341	19270
819.481	19495
819.622	19491
819.762	19563
819.903	19590
820.043	19521
820.184	19468
820.324	19377
820.465	19529
820.605	19445
820.746	19388
820.886	19316
821.026	19502
821.167	19339
821.307	19480
821.447	19384
821.588	19274
821.728	19152
821.868	18958
822.008	18768
822.149	18875
822.289	18878
822.429	18688
822.569	18517
822.709	18513
822.849	18429
822.99	18441
823.13	18369
823.27	18323
823.41	18213
823.55	18095
823.69	18353
823.83	18167
823.97	18163
824.11	17935
824.25	17923
824.389	17916
824.529	17889
824.669	17931
824.809	17935
824.949	18007
825.089	18026
825.228	17977
825.368	17703
825.508	17668
825.648	17646
825.787	17737
825.927	17760
826.067	17691
826.206	17657
826.346	17707
826.485	17649
826.625	17699
826.765	17665
826.904	17783
827.044	17452
827.183	17497
827.323	17254
827.462	17467
827.601	17379
827.741	17364
827.88	17444
828.02	17322
828.159	17299
828.298	17322
828.437	17474
828.577	17311
828.716	17512
828.855	17425
828.994	17117
829.134	17143
829.273	17235
829.412	17010
829.551	17143
829.69	17200
829.829	17151
829.968	17326
830.107	17151
830.246	17178
830.385	17140
830.524	17071
830.663	16919
830.802	16919
830.941	16729
831.08	16740
831.219	16858
831.357	16828
831.496	16923
831.635	16721
831.774	16687
831.913	16710
832.051	16615
832.19	16580
832.329	16565
832.467	16493
832.606	16523
832.744	16402
832.883	16363
833.022	16390
833.16	16432
833.299	16470
833.437	16481
833.576	16497
833.714	16580
833.852	16462
833.991	16580
834.129	16603
834.267	16615
834.406	16516
834.544	16588
834.682	16596
834.821	16447
834.959	16675
835.097	16493
835.235	16664
835.373	16592
835.511	16527
835.65	16394
835.788	16409
835.926	16314
836.064	16185
836.202	16265
836.34	16485
836.478	16569
836.615	16421
836.753	16558
836.891	16436
837.029	16489
837.167	16314
837.305	16497
837.443	16188
837.58	16230
837.718	16360
837.856	16287
837.993	16234
838.131	16322
838.269	16287
838.406	16162
838.544	16185
838.681	16032
838.819	16032
838.956	15823
839.094	15823
839.231	15838
839.369	15949
839.506	16223
839.643	16131
839.781	15827
839.918	15717
840.055	15972
840.193	15876
840.33	15808
840.467	15911
840.604	15857
840.742	16101
840.879	15633
841.016	15675
841.153	15785
841.29	15808
841.427	15892
841.564	15865
841.701	15823
841.838	15789
841.975	15705
842.112	15663
842.249	15618
842.385	15469
842.522	15884
842.659	15656
842.796	15622
842.933	15603
843.069	15584
843.206	15671
843.343	15709
843.479	15599
843.616	15599
843.752	15351
843.889	15367
844.025	15580
844.162	15298
844.298	15485
844.435	15378
844.571	15321
844.708	15412
844.844	15496
844.98	15542
845.117	15526
845.253	15340
845.389	15340
845.525	15389
845.661	15264
845.798	15203
845.934	15142
846.07	15233
846.206	15203
846.342	15329
846.478	15226
846.614	14998
846.75	14872
846.886	15058
847.022	15051
847.158	15005
847.294	14986
847.429	14990
847.565	15055
847.701	15241
847.837	14712
847.972	14636
848.108	14781
848.244	14735
848.379	14655
848.515	14518
848.65	14575
848.786	14533
848.921	14575
849.057	14674
849.192	14720
849.328	14625
849.463	14610
849.598	14492
849.734	14495
849.869	14415
850.004	14366
850.14	14465
850.275	14396
850.41	14294
850.545	14301
850.68	14343
850.815	14332
850.95	14301
851.085	14552
851.22	14431
851.355	14294
851.49	14347
851.625	14282
851.76	14366
851.895	14206
852.03	14225
852.165	14320
852.299	14370
852.434	14389
852.569	14347
852.703	14396
852.838	14377
852.973	14427
853.107	14461
853.242	14225
853.376	14305
853.511	14054
853.645	14202
853.78	14393
853.914	14229
854.048	14176
854.183	14290
854.317	14282
854.451	14400
854.585	14187
854.72	14134
854.854	14271
854.988	14115
855.122	14180
855.256	14115
855.39	14229
855.524	14332
855.658	14218
855.792	14180
855.926	14244
856.06	14298
856.194	14301
856.327	14286
856.461	14035
856.595	14202
856.729	14168
856.862	14309
856.996	14286
857.13	14221
857.263	14286
857.397	14358
857.53	14210
857.664	14328
857.797	14240
857.931	14275
858.064	14339
858.197	14324
858.331	14221
858.464	14259
858.597	14119
858.731	14202
858.864	14187
858.997	14168
859.13	14202
859.263	14286
859.396	14336
859.529	14161
859.662	14180
859.795	14164
859.928	14298
860.061	14358
860.194	14336
860.327	14256
860.46	14157
860.592	14393
860.725	14355
860.858	14385
860.99	14202
861.123	14161
861.256	14065
861.388	14183
861.521	14868
861.653	14168
861.786	13974
861.918	14111
862.05	14142
862.183	14225
862.315	14214
862.447	14263
862.58	14187
862.712	13913
862.844	13909
862.976	14035
863.108	14065
863.24	14541
863.372	13940
863.504	13970
863.636	13970
863.768	14008
863.9	13928
864.032	13856
864.164	13978
864.296	14043
864.428	14088
864.559	14069
864.691	14084
864.823	14073
864.954	13982
865.086	14016
865.217	13974
865.349	13890
865.48	14012
865.612	14016
865.743	14161
865.875	14103
866.006	13906
866.137	13967
866.269	14012
866.4	13925
866.531	13993
866.662	13932
866.793	13951
866.924	13955
867.055	14001
867.186	13909
867.317	13974
867.448	13814
867.579	13906
867.71	13928
867.841	13883
867.972	13955
868.103	13955
868.233	13955
868.364	13993
868.495	14043
868.625	14176
868.756	14298
868.886	14134
869.017	14210
869.147	14358
869.278	14408
869.408	14313
869.539	14229
869.669	14195
869.799	14351
869.929	14454
870.06	14374
870.19	14522
870.32	14537
870.45	14613
870.58	14636
870.71	14796
870.84	14682
870.97	14629
871.1	14590
871.23	14785
871.36	14838
871.489	14743
871.619	14777
871.749	14887
871.879	14781
872.008	15028
872.138	14891
872.267	14819
872.397	14731
872.526	14617
872.656	14686
872.785	14678
872.915	14921
873.044	14963
873.173	14895
873.303	14914
873.432	15013
873.561	14956
873.69	15001
873.819	14883
873.948	15135
874.077	14941
874.206	14864
874.335	14933
874.464	15051
874.593	15184
874.722	15211
874.851	15306
874.979	15310
875.108	15329
875.237	15203
875.365	15165
875.494	15272
875.623	15230
875.751	15203
875.88	15336
876.008	15382
876.136	15424
876.265	15705
876.393	15838
876.521	15736
876.65	15827
876.778	15701
876.906	15656
877.034	15534
877.162	15667
877.29	15633
877.418	15644
877.546	15686
877.674	15679
877.802	15618
877.93	15686
878.058	15496
878.185	15561
878.313	15587
878.441	15591
878.568	15511
878.696	15530
878.824	15755
878.951	15713
879.079	15797
879.206	16010
879.333	15922
879.461	15800
879.588	15720
879.715	15911
879.842	15956
879.97	15648
880.097	15466
880.224	15443
880.351	15580
880.478	15526
880.605	15443
880.732	15466
880.859	15770
880.986	15458
881.112	15496
881.239	15329
881.366	15325
881.493	15249
881.619	15207
881.746	15195
881.872	15157
881.999	15131
882.125	15131
882.252	15199
882.378	15222
882.505	15264
882.631	15169
882.757	15055
882.883	14975
883.01	14979
883.136	14975
883.262	14811
883.388	14788
883.514	14975
883.64	15055
883.766	14906
883.892	14819
884.018	14899
884.143	15009
884.269	15123
884.395	14781
884.52	14682
884.646	14674
884.772	14621
884.897	14579
885.023	14781
885.148	14796
885.274	14788
885.399	14792
885.524	14670
885.65	14788
885.775	14697
885.9	14663
886.025	14750
886.15	14678
886.275	14575
886.4	14598
886.525	14606
886.65	14625
886.775	14644
886.9	14845
887.025	14902
887.149	14678
887.274	14564
887.399	14537
887.523	14537
887.648	14438
887.773	14351
887.897	14640
888.021	14655
888.146	14499
888.27	14659
888.395	14625
888.519	14537
888.643	14587
888.767	14610
888.891	14400
889.015	14328
889.139	14336
889.263	14248
889.387	14499
889.511	14541
889.635	14431
889.759	14358
889.883	14366
890.006	14290
890.13	14446
890.254	14298
890.377	14263
890.501	14161
890.624	14210
890.748	14145
890.871	14088
890.995	14081
891.118	14005
891.241	14031
891.364	14073
891.488	14206
891.611	14111
891.734	14149
891.857	14145
891.98	14084
892.103	14195
892.226	14027
892.349	14084
892.471	13879
892.594	14024
892.717	14161
892.839	14012
892.962	14115
893.085	14134
893.207	14130
893.33	13989
893.452	13947
893.575	14206
893.697	14024
893.819	14259
893.941	14317
894.064	14168
894.186	14073
894.308	14092
894.43	14259
894.552	14256
894.674	14301
894.796	14100
894.918	14088
895.04	14031
895.161	14161
895.283	14157
895.405	14050
895.526	14187
895.648	14176
895.769	14187
895.891	14191
896.012	14256
896.134	14309
896.255	14259
896.376	14161
896.498	14206
896.619	14275
896.74	14370
896.861	14381
896.982	14636
897.103	14655
897.224	14518
897.345	14541
897.466	14438
897.587	14587
897.708	14621
897.828	14621
897.949	14450
898.07	14431
898.19	14461
898.311	14648
898.431	14541
898.552	14522
898.672	14674
898.792	14754
898.913	14590
899.033	14636
899.153	14503
899.273	14343
899.393	14492
899.513	14450
899.633	14454
899.753	14545
899.873	14438
899.993	14511
900.113	14450
900.232	14473
900.352	14431
900.472	14290
900.591	14290
900.711	14305
900.83	14206
900.95	14381
901.069	14408
901.189	14252
901.308	14123
901.427	13883
901.546	14031
901.665	13993
901.784	14005
901.904	13887
902.023	13715
902.141	13712
902.26	13601
902.379	13674
902.498	13518
902.617	13525
902.735	13556
902.854	13571
902.973	13510
903.091	13301
903.21	13225
903.328	13324
903.446	13225
903.565	13095
903.683	13122
903.801	13126
903.919	13156
904.038	13099
904.156	12996
904.274	13023
904.392	13000
904.51	12913
904.627	12894
904.745	12962
904.863	12951
904.981	12852
905.098	12639
905.216	12627
905.334	12741
905.451	12623
905.569	12623
905.686	12715
905.803	12696
905.921	12460
906.038	12460
906.155	12528
906.272	12334
906.389	12300
906.506	12273
906.623	12228
906.74	12194
906.857	12155
906.974	12216
907.091	12357
907.208	12353
907.324	12235
907.441	12205
907.557	11954
907.674	11969
907.79	11904
907.907	11977
908.023	12083
908.139	11977
908.256	11893
908.372	11832
908.488	11942
908.604	11714
908.72	11699
908.836	11790
908.952	11684
909.068	11733
909.184	11779
909.3	11722
909.415	11855
909.531	11699
909.647	11604
909.762	11463
909.878	11398
909.993	11524
910.108	11440
910.224	11463
910.339	11551
910.454	11398
910.57	11417
910.685	11246
910.8	11570
910.915	11505
911.03	11429
911.145	11246
911.259	11197
911.374	11242
911.489	11033
911.604	11075
911.718	11037
911.833	10930
911.947	10774
912.062	10736
912.176	10930
912.291	10968
912.405	10938
912.519	11132
912.633	11208
912.748	11045
912.862	10957
912.976	10847
913.09	10774
913.204	10854
913.318	10892
913.431	10938
913.545	10911
913.659	10999
913.772	10877
913.886	10744
914	10664
914.113	10816
914.226	10843
914.34	10801
914.453	10672
914.566	10801
914.68	10698
914.793	10698
914.906	10497
915.019	10398
915.132	10402
915.245	10493
915.358	10421
915.47	10500
915.583	10516
915.696	10542
915.809	10641
915.921	10637
916.034	10436
916.146	10436
916.259	10428
916.371	10542
916.483	10508
916.595	10386
916.708	10459
916.82	10417
916.932	10428
917.044	10417
917.156	10432
917.268	10280
917.38	10211
917.491	10242
917.603	10272
917.715	10363
917.826	10413
917.938	10318
918.049	10185
918.161	10276
918.272	10379
918.384	10512
918.495	10268
918.606	10173
918.717	10010
918.828	10200
918.939	10215
919.05	10101
919.161	10147
919.272	10040
919.383	10067
919.494	10207
919.604	10382
919.715	10177
919.826	10158
919.936	10192
920.047	10257
920.157	10185
920.267	10440
920.378	10219
920.488	10227
920.598	10382
920.708	10497
920.818	10405
920.928	10424
921.038	10561
921.148	10512
921.258	10280
921.368	10185
921.477	10139
921.587	10036
921.697	9975
921.806	10101
921.916	10002
922.025	9838
922.134	9705
922.244	9694
922.353	9800
922.462	9587
922.571	9675
922.68	9416
922.789	9435
922.898	9500
923.007	9412
923.116	9526
923.224	9431
923.333	9431
923.442	9355
923.55	9351
923.659	9405
923.767	9454
923.876	9325
923.984	9401
924.092	9313
924.201	9355
924.309	9294
924.417	9317
924.525	9294
924.633	9275
924.741	10082
924.849	9081
924.956	9241
925.064	9077
925.172	8986
925.279	9032
925.387	9203
925.494	9028
925.602	9214
925.709	9230
925.816	9028
925.924	9127
926.031	9188
926.138	9211
926.245	9192
926.352	8998
926.459	9169
926.566	9184
926.673	8933
926.779	8857
926.886	8960
926.993	8849
927.099	8834
927.206	8834
927.312	8823
927.419	8834
927.525	8830
927.631	8830
927.737	8762
927.843	8735
927.95	8651
928.056	8708
928.162	8712
928.267	8746
928.373	9382
928.479	8845
928.585	8549
928.69	8716
928.796	8819
928.901	8670
929.007	8518
929.112	8663
929.218	8651
929.323	8549
929.428	8495
929.533	8659
929.638	8457
929.743	8571
929.848	8575
929.953	8492
930.058	8370
930.163	8282
930.267	8324
930.372	8393
930.477	8221
930.581	8442
930.685	8419
930.79	8252
930.894	8309
930.998	8282
931.103	8339
931.207	7989
931.311	8039
931.415	7913
931.519	7738
931.623	7708
