Data from test_V78500241_2685.txt Node
Date: Fri Mar 25 14:52:24 CST 2022
User: usil
Spectrometer: V785-0024
Trigger mode: 0
Integration Time (sec): 4.000000E-1
Scans to average: 1
Nonlinearity correction enabled: false
Boxcar width: 0
Storing dark spectrum: false
XAxis mode: Wavelengths
Number of Pixels in Spectrum: 1024
>>>>>Begin Spectral Data<<<<<
801.071	22010
801.214	21816
801.356	21633
801.499	21542
801.641	21412
801.783	21370
801.926	21401
802.068	21283
802.211	21321
802.353	20998
802.496	20864
802.638	20811
802.78	20773
802.923	20762
803.065	20651
803.208	20724
803.35	20788
803.492	20758
803.635	20826
803.777	20648
803.919	20705
804.061	20975
804.204	20731
804.346	20716
804.488	20549
804.63	20655
804.773	20518
804.915	20648
805.057	20705
805.199	20526
805.341	20594
805.483	20598
805.626	20708
805.768	20507
805.91	20511
806.052	20575
806.194	20587
806.336	20781
806.478	20621
806.62	20427
806.762	20564
806.904	20739
807.046	21093
807.188	20937
807.33	21036
807.472	21104
807.614	20872
807.756	20849
807.898	20727
808.04	20648
808.182	20625
808.324	20682
808.465	20590
808.607	20998
808.749	21028
808.891	21062
809.033	21188
809.174	21013
809.316	20899
809.458	20975
809.6	21028
809.741	21116
809.883	20956
810.025	21081
810.166	21112
810.308	21192
810.45	21062
810.591	20902
810.733	20933
810.875	20887
811.016	20670
811.158	20667
811.299	20769
811.441	20864
811.582	20899
811.724	20697
811.865	20686
812.007	20674
812.148	20712
812.29	20830
812.431	20998
812.573	21047
812.714	21211
812.855	21256
812.997	21256
813.138	21523
813.279	21382
813.421	21283
813.562	21199
813.703	21058
813.845	20883
813.986	20670
814.127	20499
814.268	20294
814.41	20396
814.551	20389
814.692	20301
814.833	20195
814.974	20153
815.115	20347
815.256	20142
815.397	20073
815.539	20107
815.68	20073
815.821	20092
815.962	20035
816.103	19982
816.244	19989
816.385	19738
816.526	19769
816.666	19586
816.807	19537
816.948	19445
817.089	19525
817.23	19457
817.371	19419
817.512	19419
817.653	19377
817.793	19362
817.934	19411
818.075	19529
818.216	19350
818.356	19438
818.497	19221
818.638	19042
818.778	19118
818.919	19080
819.06	19057
819.2	19285
819.341	19285
819.481	19282
819.622	19529
819.762	19696
819.903	19620
820.043	19464
820.184	19400
820.324	19362
820.465	19369
820.605	19480
820.746	19354
820.886	19194
821.026	19320
821.167	19369
821.307	19441
821.447	19388
821.588	19240
821.728	19053
821.868	18924
822.008	18787
822.149	18825
822.289	18772
822.429	18597
822.569	18479
822.709	18559
822.849	18315
822.99	18235
823.13	18296
823.27	18144
823.41	18186
823.55	18083
823.69	17988
823.83	18072
823.97	18011
824.11	17973
824.25	17870
824.389	17904
824.529	17950
824.669	17798
824.809	18007
824.949	17901
825.089	17878
825.228	17942
825.368	17634
825.508	17665
825.648	17592
825.787	17691
825.927	17691
826.067	17707
826.206	17703
826.346	17737
826.485	17703
826.625	17653
826.765	17756
826.904	17665
827.044	17452
827.183	17322
827.323	17330
827.462	17410
827.601	17299
827.741	17269
827.88	17383
828.02	17216
828.159	17444
828.298	17360
828.437	17448
828.577	17402
828.716	17562
828.855	17254
828.994	17178
829.134	17064
829.273	17140
829.412	17121
829.551	17033
829.69	17075
829.829	17124
829.968	17181
830.107	17109
830.246	17128
830.385	16961
830.524	16995
830.663	16957
830.802	16885
830.941	16778
831.08	16744
831.219	16790
831.357	16820
831.496	16991
831.635	16828
831.774	16668
831.913	16538
832.051	16538
832.19	16440
832.329	16531
832.467	16497
832.606	16409
832.744	16470
832.883	16447
833.022	16360
833.16	16375
833.299	16424
833.437	16470
833.576	16535
833.714	16478
833.852	16481
833.991	16516
834.129	16706
834.267	16481
834.406	16451
834.544	16641
834.682	16535
834.821	16424
834.959	16683
835.097	16546
835.235	16607
835.373	16485
835.511	16504
835.65	16390
835.788	16386
835.926	16303
836.064	16131
836.202	16177
836.34	16428
836.478	16485
836.615	16500
836.753	16432
836.891	16584
837.029	16379
837.167	16291
837.305	16276
837.443	16375
837.58	16337
837.718	16341
837.856	16348
837.993	16188
838.131	16291
838.269	16211
838.406	16204
838.544	16188
838.681	15975
838.819	16017
838.956	15975
839.094	15816
839.231	15941
839.369	15880
839.506	16272
839.643	16135
839.781	15884
839.918	15759
840.055	15804
840.193	15979
840.33	15781
840.467	15884
840.604	15873
840.742	16093
840.879	15648
841.016	15743
841.153	15778
841.29	15903
841.427	15812
841.564	15880
841.701	15827
841.838	15800
841.975	15747
842.112	15690
842.249	15656
842.385	15618
842.522	15785
842.659	15663
842.796	15682
842.933	15686
843.069	15580
843.206	15545
843.343	15614
843.479	15648
843.616	15633
843.752	15298
843.889	15275
844.025	15652
844.162	15374
844.298	15492
844.435	15367
844.571	15428
844.708	15507
844.844	15568
844.98	15488
845.117	15500
845.253	15336
845.389	15351
845.525	15473
845.661	15367
845.798	15249
845.934	15317
846.07	15100
846.206	15313
846.342	15397
846.478	15066
846.614	15020
846.75	14910
846.886	14906
847.022	15112
847.158	15047
847.294	15005
847.429	15119
847.565	14868
847.701	15306
847.837	14857
847.972	14781
848.108	14842
848.244	14842
848.379	14571
848.515	14560
848.65	14670
848.786	14568
848.921	14636
849.057	14610
849.192	14792
849.328	14621
849.463	14598
849.598	14560
849.734	14522
849.869	14446
850.004	14419
850.14	14454
850.275	14317
850.41	14301
850.545	14328
850.68	14301
850.815	14343
850.95	14389
851.085	14549
851.22	14499
851.355	14355
851.49	14290
851.625	14278
851.76	14332
851.895	14225
852.03	14271
852.165	14320
852.299	14423
852.434	14473
852.569	14438
852.703	14305
852.838	14393
852.973	14503
853.107	14408
853.242	14240
853.376	14313
853.511	14134
853.645	14218
853.78	14233
853.914	14218
854.048	14210
854.183	14111
854.317	14183
854.451	14339
854.585	14180
854.72	14161
854.854	14259
854.988	14256
855.122	14142
855.256	14084
855.39	14263
855.524	14313
855.658	14309
855.792	14366
855.926	14286
856.06	14317
856.194	14328
856.327	14263
856.461	14134
856.595	14282
856.729	14229
856.862	14347
856.996	14298
857.13	14237
857.263	14218
857.397	14286
857.53	14248
857.664	14271
857.797	14263
857.931	14446
858.064	14282
858.197	14313
858.331	14240
858.464	14157
858.597	14153
858.731	14199
858.864	14187
858.997	14206
859.13	14202
859.263	14130
859.396	14240
859.529	14229
859.662	14130
859.795	14199
859.928	14263
860.061	14366
860.194	14423
860.327	14180
860.46	14218
860.592	14320
860.725	14332
860.858	14324
860.99	14309
861.123	14069
861.256	14225
861.388	14195
861.521	14838
861.653	14031
861.786	14020
861.918	14168
862.05	14176
862.183	14130
862.315	14214
862.447	14218
862.58	14123
862.712	13993
862.844	14031
862.976	14012
863.108	14046
863.24	14419
863.372	13852
863.504	13944
863.636	14008
863.768	14164
863.9	13883
864.032	13982
864.164	13993
864.296	14027
864.428	14157
864.559	14202
864.691	13970
864.823	14100
864.954	14081
865.086	14001
865.217	13989
865.349	13936
865.48	14001
865.612	14005
865.743	14206
865.875	13986
866.006	13921
866.137	14039
866.269	13997
866.4	14020
866.531	13947
866.662	13871
866.793	14005
866.924	13997
867.055	13978
867.186	14027
867.317	13936
867.448	13898
867.579	13879
867.71	13860
867.841	13883
867.972	13982
868.103	13997
868.233	13955
868.364	14043
868.495	14024
868.625	14176
868.756	14332
868.886	14123
869.017	14111
869.147	14377
869.278	14465
869.408	14267
869.539	14240
869.669	14263
869.799	14225
869.929	14324
870.06	14290
870.19	14552
870.32	14533
870.45	14621
870.58	14598
870.71	14716
870.84	14773
870.97	14636
871.1	14640
871.23	14830
871.36	14864
871.489	14796
871.619	14792
871.749	14891
871.879	14956
872.008	14956
872.138	14777
872.267	14838
872.397	14644
872.526	14606
872.656	14663
872.785	14651
872.915	14834
873.044	14921
873.173	14880
873.303	14834
873.432	14914
873.561	14876
873.69	14861
873.819	14929
873.948	14963
874.077	14944
874.206	14880
874.335	14845
874.464	14952
874.593	15230
874.722	15157
874.851	15249
874.979	15256
875.108	15226
875.237	15104
875.365	15256
875.494	15165
875.623	15207
875.751	15154
875.88	15146
876.008	15336
876.136	15412
876.265	15591
876.393	15732
876.521	15701
876.65	15747
876.778	15713
876.906	15534
877.034	15545
877.162	15656
877.29	15477
877.418	15633
877.546	15641
877.674	15614
877.802	15679
877.93	15618
878.058	15622
878.185	15504
878.313	15648
878.441	15553
878.568	15561
878.696	15629
878.824	15648
878.951	15698
879.079	15785
879.206	15865
879.333	15819
879.461	15690
879.588	15774
879.715	15800
879.842	15861
879.97	15682
880.097	15584
880.224	15370
880.351	15530
880.478	15447
880.605	15477
880.732	15530
880.859	15679
880.986	15553
881.112	15584
881.239	15424
881.366	15241
881.493	15199
881.619	15169
881.746	15268
881.872	15123
881.999	15142
882.125	15116
882.252	15161
882.378	15192
882.505	15313
882.631	15108
882.757	14948
882.883	15017
883.01	15047
883.136	14952
883.262	14792
883.388	14800
883.514	15100
883.64	14986
883.766	14941
883.892	14731
884.018	14838
884.143	14933
884.269	15070
884.395	14746
884.52	14670
884.646	14655
884.772	14659
884.897	14667
885.023	14670
885.148	14762
885.274	14746
885.399	14811
885.524	14587
885.65	14667
885.775	14716
885.9	14594
886.025	14758
886.15	14670
886.275	14602
886.4	14552
886.525	14587
886.65	14610
886.775	14640
886.9	14796
887.025	14864
887.149	14701
887.274	14495
887.399	14480
887.523	14473
887.648	14385
887.773	14480
887.897	14575
888.021	14488
888.146	14389
888.27	14610
888.395	14670
888.519	14495
888.643	14518
888.767	14640
888.891	14526
889.015	14454
889.139	14434
889.263	14362
889.387	14495
889.511	14552
889.635	14484
889.759	14389
889.883	14419
890.006	14412
890.13	14465
890.254	14294
890.377	14336
890.501	14320
890.624	14176
890.748	14252
890.871	14046
890.995	14031
891.118	14062
891.241	14092
891.364	13955
891.488	14168
891.611	13970
891.734	14081
891.857	14149
891.98	14138
892.103	14221
892.226	14084
892.349	14046
892.471	13963
892.594	13974
892.717	14092
892.839	14027
892.962	14058
893.085	14069
893.207	14176
893.33	13909
893.452	14012
893.575	14161
893.697	14069
893.819	14278
893.941	14275
894.064	14210
894.186	14069
894.308	14020
894.43	14172
894.552	14282
894.674	14164
894.796	14149
894.918	14092
895.04	14096
895.161	14256
895.283	14244
895.405	14107
895.526	14206
895.648	14229
895.769	14259
895.891	14202
896.012	14355
896.134	14298
896.255	14248
896.376	14206
896.498	14278
896.619	14275
896.74	14393
896.861	14301
896.982	14545
897.103	14804
897.224	14579
897.345	14461
897.466	14396
897.587	14480
897.708	14579
897.828	14545
897.949	14499
898.07	14434
898.19	14431
898.311	14617
898.431	14590
898.552	14545
898.672	14610
898.792	14648
898.913	14610
899.033	14457
899.153	14537
899.273	14324
899.393	14484
899.513	14583
899.633	14454
899.753	14381
899.873	14412
899.993	14514
900.113	14320
900.232	14575
900.352	14461
900.472	14358
900.591	14317
900.711	14355
900.83	14313
900.95	14381
901.069	14457
901.189	14183
901.308	14027
901.427	14031
901.546	13959
901.665	14024
901.784	13906
901.904	13818
902.023	13803
902.141	13601
902.26	13556
902.379	13677
902.498	13518
902.617	13422
902.735	13597
902.854	13540
902.973	13464
903.091	13202
903.21	13259
903.328	13282
903.446	13225
903.565	13164
903.683	13156
903.801	12977
903.919	13118
904.038	13118
904.156	12890
904.274	12970
904.392	12954
904.51	12867
904.627	12939
904.745	12970
904.863	12958
904.981	12795
905.098	12620
905.216	12544
905.334	12612
905.451	12631
905.569	12631
905.686	12772
905.803	12642
905.921	12441
906.038	12612
906.155	12464
906.272	12304
906.389	12422
906.506	12334
906.623	12220
906.74	12239
906.857	12152
906.974	12228
907.091	12190
907.208	12350
907.324	12296
907.441	12136
907.557	11923
907.674	11977
907.79	11805
907.907	11912
908.023	12095
908.139	12007
908.256	12041
908.372	11923
908.488	11859
908.604	11870
908.72	11657
908.836	11699
908.952	11760
909.068	11798
909.184	11859
909.3	11726
909.415	11794
909.531	11741
909.647	11566
909.762	11486
909.878	11478
909.993	11539
910.108	11410
910.224	11512
910.339	11493
910.454	11410
910.57	11311
910.685	11284
910.8	11672
910.915	11474
911.03	11444
911.145	11155
911.259	11239
911.374	11239
911.489	11136
911.604	11102
911.718	11056
911.833	10991
911.947	10889
912.062	10759
912.176	10919
912.291	10953
912.405	11010
912.519	11143
912.633	11155
912.748	11037
912.862	10972
912.976	10854
913.09	10771
913.204	10797
913.318	10847
913.431	10946
913.545	10908
913.659	10946
913.772	10831
913.886	10767
914	10755
914.113	10797
914.226	10866
914.34	10755
914.453	10668
914.566	10889
914.68	10634
914.793	10694
914.906	10558
915.019	10417
915.132	10382
915.245	10428
915.358	10508
915.47	10485
915.583	10500
915.696	10504
915.809	10588
915.921	10535
916.034	10405
916.146	10398
916.259	10356
916.371	10531
916.483	10432
916.595	10394
916.708	10375
916.82	10394
916.932	10375
917.044	10230
917.156	10363
917.268	10295
917.38	10280
917.491	10284
917.603	10424
917.715	10424
917.826	10447
917.938	10287
918.049	10169
918.161	10322
918.272	10352
918.384	10455
918.495	10295
918.606	10173
918.717	10162
918.828	10173
918.939	10253
919.05	10131
919.161	10314
919.272	9945
919.383	10074
919.494	10211
919.604	10348
919.715	10242
919.826	10124
919.936	10143
920.047	10227
920.157	10242
920.267	10440
920.378	10265
920.488	10230
920.598	10405
920.708	10512
920.818	10424
920.928	10436
921.038	10592
921.148	10478
921.258	10287
921.368	10112
921.477	10006
921.587	10010
921.697	9926
921.806	10086
921.916	9960
922.025	9857
922.134	9785
922.244	9762
922.353	9804
922.462	9648
922.571	9545
922.68	9469
922.789	9431
922.898	9469
923.007	9378
923.116	9507
923.224	9477
923.333	9412
923.442	9348
923.55	9279
923.659	9310
923.767	9408
923.876	9260
923.984	9367
924.092	9218
924.201	9401
924.309	9272
924.417	9378
924.525	9268
924.633	9310
924.741	10025
924.849	9097
924.956	9310
925.064	9081
925.172	9081
925.279	9043
925.387	9112
925.494	9085
925.602	9222
925.709	9058
925.816	9051
925.924	9070
926.031	9180
926.138	9116
926.245	9138
926.352	9047
926.459	9173
926.566	9138
926.673	9051
926.779	8899
926.886	8998
926.993	8796
927.099	8773
927.206	8777
927.312	8788
927.419	8864
927.525	8804
927.631	8826
927.737	8716
927.843	8712
927.95	8621
928.056	8762
928.162	8712
928.267	8807
928.373	9332
928.479	8807
928.585	8533
928.69	8670
928.796	8804
928.901	8693
929.007	8556
929.112	8686
929.218	8625
929.323	8556
929.428	8526
929.533	8598
929.638	8533
929.743	8507
929.848	8579
929.953	8492
930.058	8415
930.163	8332
930.267	8286
930.372	8370
930.477	8286
930.581	8526
930.685	8385
930.79	8237
930.894	8347
930.998	8218
931.103	8317
931.207	8092
931.311	8008
931.415	7970
931.519	7757
931.623	7704
