Data from test_V78500241_1078.txt Node
Date: Fri Mar 25 14:41:13 CST 2022
User: usil
Spectrometer: V785-0024
Trigger mode: 0
Integration Time (sec): 4.000000E-1
Scans to average: 1
Nonlinearity correction enabled: false
Boxcar width: 0
Storing dark spectrum: false
XAxis mode: Wavelengths
Number of Pixels in Spectrum: 1024
>>>>>Begin Spectral Data<<<<<
801.071	22801
801.214	22664
801.356	22417
801.499	22226
801.641	22162
801.783	22013
801.926	22276
802.068	21991
802.211	21888
802.353	21857
802.496	21739
802.638	21504
802.78	21538
802.923	21587
803.065	21344
803.208	21481
803.35	21420
803.492	21568
803.635	21580
803.777	21488
803.919	21549
804.061	21831
804.204	21587
804.346	21412
804.488	21279
804.63	21397
804.773	21241
804.915	21332
805.057	21538
805.199	21492
805.341	21397
805.483	21473
805.626	21523
805.768	21355
805.91	21428
806.052	21310
806.194	21275
806.336	21603
806.478	21386
806.62	21469
806.762	21462
806.904	21599
807.046	21865
807.188	21770
807.33	21812
807.472	21823
807.614	21717
807.756	21789
807.898	21728
808.04	21686
808.182	21667
808.324	21751
808.465	21934
808.607	22150
808.749	22303
808.891	22409
809.033	22390
809.174	22333
809.316	22325
809.458	22166
809.6	21972
809.741	22044
809.883	21991
810.025	22166
810.166	22166
810.308	21918
810.45	21926
810.591	22017
810.733	21762
810.875	21660
811.016	21633
811.158	21485
811.299	21743
811.441	21720
811.582	21660
811.724	21618
811.865	21583
812.007	21545
812.148	21523
812.29	21675
812.431	21755
812.573	21789
812.714	22017
812.855	21994
812.997	22234
813.138	22459
813.279	22207
813.421	22234
813.562	22048
813.703	21819
813.845	21724
813.986	21329
814.127	21245
814.268	21367
814.41	21157
814.551	21169
814.692	21077
814.833	21127
814.974	21074
815.115	21150
815.256	21013
815.397	21043
815.539	20914
815.68	20819
815.821	20819
815.962	20933
816.103	20880
816.244	20800
816.385	20632
816.526	20556
816.666	20385
816.807	20248
816.948	20374
817.089	20412
817.23	20290
817.371	20286
817.512	20278
817.653	20191
817.793	20263
817.934	20374
818.075	20442
818.216	20370
818.356	20237
818.497	20248
818.638	19902
818.778	19947
818.919	20027
819.06	20008
819.2	20130
819.341	20168
819.481	20069
819.622	20195
819.762	20492
819.903	20492
820.043	20294
820.184	20278
820.324	20271
820.465	20324
820.605	20259
820.746	20195
820.886	20180
821.026	20187
821.167	20259
821.307	20214
821.447	20164
821.588	20062
821.728	19849
821.868	19753
822.008	19700
822.149	19696
822.289	19723
822.429	19400
822.569	19369
822.709	19400
822.849	19152
822.99	19202
823.13	19156
823.27	19190
823.41	19023
823.55	18810
823.69	19027
823.83	18996
823.97	18905
824.11	18741
824.25	18700
824.389	18768
824.529	18787
824.669	18734
824.809	18825
824.949	18764
825.089	18833
825.228	18753
825.368	18646
825.508	18555
825.648	18612
825.787	18547
825.927	18639
826.067	18490
826.206	18418
826.346	18593
826.485	18513
826.625	18407
826.765	18700
826.904	18456
827.044	18235
827.183	18334
827.323	18125
827.462	18205
827.601	18186
827.741	18209
827.88	18174
828.02	18159
828.159	18144
828.298	18167
828.437	18258
828.577	18144
828.716	18235
828.855	18098
828.994	18015
829.134	17980
829.273	17984
829.412	17874
829.551	17950
829.69	17958
829.829	18053
829.968	18053
830.107	18022
830.246	17920
830.385	17885
830.524	17870
830.663	17805
830.802	17726
830.941	17535
831.08	17520
831.219	17649
831.357	17539
831.496	17786
831.635	17600
831.774	17493
831.913	17528
832.051	17360
832.19	17402
832.329	17452
832.467	17235
832.606	17341
832.744	17197
832.883	17303
833.022	17162
833.16	17250
833.299	17452
833.437	17341
833.576	17311
833.714	17376
833.852	17410
833.991	17368
834.129	17482
834.267	17356
834.406	17417
834.544	17379
834.682	17448
834.821	17292
834.959	17493
835.097	17288
835.235	17406
835.373	17318
835.511	17280
835.65	17235
835.788	17349
835.926	17090
836.064	17052
836.202	16938
836.34	17235
836.478	17174
836.615	17223
836.753	17197
836.891	17292
837.029	17292
837.167	17162
837.305	17105
837.443	17136
837.58	17109
837.718	17102
837.856	17014
837.993	17090
838.131	17117
838.269	17056
838.406	17094
838.544	16984
838.681	16866
838.819	16759
838.956	16694
839.094	16603
839.231	16637
839.369	16786
839.506	17014
839.643	16889
839.781	16615
839.918	16599
840.055	16702
840.193	16573
840.33	16569
840.467	16535
840.604	16675
840.742	16919
840.879	16497
841.016	16500
841.153	16535
841.29	16679
841.427	16641
841.564	16580
841.701	16611
841.838	16542
841.975	16443
842.112	16607
842.249	16424
842.385	16375
842.522	16618
842.659	16459
842.796	16402
842.933	16421
843.069	16257
843.206	16352
843.343	16333
843.479	16402
843.616	16402
843.752	16177
843.889	16139
844.025	16360
844.162	16109
844.298	16306
844.435	16249
844.571	16192
844.708	16246
844.844	16371
844.98	16341
845.117	16352
845.253	16230
845.389	16196
845.525	16287
845.661	16352
845.798	16382
845.934	16607
846.07	16558
846.206	16607
846.342	16546
846.478	16303
846.614	16048
846.75	15838
846.886	15774
847.022	15915
847.158	15778
847.294	15838
847.429	15850
847.565	15690
847.701	15964
847.837	15435
847.972	15435
848.108	15526
848.244	15595
848.379	15424
848.515	15401
848.65	15340
848.786	15272
848.921	15401
849.057	15504
849.192	15485
849.328	15363
849.463	15370
849.598	15264
849.734	15306
849.869	15199
850.004	15093
850.14	15169
850.275	15070
850.41	15077
850.545	15138
850.68	15024
850.815	15165
850.95	15135
851.085	15188
851.22	15287
851.355	14986
851.49	15051
851.625	15131
851.76	15066
851.895	15009
852.03	14979
852.165	15131
852.299	15138
852.434	15230
852.569	15138
852.703	15157
852.838	15135
852.973	15256
853.107	15211
853.242	14998
853.376	15039
853.511	14853
853.645	14979
853.78	15135
853.914	14982
854.048	14990
854.183	14979
854.317	15032
854.451	15119
854.585	14914
854.72	14986
854.854	14994
854.988	14933
855.122	14982
855.256	14815
855.39	14883
855.524	15032
855.658	15013
855.792	15028
855.926	14979
856.06	15017
856.194	15009
856.327	15009
856.461	14918
856.595	14876
856.729	14929
856.862	15070
856.996	14941
857.13	15055
857.263	15055
857.397	15089
857.53	14845
857.664	15028
857.797	15112
857.931	15104
858.064	14990
858.197	15017
858.331	15017
858.464	14819
858.597	14849
858.731	14979
858.864	14906
858.997	15039
859.13	15001
859.263	15017
859.396	15028
859.529	14975
859.662	14918
859.795	14857
859.928	14998
860.061	15017
860.194	15039
860.327	14960
860.46	14941
860.592	15058
860.725	15036
860.858	15066
860.99	14963
861.123	14887
861.256	14864
861.388	15009
861.521	15648
861.653	14872
861.786	14758
861.918	14849
862.05	14826
862.183	14895
862.315	14914
862.447	14982
862.58	14921
862.712	14670
862.844	14686
862.976	14823
863.108	14777
863.24	15184
863.372	14678
863.504	14785
863.636	14705
863.768	14765
863.9	14697
864.032	14686
864.164	14636
864.296	14765
864.428	14739
864.559	14765
864.691	14754
864.823	14701
864.954	14849
865.086	14769
865.217	14693
865.349	14625
865.48	14648
865.612	14674
865.743	14857
865.875	14743
866.006	14640
866.137	14758
866.269	14674
866.4	14575
866.531	14697
866.662	14598
866.793	14644
866.924	14678
867.055	14765
867.186	14629
867.317	14651
867.448	14625
867.579	14625
867.71	14629
867.841	14636
867.972	14617
868.103	14773
868.233	14720
868.364	14693
868.495	14765
868.625	14918
868.756	14990
868.886	14857
869.017	14956
869.147	14933
869.278	15039
869.408	14948
869.539	14982
869.669	15165
869.799	14895
869.929	15108
870.06	15036
870.19	15188
870.32	15195
870.45	15279
870.58	15268
870.71	15374
870.84	15488
870.97	15192
871.1	15287
871.23	15431
871.36	15530
871.489	15515
871.619	15507
871.749	15584
871.879	15557
872.008	15561
872.138	15549
872.267	15549
872.397	15519
872.526	15344
872.656	15351
872.785	15344
872.915	15485
873.044	15561
873.173	15504
873.303	15644
873.432	15633
873.561	15698
873.69	15606
873.819	15564
873.948	15724
874.077	15686
874.206	15629
874.335	15595
874.464	15793
874.593	15899
874.722	15854
874.851	15953
874.979	15983
875.108	15930
875.237	15903
875.365	15854
875.494	15915
875.623	15994
875.751	15831
875.88	15918
876.008	16048
876.136	16257
876.265	16413
876.393	16542
876.521	16432
876.65	16375
876.778	16474
876.906	16379
877.034	16325
877.162	16318
877.29	16295
877.418	16386
877.546	16337
877.674	16356
877.802	16356
877.93	16329
878.058	16352
878.185	16379
878.313	16375
878.441	16405
878.568	16188
878.696	16398
878.824	16443
878.951	16546
879.079	16702
879.206	16809
879.333	16710
879.461	16637
879.588	16801
879.715	16847
879.842	16889
879.97	16630
880.097	16322
880.224	16333
880.351	16261
880.478	16325
880.605	16322
880.732	16268
880.859	16531
880.986	16226
881.112	16299
881.239	16204
881.366	16116
881.493	15922
881.619	15915
881.746	15907
881.872	15918
881.999	15842
882.125	15873
882.252	16074
882.378	15888
882.505	16086
882.631	15835
882.757	15637
882.883	15743
883.01	15694
883.136	15736
883.262	15618
883.388	15511
883.514	15713
883.64	15759
883.766	15690
883.892	15523
884.018	15599
884.143	15747
884.269	15846
884.395	15511
884.52	15507
884.646	15355
884.772	15416
884.897	15428
885.023	15477
885.148	15530
885.274	15538
885.399	15553
885.524	15477
885.65	15500
885.775	15401
885.9	15382
886.025	15595
886.15	15420
886.275	15435
886.4	15222
886.525	15317
886.65	15389
886.775	15268
886.9	15526
887.025	15580
887.149	15355
887.274	15252
887.399	15214
887.523	15173
887.648	15157
887.773	15184
887.897	15378
888.021	15317
888.146	15275
888.27	15329
888.395	15355
888.519	15321
888.643	15298
888.767	15214
888.891	15108
889.015	14963
889.139	15157
889.263	15017
889.387	15207
889.511	15291
889.635	15283
889.759	15032
889.883	15146
890.006	15032
890.13	15184
890.254	14906
890.377	14982
890.501	14845
890.624	14826
890.748	14883
890.871	14716
890.995	14693
891.118	14610
891.241	14724
891.364	14735
891.488	14746
891.611	14724
891.734	14724
891.857	14735
891.98	14807
892.103	14861
892.226	14792
892.349	14750
892.471	14636
892.594	14708
892.717	14811
892.839	14636
892.962	14678
893.085	14754
893.207	14731
893.33	14579
893.452	14693
893.575	14708
893.697	14758
893.819	14921
893.941	14933
894.064	14834
894.186	14670
894.308	14651
894.43	14769
894.552	14971
894.674	14842
894.796	14739
894.918	14765
895.04	14785
895.161	14739
895.283	14792
895.405	14727
895.526	14765
895.648	14762
895.769	14857
895.891	14914
896.012	14971
896.134	14906
896.255	14785
896.376	14883
896.498	14834
896.619	14921
896.74	14887
896.861	15036
896.982	15176
897.103	15294
897.224	15184
897.345	15051
897.466	15017
897.587	15017
897.708	15264
897.828	15089
897.949	15116
898.07	15009
898.19	15062
898.311	15298
898.431	15131
898.552	15249
898.672	15317
898.792	15245
898.913	15230
899.033	15036
899.153	15100
899.273	15009
899.393	15032
899.513	15100
899.633	14963
899.753	15123
899.873	15077
899.993	15123
900.113	15051
900.232	15104
900.352	15005
900.472	15024
900.591	14861
900.711	14906
900.83	15005
900.95	14998
901.069	15047
901.189	14834
901.308	14697
901.427	14495
901.546	14484
901.665	14606
901.784	14594
901.904	14465
902.023	14374
902.141	14176
902.26	14172
902.379	14259
902.498	14092
902.617	14149
902.735	14164
902.854	14027
902.973	14001
903.091	13803
903.21	13928
903.328	13822
903.446	13784
903.565	13700
903.683	13738
903.801	13548
903.919	13601
904.038	13552
904.156	13453
904.274	13571
904.392	13434
904.51	13464
904.627	13502
904.745	13464
904.863	13548
904.981	13297
905.098	13164
905.216	13183
905.334	13221
905.451	13129
905.569	13194
905.686	13175
905.803	13141
905.921	13053
906.038	13008
906.155	13008
906.272	12928
906.389	12909
906.506	12757
906.623	12791
906.74	12802
906.857	12642
906.974	12631
907.091	12764
907.208	13023
907.324	12772
907.441	12738
907.557	12566
907.674	12528
907.79	12426
907.907	12521
908.023	12540
908.139	12429
908.256	12494
908.372	12441
908.488	12350
908.604	12300
908.72	12296
908.836	12334
908.952	12251
909.068	12334
909.184	12426
909.3	12228
909.415	12289
909.531	12350
909.647	12022
909.762	11992
909.878	11980
909.993	12019
910.108	12022
910.224	11961
910.339	11969
910.454	11897
910.57	11912
910.685	11878
910.8	12095
910.915	12079
911.03	11950
911.145	11695
911.259	11710
911.374	11699
911.489	11642
911.604	11653
911.718	11539
911.833	11448
911.947	11364
912.062	11269
912.176	11444
912.291	11448
912.405	11493
912.519	11665
912.633	11680
912.748	11562
912.862	11406
912.976	11292
913.09	11178
913.204	11296
913.318	11315
913.431	11410
913.545	11478
913.659	11429
913.772	11376
913.886	11208
914	11185
914.113	11265
914.226	11341
914.34	11265
914.453	11178
914.566	11376
914.68	11223
914.793	11132
914.906	10987
915.019	10850
915.132	10900
915.245	10892
915.358	10908
915.47	10968
915.583	11018
915.696	10896
915.809	11048
915.921	11048
916.034	10866
916.146	10927
916.259	10873
916.371	10991
916.483	10934
916.595	10824
916.708	10850
916.82	10919
916.932	10828
917.044	10892
917.156	10900
917.268	10721
917.38	10752
917.491	10668
917.603	10759
917.715	10858
917.826	10866
917.938	10782
918.049	10615
918.161	10759
918.272	10854
918.384	10984
918.495	10725
918.606	10656
918.717	10596
918.828	10603
918.939	10641
919.05	10554
919.161	10607
919.272	10428
919.383	10527
919.494	10710
919.604	10805
919.715	10611
919.826	10523
919.936	10634
920.047	10691
920.157	10645
920.267	10866
920.378	10706
920.488	10702
920.598	10839
920.708	10923
920.818	10763
920.928	10839
921.038	10972
921.148	10911
921.258	10660
921.368	10618
921.477	10478
921.587	10421
921.697	10360
921.806	10478
921.916	10375
922.025	10196
922.134	10177
922.244	10131
922.353	10120
922.462	10078
922.571	9979
922.68	9888
922.789	9800
922.898	9869
923.007	9876
923.116	9884
923.224	9861
923.333	9800
923.442	9755
923.55	9724
923.659	9728
923.767	9785
923.876	9705
923.984	9759
924.092	9644
924.201	9808
924.309	9709
924.417	9675
924.525	9656
924.633	9625
924.741	10588
924.849	9443
924.956	9652
925.064	9511
925.172	9477
925.279	9466
925.387	9538
925.494	9485
925.602	9591
925.709	9587
925.816	9412
925.924	9473
926.031	9622
926.138	9534
926.245	9481
926.352	9367
926.459	9519
926.566	9557
926.673	9416
926.779	9325
926.886	9348
926.993	9199
927.099	9157
927.206	9142
927.312	9138
927.419	9192
927.525	9173
927.631	9214
927.737	9085
927.843	9093
927.95	8960
928.056	9051
928.162	9074
928.267	9100
928.373	9675
928.479	9173
928.585	8963
928.69	9020
928.796	9131
928.901	9085
929.007	8853
929.112	9032
929.218	8960
929.323	8857
929.428	8971
929.533	9089
929.638	8876
929.743	8891
929.848	8963
929.953	8899
930.058	8819
930.163	8617
930.267	8720
930.372	8762
930.477	8587
930.581	8918
930.685	8743
930.79	8640
930.894	8621
930.998	8568
931.103	8727
931.207	8347
931.311	8324
931.415	8317
931.519	8138
931.623	8077
