Data from test_V78500241_1063.txt Node
Date: Fri Mar 25 14:41:07 CST 2022
User: usil
Spectrometer: V785-0024
Trigger mode: 0
Integration Time (sec): 4.000000E-1
Scans to average: 1
Nonlinearity correction enabled: false
Boxcar width: 0
Storing dark spectrum: false
XAxis mode: Wavelengths
Number of Pixels in Spectrum: 1024
>>>>>Begin Spectral Data<<<<<
801.071	22767
801.214	22717
801.356	22500
801.499	22386
801.641	22257
801.783	22173
801.926	22242
802.068	21960
802.211	21979
802.353	22017
802.496	21667
802.638	21633
802.78	21660
802.923	21595
803.065	21458
803.208	21545
803.35	21393
803.492	21591
803.635	21713
803.777	21458
803.919	21591
804.061	21842
804.204	21641
804.346	21431
804.488	21431
804.63	21447
804.773	21374
804.915	21504
805.057	21618
805.199	21359
805.341	21618
805.483	21553
805.626	21511
805.768	21363
805.91	21545
806.052	21488
806.194	21428
806.336	21728
806.478	21523
806.62	21515
806.762	21583
806.904	21812
807.046	21895
807.188	21819
807.33	21854
807.472	21880
807.614	21895
807.756	21964
807.898	21759
808.04	21663
808.182	21831
808.324	21880
808.465	22059
808.607	22291
808.749	22432
808.891	22721
809.033	22710
809.174	22459
809.316	22276
809.458	22341
809.6	22074
809.741	22139
809.883	22055
810.025	22078
810.166	22204
810.308	22097
810.45	22185
810.591	22059
810.733	21808
810.875	21804
811.016	21587
811.158	21583
811.299	21797
811.441	21861
811.582	21766
811.724	21743
811.865	21671
812.007	21644
812.148	21633
812.29	21606
812.431	21934
812.573	22055
812.714	21987
812.855	22177
812.997	22230
813.138	22417
813.279	22242
813.421	22177
813.562	22154
813.703	21994
813.845	21884
813.986	21439
814.127	21363
814.268	21447
814.41	21279
814.551	21272
814.692	21291
814.833	21173
814.974	21218
815.115	21195
815.256	21032
815.397	20861
815.539	21195
815.68	21009
815.821	20967
815.962	20902
816.103	20910
816.244	20895
816.385	20705
816.526	20663
816.666	20564
816.807	20400
816.948	20454
817.089	20442
817.23	20484
817.371	20362
817.512	20267
817.653	20347
817.793	20366
817.934	20396
818.075	20419
818.216	20454
818.356	20256
818.497	20252
818.638	20062
818.778	20119
818.919	20092
819.06	20145
819.2	20107
819.341	20317
819.481	20240
819.622	20450
819.762	20442
819.903	20488
820.043	20408
820.184	20366
820.324	20343
820.465	20492
820.605	20374
820.746	20381
820.886	20149
821.026	20275
821.167	20393
821.307	20290
821.447	20221
821.588	20142
821.728	20046
821.868	19841
822.008	19643
822.149	19715
822.289	19776
822.429	19453
822.569	19327
822.709	19415
822.849	19358
822.99	19164
823.13	19202
823.27	19171
823.41	19122
823.55	18954
823.69	19091
823.83	19053
823.97	18856
824.11	18787
824.25	18741
824.389	18810
824.529	18863
824.669	18768
824.809	18920
824.949	18935
825.089	18878
825.228	18875
825.368	18604
825.508	18585
825.648	18601
825.787	18639
825.927	18673
826.067	18513
826.206	18604
826.346	18635
826.485	18623
826.625	18574
826.765	18612
826.904	18563
827.044	18486
827.183	18277
827.323	18239
827.462	18285
827.601	18289
827.741	18190
827.88	18300
828.02	18121
828.159	18285
828.298	18395
828.437	18311
828.577	18273
828.716	18342
828.855	18334
828.994	18060
829.134	18076
829.273	18022
829.412	18022
829.551	18007
829.69	18007
829.829	18106
829.968	18114
830.107	18106
830.246	17965
830.385	18003
830.524	17904
830.663	17946
830.802	17805
830.941	17524
831.08	17528
831.219	17786
831.357	17653
831.496	17874
831.635	17634
831.774	17566
831.913	17516
832.051	17497
832.19	17429
832.329	17440
832.467	17478
832.606	17440
832.744	17189
832.883	17372
833.022	17318
833.16	17372
833.299	17398
833.437	17391
833.576	17448
833.714	17505
833.852	17486
833.991	17471
834.129	17657
834.267	17528
834.406	17463
834.544	17406
834.682	17486
834.821	17311
834.959	17566
835.097	17379
835.235	17417
835.373	17318
835.511	17376
835.65	17284
835.788	17387
835.926	17166
836.064	17086
836.202	17090
836.34	17326
836.478	17376
836.615	17337
836.753	17341
836.891	17395
837.029	17330
837.167	17303
837.305	17261
837.443	17147
837.58	17162
837.718	17242
837.856	17189
837.993	17155
838.131	17067
838.269	17086
838.406	17102
838.544	17029
838.681	16850
838.819	16873
838.956	16790
839.094	16763
839.231	16733
839.369	16904
839.506	17056
839.643	17010
839.781	16702
839.918	16713
840.055	16786
840.193	16691
840.33	16679
840.467	16691
840.604	16717
840.742	16980
840.879	16470
841.016	16573
841.153	16637
841.29	16824
841.427	16698
841.564	16771
841.701	16801
841.838	16694
841.975	16599
842.112	16649
842.249	16504
842.385	16341
842.522	16626
842.659	16500
842.796	16466
842.933	16432
843.069	16291
843.206	16356
843.343	16504
843.479	16459
843.616	16443
843.752	16158
843.889	16325
844.025	16424
844.162	16242
844.298	16352
844.435	16185
844.571	16272
844.708	16348
844.844	16394
844.98	16440
845.117	16478
845.253	16246
845.389	16177
845.525	16322
845.661	16508
845.798	16500
845.934	16786
846.07	16713
846.206	16854
846.342	16797
846.478	16424
846.614	16147
846.75	15994
846.886	15774
847.022	15975
847.158	15823
847.294	15808
847.429	15778
847.565	15827
847.701	15987
847.837	15515
847.972	15492
848.108	15644
848.244	15675
848.379	15435
848.515	15401
848.65	15302
848.786	15370
848.921	15370
849.057	15549
849.192	15599
849.328	15485
849.463	15439
849.598	15237
849.734	15211
849.869	15279
850.004	15142
850.14	15260
850.275	15142
850.41	14990
850.545	15161
850.68	15001
850.815	15260
850.95	15188
851.085	15302
851.22	15313
851.355	15154
851.49	15173
851.625	15203
851.76	15146
851.895	15081
852.03	14944
852.165	15146
852.299	15161
852.434	15344
852.569	15222
852.703	15222
852.838	15218
852.973	15302
853.107	15283
853.242	15081
853.376	15036
853.511	14937
853.645	15138
853.78	15192
853.914	14971
854.048	15001
854.183	14956
854.317	14986
854.451	15256
854.585	15077
854.72	14960
854.854	15100
854.988	14990
855.122	15070
855.256	14811
855.39	14990
855.524	15051
855.658	15108
855.792	15058
855.926	15062
856.06	15146
856.194	15104
856.327	14975
856.461	15013
856.595	14861
856.729	15001
856.862	15154
856.996	15093
857.13	15104
857.263	15173
857.397	15154
857.53	15062
857.664	15058
857.797	15074
857.931	15180
858.064	15104
858.197	15104
858.331	14979
858.464	14971
858.597	14845
858.731	15043
858.864	15051
858.997	14933
859.13	15017
859.263	15039
859.396	15169
859.529	15024
859.662	14925
859.795	14937
859.928	15001
860.061	15188
860.194	15161
860.327	15081
860.46	15074
860.592	15230
860.725	15138
860.858	15055
860.99	14979
861.123	14921
861.256	15005
861.388	15020
861.521	15572
861.653	14986
861.786	14769
861.918	14857
862.05	15032
862.183	14937
862.315	15039
862.447	15055
862.58	14925
862.712	14743
862.844	14724
862.976	14845
863.108	14800
863.24	15256
863.372	14781
863.504	14811
863.636	14845
863.768	14853
863.9	14781
864.032	14804
864.164	14754
864.296	14899
864.428	14864
864.559	14880
864.691	14815
864.823	14910
864.954	14762
865.086	14880
865.217	14674
865.349	14781
865.48	14758
865.612	14735
865.743	14899
865.875	14697
866.006	14743
866.137	14746
866.269	14735
866.4	14678
866.531	14773
866.662	14697
866.793	14708
866.924	14781
867.055	14853
867.186	14727
867.317	14788
867.448	14590
867.579	14644
867.71	14648
867.841	14773
867.972	14788
868.103	14701
868.233	14788
868.364	14838
868.495	14807
868.625	14952
868.756	15180
868.886	14918
869.017	15024
869.147	15222
869.278	15085
869.408	15043
869.539	14998
869.669	15150
869.799	15108
869.929	15138
870.06	15157
870.19	15359
870.32	15348
870.45	15325
870.58	15443
870.71	15466
870.84	15488
870.97	15367
871.1	15466
871.23	15526
871.36	15709
871.489	15466
871.619	15641
871.749	15656
871.879	15641
872.008	15679
872.138	15648
872.267	15564
872.397	15443
872.526	15428
872.656	15431
872.785	15439
872.915	15599
873.044	15667
873.173	15629
873.303	15618
873.432	15682
873.561	15732
873.69	15774
873.819	15637
873.948	15751
874.077	15603
874.206	15606
874.335	15572
874.464	15770
874.593	15975
874.722	15903
874.851	15998
874.979	16074
875.108	16021
875.237	15979
875.365	15762
875.494	15983
875.623	16051
875.751	16006
875.88	16029
876.008	16128
876.136	16147
876.265	16417
876.393	16508
876.521	16542
876.65	16500
876.778	16337
876.906	16341
877.034	16272
877.162	16291
877.29	16276
877.418	16405
877.546	16356
877.674	16394
877.802	16386
877.93	16428
878.058	16436
878.185	16352
878.313	16421
878.441	16432
878.568	16371
878.696	16329
878.824	16455
878.951	16531
879.079	16664
879.206	16915
879.333	16790
879.461	16656
879.588	16892
879.715	16919
879.842	16850
879.97	16740
880.097	16447
880.224	16413
880.351	16409
880.478	16333
880.605	16382
880.732	16352
880.859	16550
880.986	16382
881.112	16363
881.239	16139
881.366	16166
881.493	16025
881.619	15922
881.746	16002
881.872	15991
881.999	15873
882.125	15937
882.252	15991
882.378	15911
882.505	16169
882.631	15865
882.757	15759
882.883	15888
883.01	15888
883.136	15690
883.262	15694
883.388	15618
883.514	15892
883.64	15785
883.766	15778
883.892	15473
884.018	15599
884.143	15762
884.269	15835
884.395	15507
884.52	15553
884.646	15431
884.772	15386
884.897	15416
885.023	15504
885.148	15519
885.274	15629
885.399	15599
885.524	15526
885.65	15428
885.775	15507
885.9	15492
886.025	15538
886.15	15580
886.275	15325
886.4	15332
886.525	15450
886.65	15272
886.775	15416
886.9	15553
887.025	15724
887.149	15492
887.274	15344
887.399	15188
887.523	15241
887.648	15176
887.773	15108
887.897	15298
888.021	15329
888.146	15157
888.27	15317
888.395	15272
888.519	15344
888.643	15321
888.767	15310
888.891	15207
889.015	15066
889.139	15112
889.263	15085
889.387	15195
889.511	15260
889.635	15176
889.759	15043
889.883	15077
890.006	15127
890.13	15135
890.254	15028
890.377	15093
890.501	14834
890.624	14807
890.748	14941
890.871	14838
890.995	14659
891.118	14701
891.241	14765
891.364	14648
891.488	14842
891.611	14792
891.734	14785
891.857	14792
891.98	14785
892.103	14914
892.226	14880
892.349	14727
892.471	14613
892.594	14716
892.717	14804
892.839	14689
892.962	14781
893.085	14743
893.207	14724
893.33	14636
893.452	14663
893.575	14746
893.697	14762
893.819	14910
893.941	14902
894.064	14975
894.186	14720
894.308	14746
894.43	14796
894.552	14899
894.674	14826
894.796	14552
894.918	14819
895.04	14693
895.161	14781
895.283	14895
895.405	14727
895.526	14826
895.648	14842
895.769	14792
895.891	14785
896.012	14872
896.134	14933
896.255	14849
896.376	14800
896.498	14891
896.619	14876
896.74	14861
896.861	15013
896.982	15245
897.103	15348
897.224	15161
897.345	15157
897.466	15001
897.587	15108
897.708	15218
897.828	15230
897.949	15108
898.07	15009
898.19	15089
898.311	15279
898.431	15203
898.552	15154
898.672	15336
898.792	15272
898.913	15256
899.033	15097
899.153	15085
899.273	14914
899.393	15024
899.513	15104
899.633	15131
899.753	15093
899.873	15043
899.993	15146
900.113	15070
900.232	15066
900.352	15028
900.472	14918
900.591	14887
900.711	14948
900.83	14788
900.95	15116
901.069	15001
901.189	14864
901.308	14625
901.427	14564
901.546	14575
901.665	14568
901.784	14743
901.904	14450
902.023	14400
902.141	14157
902.26	14195
902.379	14202
902.498	14172
902.617	14043
902.735	14244
902.854	14119
902.973	14046
903.091	13879
903.21	13898
903.328	13932
903.446	13799
903.565	13757
903.683	13719
903.801	13567
903.919	13670
904.038	13696
904.156	13495
904.274	13590
904.392	13533
904.51	13480
904.627	13556
904.745	13460
904.863	13575
904.981	13259
905.098	13263
905.216	13175
905.334	13312
905.451	13217
905.569	13225
905.686	13160
905.803	13232
905.921	12947
906.038	13053
906.155	13015
906.272	12894
906.389	12958
906.506	12829
906.623	12798
906.74	12776
906.857	12684
906.974	12684
907.091	12890
907.208	12882
907.324	12795
907.441	12677
907.557	12532
907.674	12570
907.79	12467
907.907	12384
908.023	12555
908.139	12426
908.256	12513
908.372	12456
908.488	12445
908.604	12292
908.72	12216
908.836	12346
908.952	12289
909.068	12289
909.184	12308
909.3	12292
909.415	12391
909.531	12372
909.647	12110
909.762	12003
909.878	12034
909.993	12076
910.108	12015
910.224	12057
910.339	11942
910.454	11889
910.57	11965
910.685	11817
910.8	12106
910.915	12015
911.03	11904
911.145	11680
911.259	11680
911.374	11688
911.489	11611
911.604	11592
911.718	11452
911.833	11512
911.947	11398
912.062	11387
912.176	11402
912.291	11505
912.405	11486
912.519	11611
912.633	11684
912.748	11459
912.862	11467
912.976	11402
913.09	11254
913.204	11223
913.318	11337
913.431	11448
913.545	11444
913.659	11493
913.772	11417
913.886	11216
914	11269
914.113	11383
914.226	11322
914.34	11330
914.453	11178
914.566	11261
914.68	11159
914.793	11193
914.906	11041
915.019	10999
915.132	10812
915.245	10930
915.358	10938
915.47	10949
915.583	11045
915.696	11048
915.809	10991
915.921	11109
916.034	10904
916.146	10889
916.259	10976
916.371	11071
916.483	10984
916.595	10889
916.708	10873
916.82	10835
916.932	10778
917.044	10911
917.156	10908
917.268	10847
917.38	10831
917.491	10755
917.603	10771
917.715	10824
917.826	10881
917.938	10744
918.049	10672
918.161	10771
918.272	10850
918.384	10881
918.495	10790
918.606	10710
918.717	10603
918.828	10637
918.939	10645
919.05	10561
919.161	10622
919.272	10379
919.383	10481
919.494	10725
919.604	10915
919.715	10694
919.826	10645
919.936	10603
920.047	10679
920.157	10588
920.267	10858
920.378	10683
920.488	10561
920.598	10866
920.708	11060
920.818	10820
920.928	10854
921.038	10999
921.148	10930
921.258	10691
921.368	10599
921.477	10546
921.587	10542
921.697	10379
921.806	10455
921.916	10390
922.025	10207
922.134	10169
922.244	10150
922.353	10207
922.462	10010
922.571	10040
922.68	9922
922.789	9884
922.898	9937
923.007	9888
923.116	9945
923.224	9835
923.333	9854
923.442	9762
923.55	9778
923.659	9793
923.767	9827
923.876	9778
923.984	9793
924.092	9675
924.201	9709
924.309	9675
924.417	9720
924.525	9717
924.633	9629
924.741	10679
924.849	9523
924.956	9717
925.064	9466
925.172	9466
925.279	9485
925.387	9545
925.494	9584
925.602	9618
925.709	9515
925.816	9420
925.924	9564
926.031	9614
926.138	9530
926.245	9545
926.352	9370
926.459	9504
926.566	9595
926.673	9450
926.779	9359
926.886	9336
926.993	9249
927.099	9123
927.206	9077
927.312	9188
927.419	9272
927.525	9218
927.631	9226
927.737	9100
927.843	9074
927.95	9001
928.056	9085
928.162	9081
928.267	9154
928.373	9808
928.479	9203
928.585	8895
928.69	9119
928.796	9100
928.901	9020
929.007	8796
929.112	9085
929.218	9009
929.323	8937
929.428	8861
929.533	8986
929.638	8834
929.743	8895
929.848	8891
929.953	8899
930.058	8876
930.163	8613
930.267	8663
930.372	8895
930.477	8644
930.581	8864
930.685	8727
930.79	8610
930.894	8621
930.998	8560
931.103	8701
931.207	8419
931.311	8282
931.415	8248
931.519	8157
931.623	8107
