Data from test_V78500241_1924.txt Node
Date: Fri Mar 25 14:47:06 CST 2022
User: usil
Spectrometer: V785-0024
Trigger mode: 0
Integration Time (sec): 4.000000E-1
Scans to average: 1
Nonlinearity correction enabled: false
Boxcar width: 0
Storing dark spectrum: false
XAxis mode: Wavelengths
Number of Pixels in Spectrum: 1024
>>>>>Begin Spectral Data<<<<<
801.071	22029
801.214	21823
801.356	21713
801.499	21641
801.641	21488
801.783	21511
801.926	21534
802.068	21428
802.211	21325
802.353	21272
802.496	20971
802.638	20963
802.78	20864
802.923	20826
803.065	20750
803.208	20758
803.35	20765
803.492	20781
803.635	20842
803.777	20674
803.919	20842
804.061	21036
804.204	20883
804.346	20670
804.488	20785
804.63	20724
804.773	20648
804.915	20670
805.057	20876
805.199	20625
805.341	20701
805.483	20842
805.626	20697
805.768	20727
805.91	20739
806.052	20750
806.194	20598
806.336	20826
806.478	20689
806.62	20716
806.762	20727
806.904	20792
807.046	21161
807.188	20921
807.33	20937
807.472	21116
807.614	20967
807.756	20971
807.898	20689
808.04	20731
808.182	20655
808.324	20788
808.465	20777
808.607	20891
808.749	21070
808.891	21081
809.033	21291
809.174	21150
809.316	21001
809.458	20891
809.6	20990
809.741	21047
809.883	21108
810.025	21161
810.166	21154
810.308	21142
810.45	21081
810.591	21020
810.733	20883
810.875	20796
811.016	20746
811.158	20689
811.299	20876
811.441	20925
811.582	20807
811.724	20796
811.865	20807
812.007	20788
812.148	20773
812.29	20807
812.431	20933
812.573	21127
812.714	21169
812.855	21203
812.997	21431
813.138	21481
813.279	21431
813.421	21332
813.562	21291
813.703	21051
813.845	21043
813.986	20667
814.127	20587
814.268	20339
814.41	20484
814.551	20324
814.692	20355
814.833	20305
814.974	20351
815.115	20355
815.256	20081
815.397	20199
815.539	20172
815.68	20073
815.821	20039
815.962	20035
816.103	20069
816.244	19879
816.385	19757
816.526	19871
816.666	19643
816.807	19476
816.948	19639
817.089	19647
817.23	19594
817.371	19438
817.512	19453
817.653	19480
817.793	19407
817.934	19480
818.075	19563
818.216	19449
818.356	19533
818.497	19259
818.638	19133
818.778	19152
818.919	19152
819.06	19251
819.2	19236
819.341	19312
819.481	19480
819.622	19552
819.762	19742
819.903	19567
820.043	19556
820.184	19544
820.324	19415
820.465	19510
820.605	19457
820.746	19533
820.886	19480
821.026	19548
821.167	19373
821.307	19403
821.447	19381
821.588	19266
821.728	19103
821.868	19019
822.008	18871
822.149	18810
822.289	18787
822.429	18734
822.569	18559
822.709	18635
822.849	18429
822.99	18251
823.13	18342
823.27	18357
823.41	18133
823.55	18182
823.69	18289
823.83	18114
823.97	18064
824.11	18076
824.25	17980
824.389	18049
824.529	18053
824.669	17996
824.809	18148
824.949	18041
825.089	18049
825.228	17973
825.368	17756
825.508	17866
825.648	17828
825.787	17870
825.927	17817
826.067	17741
826.206	17764
826.346	17847
826.485	17859
826.625	17775
826.765	17916
826.904	17809
827.044	17611
827.183	17535
827.323	17448
827.462	17535
827.601	17433
827.741	17532
827.88	17482
828.02	17448
828.159	17463
828.298	17509
828.437	17463
828.577	17414
828.716	17596
828.855	17448
828.994	17364
829.134	17265
829.273	17322
829.412	17178
829.551	17128
829.69	17162
829.829	17349
829.968	17353
830.107	17360
830.246	17315
830.385	17269
830.524	17113
830.663	17045
830.802	17018
830.941	16847
831.08	16923
831.219	16904
831.357	17010
831.496	17033
831.635	16987
831.774	16771
831.913	16675
832.051	16611
832.19	16626
832.329	16748
832.467	16603
832.606	16504
832.744	16584
832.883	16527
833.022	16561
833.16	16607
833.299	16634
833.437	16580
833.576	16691
833.714	16664
833.852	16626
833.991	16596
834.129	16687
834.267	16683
834.406	16672
834.544	16637
834.682	16599
834.821	16618
834.959	16755
835.097	16660
835.235	16748
835.373	16637
835.511	16618
835.65	16443
835.788	16489
835.926	16299
836.064	16303
836.202	16367
836.34	16626
836.478	16573
836.615	16577
836.753	16538
836.891	16653
837.029	16637
837.167	16417
837.305	16516
837.443	16459
837.58	16417
837.718	16409
837.856	16382
837.993	16386
838.131	16352
838.269	16398
838.406	16352
838.544	16303
838.681	16223
838.819	16166
838.956	15953
839.094	15941
839.231	15972
839.369	16032
839.506	16432
839.643	16318
839.781	16017
839.918	15823
840.055	16029
840.193	15998
840.33	15915
840.467	15869
840.604	15899
840.742	16162
840.879	15873
841.016	15861
841.153	15895
841.29	16025
841.427	15941
841.564	16036
841.701	15949
841.838	15964
841.975	15785
842.112	15899
842.249	15606
842.385	15755
842.522	15804
842.659	15690
842.796	15819
842.933	15679
843.069	15686
843.206	15603
843.343	15720
843.479	15778
843.616	15667
843.752	15625
843.889	15420
844.025	15679
844.162	15580
844.298	15629
844.435	15568
844.571	15606
844.708	15652
844.844	15671
844.98	15751
845.117	15622
845.253	15526
845.389	15431
845.525	15462
845.661	15405
845.798	15397
845.934	15405
846.07	15283
846.206	15374
846.342	15393
846.478	15374
846.614	15119
846.75	15100
846.886	15001
847.022	15188
847.158	15146
847.294	15112
847.429	15176
847.565	15070
847.701	15302
847.837	14921
847.972	14883
848.108	14933
848.244	14880
848.379	14773
848.515	14735
848.65	14655
848.786	14686
848.921	14807
849.057	14838
849.192	14743
849.328	14708
849.463	14648
849.598	14670
849.734	14648
849.869	14564
850.004	14484
850.14	14480
850.275	14465
850.41	14412
850.545	14366
850.68	14488
850.815	14457
850.95	14393
851.085	14689
851.22	14670
851.355	14492
851.49	14434
851.625	14423
851.76	14381
851.895	14415
852.03	14366
852.165	14434
852.299	14469
852.434	14450
852.569	14610
852.703	14488
852.838	14488
852.973	14575
853.107	14621
853.242	14385
853.376	14324
853.511	14248
853.645	14336
853.78	14560
853.914	14343
854.048	14374
854.183	14294
854.317	14358
854.451	14442
854.585	14305
854.72	14252
854.854	14396
854.988	14202
855.122	14355
855.256	14248
855.39	14275
855.524	14415
855.658	14374
855.792	14332
855.926	14457
856.06	14332
856.194	14492
856.327	14404
856.461	14343
856.595	14374
856.729	14343
856.862	14400
856.996	14290
857.13	14507
857.263	14431
857.397	14541
857.53	14282
857.664	14381
857.797	14400
857.931	14476
858.064	14408
858.197	14465
858.331	14332
858.464	14278
858.597	14180
858.731	14328
858.864	14278
858.997	14336
859.13	14305
859.263	14377
859.396	14431
859.529	14370
859.662	14202
859.795	14320
859.928	14347
860.061	14457
860.194	14575
860.327	14320
860.46	14446
860.592	14374
860.725	14385
860.858	14393
860.99	14282
861.123	14271
861.256	14221
861.388	14351
861.521	15108
861.653	14157
861.786	14210
861.918	14248
862.05	14324
862.183	14317
862.315	14332
862.447	14393
862.58	14309
862.712	14134
862.844	14081
862.976	14237
863.108	14145
863.24	14396
863.372	14035
863.504	14100
863.636	14126
863.768	14100
863.9	14115
864.032	14035
864.164	14084
864.296	14145
864.428	14214
864.559	14233
864.691	14221
864.823	14229
864.954	14100
865.086	14210
865.217	14202
865.349	14172
865.48	14100
865.612	14119
865.743	14317
865.875	14138
866.006	14077
866.137	14107
866.269	14115
866.4	14035
866.531	14084
866.662	14164
866.793	14046
866.924	14001
867.055	14096
867.186	14065
867.317	14016
867.448	13963
867.579	14103
867.71	14046
867.841	14062
867.972	14138
868.103	14020
868.233	14069
868.364	14119
868.495	14248
868.625	14355
868.756	14434
868.886	14149
869.017	14305
869.147	14533
869.278	14427
869.408	14351
869.539	14370
869.669	14526
869.799	14336
869.929	14385
870.06	14495
870.19	14712
870.32	14655
870.45	14655
870.58	14743
870.71	14887
870.84	14823
870.97	14705
871.1	14735
871.23	14891
871.36	14979
871.489	14853
871.619	14864
871.749	14941
871.879	15013
872.008	15024
872.138	14975
872.267	14971
872.397	14815
872.526	14712
872.656	14773
872.785	14697
872.915	14899
873.044	15081
873.173	15028
873.303	15058
873.432	15085
873.561	15047
873.69	14960
873.819	15051
873.948	15036
874.077	15062
874.206	14956
874.335	14948
874.464	15173
874.593	15332
874.722	15233
874.851	15279
874.979	15370
875.108	15386
875.237	15351
875.365	15203
875.494	15241
875.623	15382
875.751	15416
875.88	15386
876.008	15462
876.136	15553
876.265	15808
876.393	15854
876.521	15823
876.65	15816
876.778	15679
876.906	15770
877.034	15606
877.162	15747
877.29	15572
877.418	15774
877.546	15648
877.674	15713
877.802	15762
877.93	15701
878.058	15686
878.185	15587
878.313	15793
878.441	15663
878.568	15568
878.696	15690
878.824	15736
878.951	15770
879.079	15846
879.206	16048
879.333	15945
879.461	15835
879.588	15838
879.715	15926
879.842	15949
879.97	15823
880.097	15488
880.224	15587
880.351	15591
880.478	15599
880.605	15496
880.732	15511
880.859	15762
880.986	15545
881.112	15610
881.239	15530
881.366	15393
881.493	15184
881.619	15173
881.746	15252
881.872	15272
881.999	15192
882.125	15150
882.252	15310
882.378	15264
882.505	15393
882.631	15226
882.757	15001
882.883	15043
883.01	15055
883.136	15070
883.262	14925
883.388	14910
883.514	15058
883.64	15135
883.766	15036
883.892	14967
884.018	14876
884.143	14952
884.269	15077
884.395	14796
884.52	14773
884.646	14716
884.772	14693
884.897	14727
885.023	14765
885.148	14880
885.274	14872
885.399	14765
885.524	14762
885.65	14823
885.775	14891
885.9	14720
886.025	14781
886.15	14754
886.275	14686
886.4	14636
886.525	14716
886.65	14678
886.775	14670
886.9	14910
887.025	14921
887.149	14792
887.274	14594
887.399	14537
887.523	14549
887.648	14514
887.773	14434
887.897	14602
888.021	14640
888.146	14575
888.27	14583
888.395	14708
888.519	14610
888.643	14701
888.767	14697
888.891	14583
889.015	14450
889.139	14469
889.263	14442
889.387	14507
889.511	14659
889.635	14552
889.759	14457
889.883	14457
890.006	14465
890.13	14568
890.254	14328
890.377	14480
890.501	14233
890.624	14248
890.748	14328
890.871	14172
890.995	14183
891.118	14134
891.241	14081
891.364	14164
891.488	14157
891.611	14225
891.734	14172
891.857	14199
891.98	14100
892.103	14157
892.226	14180
892.349	14142
892.471	13986
892.594	14005
892.717	14199
892.839	14069
892.962	14187
893.085	14248
893.207	14161
893.33	14081
893.452	14020
893.575	14202
893.697	14081
893.819	14320
893.941	14362
894.064	14233
894.186	14103
894.308	14031
894.43	14103
894.552	14351
894.674	14290
894.796	14157
894.918	14210
895.04	14168
895.161	14355
895.283	14275
895.405	14157
895.526	14290
895.648	14229
895.769	14309
895.891	14336
896.012	14313
896.134	14294
896.255	14301
896.376	14355
896.498	14210
896.619	14271
896.74	14332
896.861	14355
896.982	14686
897.103	14823
897.224	14606
897.345	14571
897.466	14476
897.587	14556
897.708	14708
897.828	14617
897.949	14556
898.07	14434
898.19	14469
898.311	14716
898.431	14598
898.552	14686
898.672	14781
898.792	14743
898.913	14590
899.033	14560
899.153	14419
899.273	14370
899.393	14450
899.513	14488
899.633	14412
899.753	14488
899.873	14408
899.993	14511
900.113	14492
900.232	14495
900.352	14450
900.472	14499
900.591	14214
900.711	14374
900.83	14343
900.95	14476
901.069	14404
901.189	14309
901.308	14100
901.427	14024
901.546	14046
901.665	14088
901.784	14123
901.904	13894
902.023	13833
902.141	13685
902.26	13601
902.379	13636
902.498	13601
902.617	13480
902.735	13643
902.854	13563
902.973	13548
903.091	13377
903.21	13316
903.328	13346
903.446	13209
903.565	13194
903.683	13255
903.801	13103
903.919	13225
904.038	13088
904.156	13050
904.274	13080
904.392	12985
904.51	12894
904.627	12973
904.745	13145
904.863	13137
904.981	12779
905.098	12673
905.216	12696
905.334	12719
905.451	12620
905.569	12639
905.686	12863
905.803	12722
905.921	12483
906.038	12631
906.155	12517
906.272	12384
906.389	12521
906.506	12311
906.623	12266
906.74	12201
906.857	12175
906.974	12220
907.091	12407
907.208	12479
907.324	12330
907.441	12224
907.557	12022
907.674	12098
907.79	11992
907.907	11946
908.023	12076
908.139	12022
908.256	12152
908.372	12022
908.488	11893
908.604	11745
908.72	11760
908.836	11802
908.952	11771
909.068	11790
909.184	11790
909.3	11733
909.415	11798
909.531	11798
909.647	11653
909.762	11657
909.878	11661
909.993	11581
910.108	11539
910.224	11562
910.339	11608
910.454	11482
910.57	11315
910.685	11414
910.8	11589
910.915	11512
911.03	11474
911.145	11349
911.259	11273
911.374	11284
911.489	11132
911.604	11117
911.718	11064
911.833	11025
911.947	10949
912.062	10790
912.176	11003
912.291	11048
912.405	10972
912.519	11105
912.633	11227
912.748	11018
912.862	11048
912.976	10923
913.09	10767
913.204	10923
913.318	10892
913.431	10999
913.545	10946
913.659	11006
913.772	10923
913.886	10824
914	10752
914.113	10896
914.226	10934
914.34	10839
914.453	10698
914.566	10858
914.68	10748
914.793	10740
914.906	10519
915.019	10455
915.132	10382
915.245	10500
915.358	10542
915.47	10535
915.583	10516
915.696	10565
915.809	10573
915.921	10763
916.034	10527
916.146	10497
916.259	10386
916.371	10603
916.483	10497
916.595	10451
916.708	10462
916.82	10440
916.932	10474
917.044	10402
917.156	10367
917.268	10303
917.38	10344
917.491	10318
917.603	10382
917.715	10413
917.826	10451
917.938	10219
918.049	10162
918.161	10322
918.272	10531
918.384	10478
918.495	10413
918.606	10181
918.717	10200
918.828	10303
918.939	10280
919.05	10147
919.161	10101
919.272	10029
919.383	10051
919.494	10325
919.604	10424
919.715	10242
919.826	10090
919.936	10188
920.047	10341
920.157	10291
920.267	10470
920.378	10333
920.488	10299
920.598	10394
920.708	10599
920.818	10432
920.928	10447
921.038	10634
921.148	10637
921.258	10333
921.368	10230
921.477	10169
921.587	10093
921.697	9918
921.806	10105
921.916	9991
922.025	9785
922.134	9774
922.244	9724
922.353	9793
922.462	9701
922.571	9637
922.68	9458
922.789	9507
922.898	9496
923.007	9462
923.116	9435
923.224	9397
923.333	9492
923.442	9416
923.55	9336
923.659	9420
923.767	9424
923.876	9374
923.984	9469
924.092	9260
924.201	9458
924.309	9355
924.417	9370
924.525	9230
924.633	9260
924.741	10276
924.849	9157
924.956	9230
925.064	9131
925.172	9081
925.279	9074
925.387	9161
925.494	9066
925.602	9336
925.709	9218
925.816	9077
925.924	9222
926.031	9302
926.138	9218
926.245	9180
926.352	9127
926.459	9131
926.566	9332
926.673	9066
926.779	8994
926.886	8948
926.993	8902
927.099	8921
927.206	8838
927.312	8834
927.419	8864
927.525	8921
927.631	8944
927.737	8762
927.843	8754
927.95	8632
928.056	8705
928.162	8750
928.267	8815
928.373	9443
928.479	8864
928.585	8632
928.69	8762
928.796	8819
928.901	8621
929.007	8537
929.112	8663
929.218	8655
929.323	8579
929.428	8549
929.533	8682
929.638	8541
929.743	8533
929.848	8613
929.953	8545
930.058	8518
930.163	8355
930.267	8431
930.372	8476
930.477	8324
930.581	8579
930.685	8457
930.79	8248
930.894	8313
930.998	8248
931.103	8488
931.207	8134
931.311	8016
931.415	7890
931.519	7757
931.623	7807
