Data from test_V78500241_141.txt Node
Date: Fri Mar 25 14:34:42 CST 2022
User: usil
Spectrometer: V785-0024
Trigger mode: 0
Integration Time (sec): 4.000000E-1
Scans to average: 1
Nonlinearity correction enabled: false
Boxcar width: 0
Storing dark spectrum: false
XAxis mode: Wavelengths
Number of Pixels in Spectrum: 1024
>>>>>Begin Spectral Data<<<<<
801.071	29916
801.214	29817
801.356	29707
801.499	29387
801.641	29334
801.783	29356
801.926	29334
802.068	29212
802.211	29147
802.353	29231
802.496	29041
802.638	29143
802.78	28957
802.923	28828
803.065	28790
803.208	28949
803.35	28869
803.492	29162
803.635	29242
803.777	29083
803.919	29223
804.061	29334
804.204	29071
804.346	29018
804.488	29208
804.63	28987
804.773	29056
804.915	29117
805.057	29299
805.199	29280
805.341	29421
805.483	29383
805.626	29406
805.768	29375
805.91	29524
806.052	29638
806.194	29509
806.336	29999
806.478	29802
806.62	29935
806.762	29973
806.904	30327
807.046	30783
807.188	30894
807.33	31080
807.472	31521
807.614	31860
807.756	32240
807.898	32667
808.04	33462
808.182	34607
808.324	36038
808.465	37620
808.607	39294
808.749	40885
808.891	41509
809.033	41672
809.174	40721
809.316	39104
809.458	37514
809.6	35623
809.741	34455
809.883	33397
810.025	32716
810.166	32115
810.308	31677
810.45	31381
810.591	31202
810.733	30749
810.875	30658
811.016	30235
811.158	30266
811.299	30346
811.441	30155
811.582	30163
811.724	30011
811.865	29756
812.007	29817
812.148	29908
812.29	29790
812.431	29931
812.573	29977
812.714	30026
812.855	30209
812.997	30209
813.138	30338
813.279	30197
813.421	30159
813.562	29999
813.703	29737
813.845	29775
813.986	29425
814.127	29307
814.268	29098
814.41	29033
814.551	29044
814.692	29151
814.833	29033
814.974	28927
815.115	29079
815.256	28736
815.397	28733
815.539	28755
815.68	28759
815.821	28656
815.962	28637
816.103	28500
816.244	28485
816.385	28371
816.526	28276
816.666	28074
816.807	28074
816.948	28139
817.089	28204
817.23	28116
817.371	28044
817.512	27903
817.653	27994
817.793	27930
817.934	27998
818.075	28006
818.216	28086
818.356	27652
818.497	27850
818.638	27526
818.778	27770
818.919	27663
819.06	27713
819.2	27808
819.341	27766
819.481	27880
819.622	28070
819.762	28272
819.903	28109
820.043	28082
820.184	27949
820.324	27888
820.465	27865
820.605	27778
820.746	27812
820.886	27663
821.026	27914
821.167	27873
821.307	27846
821.447	27869
821.588	27583
821.728	27389
821.868	27275
822.008	27036
822.149	27085
822.289	26906
822.429	26872
822.569	26781
822.709	26853
822.849	26511
822.99	26457
823.13	26431
823.27	26469
823.41	26400
823.55	26252
823.69	26351
823.83	26374
823.97	26252
824.11	26103
824.25	26084
824.389	26081
824.529	26225
824.669	26130
824.809	26134
824.949	26153
825.089	26043
825.228	26119
825.368	25826
825.508	25879
825.648	25864
825.787	25966
825.927	25917
826.067	26008
826.206	25997
826.346	25944
826.485	26005
826.625	25860
826.765	26058
826.904	25776
827.044	25571
827.183	25647
827.323	25499
827.462	25586
827.601	25514
827.741	25377
827.88	25422
828.02	25430
828.159	25384
828.298	25407
828.437	25472
828.577	25506
828.716	25571
828.855	25449
828.994	25221
829.134	25171
829.273	25274
829.412	25308
829.551	25168
829.69	25209
829.829	25160
829.968	25289
830.107	25297
830.246	25209
830.385	25023
830.524	25145
830.663	25069
830.802	24894
830.941	24719
831.08	24760
831.219	24867
831.357	24783
831.496	24859
831.635	24696
831.774	24661
831.913	24654
832.051	24597
832.19	24544
832.329	24597
832.467	24486
832.606	24559
832.744	24422
832.883	24612
833.022	24517
833.16	24563
833.299	24631
833.437	24612
833.576	24890
833.714	24970
833.852	24989
833.991	25008
834.129	25072
834.267	25145
834.406	25202
834.544	24954
834.682	24825
834.821	24890
834.959	24992
835.097	24642
835.235	24749
835.373	24547
835.511	24505
835.65	24410
835.788	24388
835.926	24220
836.064	24053
836.202	24114
836.34	24369
836.478	24369
836.615	24220
836.753	24270
836.891	24266
837.029	24155
837.167	24186
837.305	24125
837.443	23969
837.58	23973
837.718	24091
837.856	24053
837.993	23885
838.131	23984
838.269	23767
838.406	23832
838.544	23764
838.681	23604
838.819	23604
838.956	23395
839.094	23425
839.231	23395
839.369	23600
839.506	23813
839.643	23623
839.781	23414
839.918	23349
840.055	23330
840.193	23189
840.33	23341
840.467	23212
840.604	23254
840.742	23543
840.879	23174
841.016	23231
841.153	23159
841.29	23235
841.427	23162
841.564	23204
841.701	23147
841.838	23185
841.975	23048
842.112	23277
842.249	23037
842.385	23128
842.522	23048
842.659	23117
842.796	23086
842.933	23033
843.069	22949
843.206	23056
843.343	23136
843.479	23044
843.616	23010
843.752	22869
843.889	22873
844.025	23124
844.162	22904
844.298	23060
844.435	23140
844.571	22965
844.708	23467
844.844	23562
844.98	23798
845.117	24091
845.253	24597
845.389	25308
845.525	27081
845.661	29988
845.798	33610
845.934	36251
846.07	37323
846.206	36684
846.342	34554
846.478	30928
846.614	27739
846.75	25780
846.886	24338
847.022	23779
847.158	23200
847.294	22900
847.429	22752
847.565	22653
847.701	22664
847.837	22394
847.972	22177
848.108	22257
848.244	22116
848.379	21831
848.515	21816
848.65	21880
848.786	21800
848.921	21709
849.057	21903
849.192	21911
849.328	21739
849.463	21915
849.598	21804
849.734	21648
849.869	21606
850.004	21515
850.14	21511
850.275	21549
850.41	21424
850.545	21428
850.68	21519
850.815	21511
850.95	21477
851.085	21595
851.22	21488
851.355	21564
851.49	21412
851.625	21412
851.76	21408
851.895	21370
852.03	21283
852.165	21401
852.299	21526
852.434	21614
852.569	21496
852.703	21511
852.838	21534
852.973	21679
853.107	21618
853.242	21431
853.376	21386
853.511	21344
853.645	21351
853.78	21530
853.914	21469
854.048	21325
854.183	21523
854.317	21526
854.451	21671
854.585	21447
854.72	21393
854.854	21500
854.988	21348
855.122	21466
855.256	21306
855.39	21313
855.524	21416
855.658	21412
855.792	21252
855.926	21389
856.06	21329
856.194	21389
856.327	21241
856.461	21302
856.595	21207
856.729	21180
856.862	21336
856.996	21245
857.13	21428
857.263	21367
857.397	21317
857.53	21104
857.664	21272
857.797	21237
857.931	21302
858.064	21188
858.197	21298
858.331	21184
858.464	21135
858.597	20952
858.731	21074
858.864	21142
858.997	21127
859.13	21264
859.263	21112
859.396	21192
859.529	20998
859.662	20941
859.795	21176
859.928	21066
860.061	21291
860.194	21321
860.327	21051
860.46	21173
860.592	21302
860.725	21218
860.858	21283
860.99	21055
861.123	21009
861.256	21066
861.388	21104
861.521	21808
861.653	20986
861.786	20925
861.918	20899
862.05	21009
862.183	21096
862.315	21100
862.447	21089
862.58	20967
862.712	20929
862.844	20777
862.976	20769
863.108	20807
863.24	21119
863.372	20712
863.504	20773
863.636	20773
863.768	20781
863.9	20853
864.032	20708
864.164	20598
864.296	20781
864.428	20887
864.559	20807
864.691	20872
864.823	20731
864.954	20689
865.086	20773
865.217	20602
865.349	20484
865.48	20705
865.612	20689
865.743	20735
865.875	20689
866.006	20632
866.137	20762
866.269	20632
866.4	20674
866.531	20583
866.662	20503
866.793	20541
866.924	20629
867.055	20518
867.186	20629
867.317	20552
867.448	20590
867.579	20568
867.71	20438
867.841	20495
867.972	20590
868.103	20590
868.233	20651
868.364	20518
868.495	20564
868.625	20925
868.756	20921
868.886	20807
869.017	20857
869.147	20880
869.278	21001
869.408	20830
869.539	20826
869.669	20899
869.799	20880
869.929	20918
870.06	20883
870.19	21081
870.32	21024
870.45	21135
870.58	21367
870.71	21329
870.84	21393
870.97	21135
871.1	21302
871.23	21428
871.36	21534
871.489	21351
871.619	21405
871.749	21443
871.879	21515
872.008	21641
872.138	21652
872.267	21466
872.397	21351
872.526	21370
872.656	21310
872.785	21397
872.915	21599
873.044	21614
873.173	21614
873.303	21591
873.432	21568
873.561	21816
873.69	21603
873.819	21633
873.948	21762
874.077	21690
874.206	21743
874.335	21648
874.464	21861
874.593	21892
874.722	21903
874.851	22082
874.979	22154
875.108	21945
875.237	22029
875.365	22021
875.494	22131
875.623	22086
875.751	22128
875.88	22082
876.008	22234
876.136	22413
876.265	22740
876.393	22790
876.521	22649
876.65	22793
876.778	22744
876.906	22710
877.034	22618
877.162	22793
877.29	22900
877.418	22881
877.546	22976
877.674	22877
877.802	22961
877.93	23033
878.058	23121
878.185	23048
878.313	23429
878.441	23493
878.568	23699
878.696	24049
878.824	24525
878.951	25118
879.079	25864
879.206	27013
879.333	28101
879.461	28927
879.588	29562
879.715	29646
879.842	29124
879.97	28109
880.097	26777
880.224	26065
880.351	25324
880.478	24817
880.605	24601
880.732	24399
880.859	24505
880.986	24197
881.112	24102
881.239	24003
881.366	23889
881.493	23885
881.619	23786
881.746	23824
881.872	23657
881.999	23760
882.125	23634
882.252	23851
882.378	23851
882.505	23870
882.631	23748
882.757	23630
882.883	23771
883.01	23539
883.136	23619
883.262	23410
883.388	23452
883.514	23661
883.64	23577
883.766	23455
883.892	23433
884.018	23440
884.143	23478
884.269	23604
884.395	23242
884.52	23318
884.646	23235
884.772	23223
884.897	23044
885.023	23258
885.148	23307
885.274	23193
885.399	23242
885.524	23010
885.65	22980
885.775	22976
885.9	22866
886.025	22923
886.15	22828
886.275	22535
886.4	22512
886.525	22497
886.65	22318
886.775	22402
886.9	22360
887.025	22432
887.149	22147
887.274	21991
887.399	21831
887.523	21778
887.648	21854
887.773	21663
887.897	21827
888.021	21800
888.146	21701
888.27	21656
888.395	21747
888.519	21823
888.643	21576
888.767	21671
888.891	21367
889.015	21386
889.139	21431
889.263	21317
889.387	21382
889.511	21386
889.635	21374
889.759	21116
889.883	21127
890.006	21256
890.13	21241
890.254	21081
890.377	21150
890.501	20895
890.624	20902
890.748	20891
890.871	20758
890.995	20648
891.118	20533
891.241	20552
891.364	20560
891.488	20632
891.611	20594
891.734	20590
891.857	20571
891.98	20530
892.103	20549
892.226	20602
892.349	20438
892.471	20290
892.594	20366
892.717	20514
892.839	20294
892.962	20267
893.085	20278
893.207	20191
893.33	20187
893.452	20252
893.575	20301
893.697	20290
893.819	20389
893.941	20465
894.064	20229
894.186	20248
894.308	20149
894.43	20225
894.552	20225
894.674	20199
894.796	19959
894.918	20073
895.04	20138
895.161	20153
895.283	20130
895.405	20043
895.526	20077
895.648	20126
895.769	19993
895.891	20119
896.012	20081
896.134	20172
896.255	20180
896.376	20065
896.498	20031
896.619	19936
896.74	20103
896.861	20206
896.982	20324
897.103	20575
897.224	20339
897.345	20126
897.466	20180
897.587	20248
897.708	20427
897.828	20256
897.949	20157
898.07	20164
898.19	20157
898.311	20275
898.431	20126
898.552	20191
898.672	20214
898.792	20103
898.913	20210
899.033	20130
899.153	19917
899.273	19791
899.393	19936
899.513	19928
899.633	19928
899.753	20001
899.873	19883
899.993	19890
900.113	19917
900.232	19955
900.352	19936
900.472	19746
900.591	19674
900.711	19734
900.83	19628
900.95	19890
901.069	19753
901.189	19620
901.308	19400
901.427	19301
901.546	19377
901.665	19362
901.784	19331
901.904	19095
902.023	18939
902.141	18776
902.26	18726
902.379	18810
902.498	18741
902.617	18707
902.735	18795
902.854	18627
902.973	18692
903.091	18448
903.21	18437
903.328	18426
903.446	18213
903.565	18102
903.683	18270
903.801	18239
903.919	18076
904.038	18064
904.156	17904
904.274	18003
904.392	17931
904.51	17904
904.627	17912
904.745	17927
904.863	17973
904.981	17638
905.098	17516
905.216	17570
905.334	17562
905.451	17493
905.569	17467
905.686	17535
905.803	17516
905.921	17337
906.038	17417
906.155	17429
906.272	17284
906.389	17235
906.506	17071
906.623	17071
906.74	17045
906.857	16885
906.974	16904
907.091	17041
907.208	17151
907.324	17113
907.441	16968
907.557	16717
907.674	16752
907.79	16672
907.907	16653
908.023	16839
908.139	16694
908.256	16691
908.372	16588
908.488	16561
908.604	16489
908.72	16474
908.836	16398
908.952	16451
909.068	16413
909.184	16398
909.3	16489
909.415	16310
909.531	16356
909.647	16097
909.762	16071
909.878	16086
909.993	15983
910.108	16059
910.224	16013
910.339	16074
910.454	15941
910.57	15956
910.685	15800
910.8	16112
910.915	15888
911.03	15793
911.145	15797
911.259	15781
911.374	15694
911.489	15511
911.604	15542
911.718	15443
911.833	15393
911.947	15321
912.062	15218
912.176	15401
912.291	15382
912.405	15378
912.519	15523
912.633	15603
912.748	15412
912.862	15340
912.976	15310
913.09	15017
913.204	15154
913.318	15241
913.431	15420
913.545	15222
913.659	15287
913.772	15226
913.886	15150
914	14994
914.113	15184
914.226	15203
914.34	15226
914.453	14941
914.566	15032
914.68	14925
914.793	14853
914.906	14804
915.019	14613
915.132	14621
915.245	14663
915.358	14769
915.47	14720
915.583	14636
915.696	14659
915.809	14727
915.921	14849
916.034	14587
916.146	14594
916.259	14613
916.371	14743
916.483	14712
916.595	14488
916.708	14541
916.82	14522
916.932	14560
917.044	14549
917.156	14492
917.268	14347
917.38	14492
917.491	14305
917.603	14412
917.715	14454
917.826	14473
917.938	14271
918.049	14225
918.161	14305
918.272	14412
918.384	14419
918.495	14282
918.606	14092
918.717	14020
918.828	14176
918.939	14103
919.05	13955
919.161	14096
919.272	13860
919.383	13852
919.494	14069
919.604	14263
919.715	14084
919.826	14050
919.936	14024
920.047	14039
920.157	13963
920.267	14278
920.378	13921
920.488	13940
920.598	14191
920.708	14252
920.818	14077
920.928	14107
921.038	14252
921.148	14267
921.258	13932
921.368	13818
921.477	13788
921.587	13719
921.697	13632
921.806	13761
921.916	13533
922.025	13407
922.134	13426
922.244	13377
922.353	13377
922.462	13206
922.571	13274
922.68	13129
922.789	13027
922.898	12977
923.007	12924
923.116	13057
923.224	13008
923.333	12981
923.442	12928
923.55	12878
923.659	12840
923.767	12913
923.876	12806
923.984	12916
924.092	12795
924.201	12753
924.309	12791
924.417	12890
924.525	12757
924.633	12707
924.741	13639
924.849	12509
924.956	12715
925.064	12433
925.172	12437
925.279	12448
925.387	12623
925.494	12498
925.602	12528
925.709	12616
925.816	12338
925.924	12467
926.031	12551
926.138	12369
926.245	12551
926.352	12327
926.459	12445
926.566	12483
926.673	12357
926.779	12144
926.886	12315
926.993	12079
927.099	12015
927.206	11999
927.312	12079
927.419	12095
927.525	12015
927.631	12057
927.737	11920
927.843	11931
927.95	11752
928.056	11878
928.162	11908
928.267	11916
928.373	12479
928.479	11931
928.585	11691
928.69	11866
928.796	11901
928.901	11741
929.007	11600
929.112	11718
929.218	11714
929.323	11627
929.428	11661
929.533	11630
929.638	11543
929.743	11638
929.848	11649
929.953	11539
930.058	11505
930.163	11330
930.267	11250
930.372	11463
930.477	11364
930.581	11474
930.685	11391
930.79	11162
930.894	11242
930.998	11223
931.103	11311
931.207	10908
931.311	10824
931.415	10793
931.519	10634
931.623	10508
