Data from test_V78500241_1399.txt Node
Date: Fri Mar 25 14:43:27 CST 2022
User: usil
Spectrometer: V785-0024
Trigger mode: 0
Integration Time (sec): 4.000000E-1
Scans to average: 1
Nonlinearity correction enabled: false
Boxcar width: 0
Storing dark spectrum: false
XAxis mode: Wavelengths
Number of Pixels in Spectrum: 1024
>>>>>Begin Spectral Data<<<<<
801.071	22363
801.214	22265
801.356	22093
801.499	21991
801.641	21747
801.783	21720
801.926	21797
802.068	21751
802.211	21595
802.353	21545
802.496	21275
802.638	21264
802.78	21169
802.923	21173
803.065	21081
803.208	21085
803.35	21142
803.492	21298
803.635	21260
803.777	21184
803.919	21237
804.061	21462
804.204	21199
804.346	20975
804.488	21081
804.63	21161
804.773	21009
804.915	21047
805.057	21096
805.199	21005
805.341	21127
805.483	21146
805.626	21112
805.768	21062
805.91	21020
806.052	21074
806.194	20948
806.336	21157
806.478	21203
806.62	20975
806.762	21131
806.904	21313
807.046	21359
807.188	21393
807.33	21382
807.472	21382
807.614	21367
807.756	21462
807.898	21420
808.04	21313
808.182	21211
808.324	21245
808.465	21408
808.607	21606
808.749	21644
808.891	21880
809.033	21876
809.174	21827
809.316	21603
809.458	21542
809.6	21500
809.741	21580
809.883	21515
810.025	21698
810.166	21641
810.308	21724
810.45	21530
810.591	21538
810.733	21317
810.875	21214
811.016	21169
811.158	21127
811.299	21294
811.441	21424
811.582	21370
811.724	21272
811.865	21260
812.007	21199
812.148	21070
812.29	21184
812.431	21367
812.573	21568
812.714	21690
812.855	21637
812.997	21728
813.138	21842
813.279	21800
813.421	21698
813.562	21614
813.703	21458
813.845	21279
813.986	21051
814.127	20921
814.268	20754
814.41	20861
814.551	20773
814.692	20937
814.833	20758
814.974	20727
815.115	20788
815.256	20598
815.397	20533
815.539	20735
815.68	20442
815.821	20488
815.962	20552
816.103	20507
816.244	20339
816.385	20240
816.526	20229
816.666	20172
816.807	19906
816.948	19951
817.089	20058
817.23	19951
817.371	19993
817.512	19856
817.653	19871
817.793	19871
817.934	19936
818.075	19978
818.216	19963
818.356	19928
818.497	19734
818.638	19487
818.778	19647
818.919	19609
819.06	19693
819.2	19776
819.341	19753
819.481	19772
819.622	19890
819.762	20012
819.903	19959
820.043	20005
820.184	19993
820.324	19890
820.465	19841
820.605	19936
820.746	19997
820.886	19784
821.026	19864
821.167	19776
821.307	19974
821.447	19776
821.588	19674
821.728	19620
821.868	19419
822.008	19320
822.149	19308
822.289	19263
822.429	18993
822.569	18973
822.709	19019
822.849	18897
822.99	18791
823.13	18745
823.27	18768
823.41	18654
823.55	18559
823.69	18658
823.83	18601
823.97	18570
824.11	18403
824.25	18422
824.389	18509
824.529	18467
824.669	18342
824.809	18513
824.949	18441
825.089	18490
825.228	18429
825.368	18194
825.508	18159
825.648	18270
825.787	18243
825.927	18197
826.067	18163
826.206	18121
826.346	18205
826.485	18258
826.625	18125
826.765	18213
826.904	18216
827.044	17855
827.183	17980
827.323	17817
827.462	17912
827.601	17893
827.741	17851
827.88	17790
828.02	17680
828.159	17840
828.298	17775
828.437	17847
828.577	17939
828.716	17893
828.855	17855
828.994	17589
829.134	17589
829.273	17611
829.412	17630
829.551	17516
829.69	17573
829.829	17748
829.968	17619
830.107	17649
830.246	17668
830.385	17532
830.524	17440
830.663	17474
830.802	17322
830.941	17239
831.08	17197
831.219	17250
831.357	17151
831.496	17425
831.635	17197
831.774	17197
831.913	17147
832.051	17124
832.19	16976
832.329	17052
832.467	16904
832.606	16824
832.744	16949
832.883	16828
833.022	16911
833.16	16938
833.299	16965
833.437	17014
833.576	16942
833.714	16942
833.852	17033
833.991	16949
834.129	17037
834.267	17048
834.406	16987
834.544	16957
834.682	17064
834.821	16873
834.959	17098
835.097	17003
835.235	17048
835.373	16828
835.511	16942
835.65	16915
835.788	16862
835.926	16740
836.064	16584
836.202	16740
836.34	16927
836.478	16915
836.615	16786
836.753	16752
836.891	16881
837.029	16915
837.167	16843
837.305	16786
837.443	16698
837.58	16729
837.718	16824
837.856	16702
837.993	16645
838.131	16706
838.269	16664
838.406	16607
838.544	16516
838.681	16428
838.819	16356
838.956	16272
839.094	16265
839.231	16344
839.369	16451
839.506	16535
839.643	16447
839.781	16272
839.918	16207
840.055	16337
840.193	16226
840.33	16268
840.467	16246
840.604	16230
840.742	16668
840.879	16139
841.016	16131
841.153	16211
841.29	16386
841.427	16382
841.564	16379
841.701	16234
841.838	16265
841.975	16109
842.112	16135
842.249	16093
842.385	15979
842.522	16192
842.659	16021
842.796	16036
842.933	15994
843.069	16010
843.206	15979
843.343	16242
843.479	16078
843.616	16010
843.752	15876
843.889	15850
844.025	16048
844.162	15888
844.298	15953
844.435	15762
844.571	15816
844.708	15945
844.844	16017
844.98	16017
845.117	15960
845.253	15842
845.389	15724
845.525	15884
845.661	15869
845.798	15823
845.934	16002
846.07	15884
846.206	15964
846.342	16010
846.478	15838
846.614	15545
846.75	15458
846.886	15344
847.022	15447
847.158	15420
847.294	15363
847.429	15485
847.565	15344
847.701	15591
847.837	15165
847.972	15188
848.108	15313
848.244	15332
848.379	15081
848.515	15028
848.65	14944
848.786	15005
848.921	15009
849.057	15089
849.192	15047
849.328	15009
849.463	15020
849.598	14979
849.734	14910
849.869	14849
850.004	14735
850.14	14857
850.275	14826
850.41	14762
850.545	14720
850.68	14655
850.815	14807
850.95	14754
851.085	14994
851.22	14842
851.355	14758
851.49	14651
851.625	14781
851.76	14663
851.895	14556
852.03	14674
852.165	14743
852.299	14781
852.434	14937
852.569	14765
852.703	14800
852.838	14895
852.973	14838
853.107	14849
853.242	14826
853.376	14587
853.511	14571
853.645	14590
853.78	14807
853.914	14636
854.048	14549
854.183	14514
854.317	14610
854.451	14792
854.585	14610
854.72	14655
854.854	14659
854.988	14610
855.122	14617
855.256	14606
855.39	14545
855.524	14705
855.658	14670
855.792	14743
855.926	14655
856.06	14655
856.194	14716
856.327	14587
856.461	14560
856.595	14606
856.729	14533
856.862	14716
856.996	14621
857.13	14678
857.263	14655
857.397	14762
857.53	14663
857.664	14727
857.797	14769
857.931	14777
858.064	14636
858.197	14765
858.331	14617
858.464	14552
858.597	14514
858.731	14564
858.864	14617
858.997	14693
859.13	14621
859.263	14632
859.396	14678
859.529	14659
859.662	14560
859.795	14590
859.928	14632
860.061	14773
860.194	14902
860.327	14708
860.46	14533
860.592	14674
860.725	14762
860.858	14720
860.99	14621
861.123	14598
861.256	14610
861.388	14537
861.521	15420
861.653	14351
861.786	14476
861.918	14480
862.05	14564
862.183	14613
862.315	14674
862.447	14693
862.58	14606
862.712	14370
862.844	14320
862.976	14541
863.108	14488
863.24	14830
863.372	14343
863.504	14438
863.636	14374
863.768	14438
863.9	14374
864.032	14336
864.164	14400
864.296	14412
864.428	14457
864.559	14480
864.691	14488
864.823	14423
864.954	14400
865.086	14358
865.217	14396
865.349	14313
865.48	14423
865.612	14320
865.743	14556
865.875	14495
866.006	14385
866.137	14336
866.269	14343
866.4	14431
866.531	14294
866.662	14282
866.793	14317
866.924	14374
867.055	14313
867.186	14374
867.317	14381
867.448	14248
867.579	14336
867.71	14336
867.841	14305
867.972	14290
868.103	14431
868.233	14362
868.364	14412
868.495	14450
868.625	14632
868.756	14670
868.886	14644
869.017	14640
869.147	14720
869.278	14731
869.408	14667
869.539	14629
869.669	14648
869.799	14686
869.929	14701
870.06	14697
870.19	14910
870.32	14826
870.45	14994
870.58	14990
870.71	15116
870.84	15108
870.97	15070
871.1	14994
871.23	15241
871.36	15104
871.489	15097
871.619	15131
871.749	15203
871.879	15268
872.008	15344
872.138	15192
872.267	15180
872.397	15089
872.526	15165
872.656	15028
872.785	15085
872.915	15378
873.044	15370
873.173	15294
873.303	15279
873.432	15310
873.561	15374
873.69	15275
873.819	15218
873.948	15344
874.077	15291
874.206	15363
874.335	15332
874.464	15447
874.593	15637
874.722	15553
874.851	15568
874.979	15625
875.108	15618
875.237	15576
875.365	15534
875.494	15599
875.623	15686
875.751	15538
875.88	15709
876.008	15698
876.136	15759
876.265	15979
876.393	16067
876.521	16055
876.65	16055
876.778	16078
876.906	15907
877.034	15941
877.162	15987
877.29	15918
877.418	15941
877.546	15975
877.674	15941
877.802	16048
877.93	16017
878.058	15903
878.185	15922
878.313	16029
878.441	15991
878.568	15846
878.696	15945
878.824	16006
878.951	16150
879.079	16253
879.206	16398
879.333	16280
879.461	16207
879.588	16265
879.715	16348
879.842	16497
879.97	16147
880.097	15979
880.224	15812
880.351	15991
880.478	15899
880.605	15949
880.732	15838
880.859	16097
880.986	15876
881.112	15972
881.239	15709
881.366	15606
881.493	15530
881.619	15511
881.746	15587
881.872	15526
881.999	15447
882.125	15515
882.252	15469
882.378	15580
882.505	15667
882.631	15526
882.757	15443
882.883	15401
883.01	15329
883.136	15332
883.262	15233
883.388	15161
883.514	15393
883.64	15378
883.766	15367
883.892	15097
884.018	15188
884.143	15363
884.269	15416
884.395	15119
884.52	15055
884.646	15077
884.772	15100
884.897	14944
885.023	15051
885.148	15169
885.274	15131
885.399	15241
885.524	15043
885.65	15017
885.775	15104
885.9	15146
886.025	15192
886.15	15138
886.275	15062
886.4	14975
886.525	15055
886.65	14975
886.775	14963
886.9	15097
887.025	15245
887.149	15058
887.274	14796
887.399	14845
887.523	14895
887.648	14849
887.773	14849
887.897	14971
888.021	14849
888.146	14872
888.27	14933
888.395	15020
888.519	14910
888.643	14853
888.767	14883
888.891	14785
889.015	14743
889.139	14758
889.263	14682
889.387	14823
889.511	14910
889.635	14902
889.759	14682
889.883	14678
890.006	14834
890.13	14876
890.254	14648
890.377	14670
890.501	14552
890.624	14469
890.748	14629
890.871	14480
890.995	14396
891.118	14362
891.241	14457
891.364	14469
891.488	14518
891.611	14438
891.734	14313
891.857	14488
891.98	14473
892.103	14438
892.226	14454
892.349	14366
892.471	14237
892.594	14419
892.717	14351
892.839	14370
892.962	14332
893.085	14454
893.207	14412
893.33	14282
893.452	14336
893.575	14537
893.697	14324
893.819	14530
893.941	14526
894.064	14469
894.186	14328
894.308	14400
894.43	14507
894.552	14571
894.674	14526
894.796	14381
894.918	14381
895.04	14438
895.161	14526
895.283	14495
895.405	14438
895.526	14473
895.648	14450
895.769	14522
895.891	14530
896.012	14556
896.134	14514
896.255	14518
896.376	14514
896.498	14617
896.619	14727
896.74	14545
896.861	14636
896.982	14937
897.103	15013
897.224	14948
897.345	14762
897.466	14815
897.587	14811
897.708	14921
897.828	14838
897.949	14811
898.07	14678
898.19	14750
898.311	14834
898.431	14823
898.552	14895
898.672	14895
898.792	15055
898.913	14826
899.033	14845
899.153	14743
899.273	14625
899.393	14701
899.513	14743
899.633	14785
899.753	14712
899.873	14621
899.993	14849
900.113	14663
900.232	14750
900.352	14815
900.472	14644
900.591	14545
900.711	14693
900.83	14560
900.95	14686
901.069	14667
901.189	14575
901.308	14343
901.427	14267
901.546	14145
901.665	14339
901.784	14301
901.904	14164
902.023	14054
902.141	13902
902.26	13890
902.379	13890
902.498	13830
902.617	13769
902.735	13830
902.854	13833
902.973	13784
903.091	13468
903.21	13540
903.328	13685
903.446	13480
903.565	13434
903.683	13438
903.801	13312
903.919	13487
904.038	13297
904.156	13278
904.274	13293
904.392	13160
904.51	13160
904.627	13206
904.745	13198
904.863	13240
904.981	12958
905.098	12905
905.216	12871
905.334	12935
905.451	12875
905.569	12954
905.686	12996
905.803	12829
905.921	12741
906.038	12817
906.155	12734
906.272	12642
906.389	12601
906.506	12494
906.623	12471
906.74	12551
906.857	12448
906.974	12346
907.091	12521
907.208	12585
907.324	12502
907.441	12384
907.557	12205
907.674	12190
907.79	12140
907.907	12190
908.023	12281
908.139	12213
908.256	12106
908.372	12163
908.488	12095
908.604	11939
908.72	11973
908.836	12030
908.952	12011
909.068	12083
909.184	12049
909.3	12026
909.415	12060
909.531	12015
909.647	11813
909.762	11783
909.878	11672
909.993	11821
910.108	11802
910.224	11756
910.339	11745
910.454	11688
910.57	11634
910.685	11539
910.8	11805
910.915	11752
911.03	11627
911.145	11566
911.259	11520
911.374	11482
911.489	11429
911.604	11345
911.718	11223
911.833	11254
911.947	11098
912.062	11075
912.176	11155
912.291	11212
912.405	11185
912.519	11345
912.633	11467
912.748	11315
912.862	11178
912.976	11052
913.09	10999
913.204	11140
913.318	11098
913.431	11193
913.545	11204
913.659	11193
913.772	11105
913.886	11029
914	10968
914.113	11143
914.226	11113
914.34	11033
914.453	10858
914.566	11060
914.68	10908
914.793	10866
914.906	10656
915.019	10622
915.132	10656
915.245	10668
915.358	10710
915.47	10714
915.583	10793
915.696	10809
915.809	10752
915.921	10854
916.034	10706
916.146	10615
916.259	10656
916.371	10771
916.483	10645
916.595	10573
916.708	10668
916.82	10675
916.932	10573
917.044	10531
917.156	10668
917.268	10485
917.38	10523
917.491	10504
917.603	10615
917.715	10675
917.826	10611
917.938	10535
918.049	10398
918.161	10569
918.272	10694
918.384	10710
918.495	10519
918.606	10512
918.717	10379
918.828	10436
918.939	10493
919.05	10299
919.161	10455
919.272	10166
919.383	10268
919.494	10455
919.604	10649
919.715	10462
919.826	10356
919.936	10295
920.047	10508
920.157	10424
920.267	10702
920.378	10386
920.488	10421
920.598	10664
920.708	10847
920.818	10615
920.928	10565
921.038	10812
921.148	10691
921.258	10413
921.368	10390
921.477	10261
921.587	10261
921.697	10082
921.806	10303
921.916	10200
922.025	10055
922.134	9937
922.244	9949
922.353	10036
922.462	9797
922.571	9819
922.68	9644
922.789	9679
922.898	9698
923.007	9652
923.116	9660
923.224	9663
923.333	9705
923.442	9519
923.55	9511
923.659	9606
923.767	9587
923.876	9557
923.984	9572
924.092	9439
924.201	9473
924.309	9542
924.417	9496
924.525	9443
924.633	9553
924.741	10382
924.849	9329
924.956	9386
925.064	9264
925.172	9241
925.279	9374
925.387	9412
925.494	9336
925.602	9378
925.709	9355
925.816	9222
925.924	9329
926.031	9412
926.138	9313
926.245	9340
926.352	9233
926.459	9332
926.566	9393
926.673	9233
926.779	9154
926.886	9199
926.993	8982
927.099	9009
927.206	8937
927.312	8963
927.419	9013
927.525	8914
927.631	9097
927.737	8952
927.843	8941
927.95	8834
928.056	8861
928.162	8857
928.267	8842
928.373	9625
928.479	8994
928.585	8800
928.69	8883
928.796	8906
928.901	8785
929.007	8708
929.112	8769
929.218	8823
929.323	8678
929.428	8689
929.533	8807
929.638	8579
929.743	8708
929.848	8708
929.953	8632
930.058	8659
930.163	8492
930.267	8488
930.372	8617
930.477	8446
930.581	8667
930.685	8602
930.79	8419
930.894	8457
930.998	8400
931.103	8564
931.207	8240
931.311	8145
931.415	8134
931.519	7967
931.623	7959
