Data from test_V78500241_2234.txt Node
Date: Fri Mar 25 14:49:16 CST 2022
User: usil
Spectrometer: V785-0024
Trigger mode: 0
Integration Time (sec): 4.000000E-1
Scans to average: 1
Nonlinearity correction enabled: false
Boxcar width: 0
Storing dark spectrum: false
XAxis mode: Wavelengths
Number of Pixels in Spectrum: 1024
>>>>>Begin Spectral Data<<<<<
801.071	22169
801.214	22010
801.356	21766
801.499	21686
801.641	21660
801.783	21553
801.926	21618
802.068	21416
802.211	21408
802.353	21245
802.496	21199
802.638	21180
802.78	20971
802.923	20914
803.065	20845
803.208	20838
803.35	20815
803.492	20975
803.635	21013
803.777	20891
803.919	20910
804.061	21119
804.204	20864
804.346	20796
804.488	20804
804.63	20960
804.773	20716
804.915	20918
805.057	20880
805.199	20765
805.341	20788
805.483	20925
805.626	20819
805.768	20609
805.91	20838
806.052	20826
806.194	20773
806.336	20872
806.478	20849
806.62	20777
806.762	20804
806.904	20906
807.046	21226
807.188	21100
807.33	21085
807.472	21146
807.614	21036
807.756	21116
807.898	20887
808.04	20967
808.182	20800
808.324	20773
808.465	20857
808.607	21036
808.749	21241
808.891	21275
809.033	21348
809.174	21393
809.316	21173
809.458	21256
809.6	21055
809.741	21233
809.883	21363
810.025	21336
810.166	21336
810.308	21302
810.45	21367
810.591	21275
810.733	21169
810.875	20941
811.016	20849
811.158	20777
811.299	20933
811.441	21058
811.582	21085
811.724	20925
811.865	20963
812.007	20921
812.148	20883
812.29	21047
812.431	21180
812.573	21298
812.714	21306
812.855	21397
812.997	21580
813.138	21880
813.279	21424
813.421	21477
813.562	21439
813.703	21233
813.845	21108
813.986	20739
814.127	20697
814.268	20583
814.41	20522
814.551	20526
814.692	20560
814.833	20461
814.974	20537
815.115	20465
815.256	20393
815.397	20301
815.539	20275
815.68	20263
815.821	20145
815.962	20225
816.103	20153
816.244	20084
816.385	20092
816.526	20035
816.666	19753
816.807	19613
816.948	19765
817.089	19734
817.23	19605
817.371	19655
817.512	19529
817.653	19624
817.793	19559
817.934	19578
818.075	19590
818.216	19563
818.356	19582
818.497	19384
818.638	19244
818.778	19320
818.919	19354
819.06	19293
819.2	19495
819.341	19540
819.481	19480
819.622	19651
819.762	19833
819.903	19772
820.043	19757
820.184	19624
820.324	19567
820.465	19616
820.605	19643
820.746	19643
820.886	19438
821.026	19655
821.167	19594
821.307	19567
821.447	19480
821.588	19499
821.728	19381
821.868	19251
822.008	19015
822.149	19084
822.289	18894
822.429	18798
822.569	18741
822.709	18669
822.849	18448
822.99	18429
823.13	18475
823.27	18460
823.41	18429
823.55	18270
823.69	18391
823.83	18410
823.97	18178
824.11	18053
824.25	18003
824.389	18102
824.529	18129
824.669	18060
824.809	18178
824.949	18167
825.089	18190
825.228	18076
825.368	17889
825.508	17859
825.648	17832
825.787	17923
825.927	17942
826.067	17832
826.206	17851
826.346	17950
826.485	17863
826.625	17874
826.765	17935
826.904	17851
827.044	17695
827.183	17558
827.323	17600
827.462	17573
827.601	17467
827.741	17668
827.88	17551
828.02	17440
828.159	17433
828.298	17585
828.437	17615
828.577	17505
828.716	17707
828.855	17467
828.994	17330
829.134	17284
829.273	17417
829.412	17246
829.551	17212
829.69	17269
829.829	17269
829.968	17360
830.107	17280
830.246	17307
830.385	17200
830.524	17162
830.663	17075
830.802	17041
830.941	16923
831.08	16835
831.219	16862
831.357	16923
831.496	17159
831.635	16938
831.774	16793
831.913	16778
832.051	16687
832.19	16679
832.329	16771
832.467	16691
832.606	16516
832.744	16504
832.883	16580
833.022	16588
833.16	16588
833.299	16687
833.437	16531
833.576	16725
833.714	16611
833.852	16653
833.991	16729
834.129	16717
834.267	16675
834.406	16637
834.544	16645
834.682	16683
834.821	16645
834.959	16801
835.097	16561
835.235	16717
835.373	16641
835.511	16645
835.65	16421
835.788	16645
835.926	16512
836.064	16261
836.202	16344
836.34	16580
836.478	16592
836.615	16527
836.753	16531
836.891	16611
837.029	16474
837.167	16455
837.305	16421
837.443	16459
837.58	16344
837.718	16443
837.856	16394
837.993	16344
838.131	16470
838.269	16261
838.406	16303
838.544	16246
838.681	16059
838.819	16036
838.956	15953
839.094	15918
839.231	16086
839.369	16067
839.506	16360
839.643	16154
839.781	15903
839.918	15808
840.055	15983
840.193	15899
840.33	15846
840.467	15960
840.604	15922
840.742	16249
840.879	15861
841.016	15850
841.153	15762
841.29	16116
841.427	15998
841.564	15972
841.701	16002
841.838	15895
841.975	15857
842.112	15937
842.249	15713
842.385	15652
842.522	15865
842.659	15759
842.796	15641
842.933	15804
843.069	15660
843.206	15644
843.343	15808
843.479	15770
843.616	15717
843.752	15610
843.889	15568
844.025	15660
844.162	15447
844.298	15610
844.435	15538
844.571	15439
844.708	15606
844.844	15572
844.98	15736
845.117	15656
845.253	15424
845.389	15424
845.525	15473
845.661	15428
845.798	15359
845.934	15370
846.07	15192
846.206	15351
846.342	15561
846.478	15264
846.614	15135
846.75	15047
846.886	15047
847.022	15161
847.158	15108
847.294	15123
847.429	15192
847.565	15051
847.701	15351
847.837	14921
847.972	14819
848.108	14960
848.244	14891
848.379	14697
848.515	14629
848.65	14682
848.786	14598
848.921	14705
849.057	14781
849.192	14678
849.328	14632
849.463	14754
849.598	14678
849.734	14568
849.869	14549
850.004	14522
850.14	14454
850.275	14476
850.41	14347
850.545	14400
850.68	14389
850.815	14480
850.95	14396
851.085	14594
851.22	14457
851.355	14419
851.49	14336
851.625	14427
851.76	14446
851.895	14317
852.03	14286
852.165	14400
852.299	14522
852.434	14522
852.569	14393
852.703	14450
852.838	14545
852.973	14522
853.107	14606
853.242	14370
853.376	14282
853.511	14218
853.645	14377
853.78	14423
853.914	14362
854.048	14240
854.183	14286
854.317	14301
854.451	14495
854.585	14328
854.72	14214
854.854	14393
854.988	14168
855.122	14237
855.256	14138
855.39	14347
855.524	14400
855.658	14282
855.792	14385
855.926	14275
856.06	14332
856.194	14434
856.327	14355
856.461	14199
856.595	14183
856.729	14195
856.862	14381
856.996	14324
857.13	14404
857.263	14389
857.397	14518
857.53	14336
857.664	14381
857.797	14370
857.931	14381
858.064	14366
858.197	14381
858.331	14317
858.464	14259
858.597	14161
858.731	14252
858.864	14240
858.997	14317
859.13	14362
859.263	14351
859.396	14336
859.529	14248
859.662	14347
859.795	14172
859.928	14259
860.061	14503
860.194	14374
860.327	14328
860.46	14240
860.592	14438
860.725	14492
860.858	14423
860.99	14259
861.123	14240
861.256	14168
861.388	14336
861.521	14845
861.653	14294
861.786	14115
861.918	14134
862.05	14237
862.183	14259
862.315	14275
862.447	14324
862.58	14286
862.712	14077
862.844	13986
862.976	14134
863.108	14088
863.24	14412
863.372	13986
863.504	14046
863.636	14069
863.768	14069
863.9	14046
864.032	14027
864.164	14031
864.296	14107
864.428	14187
864.559	14153
864.691	14168
864.823	14164
864.954	14187
865.086	14001
865.217	14100
865.349	14024
865.48	13909
865.612	14111
865.743	14221
865.875	14088
866.006	14073
866.137	14016
866.269	14008
866.4	13989
866.531	14031
866.662	13940
866.793	13997
866.924	13978
867.055	14103
867.186	14020
867.317	14027
867.448	13921
867.579	13944
867.71	13913
867.841	13898
867.972	14081
868.103	14043
868.233	14100
868.364	14138
868.495	14153
868.625	14294
868.756	14431
868.886	14229
869.017	14267
869.147	14389
869.278	14286
869.408	14263
869.539	14457
869.669	14396
869.799	14305
869.929	14431
870.06	14457
870.19	14587
870.32	14457
870.45	14598
870.58	14720
870.71	14895
870.84	14735
870.97	14716
871.1	14655
871.23	14853
871.36	14845
871.489	14864
871.619	14861
871.749	14758
871.879	14925
872.008	14944
872.138	14921
872.267	14872
872.397	14910
872.526	14727
872.656	14754
872.785	14746
872.915	14971
873.044	15074
873.173	14918
873.303	14906
873.432	14986
873.561	15081
873.69	14998
873.819	15028
873.948	15051
874.077	14990
874.206	14941
874.335	14918
874.464	15013
874.593	15249
874.722	15218
874.851	15336
874.979	15279
875.108	15287
875.237	15214
875.365	15097
875.494	15294
875.623	15355
875.751	15184
875.88	15256
876.008	15481
876.136	15587
876.265	15660
876.393	15770
876.521	15694
876.65	15736
876.778	15705
876.906	15648
877.034	15584
877.162	15705
877.29	15576
877.418	15622
877.546	15694
877.674	15679
877.802	15580
877.93	15717
878.058	15561
878.185	15599
878.313	15625
878.441	15671
878.568	15603
878.696	15591
878.824	15652
878.951	15762
879.079	15816
879.206	16025
879.333	15895
879.461	15759
879.588	15797
879.715	15850
879.842	15930
879.97	15720
880.097	15599
880.224	15526
880.351	15511
880.478	15473
880.605	15488
880.732	15492
880.859	15709
880.986	15545
881.112	15477
881.239	15363
881.366	15378
881.493	15249
881.619	15218
881.746	15268
881.872	15154
881.999	15169
882.125	15074
882.252	15173
882.378	15389
882.505	15313
882.631	15146
882.757	14960
882.883	15017
883.01	15112
883.136	14994
883.262	14872
883.388	14788
883.514	15013
883.64	15074
883.766	14998
883.892	14807
884.018	14857
884.143	14982
884.269	15055
884.395	14781
884.52	14693
884.646	14625
884.772	14659
884.897	14583
885.023	14670
885.148	14701
885.274	14887
885.399	14800
885.524	14583
885.65	14769
885.775	14758
885.9	14629
886.025	14872
886.15	14735
886.275	14648
886.4	14663
886.525	14590
886.65	14518
886.775	14712
886.9	14765
887.025	14918
887.149	14659
887.274	14560
887.399	14446
887.523	14454
887.648	14495
887.773	14446
887.897	14564
888.021	14560
888.146	14473
888.27	14678
888.395	14590
888.519	14659
888.643	14499
888.767	14640
888.891	14408
889.015	14396
889.139	14442
889.263	14381
889.387	14415
889.511	14571
889.635	14492
889.759	14355
889.883	14328
890.006	14446
890.13	14545
890.254	14298
890.377	14294
890.501	14168
890.624	14168
890.748	14218
890.871	14176
890.995	14050
891.118	13947
891.241	14180
891.364	14081
891.488	14282
891.611	14100
891.734	14081
891.857	14206
891.98	14062
892.103	14229
892.226	14065
892.349	13989
892.471	13868
892.594	14031
892.717	14168
892.839	14103
892.962	14161
893.085	14233
893.207	14073
893.33	14005
893.452	14005
893.575	14172
893.697	14046
893.819	14252
893.941	14233
894.064	14142
894.186	14062
894.308	14050
894.43	14324
894.552	14328
894.674	14202
894.796	14050
894.918	14058
895.04	14111
895.161	14206
895.283	14240
895.405	14043
895.526	14191
895.648	14161
895.769	14237
895.891	14355
896.012	14320
896.134	14252
896.255	14317
896.376	14240
896.498	14278
896.619	14237
896.74	14298
896.861	14393
896.982	14606
897.103	14834
897.224	14590
897.345	14541
897.466	14522
897.587	14514
897.708	14640
897.828	14533
897.949	14442
898.07	14374
898.19	14556
898.311	14670
898.431	14492
898.552	14613
898.672	14682
898.792	14667
898.913	14689
899.033	14511
899.153	14434
899.273	14423
899.393	14480
899.513	14552
899.633	14541
899.753	14495
899.873	14427
899.993	14560
900.113	14461
900.232	14533
900.352	14469
900.472	14317
900.591	14256
900.711	14381
900.83	14305
900.95	14423
901.069	14450
901.189	14286
901.308	14081
901.427	13909
901.546	14058
901.665	14001
901.784	14027
901.904	13898
902.023	13791
902.141	13738
902.26	13613
902.379	13689
902.498	13590
902.617	13670
902.735	13647
902.854	13586
902.973	13544
903.091	13266
903.21	13362
903.328	13217
903.446	13255
903.565	13103
903.683	13118
903.801	13133
903.919	13095
904.038	13152
904.156	13031
904.274	13061
904.392	12947
904.51	12844
904.627	12954
904.745	13099
904.863	13122
904.981	12795
905.098	12658
905.216	12612
905.334	12722
905.451	12665
905.569	12528
905.686	12662
905.803	12601
905.921	12502
906.038	12563
906.155	12414
906.272	12350
906.389	12376
906.506	12232
906.623	12243
906.74	12205
906.857	12114
906.974	12178
907.091	12330
907.208	12315
907.324	12273
907.441	12171
907.557	12068
907.674	11992
907.79	11973
907.907	12022
908.023	12079
908.139	12019
908.256	11961
908.372	11946
908.488	11870
908.604	11771
908.72	11726
908.836	11775
908.952	11710
909.068	11893
909.184	11893
909.3	11737
909.415	11828
909.531	11718
909.647	11570
909.762	11478
909.878	11490
909.993	11520
910.108	11516
910.224	11474
910.339	11524
910.454	11444
910.57	11406
910.685	11269
910.8	11570
910.915	11501
911.03	11467
911.145	11250
911.259	11204
911.374	11170
911.489	11071
911.604	11170
911.718	10953
911.833	10984
911.947	10911
912.062	10801
912.176	11022
912.291	10953
912.405	11025
912.519	11041
912.633	11124
912.748	11014
912.862	11064
912.976	10877
913.09	10683
913.204	10858
913.318	10892
913.431	10991
913.545	10930
913.659	11025
913.772	10862
913.886	10759
914	10717
914.113	10824
914.226	10854
914.34	10774
914.453	10622
914.566	10755
914.68	10714
914.793	10744
914.906	10542
915.019	10432
915.132	10333
915.245	10405
915.358	10493
915.47	10436
915.583	10531
915.696	10554
915.809	10630
915.921	10611
916.034	10535
916.146	10424
916.259	10356
916.371	10535
916.483	10489
916.595	10367
916.708	10432
916.82	10474
916.932	10390
917.044	10390
917.156	10371
917.268	10333
917.38	10356
917.491	10272
917.603	10356
917.715	10443
917.826	10443
917.938	10291
918.049	10227
918.161	10306
918.272	10443
918.384	10390
918.495	10310
918.606	10192
918.717	10112
918.828	10219
918.939	10234
919.05	10139
919.161	10116
919.272	9945
919.383	10090
919.494	10329
919.604	10291
919.715	10173
919.826	10147
919.936	10196
920.047	10261
920.157	10295
920.267	10474
920.378	10242
920.488	10272
920.598	10344
920.708	10546
920.818	10371
920.928	10409
921.038	10531
921.148	10527
921.258	10295
921.368	10185
921.477	10082
921.587	10067
921.697	9895
921.806	10162
921.916	9892
922.025	9880
922.134	9755
922.244	9781
922.353	9846
922.462	9641
922.571	9610
922.68	9534
922.789	9511
922.898	9447
923.007	9462
923.116	9523
923.224	9450
923.333	9477
923.442	9332
923.55	9336
923.659	9336
923.767	9393
923.876	9321
923.984	9344
924.092	9294
924.201	9332
924.309	9340
924.417	9363
924.525	9272
924.633	9389
924.741	10242
924.849	9093
924.956	9245
925.064	9138
925.172	9047
925.279	9176
925.387	9180
925.494	9081
925.602	9233
925.709	9230
925.816	9047
925.924	9108
926.031	9233
926.138	9150
926.245	9173
926.352	9077
926.459	9161
926.566	9203
926.673	9028
926.779	9055
926.886	8979
926.993	8819
927.099	8826
927.206	8826
927.312	8792
927.419	8845
927.525	8842
927.631	8861
927.737	8739
927.843	8735
927.95	8651
928.056	8674
928.162	8823
928.267	8792
928.373	9321
928.479	8849
928.585	8526
928.69	8678
928.796	8777
928.901	8701
929.007	8518
929.112	8689
929.218	8705
929.323	8423
929.428	8518
929.533	8708
929.638	8499
929.743	8568
929.848	8621
929.953	8579
930.058	8484
930.163	8240
930.267	8366
930.372	8488
930.477	8305
930.581	8526
930.685	8415
930.79	8248
930.894	8320
930.998	8286
931.103	8427
931.207	8046
931.311	7963
931.415	7871
931.519	7780
931.623	7784
