Data from test_V78500241_393.txt Node
Date: Fri Mar 25 14:36:27 CST 2022
User: usil
Spectrometer: V785-0024
Trigger mode: 0
Integration Time (sec): 4.000000E-1
Scans to average: 1
Nonlinearity correction enabled: false
Boxcar width: 0
Storing dark spectrum: false
XAxis mode: Wavelengths
Number of Pixels in Spectrum: 1024
>>>>>Begin Spectral Data<<<<<
801.071	26693
801.214	26587
801.356	26366
801.499	26320
801.641	26320
801.783	26077
801.926	26122
802.068	26115
802.211	26069
802.353	25966
802.496	25753
802.638	25746
802.78	25719
802.923	25616
803.065	25556
803.208	25708
803.35	25514
803.492	25753
803.635	25807
803.777	25662
803.919	25753
804.061	26058
804.204	25738
804.346	25712
804.488	25518
804.63	25578
804.773	25548
804.915	25693
805.057	25837
805.199	25715
805.341	25738
805.483	25837
805.626	25761
805.768	25662
805.91	25822
806.052	25681
806.194	25803
806.336	25845
806.478	25666
806.62	25803
806.762	25852
806.904	25906
807.046	26195
807.188	26130
807.33	25989
807.472	26100
807.614	26005
807.756	26092
807.898	25890
808.04	25879
808.182	25959
808.324	25830
808.465	25925
808.607	26008
808.749	26145
808.891	26332
809.033	26400
809.174	26320
809.316	26309
809.458	26259
809.6	26237
809.741	26317
809.883	26317
810.025	26427
810.166	26381
810.308	26393
810.45	26385
810.591	26214
810.733	26050
810.875	26111
811.016	25982
811.158	25986
811.299	26164
811.441	26119
811.582	26202
811.724	26084
811.865	25917
812.007	26092
812.148	26046
812.29	25955
812.431	26187
812.573	26317
812.714	26374
812.855	26541
812.997	26598
813.138	26773
813.279	26571
813.421	26556
813.562	26594
813.703	26286
813.845	26263
813.986	25955
814.127	25605
814.268	25647
814.41	25670
814.551	25590
814.692	25624
814.833	25616
814.974	25590
815.115	25582
815.256	25510
815.397	25426
815.539	25445
815.68	25430
815.821	25232
815.962	25396
816.103	25282
816.244	25019
816.385	25107
816.526	25091
816.666	24867
816.807	24833
816.948	24696
817.089	24703
817.23	24798
817.371	24551
817.512	24711
817.653	24669
817.793	24597
817.934	24745
818.075	24840
818.216	24741
818.356	24669
818.497	24589
818.638	24357
818.778	24376
818.919	24388
819.06	24414
819.2	24525
819.341	24570
819.481	24700
819.622	24730
819.762	24920
819.903	24829
820.043	24856
820.184	24684
820.324	24711
820.465	24703
820.605	24722
820.746	24639
820.886	24582
821.026	24719
821.167	24589
821.307	24722
821.447	24559
821.588	24494
821.728	24334
821.868	24228
822.008	24095
822.149	23931
822.289	24038
822.429	23847
822.569	23752
822.709	23794
822.849	23566
822.99	23391
823.13	23619
823.27	23467
823.41	23368
823.55	23151
823.69	23341
823.83	23143
823.97	23086
824.11	23151
824.25	23037
824.389	23117
824.529	23033
824.669	23060
824.809	23185
824.949	23162
825.089	23029
825.228	23037
825.368	22911
825.508	22927
825.648	22866
825.787	22839
825.927	22919
826.067	22774
826.206	22873
826.346	22877
826.485	22850
826.625	22877
826.765	22995
826.904	22881
827.044	22618
827.183	22603
827.323	22500
827.462	22493
827.601	22535
827.741	22500
827.88	22508
828.02	22466
828.159	22546
828.298	22557
828.437	22424
828.577	22500
828.716	22630
828.855	22455
828.994	22200
829.134	22360
829.273	22337
829.412	22253
829.551	22128
829.69	22226
829.829	22150
829.968	22341
830.107	22200
830.246	22196
830.385	22116
830.524	22086
830.663	22169
830.802	21949
830.941	21838
831.08	21800
831.219	21880
831.357	21827
831.496	21987
831.635	21713
831.774	21675
831.913	21690
832.051	21469
832.19	21557
832.329	21614
832.467	21466
832.606	21466
832.744	21382
832.883	21549
833.022	21412
833.16	21363
833.299	21511
833.437	21401
833.576	21538
833.714	21416
833.852	21504
833.991	21587
834.129	21538
834.267	21519
834.406	21439
834.544	21591
834.682	21355
834.821	21363
834.959	21507
835.097	21344
835.235	21591
835.373	21428
835.511	21466
835.65	21367
835.788	21260
835.926	21192
836.064	21119
836.202	21070
836.34	21275
836.478	21405
836.615	21287
836.753	21336
836.891	21336
837.029	21405
837.167	21294
837.305	21150
837.443	21142
837.58	21256
837.718	21096
837.856	21077
837.993	21077
838.131	21123
838.269	21089
838.406	21017
838.544	20979
838.681	20800
838.819	20739
838.956	20648
839.094	20579
839.231	20651
839.369	20834
839.506	21077
839.643	20743
839.781	20526
839.918	20560
840.055	20629
840.193	20587
840.33	20568
840.467	20461
840.604	20587
840.742	20823
840.879	20301
841.016	20434
841.153	20541
841.29	20678
841.427	20549
841.564	20575
841.701	20400
841.838	20415
841.975	20347
842.112	20465
842.249	20252
842.385	20278
842.522	20442
842.659	20324
842.796	20210
842.933	20214
843.069	20103
843.206	20111
843.343	20267
843.479	20199
843.616	20332
843.752	20100
843.889	19894
844.025	20244
844.162	19993
844.298	20126
844.435	19963
844.571	20043
844.708	19997
844.844	20119
844.98	20161
845.117	19894
845.253	19936
845.389	19807
845.525	19887
845.661	19989
845.798	19715
845.934	19833
846.07	19719
846.206	19917
846.342	19974
846.478	19647
846.614	19567
846.75	19460
846.886	19559
847.022	19529
847.158	19438
847.294	19499
847.429	19460
847.565	19365
847.701	19738
847.837	19228
847.972	19091
848.108	19240
848.244	19289
848.379	19080
848.515	19069
848.65	18977
848.786	18981
848.921	19095
849.057	19076
849.192	19088
849.328	19091
849.463	19091
849.598	18897
849.734	18909
849.869	18897
850.004	18848
850.14	18745
850.275	18795
850.41	18730
850.545	18779
850.68	18768
850.815	18760
850.95	18821
851.085	18996
851.22	18867
851.355	18787
851.49	18661
851.625	18749
851.76	18783
851.895	18673
852.03	18646
852.165	18665
852.299	18848
852.434	18768
852.569	18779
852.703	18711
852.838	18833
852.973	18852
853.107	18768
853.242	18627
853.376	18513
853.511	18486
853.645	18555
853.78	18635
853.914	18604
854.048	18604
854.183	18559
854.317	18658
854.451	18848
854.585	18532
854.72	18574
854.854	18631
854.988	18498
855.122	18620
855.256	18380
855.39	18555
855.524	18623
855.658	18650
855.792	18582
855.926	18631
856.06	18597
856.194	18650
856.327	18608
856.461	18597
856.595	18456
856.729	18486
856.862	18681
856.996	18601
857.13	18578
857.263	18730
857.397	18616
857.53	18528
857.664	18642
857.797	18627
857.931	18601
858.064	18631
858.197	18665
858.331	18445
858.464	18429
858.597	18384
858.731	18486
858.864	18486
858.997	18506
859.13	18631
859.263	18460
859.396	18578
859.529	18376
859.662	18418
859.795	18433
859.928	18414
860.061	18551
860.194	18741
860.327	18422
860.46	18388
860.592	18589
860.725	18563
860.858	18642
860.99	18494
861.123	18315
861.256	18300
861.388	18544
861.521	19190
861.653	18346
861.786	18388
861.918	18350
862.05	18395
862.183	18418
862.315	18403
862.447	18551
862.58	18479
862.712	18220
862.844	18232
862.976	18300
863.108	18361
863.24	18563
863.372	18194
863.504	18155
863.636	18243
863.768	18266
863.9	18213
864.032	18091
864.164	18106
864.296	18292
864.428	18330
864.559	18369
864.691	18270
864.823	18224
864.954	18247
865.086	18239
865.217	18079
865.349	18091
865.48	18068
865.612	18102
865.743	18190
865.875	18091
866.006	18197
866.137	18129
866.269	18095
866.4	18159
866.531	18117
866.662	18098
866.793	18140
866.924	18079
867.055	18133
867.186	18034
867.317	18174
867.448	18015
867.579	18007
867.71	18003
867.841	17988
867.972	18140
868.103	18030
868.233	18106
868.364	18106
868.495	18144
868.625	18319
868.756	18350
868.886	18262
869.017	18190
869.147	18407
869.278	18513
869.408	18361
869.539	18433
869.669	18357
869.799	18388
869.929	18372
870.06	18456
870.19	18593
870.32	18604
870.45	18601
870.58	18665
870.71	18779
870.84	18829
870.97	18760
871.1	18669
871.23	18802
871.36	18970
871.489	18753
871.619	18916
871.749	18973
871.879	18825
872.008	19012
872.138	18852
872.267	18886
872.397	18833
872.526	18688
872.656	18745
872.785	18688
872.915	19004
873.044	18951
873.173	18901
873.303	18966
873.432	18924
873.561	19080
873.69	19027
873.819	18897
873.948	18993
874.077	19012
874.206	18848
874.335	18970
874.464	18993
874.593	19053
874.722	19232
874.851	19209
874.979	19259
875.108	19152
875.237	19240
875.365	19141
875.494	19145
875.623	19225
875.751	19190
875.88	19312
876.008	19373
876.136	19388
876.265	19651
876.393	19757
876.521	19635
876.65	19700
876.778	19696
876.906	19556
877.034	19525
877.162	19586
877.29	19499
877.418	19582
877.546	19578
877.674	19620
877.802	19639
877.93	19597
878.058	19499
878.185	19537
878.313	19514
878.441	19639
878.568	19434
878.696	19472
878.824	19674
878.951	19738
879.079	19811
879.206	19963
879.333	19742
879.461	19624
879.588	19693
879.715	19845
879.842	19822
879.97	19605
880.097	19552
880.224	19472
880.351	19476
880.478	19533
880.605	19430
880.732	19244
880.859	19578
880.986	19548
881.112	19514
881.239	19430
881.366	19247
881.493	19076
881.619	19038
881.746	19198
881.872	19065
881.999	18981
882.125	18985
882.252	19114
882.378	19095
882.505	19213
882.631	18837
882.757	18821
882.883	19015
883.01	18951
883.136	18798
883.262	18684
883.388	18711
883.514	18829
883.64	18966
883.766	18772
883.892	18681
884.018	18563
884.143	18791
884.269	18840
884.395	18589
884.52	18483
884.646	18566
884.772	18448
884.897	18369
885.023	18525
885.148	18681
885.274	18604
885.399	18601
885.524	18437
885.65	18589
885.775	18563
885.9	18452
886.025	18582
886.15	18578
886.275	18311
886.4	18388
886.525	18471
886.65	18304
886.775	18479
886.9	18490
887.025	18692
887.149	18467
887.274	18311
887.399	18197
887.523	18292
887.648	18201
887.773	18239
887.897	18361
888.021	18254
888.146	18285
888.27	18254
888.395	18414
888.519	18266
888.643	18171
888.767	18235
888.891	18194
889.015	18026
889.139	18114
889.263	18083
889.387	18186
889.511	18239
889.635	18201
889.759	17927
889.883	18026
890.006	18079
890.13	18114
890.254	18011
890.377	17958
890.501	17794
890.624	17843
890.748	17805
890.871	17745
890.995	17554
891.118	17634
891.241	17714
891.364	17687
891.488	17718
891.611	17703
891.734	17684
891.857	17767
891.98	17760
892.103	17752
892.226	17714
892.349	17722
892.471	17493
892.594	17592
892.717	17653
892.839	17699
892.962	17608
893.085	17691
893.207	17623
893.33	17600
893.452	17642
893.575	17668
893.697	17619
893.819	17741
893.941	17813
894.064	17817
894.186	17509
894.308	17611
894.43	17649
894.552	17855
894.674	17779
894.796	17421
894.918	17672
895.04	17558
895.161	17748
895.283	17691
895.405	17566
895.526	17676
895.648	17703
895.769	17649
895.891	17710
896.012	17767
896.134	17748
896.255	17790
896.376	17718
896.498	17726
896.619	17710
896.74	17649
896.861	17843
896.982	18121
897.103	18243
897.224	18049
897.345	17965
897.466	17882
897.587	17984
897.708	18121
897.828	17916
897.949	18019
898.07	17809
898.19	17859
898.311	18064
898.431	17908
898.552	18007
898.672	17984
898.792	18003
898.913	17996
899.033	17824
899.153	17707
899.273	17630
899.393	17710
899.513	17680
899.633	17642
899.753	17737
899.873	17668
899.993	17668
900.113	17581
900.232	17680
900.352	17722
900.472	17619
900.591	17611
900.711	17448
900.83	17566
900.95	17619
901.069	17573
901.189	17497
901.308	17254
901.427	17193
901.546	17132
901.665	17204
901.784	17170
901.904	16984
902.023	16881
902.141	16759
902.26	16793
902.379	16702
902.498	16675
902.617	16691
902.735	16641
902.854	16778
902.973	16546
903.091	16398
903.21	16462
903.328	16398
903.446	16211
903.565	16295
903.683	16272
903.801	15972
903.919	16154
904.038	16109
904.156	16067
904.274	16082
904.392	15968
904.51	15903
904.627	15949
904.745	15895
904.863	15987
904.981	15690
905.098	15671
905.216	15587
905.334	15762
905.451	15694
905.569	15679
905.686	15690
905.803	15660
905.921	15416
906.038	15545
906.155	15443
906.272	15405
906.389	15382
906.506	15211
906.623	15237
906.74	15127
906.857	15081
906.974	15131
907.091	15260
907.208	15382
907.324	15211
907.441	14982
907.557	14941
907.674	14834
907.79	14883
907.907	14826
908.023	14952
908.139	14895
908.256	14872
908.372	14804
908.488	14773
908.604	14602
908.72	14514
908.836	14568
908.952	14514
909.068	14678
909.184	14689
909.3	14564
909.415	14701
909.531	14632
909.647	14393
909.762	14377
909.878	14320
909.993	14412
910.108	14294
910.224	14195
910.339	14358
910.454	14180
910.57	14271
910.685	14031
910.8	14275
910.915	14282
911.03	14126
911.145	14046
911.259	13955
911.374	13989
911.489	13868
911.604	13780
911.718	13689
911.833	13696
911.947	13563
912.062	13502
912.176	13571
912.291	13696
912.405	13689
912.519	13841
912.633	13860
912.748	13772
912.862	13677
912.976	13525
913.09	13316
913.204	13556
913.318	13510
913.431	13636
913.545	13499
913.659	13597
913.772	13537
913.886	13434
914	13411
914.113	13445
914.226	13533
914.34	13525
914.453	13255
914.566	13434
914.68	13206
914.793	13232
914.906	13050
915.019	13065
915.132	12920
915.245	13004
915.358	13046
915.47	13023
915.583	13019
915.696	13179
915.809	13232
915.921	13270
916.034	13072
916.146	13019
916.259	13008
916.371	13107
916.483	13027
916.595	12932
916.708	12920
916.82	12909
916.932	12863
917.044	12844
917.156	12875
917.268	12806
917.38	12882
917.491	12688
917.603	12779
917.715	12776
917.826	12840
917.938	12764
918.049	12635
918.161	12795
918.272	12806
918.384	12863
918.495	12806
918.606	12601
918.717	12517
918.828	12642
918.939	12570
919.05	12551
919.161	12494
919.272	12471
919.383	12422
919.494	12528
919.604	12798
919.715	12593
919.826	12437
919.936	12357
920.047	12684
920.157	12528
920.267	12722
920.378	12521
920.488	12433
920.598	12688
920.708	12795
920.818	12639
920.928	12627
921.038	12840
921.148	12795
921.258	12502
921.368	12479
921.477	12289
921.587	12270
921.697	12175
921.806	12346
921.916	12171
922.025	11984
922.134	11935
922.244	12003
922.353	12019
922.462	11790
922.571	11726
922.68	11722
922.789	11581
922.898	11726
923.007	11604
923.116	11623
923.224	11619
923.333	11653
923.442	11535
923.55	11520
923.659	11543
923.767	11600
923.876	11337
923.984	11547
924.092	11417
924.201	11391
924.309	11452
924.417	11433
924.525	11296
924.633	11398
924.741	12365
924.849	11250
924.956	11372
925.064	11204
925.172	11124
925.279	11151
925.387	11159
925.494	11220
925.602	11204
925.709	11170
925.816	11041
925.924	11121
926.031	11250
926.138	11098
926.245	11105
926.352	11025
926.459	11239
926.566	11204
926.673	11037
926.779	11029
926.886	10980
926.993	10786
927.099	10843
927.206	10664
927.312	10759
927.419	10862
927.525	10801
927.631	10771
927.737	10683
927.843	10630
927.95	10550
928.056	10641
928.162	10691
928.267	10710
928.373	11315
928.479	10786
928.585	10462
928.69	10584
928.796	10656
928.901	10516
929.007	10344
929.112	10561
929.218	10508
929.323	10436
929.428	10474
929.533	10489
929.638	10363
929.743	10428
929.848	10363
929.953	10325
930.058	10295
930.163	10204
930.267	10082
930.372	10299
930.477	10040
930.581	10375
930.685	10215
930.79	9983
930.894	10086
930.998	10086
931.103	10173
931.207	9770
931.311	9705
931.415	9603
931.519	9447
931.623	9447
