Data from test_V78500241_2203.txt Node
Date: Fri Mar 25 14:49:03 CST 2022
User: usil
Spectrometer: V785-0024
Trigger mode: 0
Integration Time (sec): 4.000000E-1
Scans to average: 1
Nonlinearity correction enabled: false
Boxcar width: 0
Storing dark spectrum: false
XAxis mode: Wavelengths
Number of Pixels in Spectrum: 1024
>>>>>Begin Spectral Data<<<<<
801.071	22249
801.214	22017
801.356	21892
801.499	21781
801.641	21587
801.783	21504
801.926	21469
802.068	21466
802.211	21401
802.353	21310
802.496	21184
802.638	21024
802.78	21001
802.923	20906
803.065	20830
803.208	20792
803.35	20842
803.492	21055
803.635	21039
803.777	20864
803.919	20864
804.061	21230
804.204	20804
804.346	20758
804.488	20758
804.63	20838
804.773	20758
804.915	20792
805.057	20910
805.199	20663
805.341	20823
805.483	20906
805.626	20887
805.768	20708
805.91	20891
806.052	20754
806.194	20746
806.336	20925
806.478	20750
806.62	20686
806.762	20929
806.904	20963
807.046	21192
807.188	21116
807.33	21154
807.472	21161
807.614	21112
807.756	20998
807.898	20944
808.04	20811
808.182	20819
808.324	20967
808.465	21043
808.607	21036
808.749	21123
808.891	21249
809.033	21306
809.174	21272
809.316	21321
809.458	21173
809.6	21176
809.741	21321
809.883	21237
810.025	21272
810.166	21332
810.308	21355
810.45	21302
810.591	21233
810.733	21085
810.875	20998
811.016	20887
811.158	20838
811.299	21001
811.441	21085
811.582	20986
811.724	20971
811.865	20796
812.007	20792
812.148	20975
812.29	20857
812.431	20994
812.573	21211
812.714	21283
812.855	21443
812.997	21572
813.138	21652
813.279	21526
813.421	21382
813.562	21348
813.703	21188
813.845	21047
813.986	20849
814.127	20663
814.268	20560
814.41	20632
814.551	20404
814.692	20465
814.833	20408
814.974	20377
815.115	20434
815.256	20332
815.397	20328
815.539	20347
815.68	20275
815.821	20157
815.962	20218
816.103	20100
816.244	20130
816.385	19970
816.526	19921
816.666	19723
816.807	19727
816.948	19803
817.089	19845
817.23	19613
817.371	19685
817.512	19674
817.653	19704
817.793	19483
817.934	19628
818.075	19540
818.216	19597
818.356	19609
818.497	19441
818.638	19301
818.778	19312
818.919	19221
819.06	19331
819.2	19445
819.341	19601
819.481	19518
819.622	19727
819.762	19902
819.903	19788
820.043	19704
820.184	19556
820.324	19582
820.465	19662
820.605	19681
820.746	19727
820.886	19529
821.026	19578
821.167	19597
821.307	19632
821.447	19506
821.588	19445
821.728	19381
821.868	19118
822.008	18954
822.149	18924
822.289	18989
822.429	18852
822.569	18639
822.709	18692
822.849	18623
822.99	18388
823.13	18498
823.27	18456
823.41	18224
823.55	18201
823.69	18285
823.83	18315
823.97	18235
824.11	18144
824.25	18079
824.389	18106
824.529	18114
824.669	18045
824.809	18243
824.949	18076
825.089	18201
825.228	18167
825.368	18015
825.508	17798
825.648	17790
825.787	17866
825.927	17843
826.067	17836
826.206	17809
826.346	17859
826.485	17904
826.625	17790
826.765	17904
826.904	17851
827.044	17604
827.183	17638
827.323	17474
827.462	17684
827.601	17608
827.741	17501
827.88	17573
828.02	17372
828.159	17436
828.298	17452
828.437	17623
828.577	17391
828.716	17604
828.855	17547
828.994	17337
829.134	17337
829.273	17299
829.412	17307
829.551	17261
829.69	17170
829.829	17311
829.968	17444
830.107	17379
830.246	17345
830.385	17189
830.524	17178
830.663	17079
830.802	16976
830.941	16900
831.08	16911
831.219	16919
831.357	16915
831.496	17105
831.635	16957
831.774	16873
831.913	16790
832.051	16733
832.19	16645
832.329	16733
832.467	16561
832.606	16455
832.744	16588
832.883	16577
833.022	16603
833.16	16596
833.299	16573
833.437	16645
833.576	16755
833.714	16702
833.852	16683
833.991	16611
834.129	16649
834.267	16656
834.406	16618
834.544	16615
834.682	16588
834.821	16615
834.959	16866
835.097	16588
835.235	16634
835.373	16774
835.511	16599
835.65	16519
835.788	16375
835.926	16443
836.064	16344
836.202	16466
836.34	16596
836.478	16626
836.615	16474
836.753	16531
836.891	16599
837.029	16637
837.167	16417
837.305	16421
837.443	16382
837.58	16367
837.718	16428
837.856	16382
837.993	16405
838.131	16352
838.269	16314
838.406	16367
838.544	16287
838.681	16169
838.819	16017
838.956	15941
839.094	15869
839.231	15915
839.369	16086
839.506	16375
839.643	16196
839.781	16025
839.918	15915
840.055	15960
840.193	15911
840.33	15907
840.467	15979
840.604	15918
840.742	16078
840.879	15800
841.016	15884
841.153	15895
841.29	16029
841.427	15964
841.564	15911
841.701	16002
841.838	15956
841.975	15873
842.112	15983
842.249	15781
842.385	15690
842.522	15899
842.659	15854
842.796	15739
842.933	15698
843.069	15770
843.206	15515
843.343	15804
843.479	15679
843.616	15800
843.752	15515
843.889	15492
844.025	15576
844.162	15481
844.298	15629
844.435	15557
844.571	15428
844.708	15587
844.844	15701
844.98	15641
845.117	15606
845.253	15549
845.389	15363
845.525	15473
845.661	15435
845.798	15359
845.934	15397
846.07	15260
846.206	15306
846.342	15405
846.478	15317
846.614	15131
846.75	15127
846.886	15195
847.022	15066
847.158	15146
847.294	15142
847.429	15112
847.565	15093
847.701	15264
847.837	14731
847.972	14826
848.108	14842
848.244	14914
848.379	14777
848.515	14746
848.65	14674
848.786	14720
848.921	14705
849.057	14838
849.192	14754
849.328	14758
849.463	14716
849.598	14705
849.734	14545
849.869	14514
850.004	14427
850.14	14507
850.275	14408
850.41	14362
850.545	14370
850.68	14438
850.815	14434
850.95	14385
851.085	14518
851.22	14495
851.355	14393
851.49	14511
851.625	14431
851.76	14412
851.895	14381
852.03	14374
852.165	14461
852.299	14473
852.434	14552
852.569	14465
852.703	14393
852.838	14488
852.973	14530
853.107	14526
853.242	14400
853.376	14275
853.511	14237
853.645	14168
853.78	14408
853.914	14374
854.048	14275
854.183	14351
854.317	14267
854.451	14499
854.585	14278
854.72	14290
854.854	14438
854.988	14263
855.122	14317
855.256	14172
855.39	14225
855.524	14317
855.658	14355
855.792	14317
855.926	14370
856.06	14362
856.194	14476
856.327	14366
856.461	14301
856.595	14320
856.729	14294
856.862	14442
856.996	14362
857.13	14419
857.263	14339
857.397	14412
857.53	14431
857.664	14358
857.797	14396
857.931	14343
858.064	14309
858.197	14362
858.331	14423
858.464	14210
858.597	14240
858.731	14396
858.864	14343
858.997	14313
859.13	14419
859.263	14366
859.396	14320
859.529	14278
859.662	14309
859.795	14259
859.928	14355
860.061	14450
860.194	14412
860.327	14355
860.46	14252
860.592	14450
860.725	14492
860.858	14423
860.99	14324
861.123	14221
861.256	14275
861.388	14358
861.521	14887
861.653	14199
861.786	14138
861.918	14130
862.05	14252
862.183	14183
862.315	14259
862.447	14408
862.58	14278
862.712	14145
862.844	13982
862.976	14107
863.108	14240
863.24	14415
863.372	14081
863.504	14103
863.636	14005
863.768	14157
863.9	14172
864.032	14054
864.164	14134
864.296	14206
864.428	14100
864.559	14077
864.691	14164
864.823	14123
864.954	14054
865.086	14168
865.217	14134
865.349	14046
865.48	14054
865.612	14134
865.743	14202
865.875	14100
866.006	14001
866.137	14062
866.269	14073
866.4	14088
866.531	14035
866.662	13997
866.793	14012
866.924	14035
867.055	14073
867.186	14088
867.317	13936
867.448	13989
867.579	13967
867.71	13947
867.841	13936
867.972	14115
868.103	14092
868.233	14145
868.364	14050
868.495	14073
868.625	14317
868.756	14393
868.886	14214
869.017	14336
869.147	14393
869.278	14492
869.408	14324
869.539	14336
869.669	14438
869.799	14339
869.929	14423
870.06	14465
870.19	14560
870.32	14613
870.45	14678
870.58	14811
870.71	14739
870.84	14815
870.97	14750
871.1	14705
871.23	14937
871.36	14944
871.489	14887
871.619	14971
871.749	14914
871.879	14956
872.008	15005
872.138	14986
872.267	14963
872.397	14800
872.526	14697
872.656	14758
872.785	14743
872.915	14948
873.044	15081
873.173	14891
873.303	15017
873.432	15013
873.561	15017
873.69	15017
873.819	14925
873.948	14986
874.077	14948
874.206	14891
874.335	14998
874.464	15165
874.593	15313
874.722	15260
874.851	15287
874.979	15435
875.108	15351
875.237	15260
875.365	15245
875.494	15176
875.623	15382
875.751	15233
875.88	15275
876.008	15496
876.136	15542
876.265	15675
876.393	15918
876.521	15778
876.65	15724
876.778	15663
876.906	15622
877.034	15743
877.162	15717
877.29	15648
877.418	15694
877.546	15800
877.674	15724
877.802	15618
877.93	15720
878.058	15770
878.185	15606
878.313	15660
878.441	15686
878.568	15599
878.696	15641
878.824	15728
878.951	15774
879.079	15831
879.206	16044
879.333	15755
879.461	15690
879.588	15812
879.715	15987
879.842	16029
879.97	15789
880.097	15526
880.224	15504
880.351	15606
880.478	15595
880.605	15412
880.732	15557
880.859	15743
880.986	15580
881.112	15492
881.239	15481
881.366	15332
881.493	15329
881.619	15268
881.746	15264
881.872	15157
881.999	15123
882.125	15222
882.252	15294
882.378	15256
882.505	15359
882.631	15127
882.757	15032
882.883	15093
883.01	15020
883.136	14838
883.262	14933
883.388	14941
883.514	15123
883.64	15081
883.766	15032
883.892	14819
884.018	14800
884.143	14914
884.269	15157
884.395	14819
884.52	14705
884.646	14773
884.772	14636
884.897	14781
885.023	14697
885.148	14807
885.274	14845
885.399	14788
885.524	14800
885.65	14727
885.775	14849
885.9	14693
886.025	14883
886.15	14815
886.275	14617
886.4	14610
886.525	14701
886.65	14594
886.775	14762
886.9	14842
887.025	14979
887.149	14678
887.274	14598
887.399	14560
887.523	14537
887.648	14503
887.773	14476
887.897	14625
888.021	14640
888.146	14495
888.27	14663
888.395	14708
888.519	14568
888.643	14655
888.767	14670
888.891	14488
889.015	14400
889.139	14446
889.263	14332
889.387	14507
889.511	14594
889.635	14541
889.759	14454
889.883	14484
890.006	14476
890.13	14518
890.254	14275
890.377	14385
890.501	14168
890.624	14168
890.748	14229
890.871	14069
890.995	14031
891.118	14065
891.241	14084
891.364	14176
891.488	14145
891.611	14134
891.734	14111
891.857	14187
891.98	14161
892.103	14149
892.226	14176
892.349	14126
892.471	13955
892.594	14077
892.717	14103
892.839	14100
892.962	14138
893.085	14233
893.207	14153
893.33	14016
893.452	14107
893.575	14100
893.697	14168
893.819	14351
893.941	14339
894.064	14317
894.186	14031
894.308	14130
894.43	14233
894.552	14282
894.674	14271
894.796	14065
894.918	14096
895.04	14123
895.161	14309
895.283	14221
895.405	14107
895.526	14199
895.648	14267
895.769	14206
895.891	14267
896.012	14347
896.134	14377
896.255	14324
896.376	14206
896.498	14286
896.619	14263
896.74	14218
896.861	14385
896.982	14621
897.103	14712
897.224	14667
897.345	14522
897.466	14469
897.587	14583
897.708	14701
897.828	14678
897.949	14488
898.07	14446
898.19	14579
898.311	14640
898.431	14613
898.552	14568
898.672	14754
898.792	14807
898.913	14655
899.033	14667
899.153	14495
899.273	14385
899.393	14495
899.513	14564
899.633	14492
899.753	14476
899.873	14514
899.993	14541
900.113	14393
900.232	14450
900.352	14503
900.472	14381
900.591	14324
900.711	14374
900.83	14320
900.95	14427
901.069	14442
901.189	14396
901.308	14168
901.427	13940
901.546	13970
901.665	14046
901.784	13986
901.904	13849
902.023	13864
902.141	13613
902.26	13624
902.379	13658
902.498	13620
902.617	13605
902.735	13620
902.854	13704
902.973	13544
903.091	13335
903.21	13293
903.328	13320
903.446	13297
903.565	12993
903.683	13160
903.801	13072
903.919	13202
904.038	13152
904.156	12954
904.274	12962
904.392	13042
904.51	12954
904.627	12993
904.745	13050
904.863	13012
904.981	12779
905.098	12688
905.216	12700
905.334	12711
905.451	12677
905.569	12711
905.686	12738
905.803	12601
905.921	12448
906.038	12593
906.155	12521
906.272	12369
906.389	12486
906.506	12277
906.623	12319
906.74	12235
906.857	12258
906.974	12258
907.091	12330
907.208	12448
907.324	12346
907.441	12167
907.557	12068
907.674	11984
907.79	11965
907.907	11992
908.023	12034
908.139	12019
908.256	12011
908.372	11992
908.488	11904
908.604	11866
908.72	11707
908.836	11790
908.952	11798
909.068	11745
909.184	11802
909.3	11733
909.415	11790
909.531	11809
909.647	11577
909.762	11600
909.878	11539
909.993	11539
910.108	11570
910.224	11505
910.339	11558
910.454	11421
910.57	11376
910.685	11292
910.8	11653
910.915	11558
911.03	11482
911.145	11288
911.259	11242
911.374	11254
911.489	11124
911.604	11094
911.718	11045
911.833	10980
911.947	11010
912.062	10873
912.176	10961
912.291	11025
912.405	11067
912.519	11159
912.633	11239
912.748	11045
912.862	10995
912.976	10843
913.09	10812
913.204	10881
913.318	10915
913.431	10961
913.545	11014
913.659	11014
913.772	10816
913.886	10831
914	10843
914.113	10869
914.226	10786
914.34	10908
914.453	10729
914.566	10793
914.68	10645
914.793	10694
914.906	10584
915.019	10535
915.132	10417
915.245	10577
915.358	10497
915.47	10493
915.583	10546
915.696	10535
915.809	10679
915.921	10668
916.034	10394
916.146	10413
916.259	10413
916.371	10561
916.483	10470
916.595	10356
916.708	10481
916.82	10417
916.932	10466
917.044	10451
917.156	10413
917.268	10306
917.38	10287
917.491	10306
917.603	10337
917.715	10428
917.826	10481
917.938	10310
918.049	10219
918.161	10375
918.272	10474
918.384	10523
918.495	10318
918.606	10249
918.717	10185
918.828	10268
918.939	10306
919.05	10090
919.161	10188
919.272	10040
919.383	10101
919.494	10227
919.604	10455
919.715	10337
919.826	10173
919.936	10227
920.047	10337
920.157	10223
920.267	10466
920.378	10265
920.488	10230
920.598	10478
920.708	10546
920.818	10367
920.928	10428
921.038	10603
921.148	10558
921.258	10242
921.368	10204
921.477	10169
921.587	10093
921.697	10025
921.806	10143
921.916	10010
922.025	9854
922.134	9800
922.244	9732
922.353	9770
922.462	9732
922.571	9629
922.68	9549
922.789	9389
922.898	9507
923.007	9431
923.116	9481
923.224	9443
923.333	9473
923.442	9401
923.55	9329
923.659	9287
923.767	9511
923.876	9317
923.984	9439
924.092	9336
924.201	9378
924.309	9393
924.417	9363
924.525	9340
924.633	9363
924.741	10200
924.849	9112
924.956	9291
925.064	9085
925.172	9146
925.279	9024
925.387	9127
925.494	9157
925.602	9237
925.709	9138
925.816	9108
925.924	9119
926.031	9176
926.138	9089
926.245	9203
926.352	9020
926.459	9207
926.566	9233
926.673	9123
926.779	9036
926.886	9005
926.993	8868
927.099	8834
927.206	8815
927.312	8769
927.419	8963
927.525	8887
927.631	8967
927.737	8819
927.843	8701
927.95	8629
928.056	8766
928.162	8796
928.267	8819
928.373	9363
928.479	8826
928.585	8629
928.69	8777
928.796	8735
928.901	8693
929.007	8503
929.112	8613
929.218	8670
929.323	8583
929.428	8579
929.533	8743
929.638	8507
929.743	8530
929.848	8575
929.953	8583
930.058	8492
930.163	8374
930.267	8389
930.372	8454
930.477	8279
930.581	8606
930.685	8400
930.79	8282
930.894	8339
930.998	8259
931.103	8427
931.207	8142
931.311	7967
931.415	7955
931.519	7742
931.623	7784
