Data from test_V78500241_2449.txt Node
Date: Fri Mar 25 14:50:45 CST 2022
User: usil
Spectrometer: V785-0024
Trigger mode: 0
Integration Time (sec): 4.000000E-1
Scans to average: 1
Nonlinearity correction enabled: false
Boxcar width: 0
Storing dark spectrum: false
XAxis mode: Wavelengths
Number of Pixels in Spectrum: 1024
>>>>>Begin Spectral Data<<<<<
801.071	22249
801.214	22040
801.356	21808
801.499	21694
801.641	21511
801.783	21519
801.926	21526
802.068	21370
802.211	21351
802.353	21256
802.496	21119
802.638	20986
802.78	21009
802.923	20811
803.065	20861
803.208	20754
803.35	20716
803.492	20887
803.635	20849
803.777	20731
803.919	20895
804.061	21192
804.204	20838
804.346	20785
804.488	20743
804.63	20708
804.773	20667
804.915	20644
805.057	20758
805.199	20788
805.341	20701
805.483	20765
805.626	20724
805.768	20693
805.91	20663
806.052	20792
806.194	20636
806.336	20967
806.478	20792
806.62	20682
806.762	20815
806.904	20880
807.046	21146
807.188	21096
807.33	21028
807.472	21009
807.614	21009
807.756	20933
807.898	20830
808.04	20720
808.182	20724
808.324	20864
808.465	20925
808.607	20960
808.749	21260
808.891	21252
809.033	21272
809.174	21218
809.316	21226
809.458	21123
809.6	21096
809.741	21192
809.883	21081
810.025	21336
810.166	21199
810.308	21233
810.45	21203
810.591	21104
810.733	20982
810.875	20842
811.016	20861
811.158	20682
811.299	20979
811.441	21009
811.582	20994
811.724	20887
811.865	20796
812.007	20701
812.148	20921
812.29	20960
812.431	21001
812.573	21096
812.714	21233
812.855	21393
812.997	21542
813.138	21504
813.279	21374
813.421	21317
813.562	21397
813.703	21150
813.845	21009
813.986	20769
814.127	20556
814.268	20419
814.41	20484
814.551	20454
814.692	20320
814.833	20377
814.974	20358
815.115	20412
815.256	20263
815.397	20332
815.539	20218
815.68	20248
815.821	20206
815.962	20180
816.103	20054
816.244	19947
816.385	19986
816.526	19906
816.666	19696
816.807	19578
816.948	19677
817.089	19647
817.23	19540
817.371	19693
817.512	19571
817.653	19578
817.793	19537
817.934	19457
818.075	19628
818.216	19559
818.356	19529
818.497	19335
818.638	19084
818.778	19259
818.919	19388
819.06	19282
819.2	19232
819.341	19362
819.481	19491
819.622	19521
819.762	19780
819.903	19662
820.043	19628
820.184	19518
820.324	19578
820.465	19502
820.605	19495
820.746	19460
820.886	19377
821.026	19518
821.167	19441
821.307	19563
821.447	19445
821.588	19377
821.728	19232
821.868	19110
822.008	18844
822.149	18932
822.289	18951
822.429	18669
822.569	18551
822.709	18684
822.849	18441
822.99	18384
823.13	18342
823.27	18346
823.41	18228
823.55	18194
823.69	18201
823.83	18228
823.97	18201
824.11	18064
824.25	18026
824.389	17885
824.529	18144
824.669	17973
824.809	18087
824.949	17992
825.089	18117
825.228	17920
825.368	17866
825.508	17798
825.648	17756
825.787	17901
825.927	17897
826.067	17729
826.206	17748
826.346	17843
826.485	17794
826.625	17805
826.765	17973
826.904	17760
827.044	17604
827.183	17512
827.323	17459
827.462	17535
827.601	17501
827.741	17455
827.88	17592
828.02	17444
828.159	17452
828.298	17600
828.437	17459
828.577	17299
828.716	17570
828.855	17398
828.994	17174
829.134	17208
829.273	17239
829.412	17189
829.551	17140
829.69	17216
829.829	17147
829.968	17292
830.107	17178
830.246	17296
830.385	17113
830.524	17132
830.663	17132
830.802	16877
830.941	16854
831.08	16733
831.219	16976
831.357	16873
831.496	17060
831.635	16850
831.774	16767
831.913	16702
832.051	16580
832.19	16637
832.329	16717
832.467	16546
832.606	16474
832.744	16596
832.883	16546
833.022	16527
833.16	16588
833.299	16550
833.437	16516
833.576	16592
833.714	16523
833.852	16615
833.991	16538
834.129	16634
834.267	16592
834.406	16523
834.544	16611
834.682	16470
834.821	16580
834.959	16793
835.097	16611
835.235	16607
835.373	16573
835.511	16630
835.65	16523
835.788	16344
835.926	16382
836.064	16219
836.202	16314
836.34	16462
836.478	16561
836.615	16428
836.753	16474
836.891	16554
837.029	16497
837.167	16409
837.305	16272
837.443	16318
837.58	16234
837.718	16451
837.856	16325
837.993	16291
838.131	16284
838.269	16287
838.406	16272
838.544	16181
838.681	16120
838.819	16029
838.956	15915
839.094	15892
839.231	15911
839.369	15956
839.506	16272
839.643	16029
839.781	15930
839.918	15808
840.055	15941
840.193	15831
840.33	15804
840.467	15972
840.604	15876
840.742	16097
840.879	15728
841.016	15854
841.153	15778
841.29	16074
841.427	15964
841.564	15892
841.701	15934
841.838	15797
841.975	15732
842.112	15785
842.249	15778
842.385	15667
842.522	15808
842.659	15701
842.796	15568
842.933	15667
843.069	15561
843.206	15587
843.343	15766
843.479	15606
843.616	15625
843.752	15481
843.889	15481
844.025	15614
844.162	15447
844.298	15450
844.435	15511
844.571	15397
844.708	15462
844.844	15652
844.98	15622
845.117	15397
845.253	15473
845.389	15325
845.525	15439
845.661	15344
845.798	15325
845.934	15256
846.07	15233
846.206	15344
846.342	15370
846.478	15146
846.614	15013
846.75	15032
846.886	14982
847.022	15070
847.158	15066
847.294	15112
847.429	15108
847.565	14967
847.701	15351
847.837	14800
847.972	14785
848.108	14872
848.244	14891
848.379	14716
848.515	14556
848.65	14663
848.786	14632
848.921	14712
849.057	14686
849.192	14689
849.328	14629
849.463	14552
849.598	14594
849.734	14564
849.869	14454
850.004	14461
850.14	14404
850.275	14450
850.41	14320
850.545	14366
850.68	14362
850.815	14389
850.95	14370
851.085	14526
851.22	14530
851.355	14381
851.49	14355
851.625	14320
851.76	14370
851.895	14229
852.03	14237
852.165	14381
852.299	14427
852.434	14412
852.569	14442
852.703	14408
852.838	14476
852.973	14556
853.107	14473
853.242	14358
853.376	14347
853.511	14164
853.645	14309
853.78	14465
853.914	14343
854.048	14214
854.183	14237
854.317	14210
854.451	14427
854.585	14313
854.72	14347
854.854	14343
854.988	14191
855.122	14214
855.256	14130
855.39	14267
855.524	14404
855.658	14393
855.792	14381
855.926	14355
856.06	14298
856.194	14400
856.327	14317
856.461	14233
856.595	14187
856.729	14195
856.862	14336
856.996	14256
857.13	14294
857.263	14332
857.397	14431
857.53	14275
857.664	14442
857.797	14503
857.931	14492
858.064	14328
858.197	14419
858.331	14267
858.464	14153
858.597	14199
858.731	14298
858.864	14317
858.997	14313
859.13	14324
859.263	14286
859.396	14381
859.529	14328
859.662	14267
859.795	14256
859.928	14374
860.061	14442
860.194	14484
860.327	14385
860.46	14305
860.592	14476
860.725	14518
860.858	14385
860.99	14218
861.123	14206
861.256	14237
861.388	14267
861.521	14845
861.653	14187
861.786	14168
861.918	14149
862.05	14214
862.183	14248
862.315	14263
862.447	14434
862.58	14244
862.712	14084
862.844	14008
862.976	14123
863.108	14058
863.24	14446
863.372	14043
863.504	14065
863.636	14077
863.768	14111
863.9	14027
864.032	14073
864.164	13967
864.296	14046
864.428	14145
864.559	14206
864.691	14214
864.823	14202
864.954	14039
865.086	14119
865.217	14054
865.349	14012
865.48	14054
865.612	14062
865.743	14252
865.875	14043
866.006	14005
866.137	14065
866.269	14100
866.4	14005
866.531	14012
866.662	13963
866.793	13974
866.924	13997
867.055	14100
867.186	14107
867.317	14024
867.448	13925
867.579	14005
867.71	13997
867.841	13845
867.972	14012
868.103	13982
868.233	14119
868.364	14005
868.495	14058
868.625	14233
868.756	14427
868.886	14237
869.017	14259
869.147	14454
869.278	14358
869.408	14381
869.539	14263
869.669	14320
869.799	14275
869.929	14480
870.06	14389
870.19	14610
870.32	14640
870.45	14648
870.58	14735
870.71	14754
870.84	14758
870.97	14705
871.1	14583
871.23	14872
871.36	14876
871.489	14796
871.619	14937
871.749	14925
871.879	14876
872.008	14963
872.138	14910
872.267	14785
872.397	14819
872.526	14792
872.656	14708
872.785	14796
872.915	14883
873.044	15032
873.173	14887
873.303	14960
873.432	14971
873.561	15066
873.69	14861
873.819	14960
873.948	15066
874.077	14925
874.206	14925
874.335	14948
874.464	15062
874.593	15176
874.722	15169
874.851	15268
874.979	15367
875.108	15401
875.237	15112
875.365	15222
875.494	15256
875.623	15298
875.751	15241
875.88	15370
876.008	15447
876.136	15507
876.265	15648
876.393	15884
876.521	15675
876.65	15698
876.778	15671
876.906	15591
877.034	15523
877.162	15698
877.29	15625
877.418	15671
877.546	15682
877.674	15698
877.802	15671
877.93	15747
878.058	15606
878.185	15637
878.313	15663
878.441	15625
878.568	15496
878.696	15606
878.824	15641
878.951	15667
879.079	15888
879.206	15972
879.333	15884
879.461	15793
879.588	15793
879.715	15835
879.842	15972
879.97	15854
880.097	15538
880.224	15519
880.351	15504
880.478	15671
880.605	15542
880.732	15454
880.859	15732
880.986	15599
881.112	15587
881.239	15386
881.366	15249
881.493	15127
881.619	15226
881.746	15230
881.872	15176
881.999	15245
882.125	15241
882.252	15214
882.378	15214
882.505	15378
882.631	15123
882.757	14990
882.883	14994
883.01	14967
883.136	14956
883.262	14807
883.388	14887
883.514	14967
883.64	15116
883.766	14956
883.892	14861
884.018	14762
884.143	14990
884.269	15097
884.395	14872
884.52	14670
884.646	14606
884.772	14606
884.897	14625
885.023	14701
885.148	14712
885.274	14758
885.399	14811
885.524	14735
885.65	14617
885.775	14716
885.9	14655
886.025	14861
886.15	14697
886.275	14556
886.4	14617
886.525	14610
886.65	14674
886.775	14571
886.9	14693
887.025	14933
887.149	14659
887.274	14545
887.399	14587
887.523	14552
887.648	14568
887.773	14366
887.897	14606
888.021	14590
888.146	14465
888.27	14663
888.395	14632
888.519	14571
888.643	14552
888.767	14526
888.891	14442
889.015	14473
889.139	14461
889.263	14355
889.387	14446
889.511	14667
889.635	14655
889.759	14431
889.883	14347
890.006	14393
890.13	14423
890.254	14313
890.377	14221
890.501	14161
890.624	14237
890.748	14313
890.871	14111
890.995	14111
891.118	13993
891.241	14107
891.364	14149
891.488	14271
891.611	14103
891.734	14145
891.857	14138
891.98	14172
892.103	14237
892.226	14016
892.349	14081
892.471	14065
892.594	14084
892.717	14119
892.839	14126
892.962	14180
893.085	14180
893.207	14062
893.33	13951
893.452	14069
893.575	14180
893.697	14069
893.819	14214
893.941	14263
894.064	14248
894.186	14119
894.308	14084
894.43	14195
894.552	14339
894.674	14225
894.796	14096
894.918	14123
895.04	14115
895.161	14267
895.283	14195
895.405	14161
895.526	14161
895.648	14229
895.769	14244
895.891	14248
896.012	14480
896.134	14389
896.255	14248
896.376	14221
896.498	14153
896.619	14370
896.74	14275
896.861	14336
896.982	14541
897.103	14701
897.224	14484
897.345	14533
897.466	14389
897.587	14507
897.708	14727
897.828	14484
897.949	14465
898.07	14427
898.19	14537
898.311	14777
898.431	14568
898.552	14655
898.672	14727
898.792	14701
898.913	14651
899.033	14511
899.153	14461
899.273	14427
899.393	14446
899.513	14495
899.633	14549
899.753	14400
899.873	14374
899.993	14621
900.113	14446
900.232	14571
900.352	14419
900.472	14339
900.591	14324
900.711	14412
900.83	14275
900.95	14400
901.069	14492
901.189	14263
901.308	14046
901.427	13932
901.546	13997
901.665	14058
901.784	13997
901.904	13845
902.023	13833
902.141	13662
902.26	13605
902.379	13643
902.498	13548
902.617	13563
902.735	13658
902.854	13594
902.973	13445
903.091	13270
903.21	13373
903.328	13301
903.446	13183
903.565	13118
903.683	13160
903.801	13072
903.919	13122
904.038	13110
904.156	12924
904.274	13122
904.392	12894
904.51	12939
904.627	12970
904.745	13004
904.863	13015
904.981	12802
905.098	12681
905.216	12597
905.334	12757
905.451	12684
905.569	12589
905.686	12692
905.803	12563
905.921	12426
906.038	12540
906.155	12464
906.272	12311
906.389	12350
906.506	12155
906.623	12281
906.74	12220
906.857	12106
906.974	12110
907.091	12380
907.208	12365
907.324	12213
907.441	12167
907.557	12060
907.674	12022
907.79	11935
907.907	11958
908.023	12057
908.139	12022
908.256	12003
908.372	11958
908.488	11866
908.604	11779
908.72	11786
908.836	11767
908.952	11688
909.068	11767
909.184	11805
909.3	11771
909.415	11760
909.531	11726
909.647	11520
909.762	11512
909.878	11528
909.993	11562
910.108	11543
910.224	11497
910.339	11532
910.454	11448
910.57	11360
910.685	11299
910.8	11589
910.915	11509
911.03	11452
911.145	11216
911.259	11132
911.374	11254
911.489	11083
911.604	11025
911.718	11018
911.833	10984
911.947	10866
912.062	10797
912.176	10927
912.291	10946
912.405	10999
912.519	11231
912.633	11174
912.748	11128
912.862	10957
912.976	10885
913.09	10767
913.204	10839
913.318	10847
913.431	11006
913.545	10858
913.659	10889
913.772	10839
913.886	10706
914	10763
914.113	10839
914.226	10896
914.34	10759
914.453	10698
914.566	10812
914.68	10698
914.793	10599
914.906	10493
915.019	10470
915.132	10382
915.245	10432
915.358	10569
915.47	10451
915.583	10535
915.696	10493
915.809	10637
915.921	10573
916.034	10432
916.146	10451
916.259	10421
916.371	10462
916.483	10523
916.595	10402
916.708	10375
916.82	10432
916.932	10424
917.044	10402
917.156	10466
917.268	10295
917.38	10242
917.491	10215
917.603	10337
917.715	10386
917.826	10390
917.938	10325
918.049	10112
918.161	10310
918.272	10390
918.384	10440
918.495	10360
918.606	10188
918.717	10105
918.828	10230
918.939	10272
919.05	10143
919.161	10139
919.272	10029
919.383	10063
919.494	10253
919.604	10421
919.715	10253
919.826	10116
919.936	10227
920.047	10196
920.157	10234
920.267	10386
920.378	10310
920.488	10173
920.598	10379
920.708	10596
920.818	10371
920.928	10398
921.038	10519
921.148	10478
921.258	10242
921.368	10192
921.477	10048
921.587	10059
921.697	10048
921.806	10135
921.916	9922
922.025	9842
922.134	9778
922.244	9732
922.353	9781
922.462	9652
922.571	9614
922.68	9530
922.789	9477
922.898	9519
923.007	9393
923.116	9507
923.224	9488
923.333	9447
923.442	9313
923.55	9302
923.659	9359
923.767	9473
923.876	9298
923.984	9355
924.092	9279
924.201	9367
924.309	9287
924.417	9336
924.525	9260
924.633	9329
924.741	10059
924.849	9074
924.956	9241
925.064	9089
925.172	9036
925.279	9055
925.387	9146
925.494	9192
925.602	9249
925.709	9218
925.816	9024
925.924	9097
926.031	9188
926.138	9131
926.245	9138
926.352	9043
926.459	9237
926.566	9245
926.673	9074
926.779	8918
926.886	8994
926.993	8807
927.099	8834
927.206	8811
927.312	8769
927.419	8895
927.525	8796
927.631	8899
927.737	8712
927.843	8758
927.95	8640
928.056	8697
928.162	8705
928.267	8800
928.373	9382
928.479	8834
928.585	8522
928.69	8720
928.796	8773
928.901	8583
929.007	8518
929.112	8598
929.218	8644
929.323	8537
929.428	8590
929.533	8720
929.638	8469
929.743	8511
929.848	8594
929.953	8636
930.058	8434
930.163	8328
930.267	8385
930.372	8484
930.477	8233
930.581	8503
930.685	8396
930.79	8279
930.894	8309
930.998	8252
931.103	8438
931.207	8077
931.311	8027
931.415	7917
931.519	7795
931.623	7795
