Data from test_V78500241_3108.txt Node
Date: Fri Mar 25 14:55:21 CST 2022
User: usil
Spectrometer: V785-0024
Trigger mode: 0
Integration Time (sec): 4.000000E-1
Scans to average: 1
Nonlinearity correction enabled: false
Boxcar width: 0
Storing dark spectrum: false
XAxis mode: Wavelengths
Number of Pixels in Spectrum: 1024
>>>>>Begin Spectral Data<<<<<
801.071	22010
801.214	21895
801.356	21675
801.499	21614
801.641	21389
801.783	21389
801.926	21469
802.068	21321
802.211	21428
802.353	21116
802.496	21180
802.638	20982
802.78	20857
802.923	20773
803.065	20800
803.208	20724
803.35	20708
803.492	20830
803.635	20990
803.777	20674
803.919	20769
804.061	21005
804.204	20754
804.346	20712
804.488	20758
804.63	20686
804.773	20583
804.915	20705
805.057	20792
805.199	20575
805.341	20731
805.483	20689
805.626	20716
805.768	20636
805.91	20678
806.052	20625
806.194	20514
806.336	20804
806.478	20670
806.62	20640
806.762	20617
806.904	20872
807.046	21135
807.188	20967
807.33	21036
807.472	20960
807.614	20727
807.756	20872
807.898	20800
808.04	20720
808.182	20670
808.324	20735
808.465	20762
808.607	20895
808.749	20960
808.891	21096
809.033	21032
809.174	21077
809.316	20982
809.458	21070
809.6	20979
809.741	21043
809.883	21066
810.025	21192
810.166	21279
810.308	21184
810.45	21199
810.591	21096
810.733	20804
810.875	20937
811.016	20781
811.158	20659
811.299	20842
811.441	20807
811.582	20891
811.724	20785
811.865	20792
812.007	20845
812.148	20823
812.29	20861
812.431	21017
812.573	21214
812.714	21165
812.855	21363
812.997	21351
813.138	21523
813.279	21473
813.421	21389
813.562	21237
813.703	21001
813.845	20990
813.986	20583
814.127	20507
814.268	20514
814.41	20389
814.551	20305
814.692	20492
814.833	20206
814.974	20343
815.115	20278
815.256	20218
815.397	20161
815.539	20275
815.68	20039
815.821	20024
815.962	20043
816.103	20046
816.244	19849
816.385	19803
816.526	19803
816.666	19689
816.807	19449
816.948	19715
817.089	19590
817.23	19453
817.371	19453
817.512	19419
817.653	19563
817.793	19312
817.934	19495
818.075	19476
818.216	19540
818.356	19438
818.497	19190
818.638	19122
818.778	19072
818.919	19274
819.06	19126
819.2	19263
819.341	19316
819.481	19373
819.622	19533
819.762	19635
819.903	19548
820.043	19449
820.184	19441
820.324	19525
820.465	19419
820.605	19411
820.746	19384
820.886	19320
821.026	19426
821.167	19343
821.307	19415
821.447	19392
821.588	19320
821.728	19145
821.868	19061
822.008	18833
822.149	18878
822.289	18882
822.429	18650
822.569	18399
822.709	18547
822.849	18365
822.99	18342
823.13	18414
823.27	18254
823.41	18171
823.55	18220
823.69	18129
823.83	18117
823.97	18159
824.11	17946
824.25	17847
824.389	17992
824.529	17916
824.669	18030
824.809	18045
824.949	17954
825.089	18087
825.228	17889
825.368	17817
825.508	17703
825.648	17676
825.787	17638
825.927	17695
826.067	17733
826.206	17707
826.346	17726
826.485	17668
826.625	17714
826.765	17786
826.904	17821
827.044	17512
827.183	17573
827.323	17395
827.462	17482
827.601	17433
827.741	17391
827.88	17452
828.02	17318
828.159	17345
828.298	17341
828.437	17376
828.577	17383
828.716	17509
828.855	17414
828.994	17174
829.134	17098
829.273	17124
829.412	17178
829.551	17181
829.69	17121
829.829	17151
829.968	17250
830.107	17105
830.246	17132
830.385	17109
830.524	17124
830.663	16987
830.802	16938
830.941	16835
831.08	16831
831.219	16862
831.357	16869
831.496	16972
831.635	16725
831.774	16691
831.913	16729
832.051	16558
832.19	16603
832.329	16618
832.467	16474
832.606	16352
832.744	16386
832.883	16466
833.022	16474
833.16	16550
833.299	16436
833.437	16493
833.576	16542
833.714	16527
833.852	16516
833.991	16580
834.129	16584
834.267	16519
834.406	16409
834.544	16584
834.682	16523
834.821	16447
834.959	16763
835.097	16417
835.235	16607
835.373	16523
835.511	16523
835.65	16405
835.788	16432
835.926	16299
836.064	16173
836.202	16253
836.34	16390
836.478	16440
836.615	16402
836.753	16440
836.891	16485
837.029	16493
837.167	16447
837.305	16287
837.443	16257
837.58	16215
837.718	16344
837.856	16238
837.993	16200
838.131	16310
838.269	16276
838.406	16204
838.544	16139
838.681	16025
838.819	15903
838.956	15770
839.094	15808
839.231	15846
839.369	15899
839.506	16211
839.643	16097
839.781	15857
839.918	15869
840.055	15846
840.193	15895
840.33	15736
840.467	15663
840.604	15698
840.742	16090
840.879	15682
841.016	15690
841.153	15660
841.29	15892
841.427	15774
841.564	15846
841.701	15873
841.838	15755
841.975	15701
842.112	15724
842.249	15610
842.385	15530
842.522	15675
842.659	15625
842.796	15610
842.933	15656
843.069	15504
843.206	15469
843.343	15648
843.479	15637
843.616	15682
843.752	15374
843.889	15287
844.025	15618
844.162	15332
844.298	15492
844.435	15420
844.571	15401
844.708	15389
844.844	15557
844.98	15500
845.117	15534
845.253	15340
845.389	15176
845.525	15302
845.661	15165
845.798	15131
845.934	15188
846.07	15112
846.206	15188
846.342	15272
846.478	15241
846.614	15024
846.75	14963
846.886	14952
847.022	15058
847.158	14979
847.294	14918
847.429	14971
847.565	14948
847.701	15199
847.837	14682
847.972	14629
848.108	14708
848.244	14750
848.379	14556
848.515	14518
848.65	14556
848.786	14518
848.921	14571
849.057	14678
849.192	14617
849.328	14602
849.463	14564
849.598	14511
849.734	14473
849.869	14404
850.004	14343
850.14	14358
850.275	14290
850.41	14123
850.545	14248
850.68	14256
850.815	14358
850.95	14259
851.085	14503
851.22	14415
851.355	14320
851.49	14339
851.625	14259
851.76	14244
851.895	14275
852.03	14130
852.165	14263
852.299	14298
852.434	14358
852.569	14290
852.703	14328
852.838	14374
852.973	14438
853.107	14454
853.242	14317
853.376	14278
853.511	14039
853.645	14153
853.78	14301
853.914	14191
854.048	14229
854.183	14069
854.317	14157
854.451	14328
854.585	14111
854.72	14145
854.854	14320
854.988	14157
855.122	14123
855.256	13967
855.39	14187
855.524	14199
855.658	14286
855.792	14244
855.926	14172
856.06	14271
856.194	14396
856.327	14191
856.461	14130
856.595	14145
856.729	14218
856.862	14225
856.996	14153
857.13	14229
857.263	14271
857.397	14317
857.53	14119
857.664	14275
857.797	14187
857.931	14229
858.064	14176
858.197	14355
858.331	14248
858.464	14142
858.597	14092
858.731	14123
858.864	14240
858.997	14214
859.13	14218
859.263	14317
859.396	14351
859.529	14183
859.662	14054
859.795	14191
859.928	14256
860.061	14351
860.194	14286
860.327	14130
860.46	14202
860.592	14206
860.725	14210
860.858	14244
860.99	14183
861.123	14088
861.256	14130
861.388	14275
861.521	14925
861.653	14084
861.786	14016
861.918	14005
862.05	14134
862.183	14054
862.315	14168
862.447	14195
862.58	14138
862.712	13940
862.844	13902
862.976	14046
863.108	14016
863.24	14381
863.372	13871
863.504	13940
863.636	13951
863.768	13951
863.9	13947
864.032	13898
864.164	13921
864.296	13974
864.428	14092
864.559	14050
864.691	14100
864.823	14058
864.954	14001
865.086	14031
865.217	13871
865.349	13849
865.48	13887
865.612	13932
865.743	14191
865.875	14046
866.006	13921
866.137	13955
866.269	13860
866.4	14008
866.531	13993
866.662	13898
866.793	13879
866.924	14046
867.055	13898
867.186	14001
867.317	13887
867.448	13909
867.579	13864
867.71	13932
867.841	13795
867.972	13974
868.103	14024
868.233	13909
868.364	13959
868.495	14035
868.625	14199
868.756	14271
868.886	14084
869.017	14191
869.147	14256
869.278	14320
869.408	14256
869.539	14218
869.669	14282
869.799	14237
869.929	14305
870.06	14237
870.19	14503
870.32	14541
870.45	14541
870.58	14549
870.71	14762
870.84	14743
870.97	14640
871.1	14629
871.23	14769
871.36	14883
871.489	14693
871.619	14754
871.749	14746
871.879	14864
872.008	14895
872.138	14773
872.267	14686
872.397	14731
872.526	14590
872.656	14568
872.785	14651
872.915	14765
873.044	14910
873.173	14750
873.303	14853
873.432	14849
873.561	14956
873.69	14804
873.819	14838
873.948	14895
874.077	14762
874.206	14880
874.335	14937
874.464	15020
874.593	15195
874.722	15070
874.851	15188
874.979	15119
875.108	15188
875.237	15074
875.365	15051
875.494	15146
875.623	15214
875.751	15173
875.88	15226
876.008	15298
876.136	15329
876.265	15603
876.393	15644
876.521	15606
876.65	15622
876.778	15572
876.906	15572
877.034	15595
877.162	15606
877.29	15469
877.418	15584
877.546	15568
877.674	15481
877.802	15538
877.93	15557
878.058	15488
878.185	15526
878.313	15572
878.441	15561
878.568	15382
878.696	15519
878.824	15648
878.951	15545
879.079	15873
879.206	15949
879.333	15648
879.461	15667
879.588	15762
879.715	15778
879.842	15762
879.97	15720
880.097	15412
880.224	15405
880.351	15523
880.478	15424
880.605	15431
880.732	15405
880.859	15633
880.986	15408
881.112	15477
881.239	15275
881.366	15260
881.493	15154
881.619	15116
881.746	15077
881.872	15127
881.999	15097
882.125	15070
882.252	15116
882.378	15093
882.505	15230
882.631	15070
882.757	14804
882.883	14986
883.01	14902
883.136	14853
883.262	14762
883.388	14773
883.514	14891
883.64	15047
883.766	14811
883.892	14735
884.018	14720
884.143	14876
884.269	14952
884.395	14651
884.52	14568
884.646	14667
884.772	14568
884.897	14503
885.023	14575
885.148	14697
885.274	14708
885.399	14674
885.524	14583
885.65	14571
885.775	14579
885.9	14560
886.025	14739
886.15	14610
886.275	14610
886.4	14465
886.525	14488
886.65	14461
886.775	14499
886.9	14739
887.025	14800
887.149	14579
887.274	14438
887.399	14351
887.523	14343
887.648	14336
887.773	14385
887.897	14476
888.021	14564
888.146	14309
888.27	14492
888.395	14678
888.519	14473
888.643	14480
888.767	14480
888.891	14427
889.015	14271
889.139	14278
889.263	14263
889.387	14473
889.511	14503
889.635	14381
889.759	14305
889.883	14290
890.006	14385
890.13	14385
890.254	14183
890.377	14267
890.501	14035
890.624	14176
890.748	14214
890.871	14077
890.995	13936
891.118	14008
891.241	14039
891.364	13963
891.488	14168
891.611	13944
891.734	13955
891.857	13963
891.98	14092
892.103	14142
892.226	14088
892.349	13932
892.471	13799
892.594	13978
892.717	14008
892.839	13986
892.962	14039
893.085	14096
893.207	14069
893.33	13875
893.452	13879
893.575	14012
893.697	13963
893.819	14195
893.941	14172
894.064	14187
894.186	13951
894.308	14001
894.43	14256
894.552	14183
894.674	14065
894.796	14001
894.918	13982
895.04	14073
895.161	14164
895.283	14100
895.405	13997
895.526	14172
895.648	14058
895.769	14161
895.891	14271
896.012	14199
896.134	14237
896.255	14237
896.376	14115
896.498	14134
896.619	14240
896.74	14225
896.861	14317
896.982	14530
897.103	14621
897.224	14583
897.345	14442
897.466	14396
897.587	14336
897.708	14632
897.828	14507
897.949	14370
898.07	14351
898.19	14423
898.311	14640
898.431	14530
898.552	14419
898.672	14598
898.792	14552
898.913	14560
899.033	14530
899.153	14275
899.273	14263
899.393	14377
899.513	14454
899.633	14393
899.753	14389
899.873	14324
899.993	14419
900.113	14366
900.232	14419
900.352	14290
900.472	14336
900.591	14180
900.711	14271
900.83	14252
900.95	14370
901.069	14415
901.189	14221
901.308	13951
901.427	13879
901.546	13883
901.665	13940
901.784	13986
901.904	13814
902.023	13708
902.141	13586
902.26	13521
902.379	13556
902.498	13464
902.617	13506
902.735	13647
902.854	13639
902.973	13350
903.091	13263
903.21	13133
903.328	13171
903.446	13175
903.565	13118
903.683	13152
903.801	13027
903.919	13046
904.038	12989
904.156	12848
904.274	13027
904.392	12890
904.51	12962
904.627	12863
904.745	12962
904.863	12924
904.981	12726
905.098	12589
905.216	12555
905.334	12677
905.451	12532
905.569	12502
905.686	12620
905.803	12509
905.921	12414
906.038	12479
906.155	12361
906.272	12292
906.389	12350
906.506	12213
906.623	12175
906.74	12175
906.857	12049
906.974	12083
907.091	12311
907.208	12304
907.324	12197
907.441	12148
907.557	11954
907.674	11874
907.79	11832
907.907	11931
908.023	11901
908.139	11942
908.256	11885
908.372	11882
908.488	11783
908.604	11688
908.72	11684
908.836	11604
908.952	11718
909.068	11646
909.184	11703
909.3	11729
909.415	11695
909.531	11668
909.647	11543
909.762	11436
909.878	11448
909.993	11516
910.108	11391
910.224	11376
910.339	11376
910.454	11383
910.57	11258
910.685	11235
910.8	11535
910.915	11474
911.03	11341
911.145	11162
911.259	11105
911.374	11155
911.489	11018
911.604	11033
911.718	10892
911.833	10919
911.947	10820
912.062	10759
912.176	10942
912.291	10934
912.405	10938
912.519	11079
912.633	11098
912.748	10896
912.862	10885
912.976	10904
913.09	10675
913.204	10752
913.318	10812
913.431	10881
913.545	10862
913.659	10919
913.772	10763
913.886	10721
914	10679
914.113	10755
914.226	10790
914.34	10805
914.453	10554
914.566	10710
914.68	10653
914.793	10565
914.906	10398
915.019	10402
915.132	10268
915.245	10344
915.358	10493
915.47	10417
915.583	10478
915.696	10504
915.809	10516
915.921	10519
916.034	10375
916.146	10367
916.259	10352
916.371	10421
916.483	10508
916.595	10333
916.708	10356
916.82	10360
916.932	10356
917.044	10322
917.156	10287
917.268	10234
917.38	10265
917.491	10268
917.603	10329
917.715	10265
917.826	10462
917.938	10280
918.049	10154
918.161	10173
918.272	10440
918.384	10432
918.495	10223
918.606	10078
918.717	10078
918.828	10169
918.939	10074
919.05	10071
919.161	10154
919.272	9857
919.383	9994
919.494	10135
919.604	10360
919.715	10128
919.826	10059
919.936	10086
920.047	10238
920.157	10188
920.267	10417
920.378	10105
920.488	10025
920.598	10348
920.708	10470
920.818	10344
920.928	10268
921.038	10455
921.148	10440
921.258	10097
921.368	10131
921.477	10013
921.587	10025
921.697	9937
921.806	9953
921.916	9861
922.025	9724
922.134	9690
922.244	9637
922.353	9720
922.462	9629
922.571	9504
922.68	9466
922.789	9420
922.898	9389
923.007	9408
923.116	9393
923.224	9420
923.333	9401
923.442	9291
923.55	9218
923.659	9287
923.767	9321
923.876	9226
923.984	9355
924.092	9218
924.201	9268
924.309	9260
924.417	9203
924.525	9253
924.633	9233
924.741	10147
924.849	9036
924.956	9180
925.064	9017
925.172	9028
925.279	8994
925.387	9165
925.494	9017
925.602	9176
925.709	9089
925.816	8960
925.924	9039
926.031	9203
926.138	9119
926.245	9165
926.352	9081
926.459	9146
926.566	9138
926.673	9081
926.779	8921
926.886	8948
926.993	8750
927.099	8766
927.206	8727
927.312	8739
927.419	8830
927.525	8781
927.631	8834
927.737	8697
927.843	8716
927.95	8575
928.056	8682
928.162	8682
928.267	8731
928.373	9195
928.479	8697
928.585	8602
928.69	8670
928.796	8746
928.901	8579
929.007	8438
929.112	8606
929.218	8606
929.323	8545
929.428	8480
929.533	8617
929.638	8450
929.743	8484
929.848	8575
929.953	8488
930.058	8415
930.163	8244
930.267	8248
930.372	8393
930.477	8221
930.581	8480
930.685	8385
930.79	8256
930.894	8229
930.998	8142
931.103	8328
931.207	8027
931.311	7944
931.415	7890
931.519	7761
931.623	7753
