Data from test_V78500241_1967.txt Node
Date: Fri Mar 25 14:47:24 CST 2022
User: usil
Spectrometer: V785-0024
Trigger mode: 0
Integration Time (sec): 4.000000E-1
Scans to average: 1
Nonlinearity correction enabled: false
Boxcar width: 0
Storing dark spectrum: false
XAxis mode: Wavelengths
Number of Pixels in Spectrum: 1024
>>>>>Begin Spectral Data<<<<<
801.071	22036
801.214	22063
801.356	21732
801.499	21599
801.641	21515
801.783	21477
801.926	21473
802.068	21401
802.211	21310
802.353	21268
802.496	20952
802.638	20891
802.78	20933
802.923	20906
803.065	20705
803.208	20800
803.35	20773
803.492	20853
803.635	20925
803.777	20792
803.919	20842
804.061	21085
804.204	20967
804.346	20754
804.488	20682
804.63	20861
804.773	20777
804.915	20792
805.057	20883
805.199	20769
805.341	20842
805.483	20910
805.626	20842
805.768	20663
805.91	20804
806.052	20697
806.194	20613
806.336	20933
806.478	20705
806.62	20689
806.762	20727
806.904	20895
807.046	21093
807.188	21104
807.33	21085
807.472	21043
807.614	20952
807.756	20963
807.898	20838
808.04	20571
808.182	20872
808.324	20849
808.465	20796
808.607	20979
808.749	21108
808.891	21195
809.033	21256
809.174	21116
809.316	21100
809.458	21146
809.6	21020
809.741	21123
809.883	21138
810.025	21313
810.166	21329
810.308	21150
810.45	21233
810.591	21093
810.733	20948
810.875	20979
811.016	20724
811.158	20762
811.299	20929
811.441	20986
811.582	20971
811.724	20807
811.865	20880
812.007	20899
812.148	20773
812.29	20830
812.431	21005
812.573	21195
812.714	21306
812.855	21363
812.997	21431
813.138	21572
813.279	21488
813.421	21329
813.562	21279
813.703	21043
813.845	20933
813.986	20765
814.127	20545
814.268	20480
814.41	20545
814.551	20434
814.692	20423
814.833	20419
814.974	20244
815.115	20396
815.256	20103
815.397	20385
815.539	20339
815.68	20115
815.821	20073
815.962	20119
816.103	20111
816.244	20008
816.385	19940
816.526	19807
816.666	19719
816.807	19563
816.948	19635
817.089	19670
817.23	19609
817.371	19601
817.512	19521
817.653	19430
817.793	19392
817.934	19556
818.075	19518
818.216	19544
818.356	19476
818.497	19373
818.638	19244
818.778	19202
818.919	19221
819.06	19331
819.2	19270
819.341	19403
819.481	19377
819.622	19529
819.762	19594
819.903	19681
820.043	19495
820.184	19510
820.324	19552
820.465	19647
820.605	19453
820.746	19457
820.886	19419
821.026	19430
821.167	19590
821.307	19506
821.447	19453
821.588	19312
821.728	19164
821.868	19072
822.008	18943
822.149	18958
822.289	18768
822.429	18551
822.569	18597
822.709	18623
822.849	18429
822.99	18361
823.13	18384
823.27	18376
823.41	18281
823.55	18110
823.69	18273
823.83	18152
823.97	18270
824.11	18011
824.25	18057
824.389	17996
824.529	18114
824.669	17992
824.809	18045
824.949	18057
825.089	17942
825.228	17996
825.368	17767
825.508	17851
825.648	17824
825.787	17904
825.927	17863
826.067	17642
826.206	17794
826.346	17684
826.485	17813
826.625	17767
826.765	17813
826.904	17870
827.044	17532
827.183	17452
827.323	17436
827.462	17524
827.601	17501
827.741	17459
827.88	17474
828.02	17376
828.159	17364
828.298	17379
828.437	17512
828.577	17383
828.716	17547
828.855	17425
828.994	17204
829.134	17265
829.273	17162
829.412	17200
829.551	17227
829.69	17261
829.829	17223
829.968	17349
830.107	17246
830.246	17246
830.385	17117
830.524	17162
830.663	17113
830.802	16961
830.941	16858
831.08	16828
831.219	16885
831.357	16896
831.496	17029
831.635	16858
831.774	16809
831.913	16668
832.051	16618
832.19	16748
832.329	16607
832.467	16523
832.606	16470
832.744	16489
832.883	16565
833.022	16618
833.16	16565
833.299	16713
833.437	16497
833.576	16550
833.714	16573
833.852	16611
833.991	16649
834.129	16698
834.267	16618
834.406	16550
834.544	16577
834.682	16558
834.821	16512
834.959	16805
835.097	16607
835.235	16691
835.373	16630
835.511	16561
835.65	16550
835.788	16428
835.926	16424
836.064	16333
836.202	16485
836.34	16527
836.478	16584
836.615	16398
836.753	16554
836.891	16687
837.029	16550
837.167	16428
837.305	16344
837.443	16367
837.58	16352
837.718	16561
837.856	16413
837.993	16333
838.131	16398
838.269	16344
838.406	16337
838.544	16287
838.681	16109
838.819	15922
838.956	15941
839.094	15819
839.231	15915
839.369	16162
839.506	16303
839.643	16207
839.781	15937
839.918	15869
840.055	15968
840.193	15991
840.33	15865
840.467	16006
840.604	15979
840.742	16166
840.879	15682
841.016	15831
841.153	15876
841.29	15949
841.427	16002
841.564	15983
841.701	15991
841.838	15827
841.975	15907
842.112	15846
842.249	15755
842.385	15755
842.522	15918
842.659	15682
842.796	15724
842.933	15766
843.069	15648
843.206	15812
843.343	15793
843.479	15622
843.616	15797
843.752	15557
843.889	15481
844.025	15690
844.162	15523
844.298	15610
844.435	15462
844.571	15523
844.708	15603
844.844	15751
844.98	15690
845.117	15720
845.253	15545
845.389	15428
845.525	15523
845.661	15351
845.798	15214
845.934	15393
846.07	15195
846.206	15412
846.342	15424
846.478	15325
846.614	15093
846.75	15100
846.886	15043
847.022	15043
847.158	15142
847.294	15154
847.429	15123
847.565	15062
847.701	15298
847.837	14918
847.972	14727
848.108	14845
848.244	14910
848.379	14731
848.515	14762
848.65	14731
848.786	14682
848.921	14670
849.057	14708
849.192	14758
849.328	14735
849.463	14720
849.598	14682
849.734	14602
849.869	14564
850.004	14461
850.14	14511
850.275	14404
850.41	14438
850.545	14408
850.68	14393
850.815	14457
850.95	14381
851.085	14640
851.22	14537
851.355	14549
851.49	14423
851.625	14434
851.76	14389
851.895	14336
852.03	14332
852.165	14446
852.299	14530
852.434	14492
852.569	14434
852.703	14537
852.838	14526
852.973	14632
853.107	14598
853.242	14450
853.376	14358
853.511	14240
853.645	14256
853.78	14457
853.914	14347
854.048	14248
854.183	14309
854.317	14366
854.451	14549
854.585	14393
854.72	14202
854.854	14427
854.988	14229
855.122	14324
855.256	14191
855.39	14343
855.524	14385
855.658	14339
855.792	14351
855.926	14431
856.06	14343
856.194	14488
856.327	14362
856.461	14332
856.595	14244
856.729	14252
856.862	14294
856.996	14366
857.13	14377
857.263	14446
857.397	14434
857.53	14317
857.664	14351
857.797	14446
857.931	14473
858.064	14248
858.197	14457
858.331	14301
858.464	14256
858.597	14298
858.731	14358
858.864	14317
858.997	14218
859.13	14324
859.263	14343
859.396	14374
859.529	14210
859.662	14317
859.795	14252
859.928	14377
860.061	14457
860.194	14457
860.327	14396
860.46	14358
860.592	14415
860.725	14469
860.858	14438
860.99	14343
861.123	14278
861.256	14244
861.388	14275
861.521	15017
861.653	14298
861.786	14107
861.918	14191
862.05	14225
862.183	14309
862.315	14328
862.447	14370
862.58	14221
862.712	14035
862.844	14062
862.976	14126
863.108	14119
863.24	14450
863.372	14043
863.504	14172
863.636	14168
863.768	14092
863.9	14161
864.032	14130
864.164	13955
864.296	14157
864.428	14172
864.559	14244
864.691	14145
864.823	14218
864.954	14164
865.086	14054
865.217	14142
865.349	14016
865.48	14092
865.612	14024
865.743	14290
865.875	14119
866.006	14142
866.137	14084
866.269	14069
866.4	14111
866.531	13997
866.662	13974
866.793	14145
866.924	14103
867.055	14103
867.186	14176
867.317	13970
867.448	13925
867.579	14050
867.71	13967
867.841	14058
867.972	14081
868.103	14138
868.233	14096
868.364	14088
868.495	14062
868.625	14324
868.756	14404
868.886	14271
869.017	14305
869.147	14503
869.278	14446
869.408	14381
869.539	14298
869.669	14396
869.799	14423
869.929	14499
870.06	14457
870.19	14689
870.32	14667
870.45	14617
870.58	14750
870.71	14792
870.84	14899
870.97	14678
871.1	14731
871.23	14956
871.36	14979
871.489	14929
871.619	14887
871.749	14986
871.879	14986
872.008	15074
872.138	14998
872.267	14891
872.397	14785
872.526	14731
872.656	14765
872.785	14769
872.915	14975
873.044	15074
873.173	14994
873.303	15062
873.432	15070
873.561	15032
873.69	14921
873.819	14994
873.948	15089
874.077	14982
874.206	14891
874.335	15081
874.464	15097
874.593	15268
874.722	15222
874.851	15291
874.979	15374
875.108	15408
875.237	15321
875.365	15211
875.494	15306
875.623	15378
875.751	15291
875.88	15279
876.008	15549
876.136	15504
876.265	15701
876.393	15846
876.521	15766
876.65	15804
876.778	15724
876.906	15717
877.034	15629
877.162	15709
877.29	15728
877.418	15755
877.546	15690
877.674	15694
877.802	15869
877.93	15675
878.058	15660
878.185	15606
878.313	15682
878.441	15808
878.568	15587
878.696	15603
878.824	15793
878.951	15804
879.079	15945
879.206	16006
879.333	15804
879.461	15778
879.588	15827
879.715	15861
879.842	16006
879.97	15842
880.097	15420
880.224	15458
880.351	15557
880.478	15606
880.605	15545
880.732	15572
880.859	15842
880.986	15656
881.112	15530
881.239	15496
881.366	15435
881.493	15294
881.619	15165
881.746	15241
881.872	15283
881.999	15222
882.125	15207
882.252	15294
882.378	15252
882.505	15370
882.631	15135
882.757	15024
882.883	15024
883.01	15081
883.136	14918
883.262	14872
883.388	14876
883.514	15047
883.64	15028
883.766	14952
883.892	14929
884.018	14880
884.143	15020
884.269	15047
884.395	14769
884.52	14727
884.646	14781
884.772	14724
884.897	14739
885.023	14705
885.148	14834
885.274	14906
885.399	14834
885.524	14830
885.65	14724
885.775	14788
885.9	14811
886.025	14811
886.15	14826
886.275	14648
886.4	14655
886.525	14674
886.65	14621
886.775	14670
886.9	14849
887.025	14914
887.149	14777
887.274	14629
887.399	14503
887.523	14564
887.648	14503
887.773	14385
887.897	14629
888.021	14594
888.146	14450
888.27	14636
888.395	14693
888.519	14731
888.643	14533
888.767	14579
888.891	14552
889.015	14450
889.139	14518
889.263	14412
889.387	14473
889.511	14663
889.635	14450
889.759	14438
889.883	14461
890.006	14434
890.13	14511
890.254	14404
890.377	14473
890.501	14317
890.624	14286
890.748	14233
890.871	14214
890.995	14096
891.118	14088
891.241	14092
891.364	14168
891.488	14221
891.611	14172
891.734	14168
891.857	14164
891.98	14119
892.103	14214
892.226	14134
892.349	14073
892.471	14024
892.594	14161
892.717	14138
892.839	14031
892.962	14115
893.085	14183
893.207	14111
893.33	14001
893.452	14126
893.575	14229
893.697	14111
893.819	14320
893.941	14278
894.064	14218
894.186	14039
894.308	14126
894.43	14305
894.552	14438
894.674	14237
894.796	14145
894.918	14145
895.04	14180
895.161	14271
895.283	14301
895.405	14138
895.526	14332
895.648	14172
895.769	14256
895.891	14294
896.012	14324
896.134	14324
896.255	14305
896.376	14164
896.498	14267
896.619	14294
896.74	14389
896.861	14560
896.982	14606
897.103	14670
897.224	14583
897.345	14594
897.466	14450
897.587	14526
897.708	14727
897.828	14663
897.949	14598
898.07	14503
898.19	14594
898.311	14686
898.431	14560
898.552	14606
898.672	14686
898.792	14746
898.913	14743
899.033	14537
899.153	14396
899.273	14442
899.393	14522
899.513	14552
899.633	14518
899.753	14503
899.873	14541
899.993	14606
900.113	14571
900.232	14518
900.352	14404
900.472	14507
900.591	14309
900.711	14419
900.83	14355
900.95	14377
901.069	14446
901.189	14320
901.308	14103
901.427	13932
901.546	14088
901.665	14145
901.784	14016
901.904	13989
902.023	13883
902.141	13632
902.26	13548
902.379	13753
902.498	13670
902.617	13506
902.735	13636
902.854	13590
902.973	13559
903.091	13331
903.21	13373
903.328	13396
903.446	13263
903.565	13202
903.683	13304
903.801	13099
903.919	13156
904.038	13232
904.156	12958
904.274	13114
904.392	12916
904.51	13000
904.627	12993
904.745	13072
904.863	13031
904.981	12700
905.098	12692
905.216	12738
905.334	12730
905.451	12631
905.569	12616
905.686	12722
905.803	12715
905.921	12544
906.038	12528
906.155	12559
906.272	12403
906.389	12464
906.506	12258
906.623	12369
906.74	12262
906.857	12273
906.974	12140
907.091	12353
907.208	12441
907.324	12388
907.441	12114
907.557	12011
907.674	12098
907.79	11954
907.907	12003
908.023	12045
908.139	12083
908.256	11988
908.372	11889
908.488	11935
908.604	11809
908.72	11752
908.836	11790
908.952	11775
909.068	11813
909.184	11878
909.3	11748
909.415	11798
909.531	11775
909.647	11619
909.762	11596
909.878	11425
909.993	11589
910.108	11509
910.224	11528
910.339	11535
910.454	11455
910.57	11436
910.685	11406
910.8	11608
910.915	11554
911.03	11440
911.145	11311
911.259	11235
911.374	11258
911.489	11212
911.604	11189
911.718	10980
911.833	11045
911.947	10938
912.062	10835
912.176	10995
912.291	11086
912.405	11033
912.519	11075
912.633	11258
912.748	11086
912.862	10934
912.976	10869
913.09	10786
913.204	10805
913.318	10809
913.431	11033
913.545	10995
913.659	11048
913.772	10854
913.886	10733
914	10790
914.113	10862
914.226	10858
914.34	10900
914.453	10656
914.566	10805
914.68	10687
914.793	10641
914.906	10542
915.019	10516
915.132	10405
915.245	10493
915.358	10493
915.47	10554
915.583	10516
915.696	10577
915.809	10588
915.921	10706
916.034	10470
916.146	10512
916.259	10523
916.371	10535
916.483	10542
916.595	10436
916.708	10436
916.82	10516
916.932	10405
917.044	10379
917.156	10382
917.268	10265
917.38	10424
917.491	10337
917.603	10360
917.715	10478
917.826	10462
917.938	10272
918.049	10253
918.161	10314
918.272	10405
918.384	10417
918.495	10466
918.606	10219
918.717	10219
918.828	10215
918.939	10204
919.05	10173
919.161	10207
919.272	10067
919.383	10059
919.494	10306
919.604	10443
919.715	10246
919.826	10207
919.936	10234
920.047	10234
920.157	10249
920.267	10500
920.378	10303
920.488	10211
920.598	10470
920.708	10497
920.818	10436
920.928	10493
921.038	10599
921.148	10630
921.258	10272
921.368	10284
921.477	10097
921.587	10025
921.697	9937
921.806	10048
921.916	10017
922.025	9915
922.134	9816
922.244	9766
922.353	9915
922.462	9671
922.571	9667
922.68	9454
922.789	9553
922.898	9496
923.007	9481
923.116	9564
923.224	9439
923.333	9507
923.442	9233
923.55	9393
923.659	9393
923.767	9367
923.876	9401
923.984	9389
924.092	9302
924.201	9386
924.309	9386
924.417	9348
924.525	9302
924.633	9294
924.741	10246
924.849	9127
924.956	9268
925.064	9157
925.172	9024
925.279	9047
925.387	9161
925.494	9176
925.602	9283
925.709	9203
925.816	9074
925.924	9146
926.031	9203
926.138	9192
926.245	9150
926.352	9051
926.459	9207
926.566	9237
926.673	9077
926.779	8975
926.886	9036
926.993	8815
927.099	8853
927.206	8819
927.312	8880
927.419	8891
927.525	8838
927.631	8956
927.737	8773
927.843	8720
927.95	8575
928.056	8735
928.162	8750
928.267	8796
928.373	9313
928.479	8880
928.585	8575
928.69	8724
928.796	8746
928.901	8674
929.007	8560
929.112	8682
929.218	8564
929.323	8583
929.428	8556
929.533	8686
929.638	8511
929.743	8579
929.848	8629
929.953	8571
930.058	8454
930.163	8324
930.267	8393
930.372	8495
930.477	8347
930.581	8514
930.685	8465
930.79	8328
930.894	8294
930.998	8271
931.103	8400
931.207	8054
931.311	8073
931.415	7921
931.519	7803
931.623	7803
