Data from test_V78500241_2823.txt Node
Date: Fri Mar 25 14:53:22 CST 2022
User: usil
Spectrometer: V785-0024
Trigger mode: 0
Integration Time (sec): 4.000000E-1
Scans to average: 1
Nonlinearity correction enabled: false
Boxcar width: 0
Storing dark spectrum: false
XAxis mode: Wavelengths
Number of Pixels in Spectrum: 1024
>>>>>Begin Spectral Data<<<<<
801.071	22078
801.214	21895
801.356	21583
801.499	21652
801.641	21447
801.783	21397
801.926	21355
802.068	21367
802.211	21325
802.353	21192
802.496	21001
802.638	20899
802.78	20887
802.923	20777
803.065	20625
803.208	20655
803.35	20777
803.492	20788
803.635	20823
803.777	20781
803.919	20811
804.061	21119
804.204	20762
804.346	20739
804.488	20670
804.63	20724
804.773	20590
804.915	20651
805.057	20754
805.199	20564
805.341	20686
805.483	20823
805.626	20670
805.768	20549
805.91	20648
806.052	20727
806.194	20484
806.336	20788
806.478	20594
806.62	20609
806.762	20750
806.904	20845
807.046	21043
807.188	21036
807.33	21001
807.472	21017
807.614	20845
807.756	20986
807.898	20735
808.04	20712
808.182	20708
808.324	20693
808.465	20739
808.607	20948
808.749	21017
808.891	21096
809.033	21184
809.174	21161
809.316	20956
809.458	21081
809.6	21047
809.741	21188
809.883	21066
810.025	21142
810.166	21233
810.308	21104
810.45	21169
810.591	21039
810.733	20807
810.875	20739
811.016	20682
811.158	20617
811.299	20853
811.441	20937
811.582	20998
811.724	20811
811.865	20727
812.007	20792
812.148	20731
812.29	20602
812.431	20921
812.573	21055
812.714	21157
812.855	21218
812.997	21443
813.138	21507
813.279	21431
813.421	21317
813.562	21085
813.703	21070
813.845	20876
813.986	20644
814.127	20518
814.268	20389
814.41	20366
814.551	20351
814.692	20484
814.833	20320
814.974	20191
815.115	20328
815.256	20130
815.397	20187
815.539	20176
815.68	20043
815.821	20077
815.962	20073
816.103	19997
816.244	19955
816.385	19852
816.526	19715
816.666	19499
816.807	19514
816.948	19506
817.089	19563
817.23	19502
817.371	19411
817.512	19430
817.653	19419
817.793	19388
817.934	19445
818.075	19464
818.216	19552
818.356	19419
818.497	19266
818.638	19190
818.778	19065
818.919	19110
819.06	19152
819.2	19266
819.341	19202
819.481	19476
819.622	19518
819.762	19658
819.903	19590
820.043	19559
820.184	19419
820.324	19464
820.465	19533
820.605	19381
820.746	19441
820.886	19225
821.026	19346
821.167	19327
821.307	19445
821.447	19350
821.588	19175
821.728	19145
821.868	18928
822.008	18783
822.149	18776
822.289	18852
822.429	18734
822.569	18448
822.709	18631
822.849	18365
822.99	18357
823.13	18239
823.27	18213
823.41	18209
823.55	18121
823.69	18079
823.83	18235
823.97	18064
824.11	17882
824.25	17927
824.389	17821
824.529	17988
824.669	17916
824.809	18057
824.949	18041
825.089	18007
825.228	17916
825.368	17843
825.508	17707
825.648	17714
825.787	17707
825.927	17733
826.067	17668
826.206	17615
826.346	17676
826.485	17695
826.625	17589
826.765	17691
826.904	17653
827.044	17471
827.183	17467
827.323	17379
827.462	17402
827.601	17364
827.741	17429
827.88	17383
828.02	17303
828.159	17334
828.298	17417
828.437	17406
828.577	17345
828.716	17562
828.855	17383
828.994	17216
829.134	17147
829.273	17124
829.412	17117
829.551	17067
829.69	17151
829.829	17083
829.968	17204
830.107	17200
830.246	17261
830.385	17033
830.524	17136
830.663	16999
830.802	16869
830.941	16778
831.08	16744
831.219	16820
831.357	16736
831.496	16938
831.635	16687
831.774	16637
831.913	16668
832.051	16542
832.19	16596
832.329	16653
832.467	16546
832.606	16382
832.744	16481
832.883	16508
833.022	16493
833.16	16481
833.299	16500
833.437	16348
833.576	16440
833.714	16386
833.852	16519
833.991	16519
834.129	16611
834.267	16512
834.406	16478
834.544	16565
834.682	16481
834.821	16348
834.959	16622
835.097	16478
835.235	16611
835.373	16413
835.511	16500
835.65	16493
835.788	16424
835.926	16223
836.064	16234
836.202	16207
836.34	16409
836.478	16428
836.615	16367
836.753	16455
836.891	16478
837.029	16447
837.167	16329
837.305	16325
837.443	16310
837.58	16284
837.718	16386
837.856	16325
837.993	16223
838.131	16246
838.269	16185
838.406	16147
838.544	16196
838.681	16021
838.819	16013
838.956	15739
839.094	15869
839.231	15800
839.369	15960
839.506	16215
839.643	16124
839.781	15842
839.918	15861
840.055	15865
840.193	15808
840.33	15762
840.467	15846
840.604	15888
840.742	16082
840.879	15751
841.016	15709
841.153	15755
841.29	15964
841.427	15861
841.564	15823
841.701	15915
841.838	15793
841.975	15709
842.112	15686
842.249	15591
842.385	15595
842.522	15880
842.659	15698
842.796	15511
842.933	15625
843.069	15538
843.206	15553
843.343	15713
843.479	15618
843.616	15637
843.752	15374
843.889	15496
844.025	15515
844.162	15416
844.298	15526
844.435	15233
844.571	15302
844.708	15439
844.844	15614
844.98	15435
845.117	15492
845.253	15321
845.389	15264
845.525	15340
845.661	15302
845.798	15211
845.934	15291
846.07	15199
846.206	15230
846.342	15310
846.478	15157
846.614	15100
846.75	14979
846.886	14933
847.022	15047
847.158	15036
847.294	14918
847.429	15001
847.565	14963
847.701	15256
847.837	14686
847.972	14667
848.108	14754
848.244	14720
848.379	14705
848.515	14522
848.65	14488
848.786	14526
848.921	14533
849.057	14617
849.192	14720
849.328	14640
849.463	14568
849.598	14594
849.734	14438
849.869	14336
850.004	14355
850.14	14381
850.275	14370
850.41	14332
850.545	14313
850.68	14248
850.815	14286
850.95	14320
851.085	14587
851.22	14434
851.355	14427
851.49	14336
851.625	14206
851.76	14221
851.895	14233
852.03	14339
852.165	14305
852.299	14385
852.434	14381
852.569	14275
852.703	14309
852.838	14484
852.973	14499
853.107	14495
853.242	14282
853.376	14195
853.511	14119
853.645	14134
853.78	14324
853.914	14229
854.048	14199
854.183	14214
854.317	14278
854.451	14301
854.585	14123
854.72	14191
854.854	14202
854.988	14145
855.122	14145
855.256	14081
855.39	14218
855.524	14358
855.658	14191
855.792	14275
855.926	14286
856.06	14225
856.194	14317
856.327	14103
856.461	14286
856.595	14180
856.729	14221
856.862	14259
856.996	14191
857.13	14263
857.263	14294
857.397	14259
857.53	14240
857.664	14294
857.797	14210
857.931	14294
858.064	14237
858.197	14358
858.331	14183
858.464	14187
858.597	14149
858.731	14183
858.864	14149
858.997	14221
859.13	14298
859.263	14286
859.396	14286
859.529	14119
859.662	14153
859.795	14225
859.928	14130
860.061	14389
860.194	14355
860.327	14275
860.46	14218
860.592	14389
860.725	14313
860.858	14301
860.99	14202
861.123	14183
861.256	14172
861.388	14267
861.521	14929
861.653	14088
861.786	13955
861.918	14081
862.05	14103
862.183	14088
862.315	14176
862.447	14271
862.58	14130
862.712	13947
862.844	13940
862.976	14164
863.108	14103
863.24	14294
863.372	13894
863.504	13936
863.636	13997
863.768	14107
863.9	13940
864.032	14069
864.164	13921
864.296	14024
864.428	14111
864.559	14073
864.691	14172
864.823	14199
864.954	14050
865.086	14012
865.217	14005
865.349	13951
865.48	13932
865.612	14008
865.743	14119
865.875	13951
866.006	13818
866.137	13921
866.269	13986
866.4	13978
866.531	13856
866.662	13879
866.793	13951
866.924	13894
867.055	14001
867.186	13936
867.317	13909
867.448	13871
867.579	13959
867.71	13989
867.841	13940
867.972	13932
868.103	13963
868.233	13894
868.364	13864
868.495	14100
868.625	14168
868.756	14412
868.886	14103
869.017	14164
869.147	14343
869.278	14438
869.408	14221
869.539	14172
869.669	14267
869.799	14336
869.929	14332
870.06	14343
870.19	14533
870.32	14480
870.45	14556
870.58	14621
870.71	14788
870.84	14769
870.97	14602
871.1	14530
871.23	14819
871.36	14640
871.489	14720
871.619	14861
871.749	14826
871.879	14861
872.008	14880
872.138	14861
872.267	14788
872.397	14632
872.526	14598
872.656	14689
872.785	14697
872.915	14941
873.044	14910
873.173	14902
873.303	14994
873.432	14876
873.561	14895
873.69	14842
873.819	14895
873.948	14963
874.077	14800
874.206	14891
874.335	14811
874.464	14956
874.593	15138
874.722	15062
874.851	15207
874.979	15146
875.108	15294
875.237	15127
875.365	15108
875.494	15142
875.623	15313
875.751	15154
875.88	15233
876.008	15287
876.136	15492
876.265	15614
876.393	15759
876.521	15686
876.65	15610
876.778	15743
876.906	15488
877.034	15553
877.162	15587
877.29	15542
877.418	15587
877.546	15587
877.674	15625
877.802	15561
877.93	15584
878.058	15679
878.185	15542
878.313	15542
878.441	15587
878.568	15428
878.696	15603
878.824	15698
878.951	15660
879.079	15793
879.206	15934
879.333	15698
879.461	15755
879.588	15572
879.715	15831
879.842	15797
879.97	15728
880.097	15462
880.224	15340
880.351	15469
880.478	15469
880.605	15397
880.732	15466
880.859	15675
880.986	15496
881.112	15443
881.239	15241
881.366	15207
881.493	15207
881.619	15104
881.746	15165
881.872	15127
881.999	15043
882.125	15062
882.252	15097
882.378	15085
882.505	15211
882.631	15097
882.757	14857
882.883	14960
883.01	14952
883.136	14845
883.262	14697
883.388	14739
883.514	14887
883.64	14982
883.766	14773
883.892	14670
884.018	14838
884.143	14891
884.269	14933
884.395	14705
884.52	14625
884.646	14727
884.772	14606
884.897	14454
885.023	14697
885.148	14819
885.274	14788
885.399	14712
885.524	14621
885.65	14526
885.775	14667
885.9	14511
886.025	14769
886.15	14743
886.275	14663
886.4	14454
886.525	14613
886.65	14537
886.775	14659
886.9	14689
887.025	14845
887.149	14655
887.274	14465
887.399	14385
887.523	14389
887.648	14400
887.773	14347
887.897	14552
888.021	14473
888.146	14488
888.27	14571
888.395	14549
888.519	14492
888.643	14492
888.767	14450
888.891	14374
889.015	14351
889.139	14362
889.263	14320
889.387	14465
889.511	14571
889.635	14454
889.759	14393
889.883	14374
890.006	14389
890.13	14404
890.254	14278
890.377	14324
890.501	14183
890.624	14065
890.748	14252
890.871	14073
890.995	13989
891.118	13921
891.241	14039
891.364	14043
891.488	14119
891.611	13978
891.734	14123
891.857	14069
891.98	14111
892.103	14164
892.226	13955
892.349	14103
892.471	13887
892.594	13955
892.717	14012
892.839	13917
892.962	13989
893.085	14100
893.207	14050
893.33	13909
893.452	13986
893.575	14081
893.697	13963
893.819	14275
893.941	14237
894.064	14229
894.186	14054
894.308	13986
894.43	14172
894.552	14298
894.674	14126
894.796	14024
894.918	14062
895.04	14069
895.161	14229
895.283	14115
895.405	14024
895.526	14111
895.648	14168
895.769	14233
895.891	14237
896.012	14237
896.134	14103
896.255	14130
896.376	14161
896.498	14195
896.619	14244
896.74	14191
896.861	14282
896.982	14606
897.103	14712
897.224	14522
897.345	14393
897.466	14301
897.587	14450
897.708	14617
897.828	14526
897.949	14438
898.07	14423
898.19	14450
898.311	14617
898.431	14514
898.552	14587
898.672	14663
898.792	14583
898.913	14610
899.033	14484
899.153	14457
899.273	14377
899.393	14427
899.513	14442
899.633	14415
899.753	14423
899.873	14370
899.993	14419
900.113	14332
900.232	14473
900.352	14358
900.472	14320
900.591	14317
900.711	14309
900.83	14286
900.95	14434
901.069	14438
901.189	14259
901.308	14001
901.427	13944
901.546	13875
901.665	14001
901.784	14012
901.904	13822
902.023	13765
902.141	13548
902.26	13586
902.379	13643
902.498	13537
902.617	13483
902.735	13563
902.854	13506
902.973	13377
903.091	13244
903.21	13278
903.328	13346
903.446	13122
903.565	13122
903.683	13156
903.801	12985
903.919	13061
904.038	13118
904.156	12935
904.274	12928
904.392	12825
904.51	12939
904.627	12867
904.745	12951
904.863	12954
904.981	12791
905.098	12604
905.216	12612
905.334	12677
905.451	12677
905.569	12547
905.686	12616
905.803	12631
905.921	12365
906.038	12456
906.155	12483
906.272	12292
906.389	12350
906.506	12197
906.623	12258
906.74	12140
906.857	12106
906.974	12087
907.091	12235
907.208	12357
907.324	12209
907.441	12121
907.557	11992
907.674	11893
907.79	11878
907.907	11889
908.023	11901
908.139	11954
908.256	11893
908.372	11893
908.488	11794
908.604	11904
908.72	11562
908.836	11790
908.952	11615
909.068	11737
909.184	11783
909.3	11630
909.415	11703
909.531	11718
909.647	11516
909.762	11497
909.878	11463
909.993	11425
910.108	11326
910.224	11433
910.339	11459
910.454	11345
910.57	11299
910.685	11204
910.8	11524
910.915	11478
911.03	11303
911.145	11204
911.259	11086
911.374	11166
911.489	11052
911.604	11052
911.718	10995
911.833	10987
911.947	10858
912.062	10831
912.176	11006
912.291	10911
912.405	10877
912.519	11083
912.633	11132
912.748	10987
912.862	10892
912.976	10873
913.09	10641
913.204	10790
913.318	10801
913.431	10927
913.545	10873
913.659	10850
913.772	10835
913.886	10668
914	10599
914.113	10778
914.226	10854
914.34	10767
914.453	10675
914.566	10744
914.68	10626
914.793	10683
914.906	10504
915.019	10375
915.132	10325
915.245	10451
915.358	10459
915.47	10512
915.583	10421
915.696	10527
915.809	10611
915.921	10493
916.034	10447
916.146	10398
916.259	10318
916.371	10485
916.483	10451
916.595	10291
916.708	10306
916.82	10344
916.932	10428
917.044	10306
917.156	10276
917.268	10291
917.38	10268
917.491	10284
917.603	10287
917.715	10306
917.826	10379
917.938	10287
918.049	10169
918.161	10333
918.272	10451
918.384	10432
918.495	10310
918.606	10131
918.717	10074
918.828	10272
918.939	10158
919.05	10051
919.161	10135
919.272	9964
919.383	10010
919.494	10249
919.604	10348
919.715	10230
919.826	10093
919.936	10032
920.047	10227
920.157	10200
920.267	10432
920.378	10249
920.488	10124
920.598	10360
920.708	10527
920.818	10356
920.928	10455
921.038	10550
921.148	10413
921.258	10192
921.368	10097
921.477	10090
921.587	10025
921.697	9983
921.806	9964
921.916	9941
922.025	9774
922.134	9728
922.244	9759
922.353	9724
922.462	9698
922.571	9637
922.68	9420
922.789	9412
922.898	9405
923.007	9302
923.116	9458
923.224	9450
923.333	9431
923.442	9256
923.55	9256
923.659	9336
923.767	9382
923.876	9329
923.984	9435
924.092	9180
924.201	9268
924.309	9272
924.417	9310
924.525	9268
924.633	9264
924.741	10048
924.849	9070
924.956	9207
925.064	9058
925.172	9009
925.279	9074
925.387	9058
925.494	9097
925.602	9237
925.709	9150
925.816	9009
925.924	9074
926.031	9154
926.138	9093
926.245	9127
926.352	8929
926.459	9176
926.566	9112
926.673	9047
926.779	9032
926.886	8891
926.993	8815
927.099	8842
927.206	8769
927.312	8758
927.419	8899
927.525	8800
927.631	8826
927.737	8743
927.843	8663
927.95	8587
928.056	8682
928.162	8766
928.267	8754
928.373	9256
928.479	8769
928.585	8571
928.69	8754
928.796	8746
928.901	8697
929.007	8450
929.112	8590
929.218	8617
929.323	8590
929.428	8549
929.533	8712
929.638	8450
929.743	8522
929.848	8587
929.953	8549
930.058	8393
930.163	8244
930.267	8313
930.372	8457
930.477	8237
930.581	8530
930.685	8362
930.79	8202
930.894	8225
930.998	8195
931.103	8362
931.207	8031
931.311	7951
931.415	7989
931.519	7746
931.623	7696
