Data from test_V78500241_3534.txt Node
Date: Fri Mar 25 14:58:19 CST 2022
User: usil
Spectrometer: V785-0024
Trigger mode: 0
Integration Time (sec): 4.000000E-1
Scans to average: 1
Nonlinearity correction enabled: false
Boxcar width: 0
Storing dark spectrum: false
XAxis mode: Wavelengths
Number of Pixels in Spectrum: 1024
>>>>>Begin Spectral Data<<<<<
801.071	21918
801.214	21633
801.356	21420
801.499	21370
801.641	21230
801.783	21226
801.926	21211
802.068	21268
802.211	21161
802.353	21131
802.496	20872
802.638	20773
802.78	20705
802.923	20682
803.065	20488
803.208	20530
803.35	20587
803.492	20655
803.635	20640
803.777	20602
803.919	20636
804.061	20914
804.204	20792
804.346	20556
804.488	20476
804.63	20537
804.773	20587
804.915	20457
805.057	20640
805.199	20492
805.341	20370
805.483	20549
805.626	20629
805.768	20454
805.91	20412
806.052	20518
806.194	20298
806.336	20564
806.478	20530
806.62	20434
806.762	20446
806.904	20708
807.046	20796
807.188	20758
807.33	20731
807.472	20914
807.614	20712
807.756	20667
807.898	20564
808.04	20560
808.182	20522
808.324	20492
808.465	20674
808.607	20804
808.749	20777
808.891	20861
809.033	20952
809.174	20842
809.316	20868
809.458	20838
809.6	20697
809.741	20815
809.883	20952
810.025	20910
810.166	20967
810.308	20895
810.45	20906
810.591	20811
810.733	20743
810.875	20613
811.016	20419
811.158	20427
811.299	20674
811.441	20697
811.582	20712
811.724	20602
811.865	20484
812.007	20499
812.148	20473
812.29	20686
812.431	20739
812.573	20781
812.714	20994
812.855	21146
812.997	21165
813.138	21283
813.279	21150
813.421	21058
813.562	21051
813.703	20880
813.845	20720
813.986	20473
814.127	20267
814.268	20210
814.41	20206
814.551	20202
814.692	20191
814.833	20214
814.974	20142
815.115	20119
815.256	20005
815.397	19906
815.539	19993
815.68	19788
815.821	19826
815.962	19989
816.103	19769
816.244	19685
816.385	19624
816.526	19601
816.666	19518
816.807	19236
816.948	19430
817.089	19377
817.23	19221
817.371	19206
817.512	19175
817.653	19301
817.793	19202
817.934	19244
818.075	19228
818.216	19175
818.356	19251
818.497	19072
818.638	18894
818.778	18897
818.919	18970
819.06	18958
819.2	19126
819.341	19038
819.481	19088
819.622	19327
819.762	19438
819.903	19339
820.043	19278
820.184	19251
820.324	19179
820.465	19388
820.605	19278
820.746	19187
820.886	19061
821.026	19263
821.167	19164
821.307	19278
821.447	19206
821.588	19042
821.728	18951
821.868	18863
822.008	18658
822.149	18642
822.289	18597
822.429	18460
822.569	18323
822.709	18300
822.849	18197
822.99	18129
823.13	18251
823.27	18102
823.41	18022
823.55	17927
823.69	17988
823.83	17999
823.97	17923
824.11	17722
824.25	17718
824.389	17627
824.529	17809
824.669	17783
824.809	17729
824.949	17748
825.089	17805
825.228	17813
825.368	17505
825.508	17501
825.648	17482
825.787	17608
825.927	17493
826.067	17444
826.206	17570
826.346	17573
826.485	17520
826.625	17535
826.765	17668
826.904	17535
827.044	17315
827.183	17200
827.323	17098
827.462	17147
827.601	17239
827.741	17128
827.88	17189
828.02	17098
828.159	17151
828.298	17227
828.437	17284
828.577	17151
828.716	17345
828.855	17071
828.994	16999
829.134	17003
829.273	16987
829.412	16957
829.551	16942
829.69	16831
829.829	17071
829.968	17029
830.107	16980
830.246	17079
830.385	16908
830.524	16877
830.663	16793
830.802	16599
830.941	16519
831.08	16569
831.219	16687
831.357	16641
831.496	16850
831.635	16626
831.774	16462
831.913	16436
832.051	16386
832.19	16367
832.329	16413
832.467	16226
832.606	16177
832.744	16230
832.883	16230
833.022	16265
833.16	16181
833.299	16344
833.437	16284
833.576	16348
833.714	16493
833.852	16344
833.991	16284
834.129	16390
834.267	16542
834.406	16303
834.544	16360
834.682	16280
834.821	16379
834.959	16474
835.097	16352
835.235	16390
835.373	16470
835.511	16470
835.65	16272
835.788	16242
835.926	16150
836.064	16044
836.202	16013
836.34	16291
836.478	16325
836.615	16219
836.753	16344
836.891	16299
837.029	16329
837.167	16226
837.305	16143
837.443	16051
837.58	16173
837.718	16196
837.856	16131
837.993	16021
838.131	16147
838.269	16071
838.406	16067
838.544	15998
838.681	15907
838.819	15816
838.956	15698
839.094	15736
839.231	15686
839.369	15827
839.506	15998
839.643	15964
839.781	15720
839.918	15504
840.055	15724
840.193	15698
840.33	15610
840.467	15690
840.604	15656
840.742	15880
840.879	15629
841.016	15572
841.153	15538
841.29	15705
841.427	15652
841.564	15709
841.701	15698
841.838	15705
841.975	15618
842.112	15618
842.249	15492
842.385	15428
842.522	15633
842.659	15530
842.796	15553
842.933	15496
843.069	15477
843.206	15386
843.343	15500
843.479	15416
843.616	15534
843.752	15279
843.889	15272
844.025	15469
844.162	15306
844.298	15386
844.435	15283
844.571	15325
844.708	15382
844.844	15443
844.98	15496
845.117	15420
845.253	15306
845.389	15264
845.525	15176
845.661	15203
845.798	15032
845.934	15077
846.07	15104
846.206	15176
846.342	15237
846.478	15070
846.614	14967
846.75	14838
846.886	14899
847.022	14952
847.158	14921
847.294	14868
847.429	14967
847.565	14918
847.701	15169
847.837	14670
847.972	14594
848.108	14750
848.244	14765
848.379	14575
848.515	14442
848.65	14450
848.786	14461
848.921	14545
849.057	14621
849.192	14632
849.328	14511
849.463	14571
849.598	14442
849.734	14434
849.869	14427
850.004	14206
850.14	14404
850.275	14366
850.41	14221
850.545	14180
850.68	14206
850.815	14400
850.95	14282
851.085	14434
851.22	14339
851.355	14244
851.49	14206
851.625	14244
851.76	14218
851.895	14123
852.03	14134
852.165	14199
852.299	14263
852.434	14324
852.569	14309
852.703	14298
852.838	14358
852.973	14358
853.107	14343
853.242	14149
853.376	14084
853.511	14073
853.645	14100
853.78	14206
853.914	14157
854.048	14103
854.183	14176
854.317	14176
854.451	14305
854.585	14180
854.72	14031
854.854	14172
854.988	14130
855.122	14073
855.256	14027
855.39	14043
855.524	14126
855.658	14176
855.792	14107
855.926	14183
856.06	14161
856.194	14233
856.327	14126
856.461	14043
856.595	14103
856.729	14161
856.862	14221
856.996	14172
857.13	14229
857.263	14199
857.397	14252
857.53	14195
857.664	14157
857.797	14149
857.931	14309
858.064	14088
858.197	14237
858.331	14050
858.464	14107
858.597	14077
858.731	14130
858.864	14202
858.997	14107
859.13	14191
859.263	14130
859.396	14233
859.529	14145
859.662	14103
859.795	14107
859.928	14183
860.061	14286
860.194	14381
860.327	14149
860.46	14092
860.592	14286
860.725	14199
860.858	14164
860.99	14157
861.123	14088
861.256	13989
861.388	14130
861.521	14933
861.653	14100
861.786	13947
861.918	13993
862.05	13925
862.183	14111
862.315	14100
862.447	14221
862.58	14069
862.712	13944
862.844	13856
862.976	13959
863.108	14062
863.24	14275
863.372	13818
863.504	13978
863.636	13951
863.768	13940
863.9	13932
864.032	13879
864.164	13883
864.296	13868
864.428	14088
864.559	13936
864.691	13974
864.823	14100
864.954	14031
865.086	13932
865.217	13894
865.349	13761
865.48	13951
865.612	13932
865.743	14065
865.875	13989
866.006	13928
866.137	13906
866.269	13860
866.4	13997
866.531	13750
866.662	13849
866.793	13879
866.924	13849
867.055	13944
867.186	13909
867.317	13826
867.448	13917
867.579	13845
867.71	13807
867.841	13875
867.972	13963
868.103	13917
868.233	13868
868.364	13925
868.495	14035
868.625	14161
868.756	14214
868.886	13989
869.017	14142
869.147	14309
869.278	14267
869.408	14176
869.539	14195
869.669	14187
869.799	14278
869.929	14176
870.06	14244
870.19	14545
870.32	14427
870.45	14526
870.58	14663
870.71	14583
870.84	14693
870.97	14522
871.1	14575
871.23	14785
871.36	14712
871.489	14617
871.619	14773
871.749	14811
871.879	14864
872.008	14807
872.138	14838
872.267	14743
872.397	14575
872.526	14594
872.656	14598
872.785	14587
872.915	14769
873.044	14864
873.173	14792
873.303	14887
873.432	14838
873.561	14819
873.69	14819
873.819	14861
873.948	14861
874.077	14807
874.206	14785
874.335	14785
874.464	14990
874.593	15100
874.722	15077
874.851	15180
874.979	15226
875.108	15199
875.237	15074
875.365	14998
875.494	15032
875.623	15165
875.751	15108
875.88	15127
876.008	15154
876.136	15382
876.265	15542
876.393	15770
876.521	15629
876.65	15637
876.778	15618
876.906	15564
877.034	15538
877.162	15447
877.29	15447
877.418	15553
877.546	15534
877.674	15557
877.802	15584
877.93	15568
878.058	15504
878.185	15523
878.313	15504
878.441	15500
878.568	15363
878.696	15515
878.824	15523
878.951	15656
879.079	15679
879.206	15854
879.333	15728
879.461	15580
879.588	15553
879.715	15698
879.842	15736
879.97	15648
880.097	15382
880.224	15397
880.351	15378
880.478	15454
880.605	15393
880.732	15428
880.859	15629
880.986	15355
881.112	15485
881.239	15386
881.366	15241
881.493	15077
881.619	15039
881.746	15024
881.872	15104
881.999	14952
882.125	15135
882.252	15032
882.378	15058
882.505	15241
882.631	14937
882.757	14861
882.883	14895
883.01	14883
883.136	14861
883.262	14765
883.388	14762
883.514	14952
883.64	14948
883.766	14864
883.892	14720
884.018	14823
884.143	14731
884.269	14956
884.395	14632
884.52	14644
884.646	14621
884.772	14507
884.897	14511
885.023	14514
885.148	14739
885.274	14629
885.399	14659
885.524	14568
885.65	14617
885.775	14583
885.9	14606
886.025	14655
886.15	14754
886.275	14560
886.4	14503
886.525	14571
886.65	14514
886.775	14541
886.9	14727
887.025	14800
887.149	14545
887.274	14408
887.399	14393
887.523	14374
887.648	14332
887.773	14385
887.897	14473
888.021	14366
888.146	14355
888.27	14461
888.395	14598
888.519	14450
888.643	14518
888.767	14488
888.891	14336
889.015	14324
889.139	14370
889.263	14313
889.387	14347
889.511	14465
889.635	14358
889.759	14202
889.883	14309
890.006	14362
890.13	14450
890.254	14130
890.377	14248
890.501	14100
890.624	14119
890.748	14123
890.871	14043
890.995	13883
891.118	13826
891.241	13940
891.364	13932
891.488	14012
891.611	14077
891.734	13959
891.857	13978
891.98	14039
892.103	13974
892.226	13955
892.349	13940
892.471	13799
892.594	13959
892.717	13997
892.839	13955
892.962	13959
893.085	14012
893.207	14020
893.33	13913
893.452	13826
893.575	14058
893.697	13917
893.819	14168
893.941	14218
894.064	14115
894.186	13974
894.308	13902
894.43	14149
894.552	14221
894.674	14008
894.796	13913
894.918	13928
895.04	13909
895.161	14031
895.283	14062
895.405	14012
895.526	14054
895.648	14119
895.769	14027
895.891	14218
896.012	14214
896.134	14218
896.255	14100
896.376	14077
896.498	14202
896.619	14138
896.74	14164
896.861	14161
896.982	14526
897.103	14564
897.224	14408
897.345	14408
897.466	14358
897.587	14400
897.708	14560
897.828	14457
897.949	14434
898.07	14248
898.19	14396
898.311	14629
898.431	14461
898.552	14541
898.672	14541
898.792	14590
898.913	14564
899.033	14450
899.153	14427
899.273	14355
899.393	14396
899.513	14404
899.633	14347
899.753	14404
899.873	14385
899.993	14328
900.113	14240
900.232	14355
900.352	14408
900.472	14240
900.591	14164
900.711	14199
900.83	14161
900.95	14191
901.069	14252
901.189	14130
901.308	13982
901.427	13837
901.546	13776
901.665	13944
901.784	13932
901.904	13769
902.023	13712
902.141	13609
902.26	13529
902.379	13525
902.498	13445
902.617	13487
902.735	13533
902.854	13499
902.973	13381
903.091	13183
903.21	13202
903.328	13206
903.446	13091
903.565	13019
903.683	13038
903.801	12920
903.919	13107
904.038	13023
904.156	12905
904.274	12878
904.392	12932
904.51	12798
904.627	12882
904.745	12939
904.863	12973
904.981	12688
905.098	12536
905.216	12517
905.334	12540
905.451	12517
905.569	12452
905.686	12513
905.803	12513
905.921	12369
906.038	12456
906.155	12422
906.272	12277
906.389	12319
906.506	12232
906.623	12182
906.74	12098
906.857	12026
906.974	12087
907.091	12213
907.208	12262
907.324	12209
907.441	12095
907.557	11874
907.674	11832
907.79	11840
907.907	11840
908.023	11935
908.139	11954
908.256	11840
908.372	11863
908.488	11775
908.604	11668
908.72	11566
908.836	11688
908.952	11638
909.068	11680
909.184	11783
909.3	11668
909.415	11661
909.531	11672
909.647	11497
909.762	11330
909.878	11322
909.993	11444
910.108	11356
910.224	11376
910.339	11395
910.454	11280
910.57	11235
910.685	11189
910.8	11471
910.915	11383
911.03	11288
911.145	11090
911.259	11048
911.374	11132
911.489	10999
911.604	10984
911.718	10930
911.833	10904
911.947	10790
912.062	10691
912.176	10824
912.291	10850
912.405	10873
912.519	11105
912.633	11086
912.748	11052
912.862	10885
912.976	10790
913.09	10691
913.204	10786
913.318	10755
913.431	10854
913.545	10790
913.659	10911
913.772	10782
913.886	10668
914	10634
914.113	10771
914.226	10717
914.34	10717
914.453	10584
914.566	10763
914.68	10634
914.793	10706
914.906	10443
915.019	10344
915.132	10356
915.245	10417
915.358	10436
915.47	10447
915.583	10455
915.696	10466
915.809	10516
915.921	10588
916.034	10379
916.146	10375
916.259	10413
916.371	10531
916.483	10466
916.595	10253
916.708	10363
916.82	10325
916.932	10421
917.044	10318
917.156	10371
917.268	10188
917.38	10329
917.491	10253
917.603	10333
917.715	10333
917.826	10409
917.938	10291
918.049	10158
918.161	10196
918.272	10398
918.384	10497
918.495	10356
918.606	10097
918.717	10002
918.828	10154
918.939	10059
919.05	10048
919.161	10086
919.272	9949
919.383	10010
919.494	10207
919.604	10371
919.715	10143
919.826	10036
919.936	10158
920.047	10219
920.157	10192
920.267	10371
920.378	10253
920.488	10162
920.598	10325
920.708	10577
920.818	10390
920.928	10375
921.038	10489
921.148	10519
921.258	10291
921.368	10086
921.477	10105
921.587	10025
921.697	9979
921.806	10010
921.916	10021
922.025	9800
922.134	9705
922.244	9656
922.353	9720
922.462	9648
922.571	9580
922.68	9488
922.789	9435
922.898	9416
923.007	9275
923.116	9507
923.224	9466
923.333	9420
923.442	9325
923.55	9291
923.659	9306
923.767	9310
923.876	9321
923.984	9329
924.092	9275
924.201	9298
924.309	9355
924.417	9245
924.525	9237
924.633	9294
924.741	10002
924.849	8963
924.956	9222
925.064	9097
925.172	8929
925.279	9005
925.387	9123
925.494	9112
925.602	9218
925.709	9207
925.816	9005
925.924	9077
926.031	9260
926.138	9116
926.245	9135
926.352	8971
926.459	9138
926.566	9199
926.673	9009
926.779	8921
926.886	8872
926.993	8800
927.099	8746
927.206	8758
927.312	8785
927.419	8887
927.525	8777
927.631	8792
927.737	8773
927.843	8678
927.95	8594
928.056	8621
928.162	8716
928.267	8712
928.373	9378
928.479	8792
928.585	8568
928.69	8693
928.796	8739
928.901	8613
929.007	8499
929.112	8621
929.218	8606
929.323	8552
929.428	8522
929.533	8594
929.638	8473
929.743	8438
929.848	8587
929.953	8514
930.058	8396
930.163	8282
930.267	8294
930.372	8454
930.477	8157
930.581	8476
930.685	8343
930.79	8214
930.894	8153
930.998	8309
931.103	8370
931.207	8020
931.311	7902
931.415	7849
931.519	7723
931.623	7780
