Data from test_V78500241_341.txt Node
Date: Fri Mar 25 14:36:05 CST 2022
User: usil
Spectrometer: V785-0024
Trigger mode: 0
Integration Time (sec): 4.000000E-1
Scans to average: 1
Nonlinearity correction enabled: false
Boxcar width: 0
Storing dark spectrum: false
XAxis mode: Wavelengths
Number of Pixels in Spectrum: 1024
>>>>>Begin Spectral Data<<<<<
801.071	26998
801.214	26785
801.356	26530
801.499	26526
801.641	26385
801.783	26427
801.926	26317
802.068	26404
802.211	26225
802.353	26142
802.496	25966
802.638	25890
802.78	25913
802.923	25925
803.065	25833
803.208	25826
803.35	25807
803.492	25822
803.635	25932
803.777	25909
803.919	26062
804.061	26191
804.204	25989
804.346	25837
804.488	25784
804.63	25788
804.773	25765
804.915	25795
805.057	25936
805.199	25871
805.341	25947
805.483	25906
805.626	25906
805.768	25833
805.91	25970
806.052	26050
806.194	25826
806.336	26077
806.478	25986
806.62	25868
806.762	26062
806.904	26088
807.046	26366
807.188	26301
807.33	26214
807.472	26423
807.614	26225
807.756	26164
807.898	26248
808.04	25963
808.182	26054
808.324	26164
808.465	26035
808.607	26233
808.749	26313
808.891	26507
809.033	26564
809.174	26541
809.316	26370
809.458	26317
809.6	26377
809.741	26301
809.883	26594
810.025	26560
810.166	26613
810.308	26476
810.45	26514
810.591	26389
810.733	26286
810.875	26229
811.016	26191
811.158	26210
811.299	26347
811.441	26351
811.582	26381
811.724	26237
811.865	26225
812.007	26298
812.148	26427
812.29	26320
812.431	26457
812.573	26366
812.714	26484
812.855	26606
812.997	26689
813.138	27005
813.279	26754
813.421	26686
813.562	26708
813.703	26571
813.845	26400
813.986	26001
814.127	26073
814.268	25814
814.41	25841
814.551	25811
814.692	25662
814.833	25860
814.974	25734
815.115	25807
815.256	25658
815.397	25597
815.539	25468
815.68	25556
815.821	25529
815.962	25674
816.103	25533
816.244	25339
816.385	25274
816.526	25278
816.666	25088
816.807	25019
816.948	25004
817.089	25027
817.23	24920
817.371	24882
817.512	24810
817.653	24863
817.793	24859
817.934	24844
818.075	25122
818.216	25000
818.356	24882
818.497	24623
818.638	24669
818.778	24726
818.919	24521
819.06	24684
819.2	24650
819.341	24620
819.481	24791
819.622	25069
819.762	25213
819.903	25046
820.043	24913
820.184	25000
820.324	24871
820.465	24875
820.605	24833
820.746	24741
820.886	24772
821.026	24905
821.167	24787
821.307	24932
821.447	24768
821.588	24544
821.728	24604
821.868	24418
822.008	24228
822.149	24228
822.289	24106
822.429	23977
822.569	23954
822.709	23904
822.849	23596
822.99	23722
823.13	23684
823.27	23627
823.41	23459
823.55	23421
823.69	23501
823.83	23406
823.97	23512
824.11	23269
824.25	23280
824.389	23174
824.529	23372
824.669	23265
824.809	23417
824.949	23284
825.089	23395
825.228	23197
825.368	23041
825.508	23064
825.648	23113
825.787	23064
825.927	23117
826.067	22927
826.206	23033
826.346	23060
826.485	23151
826.625	22934
826.765	23113
826.904	23064
827.044	22877
827.183	22824
827.323	22698
827.462	22774
827.601	22729
827.741	22748
827.88	22873
828.02	22584
828.159	22767
828.298	22706
828.437	22672
828.577	22675
828.716	22790
828.855	22630
828.994	22402
829.134	22409
829.273	22398
829.412	22500
829.551	22451
829.69	22417
829.829	22447
829.968	22462
830.107	22455
830.246	22284
830.385	22333
830.524	22246
830.663	22196
830.802	22059
830.941	21937
831.08	22067
831.219	22135
831.357	22044
831.496	22101
831.635	21994
831.774	22017
831.913	21705
832.051	21660
832.19	21732
832.329	21842
832.467	21720
832.606	21580
832.744	21595
832.883	21679
833.022	21637
833.16	21648
833.299	21743
833.437	21778
833.576	21622
833.714	21698
833.852	21603
833.991	21694
834.129	21743
834.267	21629
834.406	21686
834.544	21599
834.682	21717
834.821	21663
834.959	21789
835.097	21523
835.235	21675
835.373	21557
835.511	21580
835.65	21542
835.788	21507
835.926	21340
836.064	21203
836.202	21405
836.34	21530
836.478	21504
836.615	21431
836.753	21606
836.891	21530
837.029	21580
837.167	21389
837.305	21401
837.443	21405
837.58	21287
837.718	21408
837.856	21325
837.993	21317
838.131	21222
838.269	21207
838.406	21131
838.544	21260
838.681	21028
838.819	20994
838.956	20727
839.094	20716
839.231	20834
839.369	20918
839.506	21077
839.643	21047
839.781	20792
839.918	20773
840.055	20868
840.193	20781
840.33	20644
840.467	20769
840.604	20712
840.742	21024
840.879	20636
841.016	20579
841.153	20499
841.29	20845
841.427	20629
841.564	20667
841.701	20678
841.838	20575
841.975	20587
842.112	20530
842.249	20438
842.385	20408
842.522	20609
842.659	20393
842.796	20332
842.933	20503
843.069	20431
843.206	20339
843.343	20488
843.479	20518
843.616	20469
843.752	20149
843.889	20199
844.025	20408
844.162	20237
844.298	20210
844.435	20138
844.571	20073
844.708	20278
844.844	20301
844.98	20237
845.117	20317
845.253	20153
845.389	19997
845.525	20122
845.661	19982
845.798	19959
845.934	20027
846.07	19970
846.206	20077
846.342	20001
846.478	19944
846.614	19727
846.75	19681
846.886	19681
847.022	19670
847.158	19674
847.294	19613
847.429	19742
847.565	19655
847.701	19864
847.837	19289
847.972	19266
848.108	19392
848.244	19350
848.379	19145
848.515	19217
848.65	19183
848.786	19175
848.921	19133
849.057	19209
849.192	19282
849.328	19091
849.463	19194
849.598	19107
849.734	19206
849.869	19019
850.004	19088
850.14	18909
850.275	19004
850.41	18810
850.545	18783
850.68	18867
850.815	18958
850.95	18932
851.085	19038
851.22	18958
851.355	18901
851.49	18981
851.625	18916
851.76	18768
851.895	18772
852.03	18745
852.165	18787
852.299	19008
852.434	18890
852.569	18863
852.703	18821
852.838	19019
852.973	19110
853.107	18977
853.242	18958
853.376	18711
853.511	18795
853.645	18719
853.78	18867
853.914	18837
854.048	18738
854.183	18825
854.317	18703
854.451	18924
854.585	18802
854.72	18692
854.854	18814
854.988	18669
855.122	18738
855.256	18635
855.39	18745
855.524	18852
855.658	18741
855.792	18776
855.926	18749
856.06	18703
856.194	18859
856.327	18608
856.461	18661
856.595	18631
856.729	18654
856.862	18776
856.996	18700
857.13	18757
857.263	18829
857.397	18821
857.53	18730
857.664	18734
857.797	18719
857.931	18856
858.064	18734
858.197	18890
858.331	18684
858.464	18776
858.597	18604
858.731	18635
858.864	18597
858.997	18642
859.13	18772
859.263	18658
859.396	18711
859.529	18612
859.662	18730
859.795	18654
859.928	18692
860.061	18916
860.194	18745
860.327	18631
860.46	18658
860.592	18741
860.725	18814
860.858	18741
860.99	18745
861.123	18563
861.256	18646
861.388	18559
861.521	19358
861.653	18563
861.786	18452
861.918	18456
862.05	18616
862.183	18677
862.315	18661
862.447	18677
862.58	18604
862.712	18494
862.844	18361
862.976	18521
863.108	18384
863.24	18749
863.372	18251
863.504	18384
863.636	18338
863.768	18369
863.9	18315
864.032	18346
864.164	18342
864.296	18327
864.428	18521
864.559	18486
864.691	18551
864.823	18372
864.954	18213
865.086	18403
865.217	18346
865.349	18190
865.48	18281
865.612	18361
865.743	18502
865.875	18289
866.006	18292
866.137	18281
866.269	18315
866.4	18216
866.531	18270
866.662	18209
866.793	18266
866.924	18232
867.055	18213
867.186	18247
867.317	18026
867.448	18262
867.579	18182
867.71	18182
867.841	18182
867.972	18190
868.103	18232
868.233	18346
868.364	18201
868.495	18273
868.625	18486
868.756	18654
868.886	18224
869.017	18410
869.147	18486
869.278	18601
869.408	18521
869.539	18399
869.669	18585
869.799	18521
869.929	18566
870.06	18570
870.19	18703
870.32	18783
870.45	18764
870.58	18821
870.71	19000
870.84	19015
870.97	18829
871.1	18871
871.23	19042
871.36	19038
871.489	18954
871.619	19008
871.749	19122
871.879	19107
872.008	19168
872.138	19050
872.267	19065
872.397	19008
872.526	18947
872.656	18878
872.785	18932
872.915	19099
873.044	19236
873.173	19057
873.303	19209
873.432	19133
873.561	19187
873.69	19152
873.819	19145
873.948	19034
874.077	19137
874.206	19095
874.335	19012
874.464	19148
874.593	19339
874.722	19312
874.851	19464
874.979	19365
875.108	19445
875.237	19316
875.365	19247
875.494	19331
875.623	19396
875.751	19297
875.88	19438
876.008	19571
876.136	19563
876.265	19856
876.393	19894
876.521	19753
876.65	19799
876.778	19852
876.906	19742
877.034	19693
877.162	19788
877.29	19719
877.418	19727
877.546	19757
877.674	19799
877.802	19780
877.93	19651
878.058	19746
878.185	19693
878.313	19765
878.441	19811
878.568	19578
878.696	19677
878.824	19871
878.951	19875
879.079	20008
879.206	20005
879.333	19963
879.461	19788
879.588	19887
879.715	19970
879.842	20058
879.97	19890
880.097	19666
880.224	19685
880.351	19670
880.478	19590
880.605	19495
880.732	19632
880.859	19871
880.986	19594
881.112	19700
881.239	19445
881.366	19297
881.493	19282
881.619	19251
881.746	19247
881.872	19244
881.999	19263
882.125	19137
882.252	19190
882.378	19183
882.505	19438
882.631	19088
882.757	19065
882.883	19065
883.01	18852
883.136	18935
883.262	18916
883.388	18928
883.514	19019
883.64	18943
883.766	18810
883.892	18787
884.018	18856
884.143	18977
884.269	19046
884.395	18821
884.52	18734
884.646	18684
884.772	18696
884.897	18563
885.023	18642
885.148	18639
885.274	18768
885.399	18730
885.524	18677
885.65	18669
885.775	18650
885.9	18646
886.025	18909
886.15	18601
886.275	18490
886.4	18407
886.525	18506
886.65	18509
886.775	18483
886.9	18669
887.025	18848
887.149	18620
887.274	18441
887.399	18410
887.523	18365
887.648	18277
887.773	18262
887.897	18456
888.021	18456
888.146	18369
888.27	18475
888.395	18521
888.519	18429
888.643	18502
888.767	18414
888.891	18376
889.015	18174
889.139	18213
889.263	18121
889.387	18281
889.511	18448
889.635	18289
889.759	18216
889.883	18114
890.006	18197
890.13	18292
890.254	18197
890.377	18098
890.501	17984
890.624	17885
890.748	18110
890.871	17973
890.995	17855
891.118	17802
891.241	17718
891.364	17843
891.488	17920
891.611	17885
891.734	17901
891.857	17935
891.98	17882
892.103	17897
892.226	17885
892.349	17741
892.471	17558
892.594	17707
892.717	17847
892.839	17745
892.962	17870
893.085	17866
893.207	17786
893.33	17623
893.452	17611
893.575	17798
893.697	17699
893.819	17961
893.941	17958
894.064	17809
894.186	17741
894.308	17687
894.43	17851
894.552	17908
894.674	17809
894.796	17691
894.918	17821
895.04	17737
895.161	17855
895.283	17760
895.405	17809
895.526	17904
895.648	17729
895.769	17832
895.891	17798
896.012	17885
896.134	17874
896.255	17760
896.376	17847
896.498	17790
896.619	17901
896.74	17961
896.861	17889
896.982	18133
897.103	18262
897.224	18079
897.345	17984
897.466	17996
897.587	18064
897.708	18251
897.828	18186
897.949	18026
898.07	17984
898.19	18072
898.311	18224
898.431	17984
898.552	18167
898.672	18125
898.792	18167
898.913	18068
899.033	17946
899.153	17920
899.273	17756
899.393	17817
899.513	17836
899.633	17889
899.753	17893
899.873	17741
899.993	17794
900.113	17623
900.232	17916
900.352	17790
900.472	17748
900.591	17634
900.711	17680
900.83	17680
900.95	17672
901.069	17718
901.189	17649
901.308	17402
901.427	17242
901.546	17273
901.665	17345
901.784	17383
901.904	17185
902.023	17071
902.141	16934
902.26	16790
902.379	16908
902.498	16896
902.617	16736
902.735	16904
902.854	16790
902.973	16668
903.091	16489
903.21	16508
903.328	16489
903.446	16386
903.565	16424
903.683	16242
903.801	16265
903.919	16280
904.038	16215
904.156	16181
904.274	16238
904.392	16074
904.51	16128
904.627	16025
904.745	16124
904.863	16177
904.981	15930
905.098	15793
905.216	15819
905.334	15797
905.451	15762
905.569	15728
905.686	15842
905.803	15819
905.921	15504
906.038	15644
906.155	15580
906.272	15477
906.389	15496
906.506	15317
906.623	15214
906.74	15370
906.857	15249
906.974	15256
907.091	15439
907.208	15523
907.324	15420
907.441	15173
907.557	15131
907.674	14994
907.79	14914
907.907	15066
908.023	14990
908.139	15077
908.256	14967
908.372	14811
908.488	14960
908.604	14826
908.72	14781
908.836	14777
908.952	14697
909.068	14636
909.184	14819
909.3	14777
909.415	14655
909.531	14617
909.647	14415
909.762	14552
909.878	14419
909.993	14404
910.108	14370
910.224	14347
910.339	14347
910.454	14320
910.57	14271
910.685	14161
910.8	14476
910.915	14377
911.03	14267
911.145	14054
911.259	14084
911.374	14119
911.489	13967
911.604	13868
911.718	13890
911.833	13875
911.947	13719
912.062	13578
912.176	13776
912.291	13822
912.405	13814
912.519	13951
912.633	13989
912.748	13864
912.862	13803
912.976	13685
913.09	13457
913.204	13643
913.318	13666
913.431	13651
913.545	13700
913.659	13826
913.772	13636
913.886	13537
914	13548
914.113	13556
914.226	13624
914.34	13575
914.453	13369
914.566	13533
914.68	13384
914.793	13464
914.906	13274
915.019	13179
915.132	13088
915.245	13179
915.358	13225
915.47	13171
915.583	13103
915.696	13156
915.809	13289
915.921	13240
916.034	13152
916.146	13034
916.259	13065
916.371	13168
916.483	13232
916.595	12935
916.708	13110
916.82	13038
916.932	13084
917.044	12985
917.156	12989
917.268	12856
917.38	12886
917.491	12798
917.603	12905
917.715	12966
917.826	12966
917.938	12779
918.049	12730
918.161	12882
918.272	12954
918.384	13042
918.495	12844
918.606	12601
918.717	12665
918.828	12711
918.939	12726
919.05	12528
919.161	12642
919.272	12422
919.383	12490
919.494	12700
919.604	12806
919.715	12642
919.826	12597
919.936	12612
920.047	12673
920.157	12623
920.267	12878
920.378	12719
920.488	12544
920.598	12745
920.708	12981
920.818	12791
920.928	12791
921.038	12962
921.148	13015
921.258	12608
921.368	12547
921.477	12452
921.587	12418
921.697	12277
921.806	12471
921.916	12243
922.025	12159
922.134	12030
922.244	11988
922.353	12064
922.462	11977
922.571	11916
922.68	11764
922.789	11680
922.898	11688
923.007	11691
923.116	11802
923.224	11741
923.333	11718
923.442	11509
923.55	11524
923.659	11630
923.767	11604
923.876	11551
923.984	11581
924.092	11482
924.201	11558
924.309	11551
924.417	11433
924.525	11406
924.633	11440
924.741	12182
924.849	11261
924.956	11387
925.064	11326
925.172	11197
925.279	11284
925.387	11315
925.494	11288
925.602	11311
925.709	11387
925.816	11143
925.924	11113
926.031	11334
926.138	11216
926.245	11250
926.352	11083
926.459	11242
926.566	11265
926.673	11151
926.779	11056
926.886	11071
926.993	10942
927.099	10877
927.206	10858
927.312	10877
927.419	10873
927.525	10858
927.631	10919
927.737	10782
927.843	10835
927.95	10615
928.056	10725
928.162	10698
928.267	10835
928.373	11349
928.479	10816
928.585	10565
928.69	10717
928.796	10668
928.901	10615
929.007	10504
929.112	10565
929.218	10649
929.323	10493
929.428	10455
929.533	10577
929.638	10337
929.743	10440
929.848	10470
929.953	10470
930.058	10329
930.163	10230
930.267	10196
930.372	10440
930.477	10162
930.581	10382
930.685	10249
930.79	10124
930.894	10131
930.998	10048
931.103	10272
931.207	9861
931.311	9785
931.415	9751
931.519	9481
931.623	9561
