Data from test_V78500241_2564.txt Node
Date: Fri Mar 25 14:51:34 CST 2022
User: usil
Spectrometer: V785-0024
Trigger mode: 0
Integration Time (sec): 4.000000E-1
Scans to average: 1
Nonlinearity correction enabled: false
Boxcar width: 0
Storing dark spectrum: false
XAxis mode: Wavelengths
Number of Pixels in Spectrum: 1024
>>>>>Begin Spectral Data<<<<<
801.071	22025
801.214	21987
801.356	21614
801.499	21622
801.641	21477
801.783	21606
801.926	21412
802.068	21313
802.211	21256
802.353	21173
802.496	20979
802.638	20914
802.78	21020
802.923	20792
803.065	20693
803.208	20697
803.35	20727
803.492	20804
803.635	20876
803.777	20724
803.919	20796
804.061	21081
804.204	20823
804.346	20724
804.488	20686
804.63	20720
804.773	20549
804.915	20571
805.057	20823
805.199	20693
805.341	20765
805.483	20746
805.626	20697
805.768	20636
805.91	20727
806.052	20762
806.194	20606
806.336	20754
806.478	20609
806.62	20598
806.762	20602
806.904	20902
807.046	20952
807.188	21085
807.33	20963
807.472	21036
807.614	20933
807.756	20868
807.898	20765
808.04	20701
808.182	20758
808.324	20807
808.465	20674
808.607	20910
808.749	21093
808.891	21112
809.033	21195
809.174	21058
809.316	20963
809.458	20925
809.6	21017
809.741	21169
809.883	21146
810.025	21093
810.166	21165
810.308	21157
810.45	21119
810.591	21028
810.733	20811
810.875	20765
811.016	20594
811.158	20606
811.299	20777
811.441	20948
811.582	20891
811.724	20819
811.865	20785
812.007	20746
812.148	20659
812.29	20739
812.431	20971
812.573	21055
812.714	21222
812.855	21203
812.997	21405
813.138	21523
813.279	21272
813.421	21294
813.562	21169
813.703	21104
813.845	20906
813.986	20678
814.127	20545
814.268	20324
814.41	20358
814.551	20336
814.692	20419
814.833	20275
814.974	20317
815.115	20358
815.256	20142
815.397	20206
815.539	20130
815.68	20142
815.821	20035
815.962	20092
816.103	20031
816.244	19826
816.385	19822
816.526	19753
816.666	19590
816.807	19472
816.948	19499
817.089	19578
817.23	19537
817.371	19521
817.512	19483
817.653	19483
817.793	19400
817.934	19358
818.075	19384
818.216	19441
818.356	19476
818.497	19327
818.638	19145
818.778	19187
818.919	19114
819.06	19240
819.2	19179
819.341	19308
819.481	19415
819.622	19540
819.762	19674
819.903	19499
820.043	19635
820.184	19377
820.324	19510
820.465	19476
820.605	19563
820.746	19362
820.886	19373
821.026	19362
821.167	19419
821.307	19453
821.447	19510
821.588	19255
821.728	19084
821.868	19061
822.008	18806
822.149	18829
822.289	18848
822.429	18555
822.569	18509
822.709	18635
822.849	18369
822.99	18353
823.13	18311
823.27	18308
823.41	18148
823.55	18049
823.69	18144
823.83	18262
823.97	18072
824.11	17984
824.25	17840
824.389	17973
824.529	17927
824.669	17954
824.809	17999
824.949	17942
825.089	17996
825.228	18045
825.368	17745
825.508	17767
825.648	17665
825.787	17764
825.927	17649
826.067	17687
826.206	17687
826.346	17653
826.485	17699
826.625	17611
826.765	17783
826.904	17718
827.044	17455
827.183	17410
827.323	17414
827.462	17490
827.601	17429
827.741	17398
827.88	17463
828.02	17334
828.159	17379
828.298	17444
828.437	17402
828.577	17337
828.716	17463
828.855	17372
828.994	17170
829.134	17265
829.273	17265
829.412	17162
829.551	17079
829.69	17048
829.829	17280
829.968	17307
830.107	17204
830.246	17151
830.385	17136
830.524	17037
830.663	16949
830.802	16896
830.941	16816
831.08	16733
831.219	16790
831.357	16820
831.496	16987
831.635	16854
831.774	16763
831.913	16698
832.051	16538
832.19	16577
832.329	16618
832.467	16478
832.606	16398
832.744	16500
832.883	16402
833.022	16481
833.16	16432
833.299	16504
833.437	16421
833.576	16523
833.714	16455
833.852	16481
833.991	16516
834.129	16516
834.267	16558
834.406	16500
834.544	16596
834.682	16550
834.821	16451
834.959	16660
835.097	16519
835.235	16516
835.373	16649
835.511	16538
835.65	16432
835.788	16443
835.926	16344
836.064	16162
836.202	16219
836.34	16466
836.478	16565
836.615	16440
836.753	16405
836.891	16580
837.029	16455
837.167	16451
837.305	16363
837.443	16367
837.58	16325
837.718	16379
837.856	16341
837.993	16352
838.131	16352
838.269	16147
838.406	16215
838.544	16139
838.681	16013
838.819	16017
838.956	15827
839.094	15865
839.231	15911
839.369	15907
839.506	16116
839.643	16116
839.781	15998
839.918	15831
840.055	15857
840.193	15861
840.33	15953
840.467	15785
840.604	15812
840.742	16059
840.879	15724
841.016	15732
841.153	15686
841.29	15949
841.427	15835
841.564	15907
841.701	15857
841.838	15873
841.975	15762
842.112	15876
842.249	15682
842.385	15614
842.522	15861
842.659	15770
842.796	15557
842.933	15671
843.069	15618
843.206	15549
843.343	15781
843.479	15701
843.616	15580
843.752	15492
843.889	15477
844.025	15622
844.162	15496
844.298	15519
844.435	15382
844.571	15325
844.708	15367
844.844	15633
844.98	15511
845.117	15580
845.253	15332
845.389	15306
845.525	15313
845.661	15313
845.798	15218
845.934	15245
846.07	15180
846.206	15287
846.342	15336
846.478	15192
846.614	15036
846.75	15017
846.886	15001
847.022	15108
847.158	14982
847.294	14998
847.429	15005
847.565	14971
847.701	15203
847.837	14800
847.972	14689
848.108	14815
848.244	14872
848.379	14648
848.515	14629
848.65	14629
848.786	14598
848.921	14689
849.057	14632
849.192	14689
849.328	14560
849.463	14667
849.598	14518
849.734	14507
849.869	14377
850.004	14351
850.14	14347
850.275	14362
850.41	14298
850.545	14320
850.68	14313
850.815	14320
850.95	14408
851.085	14587
851.22	14438
851.355	14389
851.49	14362
851.625	14267
851.76	14275
851.895	14313
852.03	14256
852.165	14393
852.299	14469
852.434	14381
852.569	14362
852.703	14381
852.838	14541
852.973	14511
853.107	14492
853.242	14256
853.376	14149
853.511	14092
853.645	14172
853.78	14317
853.914	14218
854.048	14176
854.183	14248
854.317	14134
854.451	14339
854.585	14210
854.72	14187
854.854	14305
854.988	14206
855.122	14324
855.256	14123
855.39	14252
855.524	14320
855.658	14339
855.792	14317
855.926	14240
856.06	14290
856.194	14385
856.327	14290
856.461	14130
856.595	14206
856.729	14195
856.862	14290
856.996	14244
857.13	14347
857.263	14385
857.397	14431
857.53	14214
857.664	14263
857.797	14313
857.931	14400
858.064	14202
858.197	14408
858.331	14202
858.464	14180
858.597	14134
858.731	14142
858.864	14275
858.997	14187
859.13	14149
859.263	14168
859.396	14347
859.529	14290
859.662	14142
859.795	14157
859.928	14164
860.061	14434
860.194	14343
860.327	14347
860.46	14339
860.592	14374
860.725	14355
860.858	14415
860.99	14172
861.123	14195
861.256	14123
861.388	14290
861.521	15051
861.653	14092
861.786	14054
861.918	14088
862.05	14130
862.183	14206
862.315	14233
862.447	14267
862.58	14126
862.712	14031
862.844	13921
862.976	13986
863.108	14252
863.24	14431
863.372	13856
863.504	13982
863.636	13993
863.768	14027
863.9	14100
864.032	13898
864.164	13951
864.296	14043
864.428	14221
864.559	14107
864.691	14130
864.823	13993
864.954	14050
865.086	14096
865.217	13944
865.349	13955
865.48	13978
865.612	14084
865.743	14100
865.875	14062
866.006	13868
866.137	13959
866.269	13909
866.4	14046
866.531	13898
866.662	13902
866.793	13925
866.924	13917
867.055	14088
867.186	13928
867.317	13989
867.448	13925
867.579	13875
867.71	13967
867.841	13959
867.972	13989
868.103	14027
868.233	13993
868.364	14024
868.495	14164
868.625	14191
868.756	14282
868.886	14024
869.017	14256
869.147	14278
869.278	14309
869.408	14233
869.539	14271
869.669	14294
869.799	14229
869.929	14301
870.06	14408
870.19	14686
870.32	14590
870.45	14583
870.58	14678
870.71	14743
870.84	14762
870.97	14644
871.1	14564
871.23	14826
871.36	14762
871.489	14769
871.619	14777
871.749	14743
871.879	14986
872.008	14929
872.138	14796
872.267	14819
872.397	14663
872.526	14750
872.656	14674
872.785	14655
872.915	14883
873.044	14948
873.173	14861
873.303	14910
873.432	14811
873.561	15036
873.69	14891
873.819	14956
873.948	15020
874.077	14925
874.206	14872
874.335	14910
874.464	15020
874.593	15154
874.722	15074
874.851	15283
874.979	15237
875.108	15249
875.237	15203
875.365	15176
875.494	15184
875.623	15214
875.751	15237
875.88	15169
876.008	15363
876.136	15542
876.265	15629
876.393	15816
876.521	15690
876.65	15679
876.778	15648
876.906	15584
877.034	15656
877.162	15576
877.29	15538
877.418	15660
877.546	15644
877.674	15580
877.802	15682
877.93	15603
878.058	15549
878.185	15447
878.313	15755
878.441	15580
878.568	15447
878.696	15660
878.824	15637
878.951	15675
879.079	15857
879.206	15949
879.333	15800
879.461	15648
879.588	15827
879.715	15709
879.842	15861
879.97	15614
880.097	15469
880.224	15424
880.351	15488
880.478	15584
880.605	15439
880.732	15393
880.859	15762
880.986	15416
881.112	15443
881.239	15412
881.366	15214
881.493	15192
881.619	15241
881.746	15142
881.872	15074
881.999	15150
882.125	15081
882.252	15195
882.378	15135
882.505	15294
882.631	15077
882.757	14986
882.883	14933
883.01	14937
883.136	14918
883.262	14781
883.388	14842
883.514	14948
883.64	14998
883.766	14914
883.892	14758
884.018	14838
884.143	14971
884.269	15081
884.395	14712
884.52	14640
884.646	14583
884.772	14552
884.897	14533
885.023	14712
885.148	14689
885.274	14781
885.399	14735
885.524	14640
885.65	14602
885.775	14632
885.9	14663
886.025	14861
886.15	14693
886.275	14636
886.4	14575
886.525	14613
886.65	14625
886.775	14583
886.9	14773
887.025	14952
887.149	14568
887.274	14594
887.399	14488
887.523	14571
887.648	14431
887.773	14438
887.897	14537
888.021	14556
888.146	14423
888.27	14579
888.395	14648
888.519	14552
888.643	14602
888.767	14549
888.891	14362
889.015	14309
889.139	14408
889.263	14275
889.387	14393
889.511	14560
889.635	14465
889.759	14408
889.883	14290
890.006	14412
890.13	14450
890.254	14161
890.377	14286
890.501	14161
890.624	14164
890.748	14195
890.871	14062
890.995	13974
891.118	13986
891.241	14043
891.364	14050
891.488	14229
891.611	14092
891.734	14050
891.857	13921
891.98	14092
892.103	14081
892.226	14058
892.349	14107
892.471	13849
892.594	14031
892.717	14077
892.839	14123
892.962	14092
893.085	14062
893.207	14069
893.33	13925
893.452	13951
893.575	14145
893.697	13997
893.819	14271
893.941	14214
894.064	14229
894.186	14073
894.308	14062
894.43	14176
894.552	14252
894.674	14256
894.796	14065
894.918	14084
895.04	14035
895.161	14183
895.283	14320
895.405	14031
895.526	14191
895.648	14134
895.769	14145
895.891	14237
896.012	14305
896.134	14271
896.255	14275
896.376	14172
896.498	14210
896.619	14199
896.74	14233
896.861	14263
896.982	14587
897.103	14720
897.224	14465
897.345	14590
897.466	14389
897.587	14522
897.708	14629
897.828	14564
897.949	14366
898.07	14374
898.19	14473
898.311	14549
898.431	14533
898.552	14705
898.672	14640
898.792	14678
898.913	14636
899.033	14518
899.153	14415
899.273	14336
899.393	14400
899.513	14499
899.633	14355
899.753	14431
899.873	14499
899.993	14419
900.113	14324
900.232	14495
900.352	14415
900.472	14317
900.591	14233
900.711	14374
900.83	14309
900.95	14351
901.069	14381
901.189	14210
901.308	14020
901.427	13826
901.546	14020
901.665	14058
901.784	13928
901.904	13757
902.023	13742
902.141	13628
902.26	13624
902.379	13681
902.498	13441
902.617	13495
902.735	13487
902.854	13453
902.973	13460
903.091	13285
903.21	13263
903.328	13183
903.446	13221
903.565	13217
903.683	13171
903.801	13000
903.919	13084
904.038	13072
904.156	12901
904.274	13004
904.392	12882
904.51	12863
904.627	12981
904.745	13012
904.863	12958
904.981	12741
905.098	12608
905.216	12700
905.334	12578
905.451	12608
905.569	12589
905.686	12684
905.803	12604
905.921	12490
906.038	12528
906.155	12471
906.272	12334
906.389	12372
906.506	12243
906.623	12186
906.74	12213
906.857	12072
906.974	12148
907.091	12266
907.208	12232
907.324	12323
907.441	12167
907.557	12041
907.674	11950
907.79	11840
907.907	11969
908.023	12022
908.139	11920
908.256	11904
908.372	11965
908.488	11851
908.604	11691
908.72	11657
908.836	11672
908.952	11642
909.068	11710
909.184	11897
909.3	11710
909.415	11794
909.531	11688
909.647	11528
909.762	11490
909.878	11532
909.993	11512
910.108	11414
910.224	11410
910.339	11398
910.454	11372
910.57	11326
910.685	11242
910.8	11646
910.915	11509
911.03	11383
911.145	11235
911.259	11197
911.374	11204
911.489	11075
911.604	11052
911.718	10965
911.833	10976
911.947	10847
912.062	10763
912.176	10938
912.291	10900
912.405	10972
912.519	11109
912.633	11143
912.748	10987
912.862	10908
912.976	10786
913.09	10717
913.204	10759
913.318	10797
913.431	10869
913.545	10824
913.659	10991
913.772	10828
913.886	10752
914	10691
914.113	10873
914.226	10790
914.34	10809
914.453	10588
914.566	10790
914.68	10607
914.793	10634
914.906	10451
915.019	10424
915.132	10405
915.245	10413
915.358	10459
915.47	10432
915.583	10531
915.696	10455
915.809	10519
915.921	10618
916.034	10424
916.146	10375
916.259	10363
916.371	10481
916.483	10478
916.595	10409
916.708	10344
916.82	10421
916.932	10257
917.044	10337
917.156	10394
917.268	10261
917.38	10268
917.491	10227
917.603	10318
917.715	10402
917.826	10470
917.938	10284
918.049	10158
918.161	10344
918.272	10398
918.384	10428
918.495	10337
918.606	10143
918.717	10105
918.828	10219
918.939	10139
919.05	10166
919.161	10101
919.272	10006
919.383	10063
919.494	10215
919.604	10394
919.715	10249
919.826	10112
919.936	10090
920.047	10333
920.157	10219
920.267	10382
920.378	10280
920.488	10200
920.598	10470
920.708	10531
920.818	10390
920.928	10432
921.038	10630
921.148	10523
921.258	10276
921.368	10116
921.477	10147
921.587	10074
921.697	9945
921.806	10158
921.916	10029
922.025	9740
922.134	9720
922.244	9740
922.353	9808
922.462	9698
922.571	9488
922.68	9397
922.789	9408
922.898	9454
923.007	9408
923.116	9496
923.224	9420
923.333	9473
923.442	9382
923.55	9325
923.659	9310
923.767	9416
923.876	9279
923.984	9416
924.092	9241
924.201	9348
924.309	9249
924.417	9370
924.525	9291
924.633	9218
924.741	10010
924.849	9020
924.956	9199
925.064	9108
925.172	8944
925.279	9005
925.387	9100
925.494	9066
925.602	9150
925.709	9104
925.816	9089
925.924	9104
926.031	9199
926.138	9020
926.245	9142
926.352	9013
926.459	9116
926.566	9207
926.673	9013
926.779	9001
926.886	8937
926.993	8868
927.099	8781
927.206	8769
927.312	8727
927.419	8880
927.525	8849
927.631	8887
927.737	8785
927.843	8743
927.95	8579
928.056	8636
928.162	8731
928.267	8815
928.373	9424
928.479	8811
928.585	8606
928.69	8686
928.796	8735
928.901	8602
929.007	8522
929.112	8689
929.218	8648
929.323	8511
929.428	8541
929.533	8629
929.638	8499
929.743	8522
929.848	8533
929.953	8461
930.058	8396
930.163	8294
930.267	8317
930.372	8404
930.477	8218
930.581	8552
930.685	8317
930.79	8225
930.894	8210
930.998	8248
931.103	8415
931.207	8119
931.311	7997
931.415	7928
931.519	7742
931.623	7712
