Data from test_V78500241_3451.txt Node
Date: Fri Mar 25 14:57:44 CST 2022
User: usil
Spectrometer: V785-0024
Trigger mode: 0
Integration Time (sec): 4.000000E-1
Scans to average: 1
Nonlinearity correction enabled: false
Boxcar width: 0
Storing dark spectrum: false
XAxis mode: Wavelengths
Number of Pixels in Spectrum: 1024
>>>>>Begin Spectral Data<<<<<
801.071	21998
801.214	21739
801.356	21542
801.499	21496
801.641	21291
801.783	21207
801.926	21416
802.068	21195
802.211	21176
802.353	21058
802.496	20823
802.638	20834
802.78	20758
802.923	20693
803.065	20476
803.208	20549
803.35	20644
803.492	20720
803.635	20857
803.777	20473
803.919	20693
804.061	20952
804.204	20720
804.346	20492
804.488	20423
804.63	20648
804.773	20454
804.915	20594
805.057	20621
805.199	20412
805.341	20583
805.483	20594
805.626	20606
805.768	20499
805.91	20609
806.052	20575
806.194	20473
806.336	20598
806.478	20541
806.62	20442
806.762	20636
806.904	20712
807.046	20906
807.188	20788
807.33	20800
807.472	20887
807.614	20754
807.756	20629
807.898	20689
808.04	20499
808.182	20495
808.324	20552
808.465	20716
808.607	20731
808.749	20853
808.891	21066
809.033	20998
809.174	20956
809.316	20921
809.458	20762
809.6	20708
809.741	20826
809.883	21020
810.025	20971
810.166	21032
810.308	21036
810.45	20944
810.591	20891
810.733	20708
810.875	20644
811.016	20629
811.158	20640
811.299	20670
811.441	20792
811.582	20762
811.724	20579
811.865	20571
812.007	20545
812.148	20636
812.29	20667
812.431	20727
812.573	20906
812.714	20975
812.855	21055
812.997	21173
813.138	21386
813.279	21192
813.421	21119
813.562	21127
813.703	20941
813.845	20731
813.986	20495
814.127	20339
814.268	20256
814.41	20180
814.551	20202
814.692	20081
814.833	19970
814.974	20168
815.115	20187
815.256	19959
815.397	19967
815.539	19982
815.68	19970
815.821	19807
815.962	19830
816.103	19955
816.244	19616
816.385	19681
816.526	19651
816.666	19480
816.807	19407
816.948	19495
817.089	19384
817.23	19282
817.371	19304
817.512	19327
817.653	19278
817.793	19244
817.934	19285
818.075	19320
818.216	19240
818.356	19194
818.497	19072
818.638	19015
818.778	18928
818.919	19000
819.06	18951
819.2	19152
819.341	19183
819.481	19232
819.622	19331
819.762	19411
819.903	19480
820.043	19316
820.184	19232
820.324	19206
820.465	19339
820.605	19304
820.746	19209
820.886	19107
821.026	19198
821.167	19247
821.307	19297
821.447	19206
821.588	19129
821.728	18993
821.868	18913
822.008	18669
822.149	18764
822.289	18677
822.429	18452
822.569	18327
822.709	18338
822.849	18262
822.99	18300
823.13	18102
823.27	18106
823.41	18015
823.55	17931
823.69	17912
823.83	17996
823.97	17954
824.11	17710
824.25	17653
824.389	17866
824.529	17828
824.669	17779
824.809	17756
824.949	17878
825.089	17847
825.228	17646
825.368	17577
825.508	17562
825.648	17528
825.787	17592
825.927	17596
826.067	17630
826.206	17528
826.346	17592
826.485	17570
826.625	17653
826.765	17592
826.904	17589
827.044	17288
827.183	17307
827.323	17162
827.462	17288
827.601	17277
827.741	17212
827.88	17227
828.02	17174
828.159	17235
828.298	17223
828.437	17280
828.577	17258
828.716	17364
828.855	17121
828.994	17041
829.134	17056
829.273	17003
829.412	16892
829.551	16930
829.69	16980
829.829	17052
829.968	16972
830.107	17075
830.246	16965
830.385	16934
830.524	16934
830.663	16885
830.802	16710
830.941	16592
831.08	16630
831.219	16596
831.357	16615
831.496	16744
831.635	16550
831.774	16618
831.913	16603
832.051	16390
832.19	16428
832.329	16405
832.467	16371
832.606	16246
832.744	16291
832.883	16242
833.022	16268
833.16	16287
833.299	16310
833.437	16322
833.576	16451
833.714	16322
833.852	16527
833.991	16421
834.129	16337
834.267	16405
834.406	16310
834.544	16466
834.682	16451
834.821	16367
834.959	16611
835.097	16344
835.235	16413
835.373	16546
835.511	16421
835.65	16299
835.788	16238
835.926	16185
836.064	16025
836.202	16105
836.34	16295
836.478	16375
836.615	16185
836.753	16318
836.891	16352
837.029	16295
837.167	16303
837.305	16166
837.443	16154
837.58	16105
837.718	16325
837.856	16181
837.993	16109
838.131	16162
838.269	16097
838.406	16021
838.544	16048
838.681	15880
838.819	15846
838.956	15698
839.094	15770
839.231	15835
839.369	15884
839.506	16086
839.643	15972
839.781	15770
839.918	15671
840.055	15747
840.193	15720
840.33	15568
840.467	15690
840.604	15625
840.742	15979
840.879	15599
841.016	15701
841.153	15743
841.29	15873
841.427	15804
841.564	15762
841.701	15709
841.838	15648
841.975	15644
842.112	15660
842.249	15561
842.385	15431
842.522	15595
842.659	15458
842.796	15416
842.933	15538
843.069	15439
843.206	15454
843.343	15686
843.479	15576
843.616	15519
843.752	15348
843.889	15245
844.025	15515
844.162	15207
844.298	15435
844.435	15348
844.571	15245
844.708	15291
844.844	15511
844.98	15477
845.117	15443
845.253	15260
845.389	15180
845.525	15218
845.661	15135
845.798	15089
845.934	15119
846.07	15062
846.206	15093
846.342	15294
846.478	15032
846.614	14899
846.75	14872
846.886	14880
847.022	14971
847.158	14845
847.294	14918
847.429	14960
847.565	14941
847.701	15157
847.837	14686
847.972	14602
848.108	14701
848.244	14667
848.379	14568
848.515	14336
848.65	14423
848.786	14541
848.921	14431
849.057	14632
849.192	14602
849.328	14484
849.463	14434
849.598	14412
849.734	14320
849.869	14332
850.004	14336
850.14	14355
850.275	14233
850.41	14199
850.545	14176
850.68	14282
850.815	14351
850.95	14271
851.085	14492
851.22	14484
851.355	14259
851.49	14111
851.625	14214
851.76	14343
851.895	14111
852.03	14191
852.165	14248
852.299	14286
852.434	14225
852.569	14233
852.703	14271
852.838	14343
852.973	14423
853.107	14488
853.242	14248
853.376	14145
853.511	14043
853.645	14115
853.78	14183
853.914	14062
854.048	13986
854.183	14092
854.317	14176
854.451	14229
854.585	14111
854.72	14062
854.854	14157
854.988	14039
855.122	14111
855.256	13986
855.39	14012
855.524	14183
855.658	14138
855.792	14126
855.926	14149
856.06	14210
856.194	14161
856.327	14081
856.461	14157
856.595	14069
856.729	14111
856.862	14210
856.996	14092
857.13	14161
857.263	14210
857.397	14218
857.53	14100
857.664	14123
857.797	14119
857.931	14244
858.064	14142
858.197	14278
858.331	14176
858.464	14077
858.597	14008
858.731	14073
858.864	14134
858.997	14062
859.13	14126
859.263	14168
859.396	14252
859.529	14073
859.662	14058
859.795	14092
859.928	14103
860.061	14336
860.194	14301
860.327	14225
860.46	14119
860.592	14275
860.725	14290
860.858	14256
860.99	14153
861.123	14024
861.256	14081
861.388	14202
861.521	14853
861.653	14039
861.786	14039
861.918	14065
862.05	14008
862.183	14119
862.315	14073
862.447	14081
862.58	14046
862.712	13811
862.844	13928
862.976	13951
863.108	13917
863.24	14305
863.372	13761
863.504	13902
863.636	13852
863.768	14020
863.9	13902
864.032	13822
864.164	13845
864.296	13890
864.428	14024
864.559	13947
864.691	13982
864.823	14058
864.954	13856
865.086	13940
865.217	14020
865.349	13852
865.48	14020
865.612	13887
865.743	14092
865.875	13883
866.006	13814
866.137	13947
866.269	13940
866.4	13883
866.531	13852
866.662	13776
866.793	13811
866.924	13868
867.055	13811
867.186	13795
867.317	13982
867.448	13746
867.579	13784
867.71	13715
867.841	13765
867.972	13955
868.103	13822
868.233	13860
868.364	13795
868.495	14016
868.625	14088
868.756	14248
868.886	14035
869.017	14092
869.147	14214
869.278	14256
869.408	14218
869.539	14100
869.669	14195
869.799	14142
869.929	14248
870.06	14298
870.19	14454
870.32	14389
870.45	14408
870.58	14545
870.71	14743
870.84	14625
870.97	14629
871.1	14613
871.23	14659
871.36	14727
871.489	14621
871.619	14765
871.749	14765
871.879	14765
872.008	14872
872.138	14769
872.267	14800
872.397	14606
872.526	14564
872.656	14480
872.785	14617
872.915	14716
873.044	14765
873.173	14834
873.303	14826
873.432	14902
873.561	14910
873.69	14758
873.819	14689
873.948	14845
874.077	14876
874.206	14758
874.335	14849
874.464	15020
874.593	15104
874.722	14956
874.851	15161
874.979	15127
875.108	15192
875.237	15100
875.365	15058
875.494	15077
875.623	15268
875.751	15123
875.88	15157
876.008	15325
876.136	15359
876.265	15667
876.393	15648
876.521	15637
876.65	15568
876.778	15549
876.906	15504
877.034	15473
877.162	15473
877.29	15458
877.418	15549
877.546	15580
877.674	15519
877.802	15424
877.93	15507
878.058	15496
878.185	15389
878.313	15622
878.441	15500
878.568	15401
878.696	15401
878.824	15568
878.951	15614
879.079	15774
879.206	15930
879.333	15709
879.461	15599
879.588	15690
879.715	15755
879.842	15808
879.97	15606
880.097	15397
880.224	15325
880.351	15405
880.478	15302
880.605	15431
880.732	15298
880.859	15762
880.986	15416
881.112	15473
881.239	15230
881.366	15154
881.493	15058
881.619	14929
881.746	15100
881.872	14979
881.999	14975
882.125	14967
882.252	15150
882.378	15081
882.505	15104
882.631	14937
882.757	14819
882.883	15009
883.01	14876
883.136	14708
883.262	14739
883.388	14682
883.514	14906
883.64	14902
883.766	14800
883.892	14693
884.018	14697
884.143	14781
884.269	14918
884.395	14594
884.52	14492
884.646	14621
884.772	14450
884.897	14480
885.023	14571
885.148	14765
885.274	14724
885.399	14598
885.524	14590
885.65	14575
885.775	14522
885.9	14492
886.025	14731
886.15	14579
886.275	14526
886.4	14492
886.525	14526
886.65	14469
886.775	14541
886.9	14689
887.025	14823
887.149	14552
887.274	14400
887.399	14393
887.523	14454
887.648	14400
887.773	14252
887.897	14537
888.021	14290
888.146	14301
888.27	14503
888.395	14571
888.519	14454
888.643	14503
888.767	14473
888.891	14366
889.015	14286
889.139	14396
889.263	14225
889.387	14305
889.511	14473
889.635	14381
889.759	14267
889.883	14259
890.006	14278
890.13	14396
890.254	14100
890.377	14317
890.501	14031
890.624	14107
890.748	14111
890.871	14001
890.995	13852
891.118	13913
891.241	13925
891.364	14073
891.488	14046
891.611	14001
891.734	13913
891.857	13989
891.98	13989
892.103	14046
892.226	14065
892.349	13989
892.471	13734
892.594	13970
892.717	14027
892.839	13902
892.962	14016
893.085	14012
893.207	14012
893.33	13833
893.452	13879
893.575	14081
893.697	14016
893.819	14149
893.941	14134
894.064	14172
894.186	13871
894.308	13917
894.43	14176
894.552	14142
894.674	14081
894.796	14001
894.918	13940
895.04	13997
895.161	14161
895.283	14123
895.405	14062
895.526	14050
895.648	14225
895.769	14134
895.891	14130
896.012	14221
896.134	14164
896.255	14191
896.376	14107
896.498	14149
896.619	14191
896.74	14100
896.861	14248
896.982	14545
897.103	14617
897.224	14454
897.345	14374
897.466	14298
897.587	14396
897.708	14610
897.828	14476
897.949	14385
898.07	14161
898.19	14438
898.311	14461
898.431	14362
898.552	14423
898.672	14598
898.792	14579
898.913	14518
899.033	14358
899.153	14389
899.273	14267
899.393	14339
899.513	14278
899.633	14450
899.753	14374
899.873	14320
899.993	14381
900.113	14393
900.232	14362
900.352	14305
900.472	14267
900.591	14218
900.711	14164
900.83	14187
900.95	14244
901.069	14412
901.189	14168
901.308	13947
901.427	13902
901.546	13868
901.665	13925
901.784	13913
901.904	13723
902.023	13639
902.141	13540
902.26	13480
902.379	13495
902.498	13464
902.617	13426
902.735	13499
902.854	13403
902.973	13415
903.091	13202
903.21	13133
903.328	13194
903.446	13156
903.565	13042
903.683	12985
903.801	12875
903.919	12935
904.038	12993
904.156	12886
904.274	12875
904.392	12757
904.51	12837
904.627	12848
904.745	12920
904.863	12867
904.981	12650
905.098	12464
905.216	12559
905.334	12532
905.451	12646
905.569	12540
905.686	12525
905.803	12525
905.921	12376
906.038	12536
906.155	12334
906.272	12300
906.389	12281
906.506	12114
906.623	12152
906.74	12152
906.857	12034
906.974	12072
907.091	12136
907.208	12171
907.324	12178
907.441	12091
907.557	12041
907.674	11832
907.79	11767
907.907	11870
908.023	11901
908.139	11958
908.256	11783
908.372	11805
908.488	11843
908.604	11646
908.72	11611
908.836	11710
908.952	11661
909.068	11691
909.184	11714
909.3	11661
909.415	11710
909.531	11608
909.647	11406
909.762	11429
909.878	11398
909.993	11452
910.108	11471
910.224	11402
910.339	11395
910.454	11311
910.57	11326
910.685	11273
910.8	11486
910.915	11395
911.03	11326
911.145	11155
911.259	11102
911.374	11090
911.489	11064
911.604	11079
911.718	10869
911.833	10862
911.947	10835
912.062	10721
912.176	10843
912.291	10869
912.405	10900
912.519	11052
912.633	11003
912.748	10991
912.862	10892
912.976	10729
913.09	10599
913.204	10668
913.318	10752
913.431	10790
913.545	10869
913.659	10854
913.772	10763
913.886	10653
914	10630
914.113	10778
914.226	10767
914.34	10797
914.453	10599
914.566	10714
914.68	10599
914.793	10618
914.906	10436
915.019	10379
915.132	10379
915.245	10344
915.358	10379
915.47	10459
915.583	10402
915.696	10424
915.809	10546
915.921	10542
916.034	10402
916.146	10261
916.259	10211
916.371	10443
916.483	10455
916.595	10310
916.708	10363
916.82	10341
916.932	10318
917.044	10337
917.156	10257
917.268	10124
917.38	10272
917.491	10177
917.603	10207
917.715	10314
917.826	10390
917.938	10272
918.049	10181
918.161	10265
918.272	10272
918.384	10371
918.495	10246
918.606	10120
918.717	9956
918.828	10101
918.939	10135
919.05	10017
919.161	10036
919.272	9915
919.383	9972
919.494	10200
919.604	10284
919.715	10086
919.826	10082
919.936	10097
920.047	10204
920.157	10162
920.267	10253
920.378	10139
920.488	10177
920.598	10333
920.708	10443
920.818	10291
920.928	10265
921.038	10481
921.148	10459
921.258	10135
921.368	10097
921.477	9998
921.587	9979
921.697	9827
921.806	9975
921.916	9884
922.025	9789
922.134	9637
922.244	9644
922.353	9698
922.462	9599
922.571	9599
922.68	9420
922.789	9306
922.898	9367
923.007	9279
923.116	9405
923.224	9420
923.333	9386
923.442	9291
923.55	9214
923.659	9218
923.767	9313
923.876	9157
923.984	9317
924.092	9138
924.201	9256
924.309	9222
924.417	9272
924.525	9165
924.633	9245
924.741	10143
924.849	9055
924.956	9203
925.064	9032
925.172	8941
925.279	8971
925.387	9017
925.494	9039
925.602	9218
925.709	9093
925.816	8963
925.924	8979
926.031	9180
926.138	9047
926.245	9032
926.352	8929
926.459	9119
926.566	9119
926.673	9017
926.779	8918
926.886	8883
926.993	8781
927.099	8701
927.206	8712
927.312	8758
927.419	8750
927.525	8785
927.631	8895
927.737	8693
927.843	8617
927.95	8590
928.056	8613
928.162	8701
928.267	8648
928.373	9340
928.479	8727
928.585	8514
928.69	8625
928.796	8708
928.901	8632
929.007	8393
929.112	8621
929.218	8564
929.323	8446
929.428	8454
929.533	8617
929.638	8438
929.743	8457
929.848	8511
929.953	8507
930.058	8366
930.163	8233
930.267	8290
930.372	8374
930.477	8176
930.581	8434
930.685	8366
930.79	8256
930.894	8252
930.998	8214
931.103	8374
931.207	8046
931.311	7944
931.415	7909
931.519	7723
931.623	7700
