Data from test_V78500241_565.txt Node
Date: Fri Mar 25 14:37:39 CST 2022
User: usil
Spectrometer: V785-0024
Trigger mode: 0
Integration Time (sec): 4.000000E-1
Scans to average: 1
Nonlinearity correction enabled: false
Boxcar width: 0
Storing dark spectrum: false
XAxis mode: Wavelengths
Number of Pixels in Spectrum: 1024
>>>>>Begin Spectral Data<<<<<
801.071	27804
801.214	27709
801.356	27424
801.499	27329
801.641	27150
801.783	27081
801.926	27222
802.068	27093
802.211	26979
802.353	26849
802.496	26613
802.638	26819
802.78	26716
802.923	26606
803.065	26663
803.208	26583
803.35	26511
803.492	26701
803.635	26804
803.777	26632
803.919	26724
804.061	27013
804.204	26902
804.346	26590
804.488	26785
804.63	26568
804.773	26655
804.915	26800
805.057	27017
805.199	26849
805.341	26975
805.483	27058
805.626	27055
805.768	26902
805.91	26998
806.052	27252
806.194	27055
806.336	27534
806.478	27275
806.62	27507
806.762	27865
806.904	28139
807.046	28447
807.188	28481
807.33	28752
807.472	29083
807.614	29372
807.756	29878
807.898	30285
808.04	31133
808.182	32142
808.324	33561
808.465	35071
808.607	36951
808.749	38408
808.891	39291
809.033	39351
809.174	38237
809.316	36814
809.458	34927
809.6	33161
809.741	32088
809.883	30836
810.025	30277
810.166	29581
810.308	29181
810.45	28888
810.591	28710
810.733	28226
810.875	27941
811.016	27888
811.158	27682
811.299	27728
811.441	27831
811.582	27732
811.724	27496
811.865	27317
812.007	27386
812.148	27344
812.29	27351
812.431	27424
812.573	27435
812.714	27511
812.855	27603
812.997	27701
813.138	27812
813.279	27644
813.421	27507
813.562	27469
813.703	27173
813.845	27363
813.986	26864
814.127	26739
814.268	26469
814.41	26499
814.551	26518
814.692	26518
814.833	26324
814.974	26465
815.115	26370
815.256	26183
815.397	26237
815.539	26191
815.68	26259
815.821	26035
815.962	26073
816.103	26096
816.244	25890
816.385	25826
816.526	25658
816.666	25582
816.807	25533
816.948	25453
817.089	25597
817.23	25426
817.371	25419
817.512	25495
817.653	25388
817.793	25343
817.934	25430
818.075	25274
818.216	25316
818.356	25278
818.497	25270
818.638	25122
818.778	24981
818.919	24985
819.06	25091
819.2	25206
819.341	25362
819.481	25213
819.622	25457
819.762	25575
819.903	25544
820.043	25483
820.184	25266
820.324	25365
820.465	25316
820.605	25266
820.746	25263
820.886	25209
821.026	25164
821.167	25156
821.307	25160
821.447	25088
821.588	25042
821.728	24875
821.868	24776
822.008	24532
822.149	24521
822.289	24452
822.429	24407
822.569	24289
822.709	24148
822.849	24022
822.99	24076
823.13	23950
823.27	23988
823.41	23707
823.55	23646
823.69	23893
823.83	23741
823.97	23786
824.11	23547
824.25	23672
824.389	23570
824.529	23619
824.669	23482
824.809	23703
824.949	23634
825.089	23581
825.228	23505
825.368	23554
825.508	23452
825.648	23391
825.787	23444
825.927	23356
826.067	23284
826.206	23296
826.346	23330
826.485	23223
826.625	23311
826.765	23452
826.904	23273
827.044	22987
827.183	23022
827.323	22972
827.462	23041
827.601	23064
827.741	22942
827.88	23090
828.02	22866
828.159	22984
828.298	22984
828.437	22953
828.577	22927
828.716	23193
828.855	22980
828.994	22660
829.134	22645
829.273	22767
829.412	22687
829.551	22615
829.69	22607
829.829	22683
829.968	22733
830.107	22862
830.246	22630
830.385	22637
830.524	22535
830.663	22459
830.802	22337
830.941	22295
831.08	22131
831.219	22188
831.357	22314
831.496	22428
831.635	22169
831.774	22101
831.913	21991
832.051	22051
832.19	22029
832.329	22055
832.467	21911
832.606	21987
832.744	21873
832.883	22097
833.022	22002
833.16	22093
833.299	22169
833.437	22158
833.576	22325
833.714	22352
833.852	22519
833.991	22569
834.129	22497
834.267	22577
834.406	22542
834.544	22550
834.682	22356
834.821	22386
834.959	22497
835.097	22325
835.235	22253
835.373	22124
835.511	22154
835.65	21987
835.788	21861
835.926	21709
836.064	21648
836.202	21629
836.34	21751
836.478	21861
836.615	21675
836.753	21682
836.891	21793
837.029	21637
837.167	21595
837.305	21720
837.443	21542
837.58	21686
837.718	21682
837.856	21583
837.993	21576
838.131	21511
838.269	21374
838.406	21447
838.544	21401
838.681	21138
838.819	21066
838.956	21108
839.094	21020
839.231	21017
839.369	21180
839.506	21310
839.643	21154
839.781	20975
839.918	20914
840.055	20975
840.193	20986
840.33	20834
840.467	20967
840.604	20944
840.742	21066
840.879	20777
841.016	20891
841.153	20857
841.29	21013
841.427	20944
841.564	20975
841.701	20975
841.838	20838
841.975	20682
842.112	20830
842.249	20670
842.385	20617
842.522	20682
842.659	20670
842.796	20663
842.933	20727
843.069	20659
843.206	20575
843.343	20754
843.479	20777
843.616	20811
843.752	20457
843.889	20568
844.025	20743
844.162	20606
844.298	20796
844.435	20746
844.571	20819
844.708	21039
844.844	21264
844.98	21477
845.117	21808
845.253	22211
845.389	23071
845.525	24715
845.661	27732
845.798	31316
845.934	33949
846.07	35189
846.206	34611
846.342	32290
846.478	28729
846.614	25506
846.75	23429
846.886	22219
847.022	21428
847.158	21009
847.294	20663
847.429	20400
847.565	20309
847.701	20374
847.837	20001
847.972	19894
848.108	19902
848.244	19803
848.379	19643
848.515	19567
848.65	19559
848.786	19499
848.921	19677
849.057	19639
849.192	19639
849.328	19491
849.463	19480
849.598	19396
849.734	19301
849.869	19460
850.004	19232
850.14	19369
850.275	19129
850.41	19129
850.545	19221
850.68	19160
850.815	19247
850.95	19164
851.085	19373
851.22	19221
851.355	19137
851.49	19190
851.625	19175
851.76	19095
851.895	19240
852.03	18989
852.165	19156
852.299	19221
852.434	19297
852.569	19213
852.703	19285
852.838	19293
852.973	19392
853.107	19426
853.242	19316
853.376	19206
853.511	19012
853.645	19164
853.78	19354
853.914	19179
854.048	19324
854.183	19270
854.317	19236
854.451	19483
854.585	19335
854.72	19236
854.854	19308
854.988	19114
855.122	19247
855.256	19012
855.39	19156
855.524	19221
855.658	19145
855.792	19168
855.926	19057
856.06	19034
856.194	19126
856.327	19031
856.461	18951
856.595	18935
856.729	19027
856.862	19137
856.996	19042
857.13	19004
857.263	19061
857.397	19110
857.53	18943
857.664	19050
857.797	19065
857.931	19110
858.064	19000
858.197	19129
858.331	19019
858.464	18848
858.597	18837
858.731	18901
858.864	18878
858.997	18776
859.13	18882
859.263	18932
859.396	19080
859.529	18871
859.662	18878
859.795	18856
859.928	18928
860.061	19004
860.194	19015
860.327	18939
860.46	18901
860.592	18947
860.725	19015
860.858	18935
860.99	18844
861.123	18829
861.256	18745
861.388	18795
861.521	19597
861.653	18749
861.786	18764
861.918	18795
862.05	18802
862.183	18905
862.315	18859
862.447	18989
862.58	18894
862.712	18719
862.844	18639
862.976	18658
863.108	18616
863.24	18951
863.372	18460
863.504	18532
863.636	18555
863.768	18486
863.9	18544
864.032	18506
864.164	18521
864.296	18570
864.428	18745
864.559	18673
864.691	18665
864.823	18646
864.954	18490
865.086	18589
865.217	18475
865.349	18517
865.48	18479
865.612	18452
865.743	18696
865.875	18589
866.006	18407
866.137	18388
866.269	18388
866.4	18574
866.531	18460
866.662	18361
866.793	18445
866.924	18403
867.055	18410
867.186	18376
867.317	18422
867.448	18380
867.579	18494
867.71	18376
867.841	18441
867.972	18422
868.103	18490
868.233	18437
868.364	18540
868.495	18585
868.625	18650
868.756	18726
868.886	18555
869.017	18612
869.147	18798
869.278	18817
869.408	18612
869.539	18616
869.669	18757
869.799	18673
869.929	18719
870.06	18730
870.19	19107
870.32	18966
870.45	19141
870.58	19042
870.71	19278
870.84	19209
870.97	19088
871.1	19072
871.23	19392
871.36	19362
871.489	19202
871.619	19221
871.749	19304
871.879	19422
872.008	19468
872.138	19381
872.267	19316
872.397	19255
872.526	19285
872.656	19270
872.785	19289
872.915	19415
873.044	19411
873.173	19453
873.303	19362
873.432	19480
873.561	19651
873.69	19578
873.819	19487
873.948	19616
874.077	19571
874.206	19552
874.335	19552
874.464	19791
874.593	19864
874.722	19750
874.851	19875
874.979	19879
875.108	20077
875.237	19963
875.365	19871
875.494	19967
875.623	20069
875.751	19875
875.88	20027
876.008	20275
876.136	20248
876.265	20442
876.393	20609
876.521	20663
876.65	20632
876.778	20632
876.906	20609
877.034	20511
877.162	20670
877.29	20697
877.418	20769
877.546	20788
877.674	20925
877.802	20861
877.93	21180
878.058	21055
878.185	21096
878.313	21294
878.441	21549
878.568	21523
878.696	21918
878.824	22382
878.951	23193
879.079	23764
879.206	24962
879.333	26058
879.461	27020
879.588	27469
879.715	27618
879.842	27268
879.97	26115
880.097	24852
880.224	23946
880.351	23368
880.478	22927
880.605	22470
880.732	22386
880.859	22352
880.986	22234
881.112	22067
881.239	21998
881.366	21876
881.493	21774
881.619	21705
881.746	21576
881.872	21610
881.999	21663
882.125	21720
882.252	21857
882.378	21774
882.505	21892
882.631	21701
882.757	21736
882.883	21682
883.01	21618
883.136	21507
883.262	21496
883.388	21355
883.514	21428
883.64	21530
883.766	21591
883.892	21313
884.018	21378
884.143	21526
884.269	21686
884.395	21374
884.52	21367
884.646	21329
884.772	21093
884.897	21165
885.023	21367
885.148	21313
885.274	21207
885.399	21302
885.524	21112
885.65	21108
885.775	20971
885.9	20830
886.025	21020
886.15	20750
886.275	20697
886.4	20617
886.525	20533
886.65	20484
886.775	20328
886.9	20366
887.025	20556
887.149	20259
887.274	20096
887.399	20012
887.523	19932
887.648	19940
887.773	19845
887.897	19841
888.021	19799
888.146	19681
888.27	19837
888.395	19791
888.519	19757
888.643	19776
888.767	19635
888.891	19430
889.015	19453
889.139	19381
889.263	19320
889.387	19403
889.511	19438
889.635	19384
889.759	19251
889.883	19148
890.006	19282
890.13	19381
890.254	19168
890.377	19114
890.501	18966
890.624	18878
890.748	18943
890.871	18810
890.995	18722
891.118	18673
891.241	18852
891.364	18692
891.488	18867
891.611	18635
891.734	18631
891.857	18814
891.98	18741
892.103	18707
892.226	18578
892.349	18498
892.471	18346
892.594	18448
892.717	18509
892.839	18528
892.962	18528
893.085	18620
893.207	18422
893.33	18311
893.452	18346
893.575	18452
893.697	18243
893.819	18525
893.941	18517
894.064	18517
894.186	18296
894.308	18289
894.43	18452
894.552	18456
894.674	18418
894.796	18327
894.918	18220
895.04	18235
895.161	18346
895.283	18224
895.405	18277
895.526	18285
895.648	18201
895.769	18334
895.891	18319
896.012	18346
896.134	18277
896.255	18296
896.376	18273
896.498	18296
896.619	18369
896.74	18224
896.861	18315
896.982	18627
897.103	18658
897.224	18536
897.345	18490
897.466	18346
897.587	18555
897.708	18703
897.828	18490
897.949	18486
898.07	18292
898.19	18479
898.311	18521
898.431	18350
898.552	18452
898.672	18528
898.792	18639
898.913	18559
899.033	18304
899.153	18365
899.273	18262
899.393	18300
899.513	18369
899.633	18311
899.753	18365
899.873	18197
899.993	18304
900.113	18178
900.232	18224
900.352	18171
900.472	18239
900.591	17961
900.711	18174
900.83	17946
900.95	18110
901.069	18174
901.189	18015
901.308	17722
901.427	17714
901.546	17649
901.665	17748
901.784	17668
901.904	17501
902.023	17364
902.141	17193
902.26	17239
902.379	17239
902.498	17140
902.617	17117
902.735	17208
902.854	17090
902.973	16949
903.091	16862
903.21	16831
903.328	16812
903.446	16694
903.565	16535
903.683	16622
903.801	16577
903.919	16523
904.038	16516
904.156	16322
904.274	16428
904.392	16379
904.51	16375
904.627	16329
904.745	16303
904.863	16261
904.981	16124
905.098	15994
905.216	15945
905.334	16032
905.451	15975
905.569	16097
905.686	16010
905.803	15926
905.921	15827
906.038	15899
906.155	15823
906.272	15675
906.389	15766
906.506	15454
906.623	15515
906.74	15542
906.857	15389
906.974	15431
907.091	15545
907.208	15568
907.324	15454
907.441	15466
907.557	15283
907.674	15188
907.79	15108
907.907	15184
908.023	15203
908.139	15260
908.256	15127
908.372	15119
908.488	15020
908.604	14937
908.72	15001
908.836	14861
908.952	14830
909.068	14830
909.184	14975
909.3	14891
909.415	14887
909.531	14853
909.647	14724
909.762	14617
909.878	14670
909.993	14583
910.108	14549
910.224	14583
910.339	14613
910.454	14484
910.57	14408
910.685	14309
910.8	14606
910.915	14689
911.03	14393
911.145	14313
911.259	14164
911.374	14206
911.489	14183
911.604	14126
911.718	14027
911.833	14024
911.947	13932
912.062	13875
912.176	14020
912.291	13906
912.405	13963
912.519	14195
912.633	14039
912.748	14126
912.862	13879
912.976	13833
913.09	13731
913.204	13731
913.318	13860
913.431	13978
913.545	13841
913.659	13894
913.772	13925
913.886	13738
914	13708
914.113	13723
914.226	13875
914.34	13761
914.453	13616
914.566	13670
914.68	13548
914.793	13616
914.906	13369
915.019	13327
915.132	13236
915.245	13400
915.358	13247
915.47	13422
915.583	13396
915.696	13426
915.809	13502
915.921	13445
916.034	13289
916.146	13289
916.259	13274
916.371	13350
916.483	13411
916.595	13251
916.708	13251
916.82	13266
916.932	13175
917.044	13194
917.156	13145
917.268	13141
917.38	13069
917.491	13110
917.603	13084
917.715	13149
917.826	13164
917.938	13019
918.049	12935
918.161	13000
918.272	13179
918.384	13103
918.495	12993
918.606	12802
918.717	12776
918.828	12837
918.939	12829
919.05	12741
919.161	12791
919.272	12525
919.383	12597
919.494	12932
919.604	12947
919.715	12806
919.826	12715
919.936	12776
920.047	12821
920.157	12719
920.267	13015
920.378	12844
920.488	12768
920.598	12947
920.708	13057
920.818	12947
920.928	12939
921.038	13107
921.148	12966
921.258	12711
921.368	12654
921.477	12604
921.587	12498
921.697	12437
921.806	12494
921.916	12456
922.025	12330
922.134	12201
922.244	12110
922.353	12281
922.462	12136
922.571	12007
922.68	11885
922.789	11851
922.898	11882
923.007	11855
923.116	11954
923.224	11901
923.333	11878
923.442	11703
923.55	11699
923.659	11665
923.767	11836
923.876	11688
923.984	11771
924.092	11688
924.201	11684
924.309	11665
924.417	11748
924.525	11596
924.633	11600
924.741	12315
924.849	11402
924.956	11551
925.064	11410
925.172	11315
925.279	11341
925.387	11398
925.494	11421
925.602	11516
925.709	11402
925.816	11387
925.924	11334
926.031	11551
926.138	11391
926.245	11376
926.352	11303
926.459	11448
926.566	11372
926.673	11273
926.779	11197
926.886	11204
926.993	11045
927.099	11033
927.206	10980
927.312	10881
927.419	11041
927.525	10976
927.631	11052
927.737	10999
927.843	10900
927.95	10736
928.056	10927
928.162	10793
928.267	10965
928.373	11474
928.479	11014
928.585	10675
928.69	10812
928.796	10862
928.901	10736
929.007	10611
929.112	10763
929.218	10660
929.323	10592
929.428	10660
929.533	10717
929.638	10592
929.743	10546
929.848	10607
929.953	10497
930.058	10497
930.163	10318
930.267	10398
930.372	10432
930.477	10284
930.581	10558
930.685	10371
930.79	10242
930.894	10299
930.998	10265
931.103	10230
931.207	10017
931.311	9922
931.415	9842
931.519	9622
931.623	9633
