Data from test_V78500241_1086.txt Node
Date: Fri Mar 25 14:41:16 CST 2022
User: usil
Spectrometer: V785-0024
Trigger mode: 0
Integration Time (sec): 4.000000E-1
Scans to average: 1
Nonlinearity correction enabled: false
Boxcar width: 0
Storing dark spectrum: false
XAxis mode: Wavelengths
Number of Pixels in Spectrum: 1024
>>>>>Begin Spectral Data<<<<<
801.071	22809
801.214	22637
801.356	22348
801.499	22352
801.641	22112
801.783	22139
801.926	22112
802.068	22139
802.211	21903
802.353	21751
802.496	21614
802.638	21466
802.78	21568
802.923	21530
803.065	21355
803.208	21310
803.35	21332
803.492	21523
803.635	21553
803.777	21370
803.919	21504
804.061	21709
804.204	21538
804.346	21420
804.488	21249
804.63	21348
804.773	21329
804.915	21485
805.057	21424
805.199	21359
805.341	21424
805.483	21511
805.626	21389
805.768	21256
805.91	21374
806.052	21424
806.194	21363
806.336	21477
806.478	21310
806.62	21359
806.762	21450
806.904	21625
807.046	21838
807.188	21854
807.33	21781
807.472	21781
807.614	21694
807.756	21736
807.898	21637
808.04	21564
808.182	21652
808.324	21759
808.465	21861
808.607	21987
808.749	22223
808.891	22333
809.033	22344
809.174	22246
809.316	22154
809.458	22029
809.6	21983
809.741	22006
809.883	22082
810.025	22013
810.166	22139
810.308	21941
810.45	22025
810.591	21941
810.733	21690
810.875	21599
811.016	21603
811.158	21488
811.299	21679
811.441	21816
811.582	21667
811.724	21549
811.865	21660
812.007	21622
812.148	21485
812.29	21690
812.431	21747
812.573	21956
812.714	22025
812.855	22070
812.997	22173
813.138	22265
813.279	22249
813.421	22013
813.562	21994
813.703	21831
813.845	21804
813.986	21557
814.127	21211
814.268	21211
814.41	21173
814.551	21173
814.692	21131
814.833	20887
814.974	21131
815.115	21013
815.256	20921
815.397	20899
815.539	20967
815.68	20834
815.821	20785
815.962	20849
816.103	20777
816.244	20659
816.385	20655
816.526	20571
816.666	20412
816.807	20183
816.948	20454
817.089	20328
817.23	20393
817.371	20229
817.512	20187
817.653	20271
817.793	20259
817.934	20336
818.075	20214
818.216	20320
818.356	20202
818.497	20043
818.638	19814
818.778	20035
818.919	20005
819.06	20024
819.2	20088
819.341	20138
819.481	20187
819.622	20187
819.762	20644
819.903	20492
820.043	20294
820.184	20343
820.324	20259
820.465	20332
820.605	20256
820.746	20298
820.886	20157
821.026	20210
821.167	20183
821.307	20294
821.447	20172
821.588	19963
821.728	19940
821.868	19822
822.008	19544
822.149	19620
822.289	19537
822.429	19354
822.569	19308
822.709	19369
822.849	19122
822.99	19133
823.13	19084
823.27	19122
823.41	18878
823.55	18810
823.69	19012
823.83	19000
823.97	18821
824.11	18681
824.25	18810
824.389	18837
824.529	18711
824.669	18734
824.809	18791
824.949	18844
825.089	18734
825.228	18806
825.368	18490
825.508	18494
825.648	18566
825.787	18551
825.927	18623
826.067	18365
826.206	18441
826.346	18498
826.485	18475
826.625	18479
826.765	18661
826.904	18471
827.044	18281
827.183	18262
827.323	18125
827.462	18178
827.601	18106
827.741	18213
827.88	18155
828.02	18095
828.159	18205
828.298	18140
828.437	18315
828.577	18125
828.716	18296
828.855	18110
828.994	17859
829.134	17882
829.273	18022
829.412	17878
829.551	17798
829.69	17904
829.829	17946
829.968	18049
830.107	18030
830.246	17977
830.385	17843
830.524	17809
830.663	17805
830.802	17691
830.941	17573
831.08	17493
831.219	17695
831.357	17638
831.496	17775
831.635	17535
831.774	17410
831.913	17406
832.051	17376
832.19	17395
832.329	17318
832.467	17337
832.606	17250
832.744	17280
832.883	17269
833.022	17185
833.16	17265
833.299	17246
833.437	17341
833.576	17235
833.714	17353
833.852	17376
833.991	17322
834.129	17296
834.267	17356
834.406	17330
834.544	17417
834.682	17269
834.821	17318
834.959	17497
835.097	17212
835.235	17364
835.373	17315
835.511	17368
835.65	17128
835.788	17261
835.926	17136
836.064	17079
836.202	17098
836.34	17265
836.478	17303
836.615	17143
836.753	17231
836.891	17311
837.029	17113
837.167	17159
837.305	17128
837.443	17018
837.58	17033
837.718	17189
837.856	17151
837.993	16968
838.131	17094
838.269	17075
838.406	17037
838.544	16991
838.681	16835
838.819	16774
838.956	16637
839.094	16645
839.231	16656
839.369	16740
839.506	16957
839.643	16889
839.781	16569
839.918	16512
840.055	16508
840.193	16641
840.33	16519
840.467	16618
840.604	16634
840.742	16862
840.879	16462
841.016	16356
841.153	16538
841.29	16873
841.427	16577
841.564	16592
841.701	16645
841.838	16523
841.975	16462
842.112	16478
842.249	16481
842.385	16310
842.522	16497
842.659	16455
842.796	16322
842.933	16333
843.069	16257
843.206	16360
843.343	16497
843.479	16398
843.616	16310
843.752	16177
843.889	16196
844.025	16363
844.162	16188
844.298	16204
844.435	16158
844.571	16234
844.708	16238
844.844	16295
844.98	16394
845.117	16306
845.253	16200
845.389	16150
845.525	16207
845.661	16341
845.798	16386
845.934	16550
846.07	16428
846.206	16558
846.342	16493
846.478	16344
846.614	15880
846.75	15865
846.886	15778
847.022	15762
847.158	15762
847.294	15720
847.429	15770
847.565	15637
847.701	15945
847.837	15428
847.972	15488
848.108	15747
848.244	15481
848.379	15389
848.515	15370
848.65	15184
848.786	15370
848.921	15428
849.057	15389
849.192	15435
849.328	15443
849.463	15241
849.598	15241
849.734	15188
849.869	15176
850.004	14990
850.14	15176
850.275	15138
850.41	14899
850.545	15089
850.68	14990
850.815	15085
850.95	15100
851.085	15287
851.22	15169
851.355	15013
851.49	14929
851.625	15013
851.76	15066
851.895	14895
852.03	14925
852.165	15005
852.299	15188
852.434	15184
852.569	15047
852.703	15093
852.838	15176
852.973	15119
853.107	15279
853.242	15055
853.376	14967
853.511	14739
853.645	14857
853.78	14998
853.914	14941
854.048	14929
854.183	14967
854.317	15009
854.451	15104
854.585	14990
854.72	14845
854.854	14979
854.988	14933
855.122	14902
855.256	14826
855.39	14883
855.524	15024
855.658	14941
855.792	14944
855.926	14876
856.06	14960
856.194	15154
856.327	14944
856.461	14891
856.595	14838
856.729	14857
856.862	15131
856.996	15043
857.13	14994
857.263	15017
857.397	15081
857.53	14998
857.664	15036
857.797	15074
857.931	14975
858.064	14967
858.197	15039
858.331	14899
858.464	15028
858.597	14914
858.731	15009
858.864	14883
858.997	14872
859.13	14998
859.263	14910
859.396	15055
859.529	14925
859.662	14960
859.795	14944
859.928	14952
860.061	15108
860.194	15123
860.327	14982
860.46	14914
860.592	15089
860.725	15070
860.858	15013
860.99	15017
861.123	14838
861.256	14830
861.388	14998
861.521	15584
861.653	14899
861.786	14743
861.918	14765
862.05	14918
862.183	14944
862.315	14937
862.447	14975
862.58	14883
862.712	14758
862.844	14625
862.976	14845
863.108	14731
863.24	15245
863.372	14651
863.504	14762
863.636	14712
863.768	14754
863.9	14773
864.032	14579
864.164	14636
864.296	14724
864.428	14899
864.559	14838
864.691	14804
864.823	14724
864.954	14773
865.086	14716
865.217	14765
865.349	14674
865.48	14758
865.612	14823
865.743	14796
865.875	14773
866.006	14716
866.137	14781
866.269	14667
866.4	14765
866.531	14746
866.662	14621
866.793	14705
866.924	14583
867.055	14625
867.186	14739
867.317	14583
867.448	14617
867.579	14701
867.71	14625
867.841	14667
867.972	14701
868.103	14678
868.233	14739
868.364	14754
868.495	14845
868.625	15051
868.756	15058
868.886	14929
869.017	15032
869.147	15047
869.278	15058
869.408	15055
869.539	15005
869.669	15036
869.799	15074
869.929	15070
870.06	15058
870.19	15264
870.32	15351
870.45	15252
870.58	15279
870.71	15408
870.84	15424
870.97	15340
871.1	15348
871.23	15557
871.36	15504
871.489	15359
871.619	15500
871.749	15606
871.879	15576
872.008	15637
872.138	15553
872.267	15405
872.397	15389
872.526	15325
872.656	15428
872.785	15416
872.915	15507
873.044	15633
873.173	15656
873.303	15572
873.432	15648
873.561	15603
873.69	15606
873.819	15599
873.948	15637
874.077	15591
874.206	15572
874.335	15580
874.464	15709
874.593	15800
874.722	15907
874.851	15846
874.979	15956
875.108	15907
875.237	15873
875.365	15873
875.494	15888
875.623	16040
875.751	15991
875.88	15907
876.008	16044
876.136	16090
876.265	16306
876.393	16428
876.521	16432
876.65	16405
876.778	16409
876.906	16280
877.034	16329
877.162	16375
877.29	16306
877.418	16257
877.546	16318
877.674	16341
877.802	16204
877.93	16409
878.058	16386
878.185	16226
878.313	16337
878.441	16455
878.568	16306
878.696	16272
878.824	16443
878.951	16386
879.079	16649
879.206	16793
879.333	16717
879.461	16565
879.588	16634
879.715	16854
879.842	16843
879.97	16664
880.097	16329
880.224	16337
880.351	16303
880.478	16291
880.605	16246
880.732	16124
880.859	16546
880.986	16272
881.112	16177
881.239	16090
881.366	16010
881.493	15911
881.619	15873
881.746	15903
881.872	15915
881.999	15873
882.125	15888
882.252	15994
882.378	15968
882.505	15987
882.631	15838
882.757	15747
882.883	15789
883.01	15755
883.136	15648
883.262	15488
883.388	15606
883.514	15766
883.64	15774
883.766	15686
883.892	15599
884.018	15542
884.143	15698
884.269	15793
884.395	15431
884.52	15344
884.646	15530
884.772	15393
884.897	15249
885.023	15447
885.148	15492
885.274	15473
885.399	15492
885.524	15363
885.65	15382
885.775	15393
885.9	15374
886.025	15500
886.15	15431
886.275	15370
886.4	15287
886.525	15386
886.65	15310
886.775	15279
886.9	15443
887.025	15606
887.149	15359
887.274	15233
887.399	15138
887.523	15195
887.648	15131
887.773	15051
887.897	15249
888.021	15268
888.146	15249
888.27	15294
888.395	15211
888.519	15199
888.643	15176
888.767	15184
888.891	15100
889.015	14914
889.139	15119
889.263	14883
889.387	15131
889.511	15218
889.635	15165
889.759	15020
889.883	14990
890.006	15043
890.13	15214
890.254	14975
890.377	14960
890.501	14826
890.624	14864
890.748	14921
890.871	14788
890.995	14712
891.118	14621
891.241	14590
891.364	14720
891.488	14811
891.611	14765
891.734	14602
891.857	14792
891.98	14678
892.103	14902
892.226	14712
892.349	14587
892.471	14587
892.594	14731
892.717	14667
892.839	14670
892.962	14758
893.085	14826
893.207	14716
893.33	14571
893.452	14583
893.575	14765
893.697	14602
893.819	14986
893.941	14914
894.064	14834
894.186	14606
894.308	14636
894.43	14819
894.552	14921
894.674	14823
894.796	14575
894.918	14670
895.04	14727
895.161	14845
895.283	14834
895.405	14682
895.526	14769
895.648	14765
895.769	14785
895.891	14811
896.012	14834
896.134	14941
896.255	14819
896.376	14750
896.498	14880
896.619	14891
896.74	14891
896.861	14842
896.982	15207
897.103	15218
897.224	15211
897.345	14998
897.466	15058
897.587	15157
897.708	15249
897.828	15043
897.949	15070
898.07	15028
898.19	15017
898.311	15203
898.431	15142
898.552	15195
898.672	15214
898.792	15279
898.913	15279
899.033	15104
899.153	14910
899.273	15005
899.393	15081
899.513	15085
899.633	14986
899.753	15085
899.873	14910
899.993	15028
900.113	14963
900.232	15199
900.352	14952
900.472	14910
900.591	14887
900.711	14880
900.83	14746
900.95	14910
901.069	14994
901.189	14815
901.308	14564
901.427	14526
901.546	14571
901.665	14564
901.784	14495
901.904	14457
902.023	14351
902.141	14195
902.26	14111
902.379	14130
902.498	14073
902.617	14134
902.735	14161
902.854	14119
902.973	13997
903.091	13753
903.21	13818
903.328	13822
903.446	13723
903.565	13681
903.683	13746
903.801	13533
903.919	13662
904.038	13605
904.156	13468
904.274	13563
904.392	13445
904.51	13438
904.627	13468
904.745	13411
904.863	13552
904.981	13240
905.098	13141
905.216	13137
905.334	13251
905.451	13152
905.569	13202
905.686	13251
905.803	13031
905.921	12989
906.038	13019
906.155	12977
906.272	12878
906.389	12840
906.506	12821
906.623	12829
906.74	12707
906.857	12582
906.974	12665
907.091	12833
907.208	12935
907.324	12825
907.441	12673
907.557	12460
907.674	12414
907.79	12422
907.907	12445
908.023	12521
908.139	12380
908.256	12350
908.372	12471
908.488	12399
908.604	12300
908.72	12213
908.836	12266
908.952	12182
909.068	12353
909.184	12334
909.3	12262
909.415	12194
909.531	12296
909.647	12068
909.762	12007
909.878	11961
909.993	12011
910.108	11931
910.224	11980
910.339	12060
910.454	11927
910.57	11832
910.685	11764
910.8	12030
910.915	11942
911.03	11805
911.145	11691
911.259	11707
911.374	11710
911.489	11570
911.604	11589
911.718	11474
911.833	11524
911.947	11376
912.062	11258
912.176	11482
912.291	11395
912.405	11471
912.519	11668
912.633	11611
912.748	11516
912.862	11345
912.976	11414
913.09	11246
913.204	11299
913.318	11353
913.431	11395
913.545	11341
913.659	11421
913.772	11341
913.886	11162
914	11201
914.113	11326
914.226	11326
914.34	11273
914.453	11094
914.566	11292
914.68	11121
914.793	11037
914.906	10858
915.019	10961
915.132	10843
915.245	10915
915.358	10991
915.47	10900
915.583	10930
915.696	11037
915.809	11014
915.921	11090
916.034	10873
916.146	10858
916.259	10835
916.371	10999
916.483	10896
916.595	10896
916.708	10843
916.82	10786
916.932	10816
917.044	10831
917.156	10786
917.268	10702
917.38	10721
917.491	10752
917.603	10706
917.715	10839
917.826	10744
917.938	10702
918.049	10653
918.161	10801
918.272	10782
918.384	10835
918.495	10740
918.606	10599
918.717	10546
918.828	10714
918.939	10645
919.05	10447
919.161	10603
919.272	10394
919.383	10459
919.494	10630
919.604	10904
919.715	10584
919.826	10550
919.936	10546
920.047	10630
920.157	10675
920.267	10873
920.378	10660
920.488	10584
920.598	10748
920.708	10934
920.818	10790
920.928	10790
921.038	10904
921.148	10900
921.258	10645
921.368	10512
921.477	10462
921.587	10413
921.697	10295
921.806	10436
921.916	10360
922.025	10147
922.134	10093
922.244	10120
922.353	10249
922.462	10082
922.571	10017
922.68	9865
922.789	9800
922.898	9823
923.007	9797
923.116	9869
923.224	9842
923.333	9854
923.442	9736
923.55	9743
923.659	9774
923.767	9812
923.876	9679
923.984	9800
924.092	9675
924.201	9720
924.309	9663
924.417	9637
924.525	9682
924.633	9682
924.741	10538
924.849	9447
924.956	9644
925.064	9450
925.172	9481
925.279	9511
925.387	9447
925.494	9462
925.602	9622
925.709	9526
925.816	9382
925.924	9488
926.031	9561
926.138	9473
926.245	9568
926.352	9389
926.459	9557
926.566	9439
926.673	9443
926.779	9370
926.886	9310
926.993	9195
927.099	9157
927.206	9169
927.312	9089
927.419	9233
927.525	9245
927.631	9298
927.737	9123
927.843	9024
927.95	8998
928.056	9108
928.162	9051
928.267	9112
928.373	9778
928.479	9207
928.585	8929
928.69	9097
928.796	9123
928.901	8986
929.007	8914
929.112	9070
929.218	9001
929.323	8941
929.428	8899
929.533	9043
929.638	8838
929.743	8902
929.848	8941
929.953	8883
930.058	8769
930.163	8667
930.267	8617
930.372	8758
930.477	8651
930.581	8921
930.685	8697
930.79	8610
930.894	8663
930.998	8629
931.103	8750
931.207	8396
931.311	8400
931.415	8317
931.519	8065
931.623	8096
