Data from test_V78500241_3609.txt Node
Date: Fri Mar 25 14:58:50 CST 2022
User: usil
Spectrometer: V785-0024
Trigger mode: 0
Integration Time (sec): 4.000000E-1
Scans to average: 1
Nonlinearity correction enabled: false
Boxcar width: 0
Storing dark spectrum: false
XAxis mode: Wavelengths
Number of Pixels in Spectrum: 1024
>>>>>Begin Spectral Data<<<<<
801.071	21808
801.214	21835
801.356	21553
801.499	21488
801.641	21298
801.783	21173
801.926	21332
802.068	21363
802.211	21222
802.353	21058
802.496	20849
802.638	20724
802.78	20750
802.923	20594
803.065	20507
803.208	20590
803.35	20598
803.492	20583
803.635	20777
803.777	20549
803.919	20602
804.061	20876
804.204	20655
804.346	20743
804.488	20507
804.63	20564
804.773	20495
804.915	20579
805.057	20602
805.199	20427
805.341	20632
805.483	20651
805.626	20598
805.768	20434
805.91	20465
806.052	20552
806.194	20423
806.336	20613
806.478	20522
806.62	20343
806.762	20514
806.904	20777
807.046	20941
807.188	20796
807.33	20754
807.472	20956
807.614	20804
807.756	20651
807.898	20648
808.04	20533
808.182	20503
808.324	20556
808.465	20564
808.607	20731
808.749	20785
808.891	20986
809.033	21066
809.174	21017
809.316	20769
809.458	20842
809.6	20845
809.741	20796
809.883	20937
810.025	21058
810.166	20967
810.308	21127
810.45	20933
810.591	20765
810.733	20743
810.875	20651
811.016	20438
811.158	20488
811.299	20537
811.441	20743
811.582	20826
811.724	20602
811.865	20579
812.007	20488
812.148	20560
812.29	20674
812.431	20765
812.573	20845
812.714	20967
812.855	21108
812.997	21116
813.138	21351
813.279	21237
813.421	21119
813.562	20990
813.703	20845
813.845	20670
813.986	20374
814.127	20305
814.268	20248
814.41	20206
814.551	20157
814.692	20134
814.833	20191
814.974	20043
815.115	20035
815.256	20046
815.397	19936
815.539	20088
815.68	20043
815.821	19864
815.962	20020
816.103	19830
816.244	19799
816.385	19544
816.526	19609
816.666	19403
816.807	19232
816.948	19400
817.089	19282
817.23	19358
817.371	19255
817.512	19266
817.653	19331
817.793	19217
817.934	19236
818.075	19190
818.216	19228
818.356	19301
818.497	19152
818.638	19023
818.778	18977
818.919	18909
819.06	18993
819.2	19042
819.341	19137
819.481	19050
819.622	19320
819.762	19514
819.903	19384
820.043	19411
820.184	19301
820.324	19244
820.465	19266
820.605	19308
820.746	19194
820.886	19129
821.026	19175
821.167	19236
821.307	19396
821.447	19122
821.588	19008
821.728	18920
821.868	18768
822.008	18715
822.149	18711
822.289	18589
822.429	18433
822.569	18285
822.709	18369
822.849	18133
822.99	18106
823.13	18174
823.27	18247
823.41	17935
823.55	17908
823.69	17920
823.83	17984
823.97	17901
824.11	17802
824.25	17684
824.389	17668
824.529	17764
824.669	17718
824.809	17821
824.949	17920
825.089	17760
825.228	17726
825.368	17604
825.508	17611
825.648	17474
825.787	17657
825.927	17539
826.067	17509
826.206	17505
826.346	17429
826.485	17535
826.625	17474
826.765	17615
826.904	17668
827.044	17406
827.183	17273
827.323	17216
827.462	17307
827.601	17212
827.741	17235
827.88	17269
828.02	17117
828.159	17113
828.298	17254
828.437	17231
828.577	17200
828.716	17303
828.855	17231
828.994	17102
829.134	16927
829.273	16965
829.412	16995
829.551	16904
829.69	16942
829.829	17003
829.968	17109
830.107	17041
830.246	17010
830.385	16892
830.524	16900
830.663	16816
830.802	16725
830.941	16603
831.08	16668
831.219	16660
831.357	16740
831.496	16755
831.635	16615
831.774	16436
831.913	16523
832.051	16405
832.19	16474
832.329	16546
832.467	16314
832.606	16272
832.744	16223
832.883	16291
833.022	16318
833.16	16242
833.299	16253
833.437	16344
833.576	16386
833.714	16295
833.852	16421
833.991	16322
834.129	16516
834.267	16394
834.406	16303
834.544	16443
834.682	16318
834.821	16363
834.959	16592
835.097	16325
835.235	16485
835.373	16390
835.511	16451
835.65	16272
835.788	16299
835.926	16192
836.064	15975
836.202	16135
836.34	16287
836.478	16436
836.615	16223
836.753	16265
836.891	16390
837.029	16382
837.167	16318
837.305	16181
837.443	16246
837.58	16086
837.718	16344
837.856	16204
837.993	15998
838.131	16105
838.269	16093
838.406	16086
838.544	16044
838.681	15819
838.819	15915
838.956	15656
839.094	15648
839.231	15747
839.369	15960
839.506	16059
839.643	15869
839.781	15774
839.918	15705
840.055	15720
840.193	15747
840.33	15675
840.467	15739
840.604	15652
840.742	15934
840.879	15564
841.016	15698
841.153	15625
841.29	15743
841.427	15751
841.564	15751
841.701	15785
841.838	15717
841.975	15625
842.112	15701
842.249	15515
842.385	15481
842.522	15595
842.659	15603
842.796	15378
842.933	15488
843.069	15443
843.206	15485
843.343	15538
843.479	15431
843.616	15644
843.752	15302
843.889	15332
844.025	15466
844.162	15283
844.298	15412
844.435	15279
844.571	15214
844.708	15230
844.844	15424
844.98	15523
845.117	15439
845.253	15207
845.389	15169
845.525	15272
845.661	15085
845.798	15085
845.934	15123
846.07	15093
846.206	15150
846.342	15192
846.478	15157
846.614	14876
846.75	14777
846.886	14781
847.022	14956
847.158	14918
847.294	14925
847.429	14849
847.565	14861
847.701	15024
847.837	14533
847.972	14488
848.108	14712
848.244	14697
848.379	14503
848.515	14492
848.65	14434
848.786	14427
848.921	14465
849.057	14648
849.192	14545
849.328	14442
849.463	14438
849.598	14457
849.734	14393
849.869	14278
850.004	14202
850.14	14404
850.275	14278
850.41	14183
850.545	14168
850.68	14248
850.815	14317
850.95	14237
851.085	14374
851.22	14400
851.355	14202
851.49	14191
851.625	14259
851.76	14263
851.895	14092
852.03	14058
852.165	14130
852.299	14324
852.434	14248
852.569	14286
852.703	14336
852.838	14286
852.973	14374
853.107	14286
853.242	14176
853.376	14107
853.511	13959
853.645	14062
853.78	14206
853.914	14103
854.048	13970
854.183	14096
854.317	14081
854.451	14256
854.585	14077
854.72	14024
854.854	14214
854.988	13993
855.122	13997
855.256	14024
855.39	14107
855.524	14149
855.658	14210
855.792	14081
855.926	14115
856.06	14229
856.194	14244
856.327	14096
856.461	13970
856.595	13982
856.729	13982
856.862	14218
856.996	14176
857.13	14229
857.263	14221
857.397	14233
857.53	14046
857.664	14180
857.797	14229
857.931	14176
858.064	14096
858.197	14149
858.331	14088
858.464	14069
858.597	13951
858.731	13974
858.864	14065
858.997	14103
859.13	14142
859.263	14229
859.396	14119
859.529	14039
859.662	14168
859.795	14027
859.928	14187
860.061	14313
860.194	14309
860.327	14153
860.46	14046
860.592	14259
860.725	14221
860.858	14183
860.99	14103
861.123	13989
861.256	14077
861.388	14130
861.521	14944
861.653	13986
861.786	14001
861.918	13989
862.05	14027
862.183	14149
862.315	14107
862.447	14138
862.58	13989
862.712	13803
862.844	13750
862.976	13856
863.108	13902
863.24	14267
863.372	13814
863.504	13902
863.636	13887
863.768	13951
863.9	13871
864.032	13807
864.164	13769
864.296	13868
864.428	14103
864.559	14020
864.691	13993
864.823	13936
864.954	13807
865.086	13906
865.217	13890
865.349	13757
865.48	13921
865.612	13860
865.743	13974
865.875	13898
866.006	13769
866.137	13860
866.269	13879
866.4	13887
866.531	13757
866.662	13677
866.793	13753
866.924	13883
867.055	13807
867.186	13955
867.317	13887
867.448	13875
867.579	13833
867.71	13719
867.841	13757
867.972	13913
868.103	13826
868.233	13890
868.364	13940
868.495	13978
868.625	14119
868.756	14221
868.886	14024
869.017	14065
869.147	14229
869.278	14282
869.408	14119
869.539	14096
869.669	14248
869.799	14142
869.929	14164
870.06	14218
870.19	14438
870.32	14400
870.45	14404
870.58	14488
870.71	14663
870.84	14613
870.97	14488
871.1	14442
871.23	14743
871.36	14785
871.489	14632
871.619	14682
871.749	14701
871.879	14807
872.008	14834
872.138	14762
872.267	14651
872.397	14522
872.526	14484
872.656	14514
872.785	14602
872.915	14781
873.044	14823
873.173	14689
873.303	14781
873.432	14788
873.561	14826
873.69	14746
873.819	14697
873.948	14811
874.077	14876
874.206	14796
874.335	14823
874.464	14929
874.593	15013
874.722	15123
874.851	15074
874.979	15077
875.108	15207
875.237	14990
875.365	15070
875.494	15100
875.623	15154
875.751	15051
875.88	15180
876.008	15264
876.136	15214
876.265	15504
876.393	15530
876.521	15564
876.65	15622
876.778	15507
876.906	15526
877.034	15424
877.162	15530
877.29	15401
877.418	15542
877.546	15515
877.674	15523
877.802	15542
877.93	15473
878.058	15496
878.185	15401
878.313	15576
878.441	15580
878.568	15405
878.696	15439
878.824	15538
878.951	15610
879.079	15732
879.206	15888
879.333	15732
879.461	15500
879.588	15584
879.715	15739
879.842	15717
879.97	15553
880.097	15260
880.224	15412
880.351	15435
880.478	15351
880.605	15233
880.732	15351
880.859	15652
880.986	15408
881.112	15473
881.239	15329
881.366	15203
881.493	15161
881.619	15074
881.746	14941
881.872	15036
881.999	15085
882.125	15020
882.252	15017
882.378	15020
882.505	15161
882.631	14967
882.757	14853
882.883	14914
883.01	14804
883.136	14750
883.262	14640
883.388	14629
883.514	14826
883.64	14834
883.766	14876
883.892	14644
884.018	14765
884.143	14800
884.269	14902
884.395	14674
884.52	14602
884.646	14503
884.772	14457
884.897	14476
885.023	14541
885.148	14594
885.274	14769
885.399	14644
885.524	14488
885.65	14564
885.775	14556
885.9	14537
886.025	14708
886.15	14606
886.275	14454
886.4	14514
886.525	14545
886.65	14457
886.775	14499
886.9	14610
887.025	14800
887.149	14560
887.274	14358
887.399	14324
887.523	14290
887.648	14267
887.773	14244
887.897	14434
888.021	14442
888.146	14366
888.27	14461
888.395	14533
888.519	14412
888.643	14461
888.767	14446
888.891	14320
889.015	14267
889.139	14278
889.263	14309
889.387	14320
889.511	14408
889.635	14473
889.759	14252
889.883	14233
890.006	14309
890.13	14446
890.254	14183
890.377	14210
890.501	14096
890.624	14012
890.748	14126
890.871	14024
890.995	13944
891.118	13868
891.241	13967
891.364	13921
891.488	13955
891.611	13928
891.734	14005
891.857	13967
891.98	13986
892.103	14008
892.226	13925
892.349	13951
892.471	13818
892.594	13822
892.717	13936
892.839	13864
892.962	13940
893.085	14039
893.207	13944
893.33	13814
893.452	13898
893.575	13963
893.697	14050
893.819	14195
893.941	14195
894.064	14115
894.186	13982
894.308	13967
894.43	14111
894.552	14138
894.674	14084
894.796	13986
894.918	14020
895.04	14027
895.161	14130
895.283	14168
895.405	14012
895.526	14107
895.648	14054
895.769	14092
895.891	14081
896.012	14138
896.134	14187
896.255	14107
896.376	13993
896.498	14103
896.619	14206
896.74	14081
896.861	14218
896.982	14438
897.103	14632
897.224	14492
897.345	14415
897.466	14267
897.587	14377
897.708	14541
897.828	14404
897.949	14381
898.07	14298
898.19	14427
898.311	14488
898.431	14328
898.552	14476
898.672	14617
898.792	14541
898.913	14541
899.033	14522
899.153	14328
899.273	14214
899.393	14332
899.513	14343
899.633	14389
899.753	14393
899.873	14313
899.993	14366
900.113	14229
900.232	14377
900.352	14248
900.472	14240
900.591	14164
900.711	14332
900.83	14115
900.95	14400
901.069	14313
901.189	14111
901.308	13898
901.427	13822
901.546	13890
901.665	13830
901.784	13894
901.904	13715
902.023	13708
902.141	13453
902.26	13346
902.379	13476
902.498	13449
902.617	13335
902.735	13495
902.854	13499
902.973	13388
903.091	13198
903.21	13183
903.328	13156
903.446	13118
903.565	13099
903.683	13008
903.801	12958
903.919	13027
904.038	12973
904.156	12875
904.274	12928
904.392	12806
904.51	12810
904.627	12890
904.745	12909
904.863	12871
904.981	12582
905.098	12563
905.216	12426
905.334	12566
905.451	12521
905.569	12426
905.686	12612
905.803	12540
905.921	12365
906.038	12486
906.155	12391
906.272	12243
906.389	12262
906.506	12159
906.623	12182
906.74	12068
906.857	12060
906.974	11999
907.091	12235
907.208	12327
907.324	12201
907.441	12034
907.557	11889
907.674	11775
907.79	11798
907.907	11824
908.023	11904
908.139	11855
908.256	11771
908.372	11813
908.488	11703
908.604	11661
908.72	11600
908.836	11649
908.952	11619
909.068	11657
909.184	11733
909.3	11592
909.415	11756
909.531	11619
909.647	11395
909.762	11349
909.878	11307
909.993	11353
910.108	11467
910.224	11341
910.339	11425
910.454	11330
910.57	11227
910.685	11178
910.8	11459
910.915	11383
911.03	11223
911.145	11124
911.259	11067
911.374	11102
911.489	11041
911.604	11052
911.718	10797
911.833	10900
911.947	10828
912.062	10637
912.176	10805
912.291	10828
912.405	10869
912.519	10984
912.633	11060
912.748	10904
912.862	10889
912.976	10710
913.09	10729
913.204	10691
913.318	10759
913.431	10854
913.545	10793
913.659	10869
913.772	10812
913.886	10580
914	10592
914.113	10736
914.226	10752
914.34	10790
914.453	10561
914.566	10706
914.68	10592
914.793	10519
914.906	10428
915.019	10352
915.132	10314
915.245	10363
915.358	10405
915.47	10424
915.583	10386
915.696	10485
915.809	10481
915.921	10580
916.034	10436
916.146	10299
916.259	10314
916.371	10440
916.483	10428
916.595	10261
916.708	10329
916.82	10344
916.932	10306
917.044	10287
917.156	10215
917.268	10192
917.38	10181
917.491	10188
917.603	10287
917.715	10314
917.826	10409
917.938	10188
918.049	10112
918.161	10215
918.272	10398
918.384	10284
918.495	10299
918.606	10097
918.717	10032
918.828	10124
918.939	10131
919.05	9941
919.161	10093
919.272	9892
919.383	9972
919.494	10112
919.604	10322
919.715	10169
919.826	10090
919.936	10090
920.047	10101
920.157	10139
920.267	10295
920.378	10105
920.488	10124
920.598	10322
920.708	10382
920.818	10318
920.928	10291
921.038	10470
921.148	10417
921.258	10162
921.368	10040
921.477	9915
921.587	9979
921.697	9876
921.806	9975
921.916	9869
922.025	9804
922.134	9622
922.244	9656
922.353	9701
922.462	9561
922.571	9488
922.68	9386
922.789	9386
922.898	9401
923.007	9374
923.116	9447
923.224	9340
923.333	9370
923.442	9226
923.55	9264
923.659	9283
923.767	9367
923.876	9150
923.984	9310
924.092	9135
924.201	9241
924.309	9249
924.417	9287
924.525	9233
924.633	9241
924.741	9934
924.849	9047
924.956	9203
925.064	9108
925.172	8952
925.279	8944
925.387	9058
925.494	9001
925.602	9161
925.709	9112
925.816	8986
925.924	9066
926.031	9085
926.138	9062
926.245	9097
926.352	8941
926.459	9116
926.566	9108
926.673	9005
926.779	8880
926.886	8895
926.993	8697
927.099	8743
927.206	8670
927.312	8667
927.419	8838
927.525	8701
927.631	8887
927.737	8686
927.843	8651
927.95	8530
928.056	8587
928.162	8621
928.267	8769
928.373	9199
928.479	8811
928.585	8507
928.69	8617
928.796	8678
928.901	8568
929.007	8457
929.112	8610
929.218	8560
929.323	8476
929.428	8423
929.533	8617
929.638	8385
929.743	8457
929.848	8495
929.953	8488
930.058	8336
930.163	8168
930.267	8301
930.372	8351
930.477	8199
930.581	8423
930.685	8301
930.79	8161
930.894	8187
930.998	8183
931.103	8339
931.207	7982
931.311	7970
931.415	7856
931.519	7696
931.623	7784
