Data from test_V78500241_1363.txt Node
Date: Fri Mar 25 14:43:12 CST 2022
User: usil
Spectrometer: V785-0024
Trigger mode: 0
Integration Time (sec): 4.000000E-1
Scans to average: 1
Nonlinearity correction enabled: false
Boxcar width: 0
Storing dark spectrum: false
XAxis mode: Wavelengths
Number of Pixels in Spectrum: 1024
>>>>>Begin Spectral Data<<<<<
801.071	22466
801.214	22295
801.356	22017
801.499	21880
801.641	21785
801.783	21705
801.926	21835
802.068	21663
802.211	21728
802.353	21610
802.496	21416
802.638	21226
802.78	21195
802.923	21123
803.065	21123
803.208	21074
803.35	21089
803.492	21268
803.635	21252
803.777	21047
803.919	21306
804.061	21473
804.204	21203
804.346	21020
804.488	20956
804.63	21089
804.773	21005
804.915	21051
805.057	21169
805.199	21043
805.341	21123
805.483	21199
805.626	21119
805.768	20952
805.91	21039
806.052	21062
806.194	20899
806.336	21256
806.478	21047
806.62	20979
806.762	21127
806.904	21302
807.046	21447
807.188	21469
807.33	21412
807.472	21481
807.614	21317
807.756	21389
807.898	21184
808.04	21180
808.182	21306
808.324	21161
808.465	21363
808.607	21595
808.749	21587
808.891	21827
809.033	21892
809.174	21823
809.316	21625
809.458	21644
809.6	21530
809.741	21568
809.883	21656
810.025	21774
810.166	21770
810.308	21759
810.45	21561
810.591	21526
810.733	21351
810.875	21211
811.016	21180
811.158	21077
811.299	21374
811.441	21443
811.582	21340
811.724	21332
811.865	21218
812.007	21283
812.148	21226
812.29	21279
812.431	21405
812.573	21568
812.714	21561
812.855	21701
812.997	21781
813.138	21953
813.279	21930
813.421	21816
813.562	21747
813.703	21576
813.845	21355
813.986	21226
814.127	20948
814.268	20891
814.41	20834
814.551	20765
814.692	20868
814.833	20701
814.974	20788
815.115	20769
815.256	20636
815.397	20625
815.539	20655
815.68	20511
815.821	20419
815.962	20636
816.103	20522
816.244	20396
816.385	20339
816.526	20286
816.666	20122
816.807	19887
816.948	19913
817.089	19974
817.23	19959
817.371	20005
817.512	19856
817.653	20008
817.793	19955
817.934	20008
818.075	19940
818.216	20024
818.356	19974
818.497	19879
818.638	19632
818.778	19681
818.919	19670
819.06	19738
819.2	19780
819.341	19795
819.481	19715
819.622	20035
819.762	20126
819.903	20039
820.043	20027
820.184	19928
820.324	19917
820.465	20115
820.605	19947
820.746	19902
820.886	19734
821.026	19849
821.167	19944
821.307	20107
821.447	19807
821.588	19814
821.728	19575
821.868	19521
822.008	19316
822.149	19403
822.289	19270
822.429	19145
822.569	18932
822.709	18897
822.849	18863
822.99	18817
823.13	18833
823.27	18665
823.41	18593
823.55	18563
823.69	18639
823.83	18661
823.97	18513
824.11	18391
824.25	18266
824.389	18410
824.529	18433
824.669	18464
824.809	18490
824.949	18521
825.089	18471
825.228	18353
825.368	18361
825.508	18155
825.648	18228
825.787	18285
825.927	18285
826.067	18064
826.206	18220
826.346	18194
826.485	18148
826.625	18216
826.765	18361
826.904	18224
827.044	17965
827.183	18026
827.323	17798
827.462	17946
827.601	17935
827.741	17843
827.88	17908
828.02	17714
828.159	17866
828.298	17939
828.437	17836
828.577	17882
828.716	17999
828.855	17695
828.994	17733
829.134	17703
829.273	17733
829.412	17577
829.551	17482
829.69	17699
829.829	17642
829.968	17775
830.107	17570
830.246	17649
830.385	17630
830.524	17562
830.663	17493
830.802	17372
830.941	17277
831.08	17258
831.219	17330
831.357	17261
831.496	17425
831.635	17284
831.774	17098
831.913	17151
832.051	16976
832.19	16957
832.329	16965
832.467	16881
832.606	16946
832.744	16809
832.883	16831
833.022	16972
833.16	16987
833.299	17083
833.437	16934
833.576	16987
833.714	17006
833.852	17014
833.991	16961
834.129	17113
834.267	17067
834.406	17079
834.544	17113
834.682	16987
834.821	17014
834.959	17162
835.097	16991
835.235	17109
835.373	16976
835.511	17064
835.65	16900
835.788	16911
835.926	16729
836.064	16755
836.202	16687
836.34	16843
836.478	17003
836.615	16793
836.753	16904
836.891	16972
837.029	16885
837.167	16835
837.305	16839
837.443	16816
837.58	16752
837.718	16778
837.856	16736
837.993	16748
838.131	16767
838.269	16626
838.406	16645
838.544	16569
838.681	16455
838.819	16375
838.956	16303
839.094	16405
839.231	16314
839.369	16466
839.506	16679
839.643	16542
839.781	16276
839.918	16249
840.055	16413
840.193	16253
840.33	16284
840.467	16390
840.604	16367
840.742	16508
840.879	16147
841.016	16173
841.153	16226
841.29	16462
841.427	16348
841.564	16219
841.701	16287
841.838	16287
841.975	16219
842.112	16306
842.249	16166
842.385	16120
842.522	16306
842.659	16086
842.796	16032
842.933	16093
843.069	16071
843.206	16063
843.343	16116
843.479	16120
843.616	16109
843.752	15922
843.889	15812
844.025	15972
844.162	15846
844.298	15842
844.435	15831
844.571	15778
844.708	15975
844.844	16025
844.98	16029
845.117	15915
845.253	15846
845.389	15827
845.525	15800
845.661	16021
845.798	15895
845.934	15949
846.07	15907
846.206	16036
846.342	15979
846.478	15816
846.614	15576
846.75	15401
846.886	15477
847.022	15587
847.158	15519
847.294	15450
847.429	15454
847.565	15454
847.701	15629
847.837	15165
847.972	15195
848.108	15199
848.244	15222
848.379	15112
848.515	14979
848.65	15032
848.786	15001
848.921	15089
849.057	15074
849.192	15195
849.328	15028
849.463	15055
849.598	14933
849.734	14914
849.869	14849
850.004	14864
850.14	14785
850.275	14830
850.41	14670
850.545	14819
850.68	14746
850.815	14769
850.95	14769
851.085	15017
851.22	14891
851.355	14819
851.49	14796
851.625	14701
851.76	14788
851.895	14640
852.03	14625
852.165	14735
852.299	14864
852.434	14834
852.569	14861
852.703	14724
852.838	14785
852.973	14853
853.107	15043
853.242	14731
853.376	14686
853.511	14602
853.645	14659
853.78	14754
853.914	14689
854.048	14594
854.183	14636
854.317	14602
854.451	14845
854.585	14678
854.72	14632
854.854	14804
854.988	14522
855.122	14613
855.256	14473
855.39	14610
855.524	14648
855.658	14571
855.792	14712
855.926	14651
856.06	14712
856.194	14731
856.327	14617
856.461	14518
856.595	14549
856.729	14617
856.862	14743
856.996	14674
857.13	14667
857.263	14792
857.397	14777
857.53	14625
857.664	14655
857.797	14758
857.931	14777
858.064	14621
858.197	14830
858.331	14648
858.464	14579
858.597	14564
858.731	14617
858.864	14575
858.997	14640
859.13	14693
859.263	14625
859.396	14674
859.529	14731
859.662	14560
859.795	14579
859.928	14568
860.061	14853
860.194	14765
860.327	14727
860.46	14552
860.592	14701
860.725	14750
860.858	14826
860.99	14655
861.123	14590
861.256	14568
861.388	14682
861.521	15374
861.653	14594
861.786	14545
861.918	14442
862.05	14514
862.183	14537
862.315	14644
862.447	14670
862.58	14579
862.712	14404
862.844	14358
862.976	14442
863.108	14488
863.24	14853
863.372	14278
863.504	14400
863.636	14427
863.768	14457
863.9	14518
864.032	14298
864.164	14427
864.296	14431
864.428	14552
864.559	14526
864.691	14530
864.823	14461
864.954	14488
865.086	14537
865.217	14484
865.349	14252
865.48	14404
865.612	14415
865.743	14533
865.875	14412
866.006	14294
866.137	14480
866.269	14358
866.4	14408
866.531	14336
866.662	14355
866.793	14442
866.924	14381
867.055	14370
867.186	14393
867.317	14385
867.448	14347
867.579	14320
867.71	14317
867.841	14267
867.972	14374
868.103	14396
868.233	14290
868.364	14377
868.495	14537
868.625	14659
868.756	14708
868.886	14621
869.017	14621
869.147	14739
869.278	14678
869.408	14651
869.539	14632
869.669	14746
869.799	14689
869.929	14811
870.06	14739
870.19	14971
870.32	14990
870.45	15013
870.58	15131
870.71	15195
870.84	15058
870.97	15028
871.1	14986
871.23	15211
871.36	15249
871.489	15108
871.619	15195
871.749	15199
871.879	15108
872.008	15393
872.138	15199
872.267	15302
872.397	15150
872.526	15077
872.656	15180
872.785	15058
872.915	15222
873.044	15294
873.173	15329
873.303	15340
873.432	15389
873.561	15355
873.69	15378
873.819	15287
873.948	15412
874.077	15306
874.206	15291
874.335	15450
874.464	15405
874.593	15633
874.722	15538
874.851	15553
874.979	15584
875.108	15705
875.237	15564
875.365	15458
875.494	15485
875.623	15686
875.751	15663
875.88	15652
876.008	15732
876.136	15793
876.265	16029
876.393	16169
876.521	16082
876.65	16188
876.778	15941
876.906	16059
877.034	15975
877.162	16071
877.29	15994
877.418	16010
877.546	15972
877.674	16002
877.802	15998
877.93	16093
878.058	15930
878.185	15956
878.313	16059
878.441	16036
878.568	15884
878.696	15888
878.824	16032
878.951	16143
879.079	16223
879.206	16523
879.333	16211
879.461	16200
879.588	16257
879.715	16375
879.842	16421
879.97	16185
880.097	15987
880.224	15865
880.351	15979
880.478	15926
880.605	15800
880.732	15831
880.859	16017
880.986	15850
881.112	15884
881.239	15766
881.366	15641
881.493	15553
881.619	15519
881.746	15610
881.872	15462
881.999	15477
882.125	15633
882.252	15709
882.378	15580
882.505	15694
882.631	15500
882.757	15325
882.883	15507
883.01	15401
883.136	15310
883.262	15256
883.388	15176
883.514	15374
883.64	15401
883.766	15165
883.892	15112
884.018	15180
884.143	15317
884.269	15408
884.395	15131
884.52	14998
884.646	15138
884.772	15062
884.897	15036
885.023	15024
885.148	15184
885.274	15256
885.399	15173
885.524	15093
885.65	15112
885.775	15093
885.9	15081
886.025	15203
886.15	15089
886.275	15005
886.4	15020
886.525	15017
886.65	14982
886.775	14948
886.9	15150
887.025	15195
887.149	15123
887.274	14880
887.399	14910
887.523	14826
887.648	14830
887.773	14849
887.897	14902
888.021	14944
888.146	14868
888.27	15009
888.395	15039
888.519	14819
888.643	14986
888.767	14853
888.891	14857
889.015	14708
889.139	14773
889.263	14731
889.387	14796
889.511	14929
889.635	14842
889.759	14754
889.883	14834
890.006	14792
890.13	14925
890.254	14590
890.377	14693
890.501	14590
890.624	14522
890.748	14701
890.871	14450
890.995	14469
891.118	14267
891.241	14408
891.364	14434
891.488	14541
891.611	14415
891.734	14438
891.857	14431
891.98	14446
892.103	14484
892.226	14442
892.349	14408
892.471	14278
892.594	14450
892.717	14438
892.839	14370
892.962	14530
893.085	14469
893.207	14370
893.33	14256
893.452	14317
893.575	14488
893.697	14396
893.819	14594
893.941	14537
894.064	14488
894.186	14400
894.308	14355
894.43	14537
894.552	14575
894.674	14495
894.796	14434
894.918	14427
895.04	14377
895.161	14522
895.283	14480
895.405	14400
895.526	14526
895.648	14549
895.769	14556
895.891	14583
896.012	14655
896.134	14575
896.255	14575
896.376	14492
896.498	14549
896.619	14613
896.74	14568
896.861	14613
896.982	14857
897.103	14982
897.224	14861
897.345	14815
897.466	14678
897.587	14857
897.708	14937
897.828	14887
897.949	14853
898.07	14724
898.19	14758
898.311	15024
898.431	14891
898.552	14910
898.672	15028
898.792	14994
898.913	14906
899.033	14891
899.153	14746
899.273	14754
899.393	14750
899.513	14804
899.633	14830
899.753	14830
899.873	14701
899.993	14743
900.113	14686
900.232	14807
900.352	14792
900.472	14602
900.591	14621
900.711	14663
900.83	14518
900.95	14754
901.069	14720
901.189	14541
901.308	14317
901.427	14206
901.546	14305
901.665	14278
901.784	14343
901.904	14168
902.023	14134
902.141	13875
902.26	13818
902.379	13947
902.498	13871
902.617	13795
902.735	13906
902.854	13890
902.973	13803
903.091	13597
903.21	13609
903.328	13552
903.446	13514
903.565	13400
903.683	13441
903.801	13236
903.919	13438
904.038	13392
904.156	13213
904.274	13278
904.392	13168
904.51	13194
904.627	13164
904.745	13240
904.863	13301
904.981	13057
905.098	12928
905.216	12951
905.334	12909
905.451	12863
905.569	12837
905.686	12939
905.803	13015
905.921	12715
906.038	12814
906.155	12795
906.272	12722
906.389	12692
906.506	12582
906.623	12555
906.74	12506
906.857	12445
906.974	12422
907.091	12658
907.208	12620
907.324	12570
907.441	12342
907.557	12304
907.674	12266
907.79	12144
907.907	12315
908.023	12289
908.139	12323
908.256	12213
908.372	12205
908.488	12163
908.604	12015
908.72	11927
908.836	12034
908.952	12019
909.068	11980
909.184	12159
909.3	12011
909.415	12026
909.531	11965
909.647	11775
909.762	11718
909.878	11729
909.993	11779
910.108	11832
910.224	11676
910.339	11824
910.454	11684
910.57	11585
910.685	11551
910.8	11821
910.915	11798
911.03	11661
911.145	11493
911.259	11471
911.374	11512
911.489	11383
911.604	11436
911.718	11208
911.833	11204
911.947	11117
912.062	11105
912.176	11124
912.291	11178
912.405	11265
912.519	11410
912.633	11421
912.748	11299
912.862	11235
912.976	11105
913.09	10953
913.204	11090
913.318	11014
913.431	11197
913.545	11212
913.659	11292
913.772	11075
913.886	10968
914	11029
914.113	11113
914.226	11094
914.34	11098
914.453	10923
914.566	11010
914.68	10949
914.793	10839
914.906	10755
915.019	10702
915.132	10679
915.245	10710
915.358	10714
915.47	10805
915.583	10729
915.696	10748
915.809	10839
915.921	10854
916.034	10664
916.146	10607
916.259	10588
916.371	10831
916.483	10797
916.595	10664
916.708	10694
916.82	10599
916.932	10615
917.044	10630
917.156	10577
917.268	10523
917.38	10603
917.491	10455
917.603	10599
917.715	10573
917.826	10675
917.938	10538
918.049	10428
918.161	10527
918.272	10668
918.384	10634
918.495	10592
918.606	10443
918.717	10303
918.828	10382
918.939	10485
919.05	10299
919.161	10424
919.272	10204
919.383	10356
919.494	10398
919.604	10516
919.715	10436
919.826	10253
919.936	10402
920.047	10432
920.157	10348
920.267	10653
920.378	10516
920.488	10405
920.598	10561
920.708	10729
920.818	10637
920.928	10577
921.038	10752
921.148	10778
921.258	10432
921.368	10379
921.477	10291
921.587	10246
921.697	10166
921.806	10310
921.916	10196
922.025	9994
922.134	10010
922.244	9895
922.353	9926
922.462	9850
922.571	9800
922.68	9644
922.789	9568
922.898	9667
923.007	9553
923.116	9690
923.224	9675
923.333	9603
923.442	9641
923.55	9466
923.659	9519
923.767	9656
923.876	9469
923.984	9610
924.092	9500
924.201	9534
924.309	9523
924.417	9477
924.525	9530
924.633	9515
924.741	10398
924.849	9348
924.956	9473
925.064	9306
925.172	9237
925.279	9351
925.387	9203
925.494	9287
925.602	9466
925.709	9386
925.816	9256
925.924	9264
926.031	9420
926.138	9393
926.245	9355
926.352	9230
926.459	9283
926.566	9389
926.673	9222
926.779	9165
926.886	9180
926.993	9051
927.099	8979
927.206	8982
927.312	9001
927.419	9032
927.525	9020
927.631	9116
927.737	9013
927.843	8933
927.95	8811
928.056	8929
928.162	8963
928.267	8982
928.373	9580
928.479	8975
928.585	8823
928.69	8960
928.796	8960
928.901	8815
929.007	8720
929.112	8823
929.218	8773
929.323	8716
929.428	8720
929.533	8842
929.638	8617
929.743	8712
929.848	8785
929.953	8674
930.058	8590
930.163	8503
930.267	8518
930.372	8655
930.477	8457
930.581	8716
930.685	8590
930.79	8389
930.894	8438
930.998	8442
931.103	8571
931.207	8275
931.311	8195
931.415	8046
931.519	7921
931.623	7890
