Data from test_V78500241_440.txt Node
Date: Fri Mar 25 14:36:47 CST 2022
User: usil
Spectrometer: V785-0024
Trigger mode: 0
Integration Time (sec): 4.000000E-1
Scans to average: 1
Nonlinearity correction enabled: false
Boxcar width: 0
Storing dark spectrum: false
XAxis mode: Wavelengths
Number of Pixels in Spectrum: 1024
>>>>>Begin Spectral Data<<<<<
801.071	26503
801.214	26415
801.356	26183
801.499	26187
801.641	26088
801.783	25947
801.926	25970
802.068	25913
802.211	25723
802.353	25814
802.496	25662
802.638	25712
802.78	25510
802.923	25537
803.065	25449
803.208	25468
803.35	25479
803.492	25666
803.635	25635
803.777	25537
803.919	25582
804.061	25871
804.204	25700
804.346	25483
804.488	25422
804.63	25499
804.773	25384
804.915	25521
805.057	25685
805.199	25457
805.341	25628
805.483	25655
805.626	25472
805.768	25556
805.91	25639
806.052	25544
806.194	25499
806.336	25700
806.478	25556
806.62	25510
806.762	25537
806.904	25681
807.046	26039
807.188	25947
807.33	25856
807.472	25997
807.614	25852
807.756	25860
807.898	25727
808.04	25708
808.182	25567
808.324	25734
808.465	25723
808.607	25818
808.749	25963
808.891	26050
809.033	26161
809.174	26153
809.316	25917
809.458	26005
809.6	26096
809.741	26084
809.883	26016
810.025	26237
810.166	26081
810.308	26259
810.45	25989
810.591	26043
810.733	25894
810.875	25845
811.016	25772
811.158	25681
811.299	25883
811.441	25963
811.582	25902
811.724	25944
811.865	25734
812.007	25776
812.148	25856
812.29	25966
812.431	25921
812.573	26130
812.714	26107
812.855	26282
812.997	26476
813.138	26617
813.279	26400
813.421	26240
813.562	26381
813.703	26145
813.845	26039
813.986	25727
814.127	25426
814.268	25415
814.41	25381
814.551	25259
814.692	25525
814.833	25301
814.974	25392
815.115	25362
815.256	25137
815.397	25027
815.539	25316
815.68	25217
815.821	25019
815.962	25137
816.103	25069
816.244	24928
816.385	24798
816.526	24894
816.666	24749
816.807	24441
816.948	24665
817.089	24719
817.23	24513
817.371	24483
817.512	24433
817.653	24505
817.793	24486
817.934	24486
818.075	24475
818.216	24502
818.356	24490
818.497	24388
818.638	24239
818.778	24201
818.919	24186
819.06	24277
819.2	24228
819.341	24410
819.481	24403
819.622	24445
819.762	24829
819.903	24722
820.043	24589
820.184	24521
820.324	24479
820.465	24620
820.605	24483
820.746	24490
820.886	24380
821.026	24498
821.167	24445
821.307	24437
821.447	24357
821.588	24216
821.728	24182
821.868	24091
822.008	23767
822.149	23805
822.289	23920
822.429	23512
822.569	23551
822.709	23566
822.849	23326
822.99	23360
823.13	23197
823.27	23417
823.41	23098
823.55	23109
823.69	23166
823.83	23010
823.97	23121
824.11	22778
824.25	22801
824.389	22862
824.529	22946
824.669	22831
824.809	22987
824.949	22995
825.089	23010
825.228	22957
825.368	22653
825.508	22626
825.648	22634
825.787	22694
825.927	22771
826.067	22611
826.206	22645
826.346	22668
826.485	22736
826.625	22698
826.765	22854
826.904	22778
827.044	22409
827.183	22459
827.323	22272
827.462	22344
827.601	22299
827.741	22409
827.88	22272
828.02	22249
828.159	22249
828.298	22185
828.437	22356
828.577	22226
828.716	22363
828.855	22375
828.994	21991
829.134	22017
829.273	22048
829.412	22021
829.551	21953
829.69	22086
829.829	22131
829.968	22055
830.107	21983
830.246	22029
830.385	21972
830.524	21968
830.663	21812
830.802	21766
830.941	21618
831.08	21633
831.219	21618
831.357	21610
831.496	21831
831.635	21667
831.774	21526
831.913	21454
832.051	21298
832.19	21294
832.329	21378
832.467	21302
832.606	21302
832.744	21199
832.883	21249
833.022	21230
833.16	21256
833.299	21287
833.437	21283
833.576	21294
833.714	21302
833.852	21374
833.991	21218
834.129	21405
834.267	21317
834.406	21214
834.544	21275
834.682	21279
834.821	21161
834.959	21359
835.097	21157
835.235	21279
835.373	21279
835.511	21245
835.65	21051
835.788	21237
835.926	20967
836.064	20944
836.202	20971
836.34	21100
836.478	21241
836.615	21176
836.753	21123
836.891	21154
837.029	21127
837.167	21024
837.305	21074
837.443	21039
837.58	20861
837.718	21085
837.856	20921
837.993	20971
838.131	20853
838.269	20853
838.406	20910
838.544	20842
838.681	20670
838.819	20670
838.956	20461
839.094	20545
839.231	20560
839.369	20556
839.506	20853
839.643	20629
839.781	20514
839.918	20514
840.055	20404
840.193	20415
840.33	20362
840.467	20332
840.604	20454
840.742	20568
840.879	20153
841.016	20206
841.153	20252
841.29	20461
841.427	20332
841.564	20374
841.701	20259
841.838	20309
841.975	20187
842.112	20237
842.249	20046
842.385	19986
842.522	20339
842.659	20149
842.796	20039
842.933	20005
843.069	20088
843.206	19955
843.343	20134
843.479	20065
843.616	20107
843.752	19925
843.889	19807
844.025	19997
844.162	19841
844.298	19955
844.435	19772
844.571	19712
844.708	19753
844.844	19913
844.98	19959
845.117	19913
845.253	19849
845.389	19609
845.525	19655
845.661	19795
845.798	19616
845.934	19647
846.07	19624
846.206	19693
846.342	19742
846.478	19533
846.614	19396
846.75	19362
846.886	19278
847.022	19209
847.158	19365
847.294	19350
847.429	19255
847.565	19320
847.701	19559
847.837	18970
847.972	18977
848.108	19114
848.244	19175
848.379	18897
848.515	18871
848.65	18749
848.786	18981
848.921	18810
849.057	18996
849.192	18882
849.328	18863
849.463	18856
849.598	18840
849.734	18776
849.869	18665
850.004	18650
850.14	18559
850.275	18616
850.41	18639
850.545	18525
850.68	18547
850.815	18582
850.95	18582
851.085	18764
851.22	18696
851.355	18574
851.49	18536
851.625	18403
851.76	18498
851.895	18475
852.03	18448
852.165	18509
852.299	18467
852.434	18589
852.569	18589
852.703	18574
852.838	18559
852.973	18684
853.107	18669
853.242	18506
853.376	18300
853.511	18369
853.645	18353
853.78	18570
853.914	18414
854.048	18399
854.183	18445
854.317	18399
854.451	18604
854.585	18399
854.72	18395
854.854	18448
854.988	18426
855.122	18456
855.256	18273
855.39	18342
855.524	18464
855.658	18414
855.792	18410
855.926	18376
856.06	18391
856.194	18570
856.327	18407
856.461	18334
856.595	18296
856.729	18167
856.862	18456
856.996	18426
857.13	18460
857.263	18353
857.397	18410
857.53	18289
857.664	18464
857.797	18395
857.931	18460
858.064	18429
858.197	18372
858.331	18342
858.464	18433
858.597	18350
858.731	18342
858.864	18357
858.997	18258
859.13	18403
859.263	18403
859.396	18555
859.529	18334
859.662	18292
859.795	18350
859.928	18277
860.061	18418
860.194	18570
860.327	18327
860.46	18384
860.592	18376
860.725	18471
860.858	18414
860.99	18296
861.123	18277
861.256	18270
861.388	18277
861.521	19019
861.653	18148
861.786	18224
861.918	18228
862.05	18334
862.183	18311
862.315	18395
862.447	18441
862.58	18342
862.712	18068
862.844	18060
862.976	18273
863.108	18171
863.24	18464
863.372	18045
863.504	18026
863.636	18068
863.768	18117
863.9	17988
864.032	18034
864.164	18049
864.296	18019
864.428	18102
864.559	18136
864.691	18007
864.823	18057
864.954	18125
865.086	18064
865.217	18121
865.349	18034
865.48	18022
865.612	17912
865.743	18038
865.875	18007
866.006	17988
866.137	17980
866.269	17996
866.4	17973
866.531	17946
866.662	17920
866.793	17916
866.924	17920
867.055	17984
867.186	17920
867.317	17870
867.448	17843
867.579	17942
867.71	17904
867.841	17824
867.972	17950
868.103	17912
868.233	17992
868.364	17923
868.495	17988
868.625	18129
868.756	18251
868.886	18064
869.017	18114
869.147	18216
869.278	18243
869.408	18095
869.539	18186
869.669	18270
869.799	18159
869.929	18319
870.06	18308
870.19	18528
870.32	18338
870.45	18525
870.58	18555
870.71	18711
870.84	18681
870.97	18467
871.1	18551
871.23	18642
871.36	18711
871.489	18627
871.619	18696
871.749	18677
871.879	18772
872.008	18795
872.138	18741
872.267	18707
872.397	18566
872.526	18559
872.656	18559
872.785	18646
872.915	18783
873.044	18825
873.173	18677
873.303	18741
873.432	18779
873.561	18856
873.69	18916
873.819	18673
873.948	18829
874.077	18772
874.206	18684
874.335	18806
874.464	18947
874.593	19038
874.722	19080
874.851	19061
874.979	19141
875.108	19114
875.237	18993
875.365	18928
875.494	18973
875.623	19103
875.751	19137
875.88	19107
876.008	19282
876.136	19221
876.265	19480
876.393	19643
876.521	19628
876.65	19521
876.778	19487
876.906	19373
877.034	19388
877.162	19415
877.29	19331
877.418	19445
877.546	19430
877.674	19571
877.802	19430
877.93	19426
878.058	19339
878.185	19362
878.313	19438
878.441	19403
878.568	19232
878.696	19426
878.824	19441
878.951	19578
879.079	19628
879.206	19666
879.333	19666
879.461	19582
879.588	19578
879.715	19651
879.842	19742
879.97	19502
880.097	19255
880.224	19297
880.351	19274
880.478	19263
880.605	19270
880.732	19221
880.859	19586
880.986	19358
881.112	19274
881.239	19133
881.366	19031
881.493	18951
881.619	18928
881.746	18897
881.872	18981
881.999	18840
882.125	18890
882.252	18962
882.378	18882
882.505	19015
882.631	18814
882.757	18642
882.883	18757
883.01	18696
883.136	18642
883.262	18604
883.388	18528
883.514	18661
883.64	18703
883.766	18681
883.892	18509
884.018	18445
884.143	18665
884.269	18585
884.395	18475
884.52	18407
884.646	18273
884.772	18296
884.897	18247
885.023	18403
885.148	18460
885.274	18506
885.399	18357
885.524	18273
885.65	18403
885.775	18391
885.9	18365
886.025	18456
886.15	18361
886.275	18296
886.4	18338
886.525	18224
886.65	18285
886.775	18292
886.9	18433
887.025	18528
887.149	18163
887.274	18228
887.399	17969
887.523	18019
887.648	17980
887.773	18011
887.897	18117
888.021	18110
888.146	18015
888.27	18148
888.395	18205
888.519	18152
888.643	18083
888.767	18201
888.891	17969
889.015	17977
889.139	17946
889.263	17904
889.387	18034
889.511	18091
889.635	17992
889.759	17946
889.883	17901
890.006	18022
890.13	18072
890.254	17843
890.377	17855
890.501	17699
890.624	17756
890.748	17786
890.871	17577
890.995	17505
891.118	17493
891.241	17585
891.364	17520
891.488	17623
891.611	17611
891.734	17532
891.857	17634
891.98	17524
892.103	17615
892.226	17543
892.349	17372
892.471	17299
892.594	17497
892.717	17497
892.839	17474
892.962	17512
893.085	17547
893.207	17455
893.33	17478
893.452	17379
893.575	17566
893.697	17410
893.819	17623
893.941	17543
894.064	17638
894.186	17398
894.308	17303
894.43	17589
894.552	17642
894.674	17547
894.796	17433
894.918	17497
895.04	17421
895.161	17638
895.283	17482
895.405	17474
895.526	17627
895.648	17589
895.769	17524
895.891	17585
896.012	17649
896.134	17703
896.255	17467
896.376	17570
896.498	17604
896.619	17585
896.74	17729
896.861	17718
896.982	17973
897.103	18072
897.224	17923
897.345	17927
897.466	17699
897.587	17824
897.708	17939
897.828	17802
897.949	17760
898.07	17623
898.19	17729
898.311	17851
898.431	17798
898.552	17847
898.672	17893
898.792	17798
898.913	17866
899.033	17668
899.153	17570
899.273	17497
899.393	17524
899.513	17684
899.633	17634
899.753	17524
899.873	17528
899.993	17589
900.113	17566
900.232	17566
900.352	17474
900.472	17482
900.591	17417
900.711	17463
900.83	17452
900.95	17558
901.069	17490
901.189	17265
901.308	17155
901.427	17060
901.546	17033
901.665	17121
901.784	17033
901.904	16949
902.023	16733
902.141	16615
902.26	16615
902.379	16729
902.498	16577
902.617	16508
902.735	16565
902.854	16512
902.973	16550
903.091	16306
903.21	16276
903.328	16322
903.446	16207
903.565	16048
903.683	16135
903.801	16013
903.919	16059
904.038	15991
904.156	15903
904.274	15991
904.392	15941
904.51	15884
904.627	15827
904.745	15968
904.863	15949
904.981	15686
905.098	15511
905.216	15515
905.334	15496
905.451	15458
905.569	15424
905.686	15549
905.803	15580
905.921	15294
906.038	15462
906.155	15370
906.272	15245
906.389	15264
906.506	15131
906.623	15036
906.74	15020
906.857	14975
906.974	14941
907.091	15119
907.208	15226
907.324	15074
907.441	14944
907.557	14781
907.674	14921
907.79	14796
907.907	14781
908.023	14807
908.139	14811
908.256	14697
908.372	14659
908.488	14678
908.604	14545
908.72	14434
908.836	14541
908.952	14431
909.068	14575
909.184	14606
909.3	14495
909.415	14526
909.531	14442
909.647	14248
909.762	14168
909.878	14172
909.993	14332
910.108	14153
910.224	14263
910.339	14199
910.454	14172
910.57	14039
910.685	14130
910.8	14286
910.915	14149
911.03	14039
911.145	13913
911.259	13902
911.374	13841
911.489	13769
911.604	13750
911.718	13636
911.833	13609
911.947	13491
912.062	13434
912.176	13578
912.291	13620
912.405	13559
912.519	13742
912.633	13761
912.748	13609
912.862	13605
912.976	13274
913.09	13274
913.204	13415
913.318	13422
913.431	13567
913.545	13533
913.659	13563
913.772	13388
913.886	13339
914	13301
914.113	13388
914.226	13441
914.34	13324
914.453	13145
914.566	13316
914.68	13225
914.793	13187
914.906	12996
915.019	13012
915.132	12829
915.245	12909
915.358	12958
915.47	13095
915.583	12935
915.696	12993
915.809	13057
915.921	13027
916.034	12920
916.146	12916
916.259	12840
916.371	12913
916.483	12897
916.595	12753
916.708	12753
916.82	12764
916.932	12848
917.044	12745
917.156	12821
917.268	12681
917.38	12620
917.491	12654
917.603	12749
917.715	12730
917.826	12787
917.938	12654
918.049	12578
918.161	12730
918.272	12783
918.384	12719
918.495	12642
918.606	12483
918.717	12437
918.828	12528
918.939	12547
919.05	12441
919.161	12452
919.272	12167
919.383	12327
919.494	12525
919.604	12684
919.715	12441
919.826	12369
919.936	12506
920.047	12551
920.157	12452
920.267	12601
920.378	12498
920.488	12490
920.598	12635
920.708	12802
920.818	12620
920.928	12559
921.038	12833
921.148	12779
921.258	12422
921.368	12315
921.477	12262
921.587	12277
921.697	12026
921.806	12258
921.916	12053
922.025	12049
922.134	11824
922.244	11870
922.353	11958
922.462	11771
922.571	11729
922.68	11547
922.789	11490
922.898	11611
923.007	11493
923.116	11566
923.224	11539
923.333	11505
923.442	11436
923.55	11337
923.659	11376
923.767	11471
923.876	11356
923.984	11482
924.092	11299
924.201	11269
924.309	11364
924.417	11376
924.525	11292
924.633	11299
924.741	12262
924.849	11102
924.956	11250
925.064	11132
925.172	11045
925.279	11010
925.387	11174
925.494	11056
925.602	11223
925.709	11136
925.816	10987
925.924	11166
926.031	11128
926.138	11121
926.245	11006
926.352	10934
926.459	11102
926.566	11143
926.673	11052
926.779	10892
926.886	10900
926.993	10755
927.099	10744
927.206	10622
927.312	10668
927.419	10774
927.525	10653
927.631	10816
927.737	10584
927.843	10569
927.95	10531
928.056	10440
928.162	10573
928.267	10611
928.373	11235
928.479	10706
928.585	10440
928.69	10561
928.796	10622
928.901	10398
929.007	10261
929.112	10554
929.218	10413
929.323	10291
929.428	10261
929.533	10440
929.638	10284
929.743	10230
929.848	10223
929.953	10280
930.058	10242
930.163	10021
930.267	10044
930.372	10185
930.477	9991
930.581	10215
930.685	10082
930.79	10017
930.894	9930
930.998	9953
931.103	10090
931.207	9713
931.311	9603
931.415	9568
931.519	9355
931.623	9424
