Data from test_V78500241_3030.txt Node
Date: Fri Mar 25 14:54:48 CST 2022
User: usil
Spectrometer: V785-0024
Trigger mode: 0
Integration Time (sec): 4.000000E-1
Scans to average: 1
Nonlinearity correction enabled: false
Boxcar width: 0
Storing dark spectrum: false
XAxis mode: Wavelengths
Number of Pixels in Spectrum: 1024
>>>>>Begin Spectral Data<<<<<
801.071	22101
801.214	21949
801.356	21781
801.499	21766
801.641	21530
801.783	21424
801.926	21393
802.068	21496
802.211	21363
802.353	21321
802.496	21058
802.638	20952
802.78	20979
802.923	20845
803.065	20861
803.208	20861
803.35	20853
803.492	20906
803.635	20921
803.777	20720
803.919	20952
804.061	21142
804.204	20807
804.346	20762
804.488	20648
804.63	20674
804.773	20632
804.915	20667
805.057	20769
805.199	20659
805.341	20716
805.483	20937
805.626	20762
805.768	20724
805.91	20830
806.052	20830
806.194	20617
806.336	20891
806.478	20708
806.62	20594
806.762	20765
806.904	20960
807.046	21100
807.188	21020
807.33	21032
807.472	21161
807.614	20975
807.756	20990
807.898	20887
808.04	20807
808.182	20731
808.324	20849
808.465	20819
808.607	20944
808.749	21275
808.891	21199
809.033	21306
809.174	21131
809.316	21017
809.458	21146
809.6	21070
809.741	21146
809.883	21135
810.025	21230
810.166	21306
810.308	21287
810.45	21249
810.591	21077
810.733	21013
810.875	20842
811.016	20868
811.158	20785
811.299	20872
811.441	21058
811.582	21017
811.724	20796
811.865	20823
812.007	20788
812.148	20872
812.29	20830
812.431	21058
812.573	21169
812.714	21302
812.855	21325
812.997	21473
813.138	21610
813.279	21504
813.421	21458
813.562	21294
813.703	21180
813.845	21096
813.986	20781
814.127	20625
814.268	20476
814.41	20450
814.551	20507
814.692	20366
814.833	20396
814.974	20309
815.115	20423
815.256	20214
815.397	20313
815.539	20282
815.68	20183
815.821	20077
815.962	20130
816.103	20107
816.244	20024
816.385	19875
816.526	19772
816.666	19753
816.807	19567
816.948	19700
817.089	19643
817.23	19594
817.371	19609
817.512	19582
817.653	19563
817.793	19590
817.934	19346
818.075	19514
818.216	19533
818.356	19499
818.497	19335
818.638	19251
818.778	19255
818.919	19209
819.06	19297
819.2	19472
819.341	19468
819.481	19499
819.622	19662
819.762	19700
819.903	19731
820.043	19613
820.184	19552
820.324	19381
820.465	19578
820.605	19586
820.746	19506
820.886	19426
821.026	19537
821.167	19472
821.307	19620
821.447	19480
821.588	19373
821.728	19301
821.868	19084
822.008	18966
822.149	18954
822.289	18802
822.429	18616
822.569	18547
822.709	18608
822.849	18452
822.99	18388
823.13	18395
823.27	18483
823.41	18251
823.55	18129
823.69	18163
823.83	18342
823.97	18152
824.11	18076
824.25	17954
824.389	18015
824.529	18053
824.669	18019
824.809	18019
824.949	18053
825.089	18060
825.228	17969
825.368	17855
825.508	17821
825.648	17790
825.787	17779
825.927	17741
826.067	17676
826.206	17668
826.346	17729
826.485	17817
826.625	17680
826.765	17863
826.904	17767
827.044	17566
827.183	17509
827.323	17414
827.462	17284
827.601	17471
827.741	17391
827.88	17547
828.02	17288
828.159	17448
828.298	17379
828.437	17436
828.577	17440
828.716	17600
828.855	17337
828.994	17231
829.134	17102
829.273	17193
829.412	17166
829.551	17079
829.69	17197
829.829	17204
829.968	17337
830.107	17269
830.246	17178
830.385	17079
830.524	17121
830.663	17018
830.802	16812
830.941	16767
831.08	16930
831.219	16881
831.357	16866
831.496	17109
831.635	16755
831.774	16687
831.913	16713
832.051	16622
832.19	16687
832.329	16599
832.467	16603
832.606	16481
832.744	16386
832.883	16508
833.022	16470
833.16	16512
833.299	16542
833.437	16466
833.576	16615
833.714	16580
833.852	16546
833.991	16596
834.129	16565
834.267	16588
834.406	16580
834.544	16611
834.682	16596
834.821	16485
834.959	16717
835.097	16546
835.235	16622
835.373	16599
835.511	16535
835.65	16447
835.788	16440
835.926	16242
836.064	16238
836.202	16207
836.34	16363
836.478	16554
836.615	16265
836.753	16459
836.891	16466
837.029	16413
837.167	16436
837.305	16284
837.443	16394
837.58	16337
837.718	16375
837.856	16325
837.993	16280
838.131	16325
838.269	16116
838.406	16246
838.544	16135
838.681	16010
838.819	16017
838.956	15895
839.094	15800
839.231	15972
839.369	15972
839.506	16230
839.643	16063
839.781	15819
839.918	15819
840.055	15945
840.193	15838
840.33	15857
840.467	15781
840.604	15888
840.742	15972
840.879	15660
841.016	15648
841.153	15797
841.29	15934
841.427	15804
841.564	15838
841.701	15797
841.838	15823
841.975	15724
842.112	15713
842.249	15591
842.385	15606
842.522	15686
842.659	15614
842.796	15633
842.933	15720
843.069	15614
843.206	15568
843.343	15667
843.479	15694
843.616	15713
843.752	15329
843.889	15504
844.025	15599
844.162	15325
844.298	15504
844.435	15351
844.571	15439
844.708	15553
844.844	15496
844.98	15534
845.117	15450
845.253	15370
845.389	15291
845.525	15298
845.661	15355
845.798	15119
845.934	15176
846.07	15116
846.206	15291
846.342	15340
846.478	15180
846.614	15097
846.75	14895
846.886	14887
847.022	15176
847.158	14979
847.294	14971
847.429	14925
847.565	14963
847.701	15226
847.837	14625
847.972	14697
848.108	14785
848.244	14804
848.379	14587
848.515	14556
848.65	14545
848.786	14644
848.921	14503
849.057	14610
849.192	14594
849.328	14621
849.463	14465
849.598	14488
849.734	14446
849.869	14419
850.004	14366
850.14	14374
850.275	14355
850.41	14225
850.545	14229
850.68	14252
850.815	14290
850.95	14218
851.085	14419
851.22	14366
851.355	14301
851.49	14305
851.625	14237
851.76	14317
851.895	14100
852.03	14119
852.165	14347
852.299	14427
852.434	14358
852.569	14377
852.703	14305
852.838	14298
852.973	14518
853.107	14461
853.242	14278
853.376	14153
853.511	14073
853.645	14168
853.78	14275
853.914	14187
854.048	14214
854.183	14176
854.317	14153
854.451	14434
854.585	14183
854.72	14115
854.854	14286
854.988	14123
855.122	14123
855.256	14062
855.39	14180
855.524	14305
855.658	14256
855.792	14134
855.926	14248
856.06	14240
856.194	14221
856.327	14199
856.461	14153
856.595	14153
856.729	14096
856.862	14294
856.996	14202
857.13	14259
857.263	14374
857.397	14339
857.53	14244
857.664	14256
857.797	14328
857.931	14263
858.064	14282
858.197	14339
858.331	14107
858.464	14172
858.597	14149
858.731	14256
858.864	14191
858.997	14153
859.13	14263
859.263	14149
859.396	14259
859.529	14210
859.662	14202
859.795	14202
859.928	14145
860.061	14305
860.194	14427
860.327	14202
860.46	14221
860.592	14362
860.725	14404
860.858	14324
860.99	14100
861.123	13997
861.256	14157
861.388	14176
861.521	14880
861.653	14024
861.786	13940
861.918	14088
862.05	14172
862.183	14130
862.315	14282
862.447	14313
862.58	14176
862.712	14058
862.844	13856
862.976	14058
863.108	14077
863.24	14571
863.372	14008
863.504	13936
863.636	13974
863.768	14031
863.9	14012
864.032	13993
864.164	13947
864.296	13970
864.428	14115
864.559	14043
864.691	14035
864.823	14107
864.954	13951
865.086	13986
865.217	13986
865.349	13970
865.48	14020
865.612	14027
865.743	14046
865.875	13925
866.006	13894
866.137	13974
866.269	13947
866.4	13963
866.531	13944
866.662	13723
866.793	13822
866.924	13967
867.055	13970
867.186	13955
867.317	13906
867.448	13932
867.579	13795
867.71	13837
867.841	13791
867.972	13993
868.103	13928
868.233	14020
868.364	13902
868.495	13925
868.625	14123
868.756	14328
868.886	14027
869.017	14221
869.147	14309
869.278	14313
869.408	14233
869.539	14172
869.669	14282
869.799	14286
869.929	14336
870.06	14358
870.19	14530
870.32	14480
870.45	14495
870.58	14587
870.71	14716
870.84	14720
870.97	14511
871.1	14560
871.23	14750
871.36	14815
871.489	14674
871.619	14750
871.749	14785
871.879	14826
872.008	14925
872.138	14834
872.267	14724
872.397	14522
872.526	14655
872.656	14587
872.785	14689
872.915	14876
873.044	14804
873.173	14819
873.303	14830
873.432	14918
873.561	14933
873.69	14902
873.819	14811
873.948	14937
874.077	14838
874.206	14861
874.335	14876
874.464	14994
874.593	15146
874.722	15020
874.851	15116
874.979	15157
875.108	15287
875.237	15085
875.365	15100
875.494	15195
875.623	15245
875.751	15100
875.88	15207
876.008	15298
876.136	15397
876.265	15561
876.393	15717
876.521	15679
876.65	15675
876.778	15682
876.906	15603
877.034	15507
877.162	15511
877.29	15603
877.418	15549
877.546	15652
877.674	15462
877.802	15492
877.93	15656
878.058	15553
878.185	15412
878.313	15561
878.441	15618
878.568	15580
878.696	15454
878.824	15473
878.951	15728
879.079	15690
879.206	15956
879.333	15728
879.461	15606
879.588	15652
879.715	15728
879.842	15865
879.97	15720
880.097	15416
880.224	15462
880.351	15450
880.478	15370
880.605	15382
880.732	15389
880.859	15671
880.986	15504
881.112	15519
881.239	15340
881.366	15176
881.493	15157
881.619	15074
881.746	15131
881.872	15013
881.999	15077
882.125	15028
882.252	15131
882.378	15066
882.505	15214
882.631	15135
882.757	14921
882.883	14948
883.01	14929
883.136	14914
883.262	14716
883.388	14731
883.514	14910
883.64	14902
883.766	14807
883.892	14807
884.018	14750
884.143	14986
884.269	15017
884.395	14613
884.52	14492
884.646	14621
884.772	14549
884.897	14522
885.023	14587
885.148	14765
885.274	14716
885.399	14746
885.524	14571
885.65	14640
885.775	14648
885.9	14636
886.025	14663
886.15	14727
886.275	14541
886.4	14442
886.525	14511
886.65	14545
886.775	14575
886.9	14697
887.025	14830
887.149	14629
887.274	14461
887.399	14404
887.523	14518
887.648	14358
887.773	14259
887.897	14499
888.021	14370
888.146	14461
888.27	14499
888.395	14617
888.519	14488
888.643	14507
888.767	14507
888.891	14320
889.015	14317
889.139	14328
889.263	14305
889.387	14347
889.511	14488
889.635	14480
889.759	14320
889.883	14298
890.006	14385
890.13	14423
890.254	14237
890.377	14317
890.501	14103
890.624	14111
890.748	14187
890.871	14130
890.995	13947
891.118	13898
891.241	13974
891.364	14062
891.488	14126
891.611	14005
891.734	14024
891.857	14073
891.98	13997
892.103	14115
892.226	14043
892.349	13982
892.471	13852
892.594	13955
892.717	14016
892.839	13944
892.962	13978
893.085	14107
893.207	13997
893.33	13955
893.452	13959
893.575	14084
893.697	13978
893.819	14161
893.941	14183
894.064	14176
894.186	14001
894.308	13970
894.43	14172
894.552	14183
894.674	14180
894.796	13997
894.918	14069
895.04	13986
895.161	14202
895.283	14164
895.405	14012
895.526	14043
895.648	14210
895.769	14183
895.891	14195
896.012	14176
896.134	14267
896.255	14065
896.376	14168
896.498	14221
896.619	14275
896.74	14218
896.861	14233
896.982	14480
897.103	14594
897.224	14419
897.345	14431
897.466	14374
897.587	14450
897.708	14613
897.828	14495
897.949	14454
898.07	14442
898.19	14450
898.311	14571
898.431	14507
898.552	14526
898.672	14629
898.792	14568
898.913	14606
899.033	14499
899.153	14393
899.273	14351
899.393	14412
899.513	14351
899.633	14442
899.753	14488
899.873	14301
899.993	14480
900.113	14431
900.232	14465
900.352	14339
900.472	14290
900.591	14259
900.711	14404
900.83	14195
900.95	14461
901.069	14400
901.189	14259
901.308	14100
901.427	13963
901.546	13989
901.665	13970
901.784	13978
901.904	13769
902.023	13723
902.141	13487
902.26	13514
902.379	13563
902.498	13499
902.617	13510
902.735	13521
902.854	13537
902.973	13388
903.091	13266
903.21	13259
903.328	13228
903.446	13278
903.565	13114
903.683	13072
903.801	13046
903.919	13137
904.038	13080
904.156	12871
904.274	13015
904.392	12928
904.51	12924
904.627	12856
904.745	12996
904.863	12981
904.981	12741
905.098	12578
905.216	12597
905.334	12608
905.451	12662
905.569	12540
905.686	12681
905.803	12578
905.921	12479
906.038	12509
906.155	12357
906.272	12292
906.389	12410
906.506	12220
906.623	12197
906.74	12163
906.857	12060
906.974	12091
907.091	12186
907.208	12346
907.324	12201
907.441	12155
907.557	11958
907.674	11920
907.79	11805
907.907	11878
908.023	11916
908.139	11984
908.256	11813
908.372	11908
908.488	11802
908.604	11748
908.72	11634
908.836	11760
908.952	11638
909.068	11684
909.184	11733
909.3	11703
909.415	11798
909.531	11688
909.647	11471
909.762	11505
909.878	11353
909.993	11490
910.108	11455
910.224	11406
910.339	11486
910.454	11417
910.57	11242
910.685	11185
910.8	11524
910.915	11448
911.03	11345
911.145	11197
911.259	11102
911.374	11174
911.489	11022
911.604	11033
911.718	10900
911.833	10942
911.947	10790
912.062	10755
912.176	10976
912.291	10911
912.405	10862
912.519	11060
912.633	11121
912.748	10930
912.862	10961
912.976	10873
913.09	10714
913.204	10729
913.318	10774
913.431	10854
913.545	10889
913.659	10850
913.772	10771
913.886	10653
914	10714
914.113	10767
914.226	10835
914.34	10763
914.453	10569
914.566	10733
914.68	10622
914.793	10649
914.906	10451
915.019	10409
915.132	10379
915.245	10440
915.358	10443
915.47	10436
915.583	10421
915.696	10527
915.809	10577
915.921	10500
916.034	10432
916.146	10390
916.259	10322
916.371	10478
916.483	10535
916.595	10314
916.708	10375
916.82	10352
916.932	10348
917.044	10344
917.156	10322
917.268	10204
917.38	10223
917.491	10287
917.603	10314
917.715	10360
917.826	10371
917.938	10291
918.049	10181
918.161	10207
918.272	10390
918.384	10424
918.495	10314
918.606	10143
918.717	10044
918.828	10177
918.939	10177
919.05	10063
919.161	10131
919.272	9857
919.383	10017
919.494	10238
919.604	10325
919.715	10181
919.826	10093
919.936	10166
920.047	10314
920.157	10128
920.267	10333
920.378	10196
920.488	10147
920.598	10344
920.708	10577
920.818	10265
920.928	10394
921.038	10504
921.148	10508
921.258	10211
921.368	10071
921.477	10063
921.587	10048
921.697	9911
921.806	10032
921.916	9869
922.025	9751
922.134	9766
922.244	9671
922.353	9778
922.462	9625
922.571	9584
922.68	9416
922.789	9420
922.898	9435
923.007	9416
923.116	9473
923.224	9412
923.333	9386
923.442	9272
923.55	9287
923.659	9344
923.767	9348
923.876	9275
923.984	9397
924.092	9241
924.201	9340
924.309	9233
924.417	9310
924.525	9226
924.633	9351
924.741	10154
924.849	9051
924.956	9237
925.064	8998
925.172	8994
925.279	9036
925.387	9055
925.494	9066
925.602	9256
925.709	9184
925.816	9058
925.924	9097
926.031	9214
926.138	9066
926.245	9085
926.352	9001
926.459	9142
926.566	9207
926.673	8990
926.779	8906
926.886	8967
926.993	8834
927.099	8826
927.206	8788
927.312	8663
927.419	8838
927.525	8750
927.631	8750
927.737	8769
927.843	8667
927.95	8545
928.056	8678
928.162	8651
928.267	8796
928.373	9325
928.479	8769
928.585	8579
928.69	8716
928.796	8731
928.901	8621
929.007	8495
929.112	8590
929.218	8560
929.323	8469
929.428	8499
929.533	8663
929.638	8419
929.743	8454
929.848	8526
929.953	8473
930.058	8408
930.163	8279
930.267	8263
930.372	8423
930.477	8244
930.581	8488
930.685	8385
930.79	8221
930.894	8275
930.998	8202
931.103	8294
931.207	7997
931.311	7970
931.415	7894
931.519	7746
931.623	7734
