Data from test_V78500241_2602.txt Node
Date: Fri Mar 25 14:51:49 CST 2022
User: usil
Spectrometer: V785-0024
Trigger mode: 0
Integration Time (sec): 4.000000E-1
Scans to average: 1
Nonlinearity correction enabled: false
Boxcar width: 0
Storing dark spectrum: false
XAxis mode: Wavelengths
Number of Pixels in Spectrum: 1024
>>>>>Begin Spectral Data<<<<<
801.071	22032
801.214	21876
801.356	21694
801.499	21614
801.641	21458
801.783	21287
801.926	21435
802.068	21359
802.211	21344
802.353	21123
802.496	20845
802.638	20986
802.78	20899
802.923	20727
803.065	20746
803.208	20667
803.35	20750
803.492	20701
803.635	20785
803.777	20632
803.919	20705
804.061	21017
804.204	20819
804.346	20575
804.488	20689
804.63	20689
804.773	20571
804.915	20617
805.057	20788
805.199	20606
805.341	20720
805.483	20830
805.626	20651
805.768	20602
805.91	20568
806.052	20727
806.194	20533
806.336	20720
806.478	20579
806.62	20499
806.762	20655
806.904	20842
807.046	21100
807.188	20914
807.33	20910
807.472	20986
807.614	20823
807.756	20788
807.898	20716
808.04	20663
808.182	20724
808.324	20648
808.465	20792
808.607	20944
808.749	21100
808.891	21077
809.033	21188
809.174	20990
809.316	20906
809.458	20937
809.6	20979
809.741	21089
809.883	20998
810.025	21104
810.166	21070
810.308	21085
810.45	21028
810.591	20975
810.733	20830
810.875	20781
811.016	20708
811.158	20613
811.299	20727
811.441	20899
811.582	20838
811.724	20678
811.865	20609
812.007	20625
812.148	20716
812.29	20762
812.431	20982
812.573	21047
812.714	21058
812.855	21252
812.997	21416
813.138	21431
813.279	21260
813.421	21214
813.562	21001
813.703	21017
813.845	20910
813.986	20590
814.127	20469
814.268	20328
814.41	20385
814.551	20366
814.692	20427
814.833	20252
814.974	20248
815.115	20248
815.256	20058
815.397	20218
815.539	20145
815.68	20031
815.821	20065
815.962	20103
816.103	19959
816.244	19799
816.385	19685
816.526	19689
816.666	19643
816.807	19430
816.948	19495
817.089	19594
817.23	19464
817.371	19445
817.512	19548
817.653	19487
817.793	19415
817.934	19445
818.075	19483
818.216	19396
818.356	19358
818.497	19213
818.638	19251
818.778	19133
818.919	18996
819.06	19072
819.2	19190
819.341	19247
819.481	19373
819.622	19480
819.762	19567
819.903	19480
820.043	19415
820.184	19350
820.324	19365
820.465	19457
820.605	19293
820.746	19381
820.886	19217
821.026	19339
821.167	19327
821.307	19407
821.447	19304
821.588	19137
821.728	19145
821.868	18916
822.008	18928
822.149	18802
822.289	18692
822.429	18589
822.569	18521
822.709	18403
822.849	18395
822.99	18315
823.13	18262
823.27	18285
823.41	18030
823.55	18007
823.69	18079
823.83	18228
823.97	17958
824.11	17889
824.25	17965
824.389	17786
824.529	17946
824.669	17863
824.809	18011
824.949	17973
825.089	17977
825.228	17901
825.368	17703
825.508	17722
825.648	17714
825.787	17733
825.927	17718
826.067	17577
826.206	17608
826.346	17703
826.485	17596
826.625	17668
826.765	17798
826.904	17638
827.044	17509
827.183	17345
827.323	17372
827.462	17292
827.601	17341
827.741	17410
827.88	17406
828.02	17204
828.159	17383
828.298	17341
828.437	17440
828.577	17307
828.716	17573
828.855	17318
828.994	17151
829.134	17090
829.273	17174
829.412	17060
829.551	16949
829.69	17132
829.829	17098
829.968	17277
830.107	17128
830.246	17151
830.385	16942
830.524	17052
830.663	16938
830.802	16885
830.941	16713
831.08	16603
831.219	16911
831.357	16850
831.496	16961
831.635	16577
831.774	16596
831.913	16656
832.051	16573
832.19	16584
832.329	16546
832.467	16428
832.606	16421
832.744	16394
832.883	16402
833.022	16363
833.16	16443
833.299	16432
833.437	16470
833.576	16367
833.714	16531
833.852	16409
833.991	16485
834.129	16596
834.267	16542
834.406	16500
834.544	16451
834.682	16394
834.821	16481
834.959	16683
835.097	16485
835.235	16634
835.373	16466
835.511	16558
835.65	16306
835.788	16371
835.926	16261
836.064	16246
836.202	16257
836.34	16516
836.478	16405
836.615	16421
836.753	16455
836.891	16554
837.029	16462
837.167	16367
837.305	16409
837.443	16268
837.58	16215
837.718	16409
837.856	16280
837.993	16226
838.131	16333
838.269	16238
838.406	16238
838.544	16166
838.681	15865
838.819	15983
838.956	15895
839.094	15770
839.231	15842
839.369	15945
839.506	16181
839.643	16124
839.781	15945
839.918	15873
840.055	15861
840.193	15812
840.33	15907
840.467	15739
840.604	15816
840.742	16021
840.879	15728
841.016	15701
841.153	15698
841.29	15922
841.427	15838
841.564	15850
841.701	15888
841.838	15736
841.975	15709
842.112	15766
842.249	15671
842.385	15534
842.522	15846
842.659	15652
842.796	15538
842.933	15610
843.069	15595
843.206	15584
843.343	15698
843.479	15610
843.616	15641
843.752	15416
843.889	15504
844.025	15519
844.162	15439
844.298	15561
844.435	15344
844.571	15412
844.708	15526
844.844	15519
844.98	15462
845.117	15450
845.253	15218
845.389	15249
845.525	15386
845.661	15264
845.798	15252
845.934	15275
846.07	15203
846.206	15283
846.342	15287
846.478	15184
846.614	15001
846.75	14967
846.886	14910
847.022	15036
847.158	14872
847.294	14937
847.429	14986
847.565	14963
847.701	15249
847.837	14693
847.972	14705
848.108	14815
848.244	14842
848.379	14621
848.515	14651
848.65	14526
848.786	14492
848.921	14575
849.057	14617
849.192	14686
849.328	14564
849.463	14602
849.598	14621
849.734	14522
849.869	14454
850.004	14343
850.14	14415
850.275	14469
850.41	14374
850.545	14271
850.68	14282
850.815	14332
850.95	14301
851.085	14590
851.22	14423
851.355	14309
851.49	14374
851.625	14324
851.76	14343
851.895	14256
852.03	14214
852.165	14259
852.299	14282
852.434	14385
852.569	14400
852.703	14298
852.838	14419
852.973	14537
853.107	14568
853.242	14332
853.376	14187
853.511	14111
853.645	14142
853.78	14336
853.914	14183
854.048	14138
854.183	14138
854.317	14229
854.451	14328
854.585	14107
854.72	14237
854.854	14256
854.988	14145
855.122	14065
855.256	14020
855.39	14214
855.524	14301
855.658	14309
855.792	14267
855.926	14271
856.06	14343
856.194	14328
856.327	14168
856.461	14054
856.595	14138
856.729	14225
856.862	14324
856.996	14248
857.13	14328
857.263	14400
857.397	14385
857.53	14240
857.664	14278
857.797	14278
857.931	14317
858.064	14263
858.197	14282
858.331	14183
858.464	14199
858.597	14138
858.731	14218
858.864	14157
858.997	14195
859.13	14233
859.263	14240
859.396	14313
859.529	14214
859.662	14233
859.795	14153
859.928	14244
860.061	14366
860.194	14377
860.327	14240
860.46	14278
860.592	14221
860.725	14374
860.858	14263
860.99	14214
861.123	14126
861.256	14138
861.388	14237
861.521	14826
861.653	14027
861.786	14107
861.918	14043
862.05	14088
862.183	14168
862.315	14225
862.447	14248
862.58	14221
862.712	14050
862.844	13951
862.976	14008
863.108	14069
863.24	14415
863.372	13909
863.504	14043
863.636	14039
863.768	14100
863.9	14005
864.032	13936
864.164	13959
864.296	14020
864.428	14111
864.559	14073
864.691	14077
864.823	14119
864.954	14031
865.086	14024
865.217	14039
865.349	13868
865.48	14077
865.612	13947
865.743	14005
865.875	14054
866.006	14016
866.137	13970
866.269	14088
866.4	13993
866.531	13841
866.662	13921
866.793	13909
866.924	14027
867.055	13967
867.186	13986
867.317	13883
867.448	13811
867.579	13860
867.71	13921
867.841	13898
867.972	14077
868.103	13970
868.233	13970
868.364	14001
868.495	14103
868.625	14206
868.756	14271
868.886	14073
869.017	14218
869.147	14381
869.278	14355
869.408	14271
869.539	14275
869.669	14237
869.799	14206
869.929	14339
870.06	14259
870.19	14594
870.32	14613
870.45	14602
870.58	14686
870.71	14743
870.84	14773
870.97	14629
871.1	14625
871.23	14876
871.36	14876
871.489	14765
871.619	14845
871.749	14864
871.879	14895
872.008	14796
872.138	14823
872.267	14804
872.397	14727
872.526	14670
872.656	14583
872.785	14686
872.915	14823
873.044	14982
873.173	14899
873.303	14815
873.432	14902
873.561	14876
873.69	14914
873.819	14815
873.948	15043
874.077	14937
874.206	14834
874.335	14948
874.464	14967
874.593	15252
874.722	15154
874.851	15336
874.979	15211
875.108	15237
875.237	15199
875.365	15085
875.494	15199
875.623	15237
875.751	15123
875.88	15249
876.008	15306
876.136	15405
876.265	15488
876.393	15736
876.521	15717
876.65	15781
876.778	15622
876.906	15580
877.034	15625
877.162	15557
877.29	15507
877.418	15580
877.546	15610
877.674	15595
877.802	15603
877.93	15557
878.058	15625
878.185	15481
878.313	15637
878.441	15587
878.568	15367
878.696	15595
878.824	15648
878.951	15743
879.079	15717
879.206	15876
879.333	15705
879.461	15762
879.588	15789
879.715	15808
879.842	15945
879.97	15675
880.097	15450
880.224	15477
880.351	15515
880.478	15500
880.605	15466
880.732	15450
880.859	15641
880.986	15595
881.112	15443
881.239	15355
881.366	15218
881.493	15123
881.619	15123
881.746	15165
881.872	15131
881.999	15112
882.125	15062
882.252	15127
882.378	15176
882.505	15260
882.631	15150
882.757	14941
882.883	15039
883.01	14948
883.136	14815
883.262	14811
883.388	14777
883.514	14895
883.64	14933
883.766	14971
883.892	14792
884.018	14781
884.143	15066
884.269	15123
884.395	14640
884.52	14564
884.646	14636
884.772	14636
884.897	14552
885.023	14541
885.148	14693
885.274	14830
885.399	14819
885.524	14571
885.65	14712
885.775	14724
885.9	14533
886.025	14834
886.15	14663
886.275	14621
886.4	14613
886.525	14682
886.65	14575
886.775	14594
886.9	14731
887.025	14914
887.149	14640
887.274	14408
887.399	14461
887.523	14484
887.648	14374
887.773	14381
887.897	14499
888.021	14625
888.146	14465
888.27	14545
888.395	14655
888.519	14514
888.643	14541
888.767	14674
888.891	14492
889.015	14374
889.139	14400
889.263	14324
889.387	14446
889.511	14541
889.635	14507
889.759	14233
889.883	14370
890.006	14431
890.13	14454
890.254	14172
890.377	14343
890.501	14229
890.624	14039
890.748	14149
890.871	14005
890.995	14005
891.118	13936
891.241	14180
891.364	14062
891.488	14138
891.611	14046
891.734	14050
891.857	14096
891.98	14119
892.103	14088
892.226	14084
892.349	13963
892.471	13830
892.594	14058
892.717	14084
892.839	14008
892.962	13997
893.085	14077
893.207	14005
893.33	13978
893.452	14008
893.575	14111
893.697	14012
893.819	14191
893.941	14218
894.064	14229
894.186	13967
894.308	14001
894.43	14187
894.552	14229
894.674	14195
894.796	14050
894.918	14111
895.04	14077
895.161	14248
895.283	14134
895.405	14069
895.526	14123
895.648	14153
895.769	14210
895.891	14206
896.012	14305
896.134	14168
896.255	14153
896.376	14164
896.498	14240
896.619	14317
896.74	14202
896.861	14317
896.982	14507
897.103	14693
897.224	14476
897.345	14465
897.466	14438
897.587	14438
897.708	14590
897.828	14511
897.949	14465
898.07	14431
898.19	14427
898.311	14617
898.431	14541
898.552	14556
898.672	14651
898.792	14689
898.913	14556
899.033	14602
899.153	14434
899.273	14412
899.393	14419
899.513	14408
899.633	14393
899.753	14389
899.873	14313
899.993	14404
900.113	14298
900.232	14484
900.352	14457
900.472	14313
900.591	14244
900.711	14294
900.83	14218
900.95	14499
901.069	14381
901.189	14229
901.308	13959
901.427	13887
901.546	13963
901.665	13925
901.784	14008
901.904	13852
902.023	13719
902.141	13605
902.26	13571
902.379	13643
902.498	13495
902.617	13556
902.735	13483
902.854	13499
902.973	13510
903.091	13179
903.21	13285
903.328	13179
903.446	13168
903.565	13038
903.683	13179
903.801	12947
903.919	13061
904.038	13107
904.156	12905
904.274	12989
904.392	12894
904.51	12886
904.627	12886
904.745	12939
904.863	12905
904.981	12719
905.098	12574
905.216	12662
905.334	12604
905.451	12673
905.569	12544
905.686	12559
905.803	12635
905.921	12456
906.038	12460
906.155	12513
906.272	12391
906.389	12361
906.506	12270
906.623	12186
906.74	12197
906.857	12110
906.974	12125
907.091	12140
907.208	12327
907.324	12171
907.441	12117
907.557	11977
907.674	11942
907.79	11908
907.907	11977
908.023	11923
908.139	11961
908.256	11904
908.372	11958
908.488	11897
908.604	11668
908.72	11688
908.836	11783
908.952	11688
909.068	11722
909.184	11764
909.3	11691
909.415	11764
909.531	11703
909.647	11554
909.762	11486
909.878	11360
909.993	11490
910.108	11436
910.224	11425
910.339	11459
910.454	11414
910.57	11273
910.685	11242
910.8	11516
910.915	11421
911.03	11326
911.145	11174
911.259	11223
911.374	11208
911.489	11128
911.604	11071
911.718	10927
911.833	10984
911.947	10706
912.062	10767
912.176	10866
912.291	10942
912.405	11006
912.519	11086
912.633	11185
912.748	11003
912.862	11022
912.976	10843
913.09	10672
913.204	10786
913.318	10805
913.431	10980
913.545	10927
913.659	10854
913.772	10862
913.886	10622
914	10626
914.113	10820
914.226	10828
914.34	10767
914.453	10618
914.566	10740
914.68	10641
914.793	10569
914.906	10512
915.019	10409
915.132	10379
915.245	10421
915.358	10459
915.47	10504
915.583	10474
915.696	10474
915.809	10615
915.921	10561
916.034	10504
916.146	10409
916.259	10352
916.371	10580
916.483	10500
916.595	10322
916.708	10443
916.82	10394
916.932	10382
917.044	10341
917.156	10295
917.268	10265
917.38	10280
917.491	10204
917.603	10280
917.715	10341
917.826	10356
917.938	10352
918.049	10234
918.161	10295
918.272	10371
918.384	10474
918.495	10318
918.606	10173
918.717	10154
918.828	10120
918.939	10143
919.05	10109
919.161	10150
919.272	9937
919.383	10029
919.494	10166
919.604	10314
919.715	10169
919.826	10078
919.936	10162
920.047	10341
920.157	10219
920.267	10356
920.378	10215
920.488	10166
920.598	10428
920.708	10451
920.818	10421
920.928	10386
921.038	10538
921.148	10481
921.258	10276
921.368	10158
921.477	10067
921.587	10021
921.697	9930
921.806	10059
921.916	9888
922.025	9770
922.134	9694
922.244	9675
922.353	9717
922.462	9641
922.571	9561
922.68	9515
922.789	9420
922.898	9412
923.007	9439
923.116	9416
923.224	9435
923.333	9424
923.442	9279
923.55	9397
923.659	9336
923.767	9363
923.876	9279
923.984	9408
924.092	9279
924.201	9313
924.309	9279
924.417	9245
924.525	9279
924.633	9302
924.741	10093
924.849	9081
924.956	9180
925.064	9112
925.172	9039
925.279	9066
925.387	9127
925.494	9081
925.602	9256
925.709	9195
925.816	8929
925.924	9089
926.031	9184
926.138	9100
926.245	9199
926.352	8971
926.459	9138
926.566	9211
926.673	9097
926.779	8872
926.886	8971
926.993	8891
927.099	8739
927.206	8800
927.312	8766
927.419	8845
927.525	8743
927.631	8823
927.737	8724
927.843	8743
927.95	8568
928.056	8644
928.162	8750
928.267	8758
928.373	9321
928.479	8788
928.585	8590
928.69	8670
928.796	8826
928.901	8625
929.007	8549
929.112	8625
929.218	8533
929.323	8556
929.428	8526
929.533	8533
929.638	8434
929.743	8533
929.848	8507
929.953	8461
930.058	8396
930.163	8290
930.267	8332
930.372	8393
930.477	8244
930.581	8507
930.685	8358
930.79	8248
930.894	8252
930.998	8168
931.103	8389
931.207	8058
931.311	7951
931.415	7940
931.519	7772
931.623	7772
