Data from test_V78500241_367.txt Node
Date: Fri Mar 25 14:36:16 CST 2022
User: usil
Spectrometer: V785-0024
Trigger mode: 0
Integration Time (sec): 4.000000E-1
Scans to average: 1
Nonlinearity correction enabled: false
Boxcar width: 0
Storing dark spectrum: false
XAxis mode: Wavelengths
Number of Pixels in Spectrum: 1024
>>>>>Begin Spectral Data<<<<<
801.071	26750
801.214	26731
801.356	26552
801.499	26252
801.641	26195
801.783	26153
801.926	26332
802.068	26138
802.211	26073
802.353	26046
802.496	25925
802.638	25894
802.78	25875
802.923	25780
803.065	25677
803.208	25704
803.35	25708
803.492	25928
803.635	25887
803.777	25807
803.919	25811
804.061	26103
804.204	25841
804.346	25746
804.488	25708
804.63	25624
804.773	25597
804.915	25750
805.057	25921
805.199	25814
805.341	25799
805.483	25791
805.626	25830
805.768	25609
805.91	25936
806.052	25799
806.194	25662
806.336	26024
806.478	25841
806.62	25742
806.762	25814
806.904	26005
807.046	26313
807.188	26096
807.33	26145
807.472	26259
807.614	26069
807.756	26111
807.898	26020
808.04	25989
808.182	25955
808.324	25982
808.465	25837
808.607	26065
808.749	26282
808.891	26400
809.033	26560
809.174	26446
809.316	26366
809.458	26199
809.6	26176
809.741	26252
809.883	26263
810.025	26408
810.166	26374
810.308	26446
810.45	26473
810.591	26275
810.733	26263
810.875	26366
811.016	26039
811.158	25955
811.299	26168
811.441	26317
811.582	26294
811.724	25917
811.865	26088
812.007	26088
812.148	26180
812.29	26126
812.431	26180
812.573	26305
812.714	26495
812.855	26560
812.997	26606
813.138	26880
813.279	26697
813.421	26606
813.562	26651
813.703	26385
813.845	26248
813.986	26035
814.127	25925
814.268	25696
814.41	25613
814.551	25632
814.692	25757
814.833	25620
814.974	25506
815.115	25708
815.256	25468
815.397	25525
815.539	25468
815.68	25438
815.821	25343
815.962	25445
816.103	25346
816.244	25285
816.385	25091
816.526	25099
816.666	24867
816.807	24787
816.948	24802
817.089	24878
817.23	24951
817.371	24935
817.512	24791
817.653	24779
817.793	24719
817.934	24867
818.075	24882
818.216	24795
818.356	24654
818.497	24635
818.638	24471
818.778	24658
818.919	24540
819.06	24494
819.2	24623
819.341	24726
819.481	24566
819.622	24913
819.762	24939
819.903	24951
820.043	24920
820.184	24894
820.324	24916
820.465	24958
820.605	24817
820.746	24745
820.886	24593
821.026	24753
821.167	24620
821.307	24620
821.447	24642
821.588	24486
821.728	24365
821.868	24308
822.008	24174
822.149	24057
822.289	24114
822.429	23866
822.569	23878
822.709	23764
822.849	23661
822.99	23615
823.13	23493
823.27	23585
823.41	23448
823.55	23277
823.69	23474
823.83	23493
823.97	23292
824.11	23090
824.25	23098
824.389	23181
824.529	23220
824.669	23140
824.809	23193
824.949	23162
825.089	23200
825.228	23117
825.368	22869
825.508	22938
825.648	23014
825.787	22984
825.927	23056
826.067	22919
826.206	22923
826.346	22930
826.485	22965
826.625	22968
826.765	23006
826.904	22889
827.044	22812
827.183	22736
827.323	22443
827.462	22637
827.601	22664
827.741	22687
827.88	22637
828.02	22531
828.159	22493
828.298	22573
828.437	22653
828.577	22561
828.716	22763
828.855	22459
828.994	22398
829.134	22417
829.273	22424
829.412	22105
829.551	22318
829.69	22268
829.829	22402
829.968	22367
830.107	22504
830.246	22265
830.385	22219
830.524	22105
830.663	22162
830.802	21953
830.941	21842
831.08	21949
831.219	21781
831.357	21911
831.496	22257
831.635	21975
831.774	21751
831.913	21800
832.051	21854
832.19	21610
832.329	21720
832.467	21561
832.606	21507
832.744	21511
832.883	21610
833.022	21469
833.16	21526
833.299	21557
833.437	21583
833.576	21519
833.714	21557
833.852	21720
833.991	21625
834.129	21542
834.267	21622
834.406	21530
834.544	21519
834.682	21564
834.821	21458
834.959	21789
835.097	21492
835.235	21591
835.373	21591
835.511	21568
835.65	21378
835.788	21378
835.926	21195
836.064	21135
836.202	21302
836.34	21504
836.478	21576
836.615	21245
836.753	21313
836.891	21557
837.029	21450
837.167	21477
837.305	21291
837.443	21192
837.58	21127
837.718	21488
837.856	21378
837.993	21275
838.131	21359
838.269	21154
838.406	21203
838.544	21104
838.681	20921
838.819	20815
838.956	20644
839.094	20743
839.231	20682
839.369	20880
839.506	21081
839.643	20883
839.781	20663
839.918	20556
840.055	20701
840.193	20651
840.33	20522
840.467	20644
840.604	20686
840.742	20952
840.879	20583
841.016	20564
841.153	20594
841.29	20632
841.427	20480
841.564	20602
841.701	20526
841.838	20590
841.975	20484
842.112	20484
842.249	20396
842.385	20278
842.522	20507
842.659	20225
842.796	20282
842.933	20271
843.069	20214
843.206	20290
843.343	20366
843.479	20370
843.616	20317
843.752	20145
843.889	20092
844.025	20275
844.162	20103
844.298	20176
844.435	20149
844.571	20084
844.708	20107
844.844	20199
844.98	20206
845.117	20229
845.253	19963
845.389	20001
845.525	20031
845.661	19978
845.798	19883
845.934	19967
846.07	19788
846.206	20035
846.342	20111
846.478	19742
846.614	19818
846.75	19563
846.886	19624
847.022	19628
847.158	19635
847.294	19563
847.429	19731
847.565	19548
847.701	19666
847.837	19301
847.972	19327
848.108	19476
848.244	19358
848.379	19110
848.515	19266
848.65	19171
848.786	19118
848.921	19213
849.057	19187
849.192	19148
849.328	19095
849.463	19110
849.598	18958
849.734	19019
849.869	19019
850.004	18859
850.14	18943
850.275	18890
850.41	18764
850.545	18791
850.68	18977
850.815	18897
850.95	18768
851.085	18981
851.22	18924
851.355	18856
851.49	18844
851.625	18802
851.76	18722
851.895	18757
852.03	18768
852.165	18875
852.299	18791
852.434	18821
852.569	18829
852.703	18840
852.838	18939
852.973	19008
853.107	18989
853.242	18837
853.376	18585
853.511	18604
853.645	18696
853.78	18776
853.914	18677
854.048	18551
854.183	18578
854.317	18703
854.451	18814
854.585	18722
854.72	18608
854.854	18791
854.988	18677
855.122	18692
855.256	18414
855.39	18650
855.524	18764
855.658	18612
855.792	18757
855.926	18817
856.06	18620
856.194	18791
856.327	18745
856.461	18551
856.595	18521
856.729	18658
856.862	18681
856.996	18673
857.13	18711
857.263	18642
857.397	18768
857.53	18661
857.664	18757
857.797	18661
857.931	18669
858.064	18631
858.197	18741
858.331	18658
858.464	18589
858.597	18555
858.731	18585
858.864	18593
858.997	18498
859.13	18620
859.263	18707
859.396	18688
859.529	18570
859.662	18642
859.795	18620
859.928	18578
860.061	18764
860.194	18798
860.327	18646
860.46	18566
860.592	18772
860.725	18661
860.858	18673
860.99	18635
861.123	18445
861.256	18608
861.388	18601
861.521	19403
861.653	18528
861.786	18426
861.918	18506
862.05	18437
862.183	18620
862.315	18498
862.447	18620
862.58	18688
862.712	18357
862.844	18369
862.976	18334
863.108	18342
863.24	18806
863.372	18277
863.504	18285
863.636	18365
863.768	18277
863.9	18289
864.032	18361
864.164	18315
864.296	18369
864.428	18369
864.559	18357
864.691	18334
864.823	18319
864.954	18346
865.086	18391
865.217	18228
865.349	18224
865.48	18251
865.612	18216
865.743	18403
865.875	18182
866.006	18277
866.137	18243
866.269	18220
866.4	18323
866.531	18190
866.662	18178
866.793	18262
866.924	18129
867.055	18133
867.186	18281
867.317	18095
867.448	17992
867.579	18064
867.71	18079
867.841	17969
867.972	18098
868.103	18106
868.233	18209
868.364	18205
868.495	18262
868.625	18365
868.756	18566
868.886	18323
869.017	18353
869.147	18494
869.278	18574
869.408	18410
869.539	18327
869.669	18464
869.799	18418
869.929	18528
870.06	18471
870.19	18722
870.32	18696
870.45	18760
870.58	18802
870.71	18905
870.84	18905
870.97	18707
871.1	18722
871.23	18973
871.36	19015
871.489	18913
871.619	19042
871.749	19019
871.879	19095
872.008	19095
872.138	18966
872.267	18894
872.397	18920
872.526	18856
872.656	18882
872.785	18837
872.915	18970
873.044	19107
873.173	18943
873.303	19000
873.432	19042
873.561	19107
873.69	19046
873.819	19019
873.948	19160
874.077	19038
874.206	18920
874.335	19023
874.464	19091
874.593	19358
874.722	19263
874.851	19312
874.979	19335
875.108	19419
875.237	19240
875.365	19206
875.494	19350
875.623	19411
875.751	19377
875.88	19358
876.008	19457
876.136	19438
876.265	19708
876.393	19849
876.521	19803
876.65	19750
876.778	19731
876.906	19750
877.034	19666
877.162	19655
877.29	19582
877.418	19731
877.546	19685
877.674	19784
877.802	19795
877.93	19704
878.058	19495
878.185	19537
878.313	19544
878.441	19700
878.568	19681
878.696	19700
878.824	19700
878.951	19822
879.079	19928
879.206	19944
879.333	19822
879.461	19734
879.588	19841
879.715	19917
879.842	19940
879.97	19807
880.097	19567
880.224	19552
880.351	19628
880.478	19655
880.605	19502
880.732	19567
880.859	19715
880.986	19506
881.112	19514
881.239	19468
881.366	19316
881.493	19072
881.619	19133
881.746	19122
881.872	19118
881.999	19088
882.125	19156
882.252	19187
882.378	19110
882.505	19198
882.631	19118
882.757	19023
882.883	18951
883.01	18924
883.136	18935
883.262	18749
883.388	18745
883.514	18962
883.64	18901
883.766	18924
883.892	18772
884.018	18715
884.143	18890
884.269	18932
884.395	18715
884.52	18635
884.646	18635
884.772	18635
884.897	18593
885.023	18608
885.148	18703
885.274	18787
885.399	18677
885.524	18513
885.65	18528
885.775	18593
885.9	18585
886.025	18707
886.15	18623
886.275	18544
886.4	18544
886.525	18445
886.65	18342
886.775	18475
886.9	18650
887.025	18696
887.149	18585
887.274	18391
887.399	18372
887.523	18330
887.648	18304
887.773	18213
887.897	18384
888.021	18422
888.146	18365
888.27	18414
888.395	18414
888.519	18445
888.643	18300
888.767	18437
888.891	18209
889.015	18167
889.139	18247
889.263	18026
889.387	18174
889.511	18300
889.635	18270
889.759	18148
889.883	18102
890.006	18140
890.13	18311
890.254	18121
890.377	18213
890.501	17939
890.624	17901
890.748	18026
890.871	17817
890.995	17718
891.118	17619
891.241	17813
891.364	17771
891.488	17840
891.611	17771
891.734	17710
891.857	17904
891.98	17718
892.103	17752
892.226	17824
892.349	17756
892.471	17608
892.594	17718
892.717	17767
892.839	17707
892.962	17741
893.085	17745
893.207	17741
893.33	17630
893.452	17687
893.575	17687
893.697	17657
893.819	17798
893.941	17912
894.064	17813
894.186	17604
894.308	17691
894.43	17722
894.552	17832
894.674	17798
894.796	17714
894.918	17703
895.04	17821
895.161	17760
895.283	17863
895.405	17630
895.526	17775
895.648	17642
895.769	17805
895.891	17885
896.012	17813
896.134	17809
896.255	17840
896.376	17870
896.498	17737
896.619	17729
896.74	17748
896.861	17897
896.982	18159
897.103	18190
897.224	18209
897.345	17980
897.466	17996
897.587	18076
897.708	18174
897.828	18136
897.949	18034
898.07	17843
898.19	17984
898.311	18133
898.431	17920
898.552	17942
898.672	18182
898.792	18098
898.913	18019
899.033	18003
899.153	17821
899.273	17783
899.393	17729
899.513	17866
899.633	17745
899.753	17760
899.873	17817
899.993	17771
900.113	17707
900.232	17885
900.352	17668
900.472	17611
900.591	17589
900.711	17794
900.83	17440
900.95	17802
901.069	17729
901.189	17505
901.308	17360
901.427	17292
901.546	17303
901.665	17258
901.784	17254
901.904	17022
902.023	17071
902.141	16869
902.26	16801
902.379	16782
902.498	16721
902.617	16736
902.735	16797
902.854	16843
902.973	16664
903.091	16508
903.21	16523
903.328	16485
903.446	16337
903.565	16261
903.683	16322
903.801	16265
903.919	16242
904.038	16230
904.156	16051
904.274	16211
904.392	16036
904.51	15941
904.627	16040
904.745	16063
904.863	16078
904.981	15888
905.098	15766
905.216	15709
905.334	15694
905.451	15736
905.569	15686
905.686	15701
905.803	15785
905.921	15523
906.038	15595
906.155	15557
906.272	15408
906.389	15519
906.506	15287
906.623	15264
906.74	15325
906.857	15077
906.974	15066
907.091	15252
907.208	15374
907.324	15283
907.441	15245
907.557	15020
907.674	15036
907.79	14857
907.907	14952
908.023	14990
908.139	14937
908.256	14963
908.372	14902
908.488	14845
908.604	14667
908.72	14602
908.836	14708
908.952	14705
909.068	14693
909.184	14769
909.3	14712
909.415	14735
909.531	14651
909.647	14492
909.762	14461
909.878	14347
909.993	14389
910.108	14336
910.224	14374
910.339	14358
910.454	14290
910.57	14157
910.685	14172
910.8	14476
910.915	14389
911.03	14161
911.145	14195
911.259	13959
911.374	13959
911.489	13932
911.604	13921
911.718	13769
911.833	13753
911.947	13636
912.062	13559
912.176	13738
912.291	13780
912.405	13757
912.519	13833
912.633	13909
912.748	13890
912.862	13772
912.976	13643
913.09	13430
913.204	13548
913.318	13586
913.431	13696
913.545	13636
913.659	13753
913.772	13540
913.886	13445
914	13396
914.113	13537
914.226	13552
914.34	13518
914.453	13388
914.566	13525
914.68	13304
914.793	13438
914.906	13183
915.019	13023
915.132	12962
915.245	13164
915.358	13050
915.47	13118
915.583	13213
915.696	13141
915.809	13293
915.921	13304
916.034	13103
916.146	13023
916.259	13034
916.371	13129
916.483	13118
916.595	13004
916.708	12981
916.82	12924
916.932	12970
917.044	12882
917.156	13061
917.268	12791
917.38	12810
917.491	12757
917.603	12787
917.715	12909
917.826	12928
917.938	12726
918.049	12734
918.161	12852
918.272	12985
918.384	12973
918.495	12798
918.606	12639
918.717	12528
918.828	12696
918.939	12639
919.05	12494
919.161	12521
919.272	12422
919.383	12475
919.494	12711
919.604	12829
919.715	12551
919.826	12467
919.936	12559
920.047	12734
920.157	12593
920.267	12787
920.378	12642
920.488	12513
920.598	12768
920.708	12802
920.818	12711
920.928	12798
921.038	12882
921.148	12837
921.258	12502
921.368	12513
921.477	12357
921.587	12285
921.697	12175
921.806	12319
921.916	12277
922.025	12125
922.134	11988
922.244	11866
922.353	12091
922.462	11828
922.571	11851
922.68	11710
922.789	11771
922.898	11668
923.007	11604
923.116	11653
923.224	11672
923.333	11691
923.442	11600
923.55	11501
923.659	11604
923.767	11653
923.876	11444
923.984	11672
924.092	11463
924.201	11482
924.309	11509
924.417	11535
924.525	11429
924.633	11478
924.741	12190
924.849	11220
924.956	11425
925.064	11178
925.172	11181
925.279	11201
925.387	11235
925.494	11193
925.602	11414
925.709	11280
925.816	11109
925.924	11204
926.031	11280
926.138	11265
926.245	11216
926.352	11022
926.459	11201
926.566	11258
926.673	11109
926.779	10949
926.886	10995
926.993	10847
927.099	10831
927.206	10809
927.312	10763
927.419	10873
927.525	10904
927.631	10881
927.737	10763
927.843	10733
927.95	10561
928.056	10649
928.162	10660
928.267	10736
928.373	11330
928.479	10733
928.585	10538
928.69	10656
928.796	10675
928.901	10607
929.007	10546
929.112	10554
929.218	10584
929.323	10504
929.428	10462
929.533	10580
929.638	10356
929.743	10375
929.848	10504
929.953	10481
930.058	10421
930.163	10158
930.267	10147
930.372	10322
930.477	10154
930.581	10356
930.685	10234
930.79	9994
930.894	10071
930.998	10032
931.103	10242
931.207	9797
931.311	9770
931.415	9686
931.519	9507
931.623	9523
