Data from test_V78500241_3200.txt Node
Date: Fri Mar 25 14:55:59 CST 2022
User: usil
Spectrometer: V785-0024
Trigger mode: 0
Integration Time (sec): 4.000000E-1
Scans to average: 1
Nonlinearity correction enabled: false
Boxcar width: 0
Storing dark spectrum: false
XAxis mode: Wavelengths
Number of Pixels in Spectrum: 1024
>>>>>Begin Spectral Data<<<<<
801.071	21998
801.214	21915
801.356	21663
801.499	21549
801.641	21359
801.783	21344
801.926	21454
802.068	21424
802.211	21226
802.353	21176
802.496	20960
802.638	20948
802.78	20864
802.923	20826
803.065	20743
803.208	20663
803.35	20750
803.492	20804
803.635	20731
803.777	20697
803.919	20727
804.061	20994
804.204	20758
804.346	20667
804.488	20514
804.63	20724
804.773	20492
804.915	20629
805.057	20636
805.199	20526
805.341	20712
805.483	20697
805.626	20602
805.768	20621
805.91	20606
806.052	20609
806.194	20545
806.336	20735
806.478	20727
806.62	20575
806.762	20617
806.904	20830
807.046	20967
807.188	21005
807.33	20918
807.472	20899
807.614	20918
807.756	20834
807.898	20686
808.04	20659
808.182	20785
808.324	20781
808.465	20746
808.607	20861
808.749	21058
808.891	20986
809.033	21211
809.174	20986
809.316	20986
809.458	20994
809.6	20941
809.741	20963
809.883	20956
810.025	21146
810.166	21260
810.308	21207
810.45	21032
810.591	20941
810.733	20796
810.875	20838
811.016	20579
811.158	20667
811.299	20750
811.441	20868
811.582	20925
811.724	20632
811.865	20712
812.007	20648
812.148	20590
812.29	20746
812.431	20990
812.573	20933
812.714	21165
812.855	21298
812.997	21298
813.138	21439
813.279	21374
813.421	21241
813.562	21131
813.703	21047
813.845	20902
813.986	20594
814.127	20511
814.268	20408
814.41	20400
814.551	20183
814.692	20332
814.833	20199
814.974	20225
815.115	20191
815.256	20138
815.397	20161
815.539	20084
815.68	20111
815.821	19890
815.962	20103
816.103	20069
816.244	19860
816.385	19780
816.526	19723
816.666	19586
816.807	19407
816.948	19491
817.089	19601
817.23	19415
817.371	19487
817.512	19384
817.653	19411
817.793	19289
817.934	19457
818.075	19392
818.216	19453
818.356	19331
818.497	19282
818.638	19012
818.778	19156
818.919	19061
819.06	19126
819.2	19206
819.341	19282
819.481	19278
819.622	19365
819.762	19552
819.903	19525
820.043	19411
820.184	19426
820.324	19430
820.465	19453
820.605	19354
820.746	19377
820.886	19171
821.026	19343
821.167	19422
821.307	19426
821.447	19320
821.588	19110
821.728	19080
821.868	18947
822.008	18749
822.149	18692
822.289	18844
822.429	18429
822.569	18445
822.709	18460
822.849	18262
822.99	18361
823.13	18064
823.27	18228
823.41	18072
823.55	18087
823.69	18144
823.83	18140
823.97	17927
824.11	17843
824.25	17794
824.389	17840
824.529	17874
824.669	17851
824.809	17939
824.949	17855
825.089	17954
825.228	17847
825.368	17665
825.508	17718
825.648	17726
825.787	17608
825.927	17722
826.067	17619
826.206	17703
826.346	17729
826.485	17638
826.625	17516
826.765	17687
826.904	17634
827.044	17429
827.183	17402
827.323	17368
827.462	17425
827.601	17398
827.741	17223
827.88	17254
828.02	17231
828.159	17353
828.298	17273
828.437	17452
828.577	17185
828.716	17341
828.855	17265
828.994	17136
829.134	17056
829.273	17246
829.412	17105
829.551	17079
829.69	17086
829.829	17071
829.968	17159
830.107	17121
830.246	17045
830.385	17037
830.524	16965
830.663	16896
830.802	16752
830.941	16672
831.08	16721
831.219	16630
831.357	16752
831.496	16889
831.635	16740
831.774	16607
831.913	16622
832.051	16493
832.19	16504
832.329	16443
832.467	16432
832.606	16348
832.744	16462
832.883	16459
833.022	16291
833.16	16390
833.299	16417
833.437	16341
833.576	16424
833.714	16382
833.852	16443
833.991	16379
834.129	16542
834.267	16413
834.406	16481
834.544	16607
834.682	16546
834.821	16512
834.959	16508
835.097	16436
835.235	16561
835.373	16508
835.511	16390
835.65	16356
835.788	16390
835.926	16246
836.064	16139
836.202	16154
836.34	16329
836.478	16363
836.615	16253
836.753	16299
836.891	16466
837.029	16409
837.167	16303
837.305	16230
837.443	16249
837.58	16219
837.718	16310
837.856	16325
837.993	16128
838.131	16226
838.269	16173
838.406	16249
838.544	16071
838.681	15873
838.819	15983
838.956	15850
839.094	15804
839.231	15857
839.369	15899
839.506	16318
839.643	15968
839.781	15819
839.918	15679
840.055	15808
840.193	15838
840.33	15694
840.467	15766
840.604	15888
840.742	16082
840.879	15652
841.016	15660
841.153	15648
841.29	15781
841.427	15827
841.564	15876
841.701	15785
841.838	15808
841.975	15724
842.112	15625
842.249	15576
842.385	15515
842.522	15675
842.659	15622
842.796	15473
842.933	15557
843.069	15576
843.206	15523
843.343	15629
843.479	15538
843.616	15587
843.752	15348
843.889	15279
844.025	15511
844.162	15363
844.298	15515
844.435	15325
844.571	15321
844.708	15389
844.844	15481
844.98	15340
845.117	15447
845.253	15279
845.389	15268
845.525	15313
845.661	15256
845.798	15081
845.934	15127
846.07	15039
846.206	15188
846.342	15317
846.478	15135
846.614	14971
846.75	14861
846.886	14765
847.022	14937
847.158	14823
847.294	14861
847.429	14994
847.565	14819
847.701	15074
847.837	14720
847.972	14564
848.108	14731
848.244	14697
848.379	14533
848.515	14442
848.65	14454
848.786	14400
848.921	14495
849.057	14564
849.192	14674
849.328	14499
849.463	14537
849.598	14522
849.734	14476
849.869	14381
850.004	14259
850.14	14256
850.275	14301
850.41	14092
850.545	14286
850.68	14309
850.815	14256
850.95	14191
851.085	14400
851.22	14282
851.355	14343
851.49	14339
851.625	14164
851.76	14343
851.895	14123
852.03	14157
852.165	14256
852.299	14298
852.434	14332
852.569	14229
852.703	14290
852.838	14347
852.973	14377
853.107	14431
853.242	14233
853.376	14153
853.511	14088
853.645	14142
853.78	14305
853.914	14138
854.048	14126
854.183	14138
854.317	14233
854.451	14400
854.585	14199
854.72	14130
854.854	14195
854.988	14031
855.122	14081
855.256	14027
855.39	14092
855.524	14275
855.658	14134
855.792	14214
855.926	14282
856.06	14161
856.194	14259
856.327	14267
856.461	14138
856.595	14054
856.729	14123
856.862	14187
856.996	14138
857.13	14168
857.263	14244
857.397	14271
857.53	14103
857.664	14195
857.797	14195
857.931	14233
858.064	14149
858.197	14336
858.331	14054
858.464	14172
858.597	14073
858.731	14199
858.864	14077
858.997	14187
859.13	14138
859.263	14164
859.396	14301
859.529	14088
859.662	14054
859.795	14123
859.928	14176
860.061	14366
860.194	14385
860.327	14180
860.46	14180
860.592	14317
860.725	14332
860.858	14233
860.99	14199
861.123	14058
861.256	14107
861.388	14123
861.521	14956
861.653	14073
861.786	14016
861.918	14084
862.05	14180
862.183	14073
862.315	14123
862.447	14187
862.58	14031
862.712	13959
862.844	13913
862.976	14062
863.108	14020
863.24	14252
863.372	13963
863.504	13864
863.636	13864
863.768	13989
863.9	13951
864.032	13841
864.164	13898
864.296	13986
864.428	13951
864.559	14016
864.691	14069
864.823	14008
864.954	14016
865.086	13921
865.217	13849
865.349	13833
865.48	13947
865.612	13974
865.743	14020
865.875	13928
866.006	13913
866.137	13879
866.269	13875
866.4	14008
866.531	13845
866.662	13913
866.793	13822
866.924	13925
867.055	13989
867.186	13951
867.317	13890
867.448	13826
867.579	13849
867.71	13807
867.841	13852
867.972	13951
868.103	13852
868.233	13963
868.364	13955
868.495	13894
868.625	14096
868.756	14298
868.886	14134
869.017	14134
869.147	14161
869.278	14317
869.408	14168
869.539	14161
869.669	14263
869.799	14164
869.929	14237
870.06	14320
870.19	14461
870.32	14514
870.45	14465
870.58	14419
870.71	14769
870.84	14648
870.97	14636
871.1	14556
871.23	14788
871.36	14724
871.489	14617
871.619	14785
871.749	14765
871.879	14880
872.008	14845
872.138	14842
872.267	14773
872.397	14571
872.526	14545
872.656	14560
872.785	14636
872.915	14788
873.044	14933
873.173	14830
873.303	14815
873.432	14883
873.561	14921
873.69	14788
873.819	14785
873.948	14887
874.077	14864
874.206	14781
874.335	14773
874.464	14971
874.593	15058
874.722	15055
874.851	15085
874.979	15154
875.108	15237
875.237	15093
875.365	15047
875.494	15142
875.623	15211
875.751	15055
875.88	15180
876.008	15237
876.136	15431
876.265	15576
876.393	15694
876.521	15633
876.65	15538
876.778	15637
876.906	15584
877.034	15458
877.162	15591
877.29	15523
877.418	15519
877.546	15629
877.674	15557
877.802	15633
877.93	15553
878.058	15519
878.185	15561
878.313	15481
878.441	15679
878.568	15359
878.696	15496
878.824	15690
878.951	15629
879.079	15701
879.206	15804
879.333	15701
879.461	15568
879.588	15743
879.715	15774
879.842	15800
879.97	15625
880.097	15386
880.224	15439
880.351	15450
880.478	15462
880.605	15485
880.732	15382
880.859	15671
880.986	15386
881.112	15401
881.239	15275
881.366	15283
881.493	15112
881.619	15074
881.746	15112
881.872	15142
881.999	14967
882.125	14960
882.252	15165
882.378	15138
882.505	15214
882.631	14986
882.757	14910
882.883	14921
883.01	14887
883.136	14883
883.262	14667
883.388	14682
883.514	14925
883.64	14906
883.766	14781
883.892	14621
884.018	14648
884.143	14929
884.269	14963
884.395	14617
884.52	14598
884.646	14583
884.772	14606
884.897	14522
885.023	14549
885.148	14746
885.274	14788
885.399	14689
885.524	14746
885.65	14659
885.775	14568
885.9	14507
886.025	14655
886.15	14682
886.275	14560
886.4	14530
886.525	14568
886.65	14484
886.775	14537
886.9	14689
887.025	14853
887.149	14632
887.274	14404
887.399	14480
887.523	14404
887.648	14355
887.773	14343
887.897	14495
888.021	14476
888.146	14442
888.27	14446
888.395	14507
888.519	14507
888.643	14484
888.767	14476
888.891	14339
889.015	14282
889.139	14317
889.263	14298
889.387	14434
889.511	14492
889.635	14457
889.759	14317
889.883	14370
890.006	14294
890.13	14389
890.254	14233
890.377	14183
890.501	14050
890.624	14092
890.748	14214
890.871	14062
890.995	13898
891.118	13860
891.241	13940
891.364	14043
891.488	14084
891.611	14020
891.734	13947
891.857	14001
891.98	13944
892.103	14062
892.226	14065
892.349	13944
892.471	13822
892.594	14027
892.717	13925
892.839	13845
892.962	14062
893.085	14050
893.207	14065
893.33	13860
893.452	13940
893.575	14039
893.697	14001
893.819	14161
893.941	14229
894.064	14256
894.186	13917
894.308	13906
894.43	14119
894.552	14176
894.674	14123
894.796	13902
894.918	14024
895.04	14065
895.161	14062
895.283	14168
895.405	14084
895.526	14073
895.648	14073
895.769	14157
895.891	14153
896.012	14176
896.134	14149
896.255	14252
896.376	14126
896.498	14218
896.619	14225
896.74	14138
896.861	14206
896.982	14492
897.103	14663
897.224	14590
897.345	14370
897.466	14404
897.587	14492
897.708	14530
897.828	14503
897.949	14362
898.07	14294
898.19	14434
898.311	14537
898.431	14362
898.552	14541
898.672	14663
898.792	14636
898.913	14549
899.033	14488
899.153	14286
899.273	14282
899.393	14317
899.513	14446
899.633	14343
899.753	14408
899.873	14377
899.993	14423
900.113	14309
900.232	14412
900.352	14343
900.472	14282
900.591	14191
900.711	14305
900.83	14202
900.95	14256
901.069	14237
901.189	14218
901.308	14043
901.427	13788
901.546	13902
901.665	13894
901.784	13944
901.904	13708
902.023	13742
902.141	13563
902.26	13537
902.379	13578
902.498	13464
902.617	13438
902.735	13460
902.854	13552
902.973	13430
903.091	13198
903.21	13213
903.328	13339
903.446	13160
903.565	13046
903.683	13004
903.801	12985
903.919	13008
904.038	12996
904.156	12924
904.274	12996
904.392	12905
904.51	12867
904.627	12981
904.745	12909
904.863	12859
904.981	12715
905.098	12604
905.216	12521
905.334	12555
905.451	12563
905.569	12445
905.686	12665
905.803	12513
905.921	12391
906.038	12509
906.155	12338
906.272	12258
906.389	12357
906.506	12152
906.623	12110
906.74	12148
906.857	12060
906.974	12019
907.091	12239
907.208	12384
907.324	12277
907.441	12114
907.557	11939
907.674	11923
907.79	11866
907.907	11840
908.023	11866
908.139	11946
908.256	11840
908.372	11885
908.488	11821
908.604	11703
908.72	11577
908.836	11676
908.952	11684
909.068	11680
909.184	11783
909.3	11729
909.415	11752
909.531	11680
909.647	11463
909.762	11509
909.878	11436
909.993	11440
910.108	11467
910.224	11345
910.339	11402
910.454	11337
910.57	11261
910.685	11128
910.8	11585
910.915	11448
911.03	11280
911.145	11117
911.259	11083
911.374	11132
911.489	11041
911.604	11037
911.718	10858
911.833	10911
911.947	10748
912.062	10774
912.176	10828
912.291	10927
912.405	10930
912.519	11105
912.633	11056
912.748	10949
912.862	10790
912.976	10771
913.09	10603
913.204	10759
913.318	10763
913.431	10854
913.545	10843
913.659	10866
913.772	10889
913.886	10653
914	10679
914.113	10790
914.226	10854
914.34	10752
914.453	10630
914.566	10790
914.68	10596
914.793	10558
914.906	10466
915.019	10379
915.132	10341
915.245	10447
915.358	10417
915.47	10398
915.583	10421
915.696	10451
915.809	10584
915.921	10599
916.034	10386
916.146	10375
916.259	10360
916.371	10459
916.483	10402
916.595	10280
916.708	10299
916.82	10329
916.932	10322
917.044	10371
917.156	10318
917.268	10112
917.38	10196
917.491	10211
917.603	10280
917.715	10379
917.826	10394
917.938	10230
918.049	10135
918.161	10234
918.272	10344
918.384	10333
918.495	10204
918.606	10067
918.717	10036
918.828	10200
918.939	10036
919.05	10048
919.161	10074
919.272	9968
919.383	10063
919.494	10147
919.604	10363
919.715	10181
919.826	10067
919.936	10116
920.047	10219
920.157	10143
920.267	10344
920.378	10211
920.488	10211
920.598	10325
920.708	10478
920.818	10367
920.928	10249
921.038	10455
921.148	10394
921.258	10242
921.368	10116
921.477	10036
921.587	9934
921.697	9960
921.806	10071
921.916	9797
922.025	9724
922.134	9728
922.244	9633
922.353	9705
922.462	9644
922.571	9523
922.68	9435
922.789	9420
922.898	9412
923.007	9374
923.116	9367
923.224	9344
923.333	9393
923.442	9241
923.55	9302
923.659	9313
923.767	9344
923.876	9203
923.984	9325
924.092	9157
924.201	9283
924.309	9256
924.417	9344
924.525	9241
924.633	9211
924.741	10112
924.849	9085
924.956	9222
925.064	9024
925.172	9020
925.279	9043
925.387	9077
925.494	9005
925.602	9233
925.709	9116
925.816	8975
925.924	9047
926.031	9116
926.138	9051
926.245	9077
926.352	8994
926.459	9142
926.566	9169
926.673	9039
926.779	8982
926.886	8929
926.993	8819
927.099	8720
927.206	8819
927.312	8754
927.419	8853
927.525	8804
927.631	8796
927.737	8731
927.843	8727
927.95	8587
928.056	8693
928.162	8777
928.267	8804
928.373	9405
928.479	8750
928.585	8648
928.69	8720
928.796	8720
928.901	8655
929.007	8476
929.112	8724
929.218	8583
929.323	8507
929.428	8568
929.533	8621
929.638	8465
929.743	8480
929.848	8583
929.953	8461
930.058	8377
930.163	8305
930.267	8298
930.372	8476
930.477	8332
930.581	8484
930.685	8336
930.79	8206
930.894	8267
930.998	8256
931.103	8389
931.207	8069
931.311	8008
931.415	7932
931.519	7761
931.623	7742
