Data from test_V78500241_922.txt Node
Date: Fri Mar 25 14:40:08 CST 2022
User: usil
Spectrometer: V785-0024
Trigger mode: 0
Integration Time (sec): 4.000000E-1
Scans to average: 1
Nonlinearity correction enabled: false
Boxcar width: 0
Storing dark spectrum: false
XAxis mode: Wavelengths
Number of Pixels in Spectrum: 1024
>>>>>Begin Spectral Data<<<<<
801.071	24772
801.214	24684
801.356	24426
801.499	24235
801.641	24133
801.783	24018
801.926	24136
802.068	23935
802.211	23885
802.353	23790
802.496	23592
802.638	23627
802.78	23478
802.923	23395
803.065	23482
803.208	23311
803.35	23429
803.492	23551
803.635	23551
803.777	23299
803.919	23497
804.061	23756
804.204	23558
804.346	23379
804.488	23315
804.63	23455
804.773	23307
804.915	23368
805.057	23501
805.199	23467
805.341	23398
805.483	23642
805.626	23482
805.768	23463
805.91	23554
806.052	23486
806.194	23356
806.336	23703
806.478	23524
806.62	23554
806.762	23699
806.904	23821
807.046	23965
807.188	24133
807.33	24163
807.472	24224
807.614	24334
807.756	24483
807.898	24608
808.04	24700
808.182	25160
808.324	25419
808.465	26005
808.607	26541
808.749	27104
808.891	27382
809.033	27313
809.174	27112
809.316	26465
809.458	25894
809.6	25529
809.741	25126
809.883	24806
810.025	24783
810.166	24738
810.308	24540
810.45	24407
810.591	24216
810.733	24076
810.875	23996
811.016	23756
811.158	23722
811.299	23965
811.441	23923
811.582	23893
811.724	23775
811.865	23589
812.007	23687
812.148	23775
812.29	23748
812.431	23859
812.573	23912
812.714	24068
812.855	24216
812.997	24243
813.138	24327
813.279	24277
813.421	24194
813.562	23965
813.703	23870
813.845	23748
813.986	23455
814.127	23273
814.268	23143
814.41	23307
814.551	23227
814.692	23258
814.833	23121
814.974	23090
815.115	23075
815.256	22923
815.397	23029
815.539	22999
815.68	22908
815.821	22881
815.962	22866
816.103	22927
816.244	22774
816.385	22577
816.526	22603
816.666	22333
816.807	22276
816.948	22413
817.089	22451
817.23	22356
817.371	22265
817.512	22135
817.653	22192
817.793	22238
817.934	22181
818.075	22329
818.216	22219
818.356	22177
818.497	22067
818.638	21983
818.778	21869
818.919	21903
819.06	21949
819.2	22086
819.341	22207
819.481	22055
819.622	22242
819.762	22550
819.903	22287
820.043	22242
820.184	22162
820.324	22097
820.465	22188
820.605	22333
820.746	22169
820.886	21915
821.026	22314
821.167	22295
821.307	22196
821.447	22055
821.588	22055
821.728	21789
821.868	21759
822.008	21591
822.149	21580
822.289	21473
822.429	21287
822.569	21321
822.709	21169
822.849	21066
822.99	20937
823.13	20868
823.27	20918
823.41	20849
823.55	20823
823.69	20963
823.83	20872
823.97	20823
824.11	20632
824.25	20594
824.389	20564
824.529	20655
824.669	20609
824.809	20674
824.949	20636
825.089	20693
825.228	20560
825.368	20374
825.508	20438
825.648	20385
825.787	20492
825.927	20450
826.067	20290
826.206	20328
826.346	20385
826.485	20358
826.625	20377
826.765	20545
826.904	20370
827.044	20206
827.183	20172
827.323	19906
827.462	19993
827.601	20084
827.741	19970
827.88	19928
828.02	19898
828.159	20020
828.298	19944
828.437	20027
828.577	19986
828.716	20069
828.855	19978
828.994	19780
829.134	19727
829.273	19906
829.412	19765
829.551	19708
829.69	19761
829.829	19708
829.968	19883
830.107	19715
830.246	19677
830.385	19666
830.524	19540
830.663	19438
830.802	19487
830.941	19266
831.08	19407
831.219	19453
831.357	19396
831.496	19510
831.635	19384
831.774	19141
831.913	19206
832.051	19141
832.19	19145
832.329	19171
832.467	19023
832.606	18916
832.744	19137
832.883	19027
833.022	19050
833.16	19053
833.299	19034
833.437	19145
833.576	19110
833.714	19133
833.852	19293
833.991	19133
834.129	19255
834.267	19202
834.406	19228
834.544	19156
834.682	19221
834.821	19080
834.959	19247
835.097	19046
835.235	19236
835.373	19053
835.511	18970
835.65	18932
835.788	18901
835.926	18787
836.064	18711
836.202	18730
836.34	18958
836.478	18996
836.615	18741
836.753	18871
836.891	18894
837.029	18928
837.167	18897
837.305	18741
837.443	18730
837.58	18601
837.718	18947
837.856	18776
837.993	18741
838.131	18772
838.269	18730
838.406	18684
838.544	18563
838.681	18391
838.819	18414
838.956	18068
839.094	18254
839.231	18258
839.369	18292
839.506	18521
839.643	18471
839.781	18197
839.918	18174
840.055	18228
840.193	18182
840.33	18079
840.467	18121
840.604	18171
840.742	18369
840.879	17954
841.016	18114
841.153	18034
841.29	18376
841.427	18167
841.564	18133
841.701	18220
841.838	18060
841.975	18045
842.112	18026
842.249	17992
842.385	17942
842.522	18129
842.659	18003
842.796	17961
842.933	17901
843.069	17866
843.206	17786
843.343	17965
843.479	17931
843.616	17828
843.752	17714
843.889	17661
844.025	17847
844.162	17733
844.298	17870
844.435	17710
844.571	17786
844.708	17916
844.844	18015
844.98	18060
845.117	18087
845.253	18095
845.389	18338
845.525	18806
845.661	19525
845.798	20446
845.934	21306
846.07	21713
846.206	21519
846.342	21093
846.478	20008
846.614	18924
846.75	18171
846.886	17878
847.022	17714
847.158	17627
847.294	17619
847.429	17410
847.565	17269
847.701	17360
847.837	17037
847.972	16984
848.108	16987
848.244	17006
848.379	16991
848.515	16934
848.65	16752
848.786	16725
848.921	16847
849.057	16908
849.192	16831
849.328	16797
849.463	16763
849.598	16824
849.734	16771
849.869	16618
850.004	16634
850.14	16580
850.275	16542
850.41	16508
850.545	16455
850.68	16596
850.815	16466
850.95	16500
851.085	16607
851.22	16577
851.355	16554
851.49	16436
851.625	16542
851.76	16550
851.895	16390
852.03	16394
852.165	16508
852.299	16523
852.434	16561
852.569	16440
852.703	16611
852.838	16603
852.973	16611
853.107	16683
853.242	16523
853.376	16508
853.511	16398
853.645	16413
853.78	16554
853.914	16459
854.048	16356
854.183	16405
854.317	16440
854.451	16554
854.585	16417
854.72	16459
854.854	16474
854.988	16394
855.122	16398
855.256	16246
855.39	16443
855.524	16466
855.658	16466
855.792	16436
855.926	16428
856.06	16542
856.194	16523
856.327	16367
856.461	16325
856.595	16344
856.729	16402
856.862	16413
856.996	16344
857.13	16409
857.263	16382
857.397	16440
857.53	16428
857.664	16409
857.797	16470
857.931	16451
858.064	16417
858.197	16402
858.331	16352
858.464	16295
858.597	16306
858.731	16322
858.864	16405
858.997	16318
859.13	16398
859.263	16367
859.396	16466
859.529	16314
859.662	16295
859.795	16204
859.928	16295
860.061	16527
860.194	16405
860.327	16348
860.46	16341
860.592	16451
860.725	16512
860.858	16440
860.99	16325
861.123	16139
861.256	16234
861.388	16314
861.521	17079
861.653	16215
861.786	16109
861.918	16135
862.05	16131
862.183	16348
862.315	16261
862.447	16337
862.58	16150
862.712	16067
862.844	16059
862.976	16226
863.108	16044
863.24	16618
863.372	16071
863.504	16090
863.636	16093
863.768	16082
863.9	15987
864.032	16048
864.164	15991
864.296	16025
864.428	16185
864.559	16086
864.691	16109
864.823	16124
864.954	16006
865.086	16013
865.217	16021
865.349	15926
865.48	16067
865.612	16131
865.743	16242
865.875	16105
866.006	16025
866.137	15960
866.269	15949
866.4	15934
866.531	16029
866.662	16002
866.793	16063
866.924	15934
867.055	16131
867.186	15918
867.317	15915
867.448	15911
867.579	15934
867.71	15812
867.841	16013
867.972	15987
868.103	16017
868.233	16010
868.364	15991
868.495	16017
868.625	16185
868.756	16291
868.886	16204
869.017	16177
869.147	16337
869.278	16325
869.408	16287
869.539	16219
869.669	16322
869.799	16371
869.929	16394
870.06	16299
870.19	16550
870.32	16550
870.45	16630
870.58	16649
870.71	16672
870.84	16733
870.97	16641
871.1	16637
871.23	16771
871.36	16793
871.489	16927
871.619	16759
871.749	16889
871.879	16801
872.008	16976
872.138	16801
872.267	16790
872.397	16706
872.526	16607
872.656	16679
872.785	16698
872.915	16908
873.044	17037
873.173	17006
873.303	16900
873.432	16839
873.561	16957
873.69	16900
873.819	16892
873.948	17033
874.077	17003
874.206	16927
874.335	16957
874.464	17014
874.593	17269
874.722	17098
874.851	17364
874.979	17376
875.108	17364
875.237	17223
875.365	17242
875.494	17273
875.623	17311
875.751	17258
875.88	17250
876.008	17474
876.136	17398
876.265	17737
876.393	17843
876.521	17684
876.65	17745
876.778	17741
876.906	17767
877.034	17649
877.162	17760
877.29	17718
877.418	17923
877.546	17836
877.674	17813
877.802	17866
877.93	17817
878.058	17798
878.185	17786
878.313	17893
878.441	17977
878.568	17882
878.696	18136
878.824	18235
878.951	18528
879.079	18760
879.206	19259
879.333	19571
879.461	19525
879.588	19734
879.715	19909
879.842	19776
879.97	19316
880.097	18700
880.224	18517
880.351	18410
880.478	18220
880.605	18163
880.732	18121
880.859	18308
880.986	18030
881.112	18117
881.239	17824
881.366	17794
881.493	17676
881.619	17661
881.746	17729
881.872	17619
881.999	17687
882.125	17684
882.252	17756
882.378	17604
882.505	17847
882.631	17551
882.757	17585
882.883	17478
883.01	17608
883.136	17524
883.262	17299
883.388	17223
883.514	17615
883.64	17562
883.766	17467
883.892	17246
884.018	17349
884.143	17463
884.269	17520
884.395	17273
884.52	17162
884.646	17140
884.772	17064
884.897	17086
885.023	17216
885.148	17299
885.274	17261
885.399	17246
885.524	17231
885.65	17098
885.775	17143
885.9	17045
886.025	17113
886.15	17014
886.275	16961
886.4	16854
886.525	16991
886.65	16919
886.775	16938
886.9	17006
887.025	17105
887.149	16866
887.274	16767
887.399	16710
887.523	16641
887.648	16607
887.773	16622
887.897	16649
888.021	16717
888.146	16588
888.27	16725
888.395	16816
888.519	16649
888.643	16634
888.767	16752
888.891	16607
889.015	16367
889.139	16569
889.263	16432
889.387	16516
889.511	16573
889.635	16538
889.759	16455
889.883	16303
890.006	16390
890.13	16546
890.254	16322
890.377	16284
890.501	16158
890.624	16181
890.748	16257
890.871	16143
890.995	16048
891.118	15979
891.241	15968
891.364	16097
891.488	16067
891.611	15987
891.734	15953
891.857	16071
891.98	16093
892.103	16044
892.226	15975
892.349	15972
892.471	15816
892.594	15941
892.717	15987
892.839	15968
892.962	15998
893.085	16032
893.207	16029
893.33	15797
893.452	15781
893.575	15994
893.697	15949
893.819	15994
893.941	16120
894.064	15918
894.186	15823
894.308	15732
894.43	15994
894.552	16093
894.674	16029
894.796	16006
894.918	15937
895.04	15945
895.161	15915
895.283	16036
895.405	15812
895.526	15975
895.648	16010
895.769	15907
895.891	15937
896.012	16063
896.134	16025
896.255	16074
896.376	15937
896.498	15994
896.619	16120
896.74	15991
896.861	16059
896.982	16348
897.103	16462
897.224	16322
897.345	16143
897.466	16253
897.587	16219
897.708	16306
897.828	16249
897.949	16162
898.07	16150
898.19	16291
898.311	16481
898.431	16257
898.552	16257
898.672	16405
898.792	16451
898.913	16333
899.033	16265
899.153	16128
899.273	16143
899.393	16109
899.513	16124
899.633	16234
899.753	16226
899.873	16124
899.993	16204
900.113	16169
900.232	16249
900.352	16105
900.472	16109
900.591	16074
900.711	16063
900.83	16082
900.95	16158
901.069	16074
901.189	15911
901.308	15793
901.427	15713
901.546	15739
901.665	15660
901.784	15797
901.904	15610
902.023	15477
902.141	15291
902.26	15192
902.379	15268
902.498	15195
902.617	15222
902.735	15256
902.854	15222
902.973	15135
903.091	15020
903.21	14956
903.328	14868
903.446	14739
903.565	14758
903.683	14731
903.801	14560
903.919	14689
904.038	14564
904.156	14511
904.274	14575
904.392	14492
904.51	14499
904.627	14492
904.745	14598
904.863	14530
904.981	14240
905.098	14180
905.216	14168
905.334	14225
905.451	14153
905.569	14084
905.686	14176
905.803	14126
905.921	14001
906.038	14005
906.155	13963
906.272	13883
906.389	13811
906.506	13674
906.623	13704
906.74	13636
906.857	13636
906.974	13590
907.091	13715
907.208	13845
907.324	13746
907.441	13685
907.557	13430
907.674	13483
907.79	13320
907.907	13343
908.023	13483
908.139	13365
908.256	13327
908.372	13297
908.488	13251
908.604	13152
908.72	13133
908.836	13057
908.952	13095
909.068	13099
909.184	13095
909.3	13084
909.415	13187
909.531	13160
909.647	12897
909.762	12901
909.878	12829
909.993	12901
910.108	12844
910.224	12878
910.339	12916
910.454	12749
910.57	12730
910.685	12669
910.8	12989
910.915	12837
911.03	12726
911.145	12578
911.259	12635
911.374	12593
911.489	12448
911.604	12426
911.718	12289
911.833	12304
911.947	12148
912.062	12083
912.176	12308
912.291	12224
912.405	12205
912.519	12456
912.633	12490
912.748	12338
912.862	12228
912.976	12148
913.09	11996
913.204	12148
913.318	12152
913.431	12232
913.545	12239
913.659	12232
913.772	12068
913.886	12102
914	12030
914.113	12079
914.226	12178
914.34	12015
914.453	11908
914.566	12007
914.68	11931
914.793	11870
914.906	11805
915.019	11714
915.132	11695
915.245	11729
915.358	11760
915.47	11771
915.583	11688
915.696	11851
915.809	11874
915.921	11874
916.034	11775
916.146	11653
916.259	11630
916.371	11699
916.483	11718
916.595	11619
916.708	11623
916.82	11623
916.932	11627
917.044	11554
917.156	11672
917.268	11524
917.38	11604
917.491	11524
917.603	11577
917.715	11524
917.826	11592
917.938	11482
918.049	11383
918.161	11501
918.272	11615
918.384	11615
918.495	11551
918.606	11395
918.717	11345
918.828	11337
918.939	11330
919.05	11258
919.161	11284
919.272	11128
919.383	11143
919.494	11376
919.604	11497
919.715	11311
919.826	11185
919.936	11280
920.047	11467
920.157	11360
920.267	11532
920.378	11288
920.488	11334
920.598	11535
920.708	11688
920.818	11551
920.928	11539
921.038	11695
921.148	11600
921.258	11353
921.368	11242
921.477	11174
921.587	11136
921.697	11052
921.806	11086
921.916	11037
922.025	10847
922.134	10862
922.244	10729
922.353	10873
922.462	10714
922.571	10763
922.68	10519
922.789	10421
922.898	10535
923.007	10443
923.116	10584
923.224	10519
923.333	10474
923.442	10421
923.55	10379
923.659	10443
923.767	10432
923.876	10367
923.984	10424
924.092	10341
924.201	10402
924.309	10402
924.417	10363
924.525	10207
924.633	10280
924.741	11136
924.849	10135
924.956	10303
925.064	10063
925.172	10063
925.279	10090
925.387	10131
925.494	10112
925.602	10215
925.709	10223
925.816	9998
925.924	10109
926.031	10143
926.138	10021
926.245	10158
926.352	9945
926.459	10185
926.566	10128
926.673	9998
926.779	9987
926.886	9949
926.993	9842
927.099	9789
927.206	9663
927.312	9671
927.419	9816
927.525	9827
927.631	9854
927.737	9717
927.843	9663
927.95	9545
928.056	9686
928.162	9724
928.267	9732
928.373	10314
928.479	9747
928.585	9572
928.69	9603
928.796	9667
928.901	9561
929.007	9428
929.112	9599
929.218	9603
929.323	9439
929.428	9504
929.533	9622
929.638	9420
929.743	9420
929.848	9412
929.953	9393
930.058	9386
930.163	9245
930.267	9348
930.372	9370
930.477	9207
930.581	9443
930.685	9256
930.79	9211
930.894	9214
930.998	9062
931.103	9310
931.207	8880
931.311	8849
931.415	8815
931.519	8651
931.623	8602
