Data from test_V78500241_1370.txt Node
Date: Fri Mar 25 14:43:15 CST 2022
User: usil
Spectrometer: V785-0024
Trigger mode: 0
Integration Time (sec): 4.000000E-1
Scans to average: 1
Nonlinearity correction enabled: false
Boxcar width: 0
Storing dark spectrum: false
XAxis mode: Wavelengths
Number of Pixels in Spectrum: 1024
>>>>>Begin Spectral Data<<<<<
801.071	22485
801.214	22314
801.356	22036
801.499	21972
801.641	21800
801.783	21846
801.926	21770
802.068	21686
802.211	21671
802.353	21561
802.496	21378
802.638	21173
802.78	21169
802.923	21146
803.065	21017
803.208	20921
803.35	21131
803.492	21268
803.635	21332
803.777	21104
803.919	21173
804.061	21424
804.204	21100
804.346	21112
804.488	20921
804.63	21085
804.773	20895
804.915	21081
805.057	21233
805.199	20982
805.341	21066
805.483	21024
805.626	21150
805.768	21047
805.91	21017
806.052	21161
806.194	20902
806.336	21135
806.478	20986
806.62	21039
806.762	21146
806.904	21157
807.046	21439
807.188	21447
807.33	21382
807.472	21336
807.614	21245
807.756	21382
807.898	21195
808.04	21146
808.182	21256
808.324	21283
808.465	21321
808.607	21401
808.749	21614
808.891	21789
809.033	21854
809.174	21736
809.316	21603
809.458	21641
809.6	21564
809.741	21595
809.883	21606
810.025	21690
810.166	21629
810.308	21500
810.45	21545
810.591	21401
810.733	21340
810.875	21283
811.016	21199
811.158	21272
811.299	21192
811.441	21359
811.582	21336
811.724	21058
811.865	21195
812.007	21127
812.148	21249
812.29	21306
812.431	21443
812.573	21507
812.714	21576
812.855	21614
812.997	21857
813.138	21873
813.279	21854
813.421	21800
813.562	21633
813.703	21485
813.845	21332
813.986	21142
814.127	20941
814.268	20754
814.41	20861
814.551	20727
814.692	20861
814.833	20750
814.974	20640
815.115	20743
815.256	20697
815.397	20644
815.539	20590
815.68	20564
815.821	20351
815.962	20609
816.103	20454
816.244	20377
816.385	20267
816.526	20275
816.666	20195
816.807	19925
816.948	20035
817.089	20081
817.23	20001
817.371	20020
817.512	19928
817.653	20005
817.793	19963
817.934	19780
818.075	19887
818.216	19940
818.356	19791
818.497	19761
818.638	19651
818.778	19685
818.919	19658
819.06	19674
819.2	19894
819.341	19788
819.481	19868
819.622	19925
819.762	20115
819.903	20054
820.043	19997
820.184	19967
820.324	19811
820.465	19970
820.605	20016
820.746	19856
820.886	19814
821.026	19776
821.167	19864
821.307	19970
821.447	19841
821.588	19719
821.728	19582
821.868	19480
822.008	19419
822.149	19312
822.289	19365
822.429	19183
822.569	18973
822.709	19023
822.849	18909
822.99	18741
823.13	18913
823.27	18745
823.41	18795
823.55	18589
823.69	18627
823.83	18719
823.97	18448
824.11	18452
824.25	18323
824.389	18380
824.529	18486
824.669	18353
824.809	18502
824.949	18445
825.089	18479
825.228	18403
825.368	18239
825.508	18201
825.648	18140
825.787	18273
825.927	18311
826.067	18110
826.206	18087
826.346	18220
826.485	18125
826.625	18102
826.765	18285
826.904	18220
827.044	17965
827.183	17889
827.323	17863
827.462	17916
827.601	17866
827.741	17748
827.88	17901
828.02	17714
828.159	17813
828.298	17885
828.437	17893
828.577	17714
828.716	17958
828.855	17729
828.994	17627
829.134	17592
829.273	17619
829.412	17600
829.551	17615
829.69	17589
829.829	17604
829.968	17722
830.107	17722
830.246	17608
830.385	17570
830.524	17528
830.663	17467
830.802	17303
830.941	17261
831.08	17143
831.219	17429
831.357	17315
831.496	17383
831.635	17140
831.774	17170
831.913	17113
832.051	16991
832.19	17083
832.329	17109
832.467	16915
832.606	16923
832.744	16968
832.883	16904
833.022	17025
833.16	16915
833.299	17022
833.437	16987
833.576	17105
833.714	17025
833.852	17060
833.991	16904
834.129	17052
834.267	16999
834.406	16999
834.544	17010
834.682	17010
834.821	17018
834.959	17181
835.097	16889
835.235	17018
835.373	17075
835.511	16991
835.65	16946
835.788	17003
835.926	16759
836.064	16679
836.202	16675
836.34	16900
836.478	17003
836.615	16930
836.753	16961
836.891	17006
837.029	16946
837.167	16828
837.305	16942
837.443	16683
837.58	16653
837.718	16759
837.856	16786
837.993	16672
838.131	16702
838.269	16668
838.406	16740
838.544	16584
838.681	16436
838.819	16375
838.956	16367
839.094	16265
839.231	16329
839.369	16382
839.506	16782
839.643	16459
839.781	16299
839.918	16204
840.055	16306
840.193	16303
840.33	16367
840.467	16207
840.604	16348
840.742	16531
840.879	16215
841.016	16215
841.153	16177
841.29	16455
841.427	16219
841.564	16379
841.701	16356
841.838	16204
841.975	16204
842.112	16287
842.249	16097
842.385	16109
842.522	16246
842.659	16082
842.796	16154
842.933	16036
843.069	16017
843.206	16032
843.343	16177
843.479	16158
843.616	16067
843.752	15934
843.889	15915
844.025	15972
844.162	15865
844.298	16109
844.435	15895
844.571	15679
844.708	15873
844.844	16090
844.98	16040
845.117	15975
845.253	15892
845.389	15781
845.525	15903
845.661	15857
845.798	15873
845.934	16006
846.07	15926
846.206	16032
846.342	15968
846.478	15895
846.614	15656
846.75	15431
846.886	15393
847.022	15553
847.158	15431
847.294	15466
847.429	15431
847.565	15454
847.701	15633
847.837	15165
847.972	15218
848.108	15321
848.244	15291
848.379	15043
848.515	14944
848.65	14994
848.786	15013
848.921	14941
849.057	15138
849.192	15039
849.328	15112
849.463	15055
849.598	14967
849.734	14925
849.869	14944
850.004	14796
850.14	14849
850.275	14819
850.41	14701
850.545	14853
850.68	14762
850.815	14792
850.95	14765
851.085	14910
851.22	14872
851.355	14872
851.49	14796
851.625	14735
851.76	14708
851.895	14705
852.03	14625
852.165	14746
852.299	14731
852.434	14781
852.569	14849
852.703	14705
852.838	14849
852.973	14952
853.107	14933
853.242	14765
853.376	14587
853.511	14552
853.645	14697
853.78	14792
853.914	14644
854.048	14594
854.183	14499
854.317	14651
854.451	14765
854.585	14739
854.72	14693
854.854	14663
854.988	14518
855.122	14560
855.256	14511
855.39	14613
855.524	14705
855.658	14663
855.792	14701
855.926	14739
856.06	14648
856.194	14655
856.327	14667
856.461	14686
856.595	14632
856.729	14617
856.862	14849
856.996	14743
857.13	14724
857.263	14743
857.397	14811
857.53	14606
857.664	14746
857.797	14670
857.931	14765
858.064	14773
858.197	14807
858.331	14659
858.464	14610
858.597	14549
858.731	14602
858.864	14625
858.997	14693
859.13	14610
859.263	14686
859.396	14720
859.529	14644
859.662	14682
859.795	14636
859.928	14682
860.061	14773
860.194	14842
860.327	14648
860.46	14583
860.592	14727
860.725	14807
860.858	14720
860.99	14594
861.123	14560
861.256	14495
861.388	14621
861.521	15389
861.653	14518
861.786	14408
861.918	14549
862.05	14549
862.183	14594
862.315	14724
862.447	14651
862.58	14636
862.712	14415
862.844	14415
862.976	14499
863.108	14473
863.24	14785
863.372	14309
863.504	14396
863.636	14408
863.768	14385
863.9	14461
864.032	14298
864.164	14469
864.296	14404
864.428	14606
864.559	14507
864.691	14560
864.823	14450
864.954	14465
865.086	14427
865.217	14446
865.349	14419
865.48	14408
865.612	14454
865.743	14552
865.875	14446
866.006	14370
866.137	14408
866.269	14412
866.4	14355
866.531	14355
866.662	14351
866.793	14298
866.924	14317
867.055	14358
867.186	14434
867.317	14412
867.448	14324
867.579	14370
867.71	14176
867.841	14332
867.972	14427
868.103	14385
868.233	14431
868.364	14442
868.495	14533
868.625	14678
868.756	14754
868.886	14545
869.017	14651
869.147	14655
869.278	14731
869.408	14727
869.539	14705
869.669	14674
869.799	14785
869.929	14815
870.06	14765
870.19	14990
870.32	15028
870.45	14937
870.58	14967
870.71	15176
870.84	15192
870.97	15017
871.1	14982
871.23	15340
871.36	15211
871.489	15104
871.619	15192
871.749	15165
871.879	15332
872.008	15408
872.138	15245
872.267	15214
872.397	15146
872.526	15066
872.656	15074
872.785	15108
872.915	15199
873.044	15363
873.173	15272
873.303	15302
873.432	15386
873.561	15370
873.69	15389
873.819	15279
873.948	15386
874.077	15256
874.206	15291
874.335	15283
874.464	15428
874.593	15485
874.722	15595
874.851	15587
874.979	15614
875.108	15812
875.237	15523
875.365	15443
875.494	15542
875.623	15690
875.751	15637
875.88	15606
876.008	15850
876.136	15880
876.265	15941
876.393	16071
876.521	16067
876.65	16097
876.778	15964
876.906	15949
877.034	15934
877.162	16044
877.29	15941
877.418	15941
877.546	16040
877.674	16010
877.802	15998
877.93	15972
878.058	16055
878.185	15892
878.313	16025
878.441	16040
878.568	15945
878.696	16055
878.824	15991
878.951	16082
879.079	16257
879.206	16367
879.333	16379
879.461	16097
879.588	16314
879.715	16363
879.842	16440
879.97	16188
880.097	16029
880.224	15819
880.351	15964
880.478	15945
880.605	15854
880.732	16010
880.859	16059
880.986	16013
881.112	15895
881.239	15766
881.366	15709
881.493	15606
881.619	15564
881.746	15606
881.872	15606
881.999	15549
882.125	15530
882.252	15629
882.378	15633
882.505	15686
882.631	15557
882.757	15340
882.883	15462
883.01	15439
883.136	15306
883.262	15233
883.388	15214
883.514	15431
883.64	15370
883.766	15291
883.892	15142
884.018	15272
884.143	15492
884.269	15393
884.395	15131
884.52	15089
884.646	15089
884.772	14960
884.897	14902
885.023	15116
885.148	15119
885.274	15298
885.399	15123
885.524	15013
885.65	15161
885.775	14994
885.9	15039
886.025	15199
886.15	15093
886.275	15001
886.4	14944
886.525	15066
886.65	15005
886.775	15005
886.9	15207
887.025	15252
887.149	14986
887.274	14914
887.399	14857
887.523	14811
887.648	14804
887.773	14762
887.897	15043
888.021	14902
888.146	14887
888.27	15108
888.395	14937
888.519	14899
888.643	14819
888.767	15013
888.891	14823
889.015	14785
889.139	14754
889.263	14693
889.387	14853
889.511	14967
889.635	14883
889.759	14701
889.883	14621
890.006	14788
890.13	14804
890.254	14602
890.377	14716
890.501	14514
890.624	14522
890.748	14655
890.871	14450
890.995	14358
891.118	14290
891.241	14484
891.364	14438
891.488	14560
891.611	14427
891.734	14374
891.857	14495
891.98	14389
892.103	14514
892.226	14415
892.349	14465
892.471	14328
892.594	14351
892.717	14381
892.839	14442
892.962	14393
893.085	14419
893.207	14343
893.33	14233
893.452	14404
893.575	14488
893.697	14465
893.819	14549
893.941	14625
894.064	14541
894.186	14309
894.308	14385
894.43	14412
894.552	14575
894.674	14564
894.796	14286
894.918	14514
895.04	14518
895.161	14530
895.283	14454
895.405	14450
895.526	14450
895.648	14533
895.769	14617
895.891	14644
896.012	14556
896.134	14613
896.255	14556
896.376	14514
896.498	14579
896.619	14625
896.74	14457
896.861	14617
896.982	14971
897.103	14998
897.224	14849
897.345	14724
897.466	14788
897.587	14872
897.708	14937
897.828	14830
897.949	14746
898.07	14663
898.19	14727
898.311	14941
898.431	14864
898.552	14887
898.672	14956
898.792	14906
898.913	14956
899.033	14914
899.153	14712
899.273	14731
899.393	14735
899.513	14663
899.633	14705
899.753	14743
899.873	14716
899.993	14811
900.113	14686
900.232	14804
900.352	14769
900.472	14735
900.591	14613
900.711	14731
900.83	14617
900.95	14743
901.069	14743
901.189	14473
901.308	14488
901.427	14343
901.546	14336
901.665	14355
901.784	14301
901.904	14180
902.023	14081
902.141	13860
902.26	13761
902.379	13894
902.498	13826
902.617	13769
902.735	13856
902.854	13879
902.973	13753
903.091	13556
903.21	13540
903.328	13586
903.446	13521
903.565	13392
903.683	13430
903.801	13244
903.919	13392
904.038	13274
904.156	13198
904.274	13396
904.392	13149
904.51	13297
904.627	13175
904.745	13301
904.863	13236
904.981	13110
905.098	12901
905.216	12916
905.334	13050
905.451	12863
905.569	12863
905.686	12894
905.803	12901
905.921	12810
906.038	12894
906.155	12722
906.272	12650
906.389	12688
906.506	12597
906.623	12506
906.74	12483
906.857	12361
906.974	12441
907.091	12585
907.208	12578
907.324	12559
907.441	12399
907.557	12330
907.674	12133
907.79	12159
907.907	12178
908.023	12209
908.139	12308
908.256	12133
908.372	12121
908.488	12133
908.604	11977
908.72	11942
908.836	12030
908.952	12003
909.068	12030
909.184	12152
909.3	12034
909.415	12041
909.531	11969
909.647	11710
909.762	11786
909.878	11745
909.993	11729
910.108	11710
910.224	11729
910.339	11794
910.454	11668
910.57	11672
910.685	11634
910.8	11798
910.915	11817
911.03	11596
911.145	11490
911.259	11471
911.374	11421
911.489	11345
911.604	11398
911.718	11208
911.833	11239
911.947	11174
912.062	11090
912.176	11204
912.291	11261
912.405	11208
912.519	11376
912.633	11379
912.748	11326
912.862	11208
912.976	11128
913.09	11090
913.204	11090
913.318	11117
913.431	11231
913.545	11162
913.659	11124
913.772	11079
913.886	11037
914	10908
914.113	11075
914.226	11124
914.34	11052
914.453	10953
914.566	11022
914.68	10991
914.793	10949
914.906	10771
915.019	10706
915.132	10588
915.245	10774
915.358	10672
915.47	10714
915.583	10664
915.696	10744
915.809	10862
915.921	10809
916.034	10694
916.146	10588
916.259	10702
916.371	10759
916.483	10748
916.595	10725
916.708	10573
916.82	10668
916.932	10599
917.044	10634
917.156	10569
917.268	10474
917.38	10542
917.491	10432
917.603	10561
917.715	10611
917.826	10668
917.938	10497
918.049	10474
918.161	10535
918.272	10740
918.384	10675
918.495	10584
918.606	10462
918.717	10363
918.828	10360
918.939	10382
919.05	10356
919.161	10382
919.272	10249
919.383	10276
919.494	10470
919.604	10584
919.715	10417
919.826	10314
919.936	10360
920.047	10542
920.157	10447
920.267	10626
920.378	10489
920.488	10474
920.598	10645
920.708	10706
920.818	10645
920.928	10599
921.038	10767
921.148	10714
921.258	10367
921.368	10360
921.477	10268
921.587	10215
921.697	10200
921.806	10306
921.916	10177
922.025	10040
922.134	9895
922.244	9960
922.353	10010
922.462	9888
922.571	9732
922.68	9724
922.789	9595
922.898	9705
923.007	9633
923.116	9690
923.224	9606
923.333	9660
923.442	9595
923.55	9576
923.659	9610
923.767	9622
923.876	9530
923.984	9603
924.092	9496
924.201	9530
924.309	9454
924.417	9561
924.525	9469
924.633	9526
924.741	10413
924.849	9272
924.956	9485
925.064	9332
925.172	9241
925.279	9264
925.387	9351
925.494	9321
925.602	9424
925.709	9355
925.816	9260
925.924	9298
926.031	9382
926.138	9294
926.245	9374
926.352	9279
926.459	9473
926.566	9329
926.673	9260
926.779	9157
926.886	9199
926.993	9081
927.099	9077
927.206	9005
927.312	8975
927.419	9055
927.525	9039
927.631	9100
927.737	8960
927.843	8918
927.95	8811
928.056	8918
928.162	8876
928.267	8944
928.373	9568
928.479	8963
928.585	8746
928.69	8861
928.796	8933
928.901	8739
929.007	8644
929.112	8834
929.218	8781
929.323	8716
929.428	8682
929.533	8845
929.638	8670
929.743	8708
929.848	8750
929.953	8785
930.058	8632
930.163	8461
930.267	8488
930.372	8674
930.477	8423
930.581	8670
930.685	8541
930.79	8381
930.894	8492
930.998	8393
931.103	8560
931.207	8180
931.311	8172
931.415	8077
931.519	7947
931.623	7906
