Data from test_V78500241_908.txt Node
Date: Fri Mar 25 14:40:02 CST 2022
User: usil
Spectrometer: V785-0024
Trigger mode: 0
Integration Time (sec): 4.000000E-1
Scans to average: 1
Nonlinearity correction enabled: false
Boxcar width: 0
Storing dark spectrum: false
XAxis mode: Wavelengths
Number of Pixels in Spectrum: 1024
>>>>>Begin Spectral Data<<<<<
801.071	25065
801.214	24848
801.356	24711
801.499	24483
801.641	24429
801.783	24357
801.926	24433
802.068	24228
802.211	24102
802.353	24076
802.496	23942
802.638	23707
802.78	23729
802.923	23836
803.065	23630
803.208	23562
803.35	23714
803.492	23832
803.635	23767
803.777	23828
803.919	23649
804.061	24026
804.204	23863
804.346	23767
804.488	23611
804.63	23695
804.773	23573
804.915	23684
805.057	23821
805.199	23638
805.341	23741
805.483	23912
805.626	23794
805.768	23638
805.91	23794
806.052	23847
806.194	23752
806.336	24144
806.478	23973
806.62	23946
806.762	24076
806.904	24258
807.046	24479
807.188	24486
807.33	24722
807.472	24798
807.614	24791
807.756	25099
807.898	25301
808.04	25460
808.182	25818
808.324	26328
808.465	26990
808.607	27618
808.749	28291
808.891	28531
809.033	28675
809.174	28253
809.316	27553
809.458	27081
809.6	26278
809.741	26020
809.883	25533
810.025	25445
810.166	25148
810.308	25080
810.45	24757
810.591	24749
810.733	24353
810.875	24361
811.016	24232
811.158	24102
811.299	24140
811.441	24182
811.582	24372
811.724	24114
811.865	24049
812.007	23996
812.148	24171
812.29	24110
812.431	24178
812.573	24319
812.714	24486
812.855	24513
812.997	24627
813.138	24681
813.279	24437
813.421	24467
813.562	24433
813.703	24224
813.845	24091
813.986	23783
814.127	23771
814.268	23581
814.41	23535
814.551	23467
814.692	23516
814.833	23547
814.974	23402
815.115	23455
815.256	23204
815.397	23239
815.539	23315
815.68	23216
815.821	23143
815.962	23181
816.103	23178
816.244	22980
816.385	22820
816.526	22904
816.666	22668
816.807	22455
816.948	22675
817.089	22744
817.23	22691
817.371	22489
817.512	22478
817.653	22584
817.793	22645
817.934	22584
818.075	22744
818.216	22535
818.356	22436
818.497	22341
818.638	22169
818.778	22211
818.919	22169
819.06	22287
819.2	22299
819.341	22417
819.481	22386
819.622	22466
819.762	22694
819.903	22630
820.043	22527
820.184	22352
820.324	22375
820.465	22443
820.605	22409
820.746	22493
820.886	22287
821.026	22386
821.167	22356
821.307	22538
821.447	22291
821.588	22181
821.728	22238
821.868	21907
822.008	21918
822.149	21736
822.289	21686
822.429	21431
822.569	21477
822.709	21405
822.849	21348
822.99	21100
823.13	21252
823.27	21192
823.41	21020
823.55	21036
823.69	21081
823.83	20998
823.97	20952
824.11	20823
824.25	20735
824.389	20876
824.529	20986
824.669	20819
824.809	20902
824.949	20864
825.089	20925
825.228	20868
825.368	20648
825.508	20693
825.648	20667
825.787	20659
825.927	20636
826.067	20549
826.206	20636
826.346	20590
826.485	20549
826.625	20632
826.765	20842
826.904	20556
827.044	20366
827.183	20393
827.323	20309
827.462	20317
827.601	20218
827.741	20377
827.88	20309
828.02	20180
828.159	20282
828.298	20237
828.437	20362
828.577	20191
828.716	20317
828.855	20278
828.994	20005
829.134	20008
829.273	19989
829.412	19959
829.551	19925
829.69	19852
829.829	20008
829.968	20039
830.107	20035
830.246	19947
830.385	19932
830.524	19780
830.663	19791
830.802	19674
830.941	19559
831.08	19639
831.219	19708
831.357	19624
831.496	19837
831.635	19480
831.774	19445
831.913	19499
832.051	19468
832.19	19232
832.329	19491
832.467	19297
832.606	19168
832.744	19228
832.883	19228
833.022	19255
833.16	19392
833.299	19415
833.437	19171
833.576	19400
833.714	19449
833.852	19468
833.991	19597
834.129	19518
834.267	19510
834.406	19464
834.544	19308
834.682	19377
834.821	19381
834.959	19502
835.097	19289
835.235	19388
835.373	19285
835.511	19381
835.65	19072
835.788	19126
835.926	19145
836.064	19076
836.202	18913
836.34	19225
836.478	19065
836.615	19145
836.753	19114
836.891	19152
837.029	19175
837.167	19080
837.305	19050
837.443	19015
837.58	18897
837.718	18901
837.856	18970
837.993	18916
838.131	18878
838.269	18848
838.406	18852
838.544	18741
838.681	18700
838.819	18623
838.956	18361
839.094	18471
839.231	18353
839.369	18650
839.506	18791
839.643	18612
839.781	18391
839.918	18479
840.055	18471
840.193	18391
840.33	18201
840.467	18437
840.604	18258
840.742	18688
840.879	18163
841.016	18251
841.153	18190
841.29	18388
841.427	18395
841.564	18540
841.701	18384
841.838	18254
841.975	18220
842.112	18319
842.249	18239
842.385	18163
842.522	18262
842.659	18129
842.796	18190
842.933	18114
843.069	17969
843.206	18011
843.343	18167
843.479	18213
843.616	18114
843.752	17920
843.889	17923
844.025	18057
844.162	17817
844.298	18022
844.435	17973
844.571	18083
844.708	18136
844.844	18232
844.98	18281
845.117	18494
845.253	18460
845.389	18696
845.525	19403
845.661	20324
845.798	21526
845.934	22573
846.07	23006
846.206	22786
846.342	22246
846.478	20872
846.614	19533
846.75	18726
846.886	18205
847.022	18091
847.158	17824
847.294	17695
847.429	17672
847.565	17493
847.701	17680
847.837	17242
847.972	17227
848.108	17231
848.244	17231
848.379	17064
848.515	17098
848.65	16968
848.786	17003
848.921	16968
849.057	17121
849.192	17056
849.328	17079
849.463	16987
849.598	16957
849.734	16896
849.869	16885
850.004	16721
850.14	16702
850.275	16755
850.41	16698
850.545	16634
850.68	16752
850.815	16786
850.95	16702
851.085	16801
851.22	16694
851.355	16733
851.49	16668
851.625	16786
851.76	16637
851.895	16580
852.03	16596
852.165	16672
852.299	16580
852.434	16812
852.569	16793
852.703	16767
852.838	16725
852.973	16869
853.107	16930
853.242	16668
853.376	16538
853.511	16413
853.645	16599
853.78	16656
853.914	16672
854.048	16660
854.183	16637
854.317	16588
854.451	16774
854.585	16641
854.72	16672
854.854	16725
854.988	16535
855.122	16618
855.256	16459
855.39	16527
855.524	16717
855.658	16611
855.792	16626
855.926	16569
856.06	16691
856.194	16774
856.327	16500
856.461	16508
856.595	16466
856.729	16542
856.862	16649
856.996	16561
857.13	16679
857.263	16588
857.397	16713
857.53	16615
857.664	16603
857.797	16660
857.931	16668
858.064	16516
858.197	16618
858.331	16611
858.464	16485
858.597	16428
858.731	16615
858.864	16538
858.997	16432
859.13	16558
859.263	16554
859.396	16649
859.529	16470
859.662	16474
859.795	16462
859.928	16603
860.061	16611
860.194	16717
860.327	16637
860.46	16478
860.592	16596
860.725	16542
860.858	16573
860.99	16497
861.123	16337
861.256	16489
861.388	16508
861.521	17140
861.653	16428
861.786	16223
861.918	16318
862.05	16371
862.183	16603
862.315	16474
862.447	16535
862.58	16344
862.712	16344
862.844	16287
862.976	16337
863.108	16242
863.24	16717
863.372	16101
863.504	16238
863.636	16246
863.768	16276
863.9	16280
864.032	16177
864.164	16211
864.296	16223
864.428	16234
864.559	16360
864.691	16356
864.823	16261
864.954	16143
865.086	16207
865.217	16200
865.349	16173
865.48	16128
865.612	16116
865.743	16333
865.875	16280
866.006	16097
866.137	16116
866.269	16173
866.4	16135
866.531	16204
866.662	16200
866.793	16162
866.924	16211
867.055	16226
867.186	16238
867.317	16150
867.448	16059
867.579	16128
867.71	16181
867.841	15926
867.972	16253
868.103	16147
868.233	16211
868.364	16223
868.495	16268
868.625	16310
868.756	16485
868.886	16257
869.017	16379
869.147	16485
869.278	16508
869.408	16485
869.539	16451
869.669	16565
869.799	16580
869.929	16470
870.06	16497
870.19	16672
870.32	16820
870.45	16733
870.58	16831
870.71	16972
870.84	16949
870.97	16896
871.1	16793
871.23	17048
871.36	16984
871.489	16942
871.619	16892
871.749	16968
871.879	17041
872.008	17067
872.138	16976
872.267	17056
872.397	16824
872.526	16786
872.656	16919
872.785	16904
872.915	17041
873.044	17113
873.173	17105
873.303	17124
873.432	17113
873.561	17208
873.69	17105
873.819	17174
873.948	17265
874.077	17056
874.206	17147
874.335	17162
874.464	17280
874.593	17417
874.722	17311
874.851	17471
874.979	17345
875.108	17467
875.237	17524
875.365	17353
875.494	17528
875.623	17551
875.751	17474
875.88	17543
876.008	17687
876.136	17676
876.265	17802
876.393	18057
876.521	17965
876.65	18060
876.778	17992
876.906	17920
877.034	17950
877.162	17935
877.29	17950
877.418	17916
877.546	18007
877.674	18076
877.802	18015
877.93	18095
878.058	18159
878.185	17980
878.313	18136
878.441	18201
878.568	18308
878.696	18467
878.824	18604
878.951	18814
879.079	19183
879.206	19795
879.333	20096
879.461	20237
879.588	20606
879.715	20568
879.842	20530
879.97	19951
880.097	19354
880.224	19050
880.351	18924
880.478	18658
880.605	18475
880.732	18456
880.859	18616
880.986	18467
881.112	18433
881.239	18338
881.366	18053
881.493	18030
881.619	17916
881.746	18106
881.872	17916
881.999	17996
882.125	17984
882.252	18003
882.378	18098
882.505	18247
882.631	18015
882.757	17866
882.883	17980
883.01	17779
883.136	17703
883.262	17699
883.388	17691
883.514	17927
883.64	17912
883.766	17767
883.892	17646
884.018	17729
884.143	17874
884.269	17832
884.395	17653
884.52	17505
884.646	17501
884.772	17512
884.897	17471
885.023	17589
885.148	17547
885.274	17627
885.399	17490
885.524	17429
885.65	17551
885.775	17436
885.9	17452
886.025	17512
886.15	17330
886.275	17239
886.4	17178
886.525	17292
886.65	17140
886.775	17113
886.9	17254
887.025	17421
887.149	17216
887.274	17010
887.399	16953
887.523	16919
887.648	16839
887.773	16721
887.897	16949
888.021	16885
888.146	16885
888.27	16965
888.395	16968
888.519	16790
888.643	16831
888.767	16946
888.891	16759
889.015	16554
889.139	16740
889.263	16611
889.387	16698
889.511	16835
889.635	16710
889.759	16615
889.883	16668
890.006	16664
890.13	16721
890.254	16527
890.377	16554
890.501	16398
890.624	16325
890.748	16413
890.871	16341
890.995	16166
891.118	16234
891.241	16196
891.364	16230
891.488	16367
891.611	16249
891.734	16177
891.857	16257
891.98	16166
892.103	16299
892.226	16215
892.349	16105
892.471	15994
892.594	16109
892.717	16200
892.839	16131
892.962	16162
893.085	16204
893.207	16147
893.33	15903
893.452	16063
893.575	16162
893.697	16078
893.819	16287
893.941	16333
894.064	16257
894.186	16021
894.308	16010
894.43	16257
894.552	16234
894.674	16284
894.796	16032
894.918	16139
895.04	16147
895.161	16204
895.283	16131
895.405	16093
895.526	16128
895.648	16135
895.769	16200
895.891	16188
896.012	16223
896.134	16143
896.255	16055
896.376	16124
896.498	16135
896.619	16162
896.74	16154
896.861	16253
896.982	16561
897.103	16615
897.224	16493
897.345	16333
897.466	16352
897.587	16447
897.708	16428
897.828	16478
897.949	16428
898.07	16291
898.19	16348
898.311	16565
898.431	16447
898.552	16538
898.672	16538
898.792	16653
898.913	16611
899.033	16375
899.153	16318
899.273	16299
899.393	16344
899.513	16291
899.633	16322
899.753	16386
899.873	16352
899.993	16428
900.113	16428
900.232	16299
900.352	16344
900.472	16272
900.591	16185
900.711	16219
900.83	16226
900.95	16337
901.069	16287
901.189	16120
901.308	15854
901.427	15876
901.546	15808
901.665	15884
901.784	15842
901.904	15671
902.023	15466
902.141	15416
902.26	15408
902.379	15374
902.498	15340
902.617	15344
902.735	15412
902.854	15279
902.973	15317
903.091	14967
903.21	14944
903.328	14967
903.446	14967
903.565	14788
903.683	14830
903.801	14788
903.919	14739
904.038	14693
904.156	14583
904.274	14792
904.392	14545
904.51	14674
904.627	14659
904.745	14682
904.863	14655
904.981	14454
905.098	14332
905.216	14324
905.334	14370
905.451	14282
905.569	14225
905.686	14377
905.803	14214
905.921	14081
906.038	14115
906.155	14149
906.272	13917
906.389	13974
906.506	13803
906.623	13818
906.74	13837
906.857	13632
906.974	13757
907.091	13879
907.208	13978
907.324	13753
907.441	13696
907.557	13616
907.674	13506
907.79	13358
907.907	13476
908.023	13647
908.139	13514
908.256	13354
908.372	13449
908.488	13487
908.604	13343
908.72	13278
908.836	13225
908.952	13228
909.068	13244
909.184	13335
909.3	13266
909.415	13266
909.531	13206
909.647	13012
909.762	13088
909.878	13031
909.993	13053
910.108	13050
910.224	12981
910.339	12905
910.454	12878
910.57	12772
910.685	12764
910.8	13069
910.915	12897
911.03	12837
911.145	12760
911.259	12707
911.374	12654
911.489	12544
911.604	12490
911.718	12418
911.833	12407
911.947	12281
912.062	12254
912.176	12327
912.291	12395
912.405	12414
912.519	12631
912.633	12646
912.748	12517
912.862	12350
912.976	12235
913.09	12144
913.204	12171
913.318	12296
913.431	12361
913.545	12311
913.659	12353
913.772	12319
913.886	12194
914	12175
914.113	12213
914.226	12220
914.34	12224
914.453	11942
914.566	12235
914.68	12106
914.793	12110
914.906	11885
915.019	11824
915.132	11809
915.245	11855
915.358	11805
915.47	11836
915.583	11790
915.696	11878
915.809	11923
915.921	11958
916.034	11885
916.146	11684
916.259	11729
916.371	11790
916.483	11752
916.595	11726
916.708	11748
916.82	11775
916.932	11714
917.044	11741
917.156	11619
917.268	11573
917.38	11657
917.491	11570
917.603	11573
917.715	11657
917.826	11737
917.938	11623
918.049	11528
918.161	11589
918.272	11741
918.384	11707
918.495	11619
918.606	11452
918.717	11379
918.828	11448
918.939	11482
919.05	11345
919.161	11395
919.272	11258
919.383	11315
919.494	11509
919.604	11688
919.715	11414
919.826	11353
919.936	11421
920.047	11516
920.157	11414
920.267	11688
920.378	11497
920.488	11402
920.598	11570
920.708	11764
920.818	11592
920.928	11638
921.038	11840
921.148	11676
921.258	11509
921.368	11322
921.477	11280
921.587	11239
921.697	11124
921.806	11307
921.916	11124
922.025	10900
922.134	10896
922.244	10965
922.353	10938
922.462	10771
922.571	10805
922.68	10691
922.789	10546
922.898	10668
923.007	10577
923.116	10630
923.224	10618
923.333	10550
923.442	10489
923.55	10459
923.659	10455
923.767	10558
923.876	10398
923.984	10508
924.092	10390
924.201	10382
924.309	10508
924.417	10474
924.525	10306
924.633	10390
924.741	11094
924.849	10188
924.956	10360
925.064	10185
925.172	10112
925.279	10074
925.387	10238
925.494	10204
925.602	10287
925.709	10306
925.816	10188
925.924	10181
926.031	10223
926.138	10147
926.245	10207
926.352	10090
926.459	10268
926.566	10303
926.673	10120
926.779	10002
926.886	10078
926.993	9842
927.099	9861
927.206	9816
927.312	9808
927.419	9865
927.525	9892
927.631	9899
927.737	9778
927.843	9724
927.95	9606
928.056	9705
928.162	9743
928.267	9831
928.373	10341
928.479	9854
928.585	9606
928.69	9709
928.796	9740
928.901	9637
929.007	9496
929.112	9603
929.218	9595
929.323	9622
929.428	9561
929.533	9679
929.638	9534
929.743	9515
929.848	9606
929.953	9473
930.058	9408
930.163	9253
930.267	9294
930.372	9450
930.477	9370
930.581	9435
930.685	9370
930.79	9256
930.894	9207
930.998	9192
931.103	9332
931.207	9001
931.311	8941
931.415	8910
931.519	8674
931.623	8667
