Data from test_V78500241_1625.txt Node
Date: Fri Mar 25 14:45:01 CST 2022
User: usil
Spectrometer: V785-0024
Trigger mode: 0
Integration Time (sec): 4.000000E-1
Scans to average: 1
Nonlinearity correction enabled: false
Boxcar width: 0
Storing dark spectrum: false
XAxis mode: Wavelengths
Number of Pixels in Spectrum: 1024
>>>>>Begin Spectral Data<<<<<
801.071	22436
801.214	22238
801.356	22070
801.499	21884
801.641	21759
801.783	21720
801.926	21682
802.068	21545
802.211	21545
802.353	21568
802.496	21161
802.638	21306
802.78	21192
802.923	21169
803.065	20967
803.208	21017
803.35	21074
803.492	21096
803.635	21233
803.777	20986
803.919	21077
804.061	21447
804.204	21100
804.346	21146
804.488	20902
804.63	21001
804.773	20918
804.915	21100
805.057	21070
805.199	20963
805.341	21013
805.483	21112
805.626	20979
805.768	20918
805.91	20990
806.052	20986
806.194	20842
806.336	21195
806.478	21074
806.62	21039
806.762	21032
806.904	21173
807.046	21355
807.188	21351
807.33	21203
807.472	21294
807.614	21260
807.756	21214
807.898	21176
808.04	21077
808.182	21017
808.324	21211
808.465	21192
808.607	21351
808.749	21515
808.891	21458
809.033	21530
809.174	21416
809.316	21401
809.458	21321
809.6	21336
809.741	21450
809.883	21466
810.025	21587
810.166	21545
810.308	21564
810.45	21428
810.591	21370
810.733	21294
810.875	21214
811.016	21104
811.158	20979
811.299	21173
811.441	21226
811.582	21268
811.724	21112
811.865	21135
812.007	21123
812.148	21146
812.29	21279
812.431	21237
812.573	21428
812.714	21511
812.855	21690
812.997	21698
813.138	21869
813.279	21816
813.421	21637
813.562	21637
813.703	21424
813.845	21188
813.986	20971
814.127	20807
814.268	20708
814.41	20823
814.551	20708
814.692	20720
814.833	20670
814.974	20594
815.115	20678
815.256	20571
815.397	20495
815.539	20495
815.68	20526
815.821	20446
815.962	20347
816.103	20290
816.244	20286
816.385	20138
816.526	20168
816.666	20016
816.807	19837
816.948	19944
817.089	19993
817.23	19833
817.371	19765
817.512	19917
817.653	19841
817.793	19753
817.934	19799
818.075	19868
818.216	19875
818.356	19791
818.497	19643
818.638	19575
818.778	19578
818.919	19487
819.06	19586
819.2	19639
819.341	19685
819.481	19693
819.622	19837
819.762	20122
819.903	19970
820.043	19811
820.184	19917
820.324	19742
820.465	19830
820.605	19795
820.746	19780
820.886	19586
821.026	19712
821.167	19696
821.307	19849
821.447	19727
821.588	19601
821.728	19480
821.868	19335
822.008	19285
822.149	19263
822.289	19126
822.429	18863
822.569	18875
822.709	18932
822.849	18700
822.99	18700
823.13	18741
823.27	18646
823.41	18479
823.55	18399
823.69	18521
823.83	18486
823.97	18372
824.11	18239
824.25	18239
824.389	18357
824.529	18338
824.669	18346
824.809	18448
824.949	18353
825.089	18376
825.228	18296
825.368	18019
825.508	18030
825.648	18079
825.787	18144
825.927	18163
826.067	17980
826.206	17984
826.346	18159
826.485	18068
826.625	18110
826.765	18174
826.904	17999
827.044	17847
827.183	17828
827.323	17794
827.462	17798
827.601	17657
827.741	17760
827.88	17882
828.02	17600
828.159	17695
828.298	17767
828.437	17863
828.577	17733
828.716	17843
828.855	17676
828.994	17463
829.134	17425
829.273	17459
829.412	17497
829.551	17573
829.69	17436
829.829	17535
829.968	17573
830.107	17547
830.246	17524
830.385	17391
830.524	17501
830.663	17277
830.802	17254
830.941	17064
831.08	17109
831.219	17235
831.357	17216
831.496	17406
831.635	17212
831.774	17018
831.913	17018
832.051	16927
832.19	16953
832.329	16930
832.467	16824
832.606	16816
832.744	16809
832.883	16881
833.022	16790
833.16	16793
833.299	16904
833.437	16957
833.576	16923
833.714	16873
833.852	16949
833.991	16991
834.129	16877
834.267	16949
834.406	16850
834.544	16938
834.682	16858
834.821	16934
834.959	16972
835.097	16790
835.235	16873
835.373	16911
835.511	16873
835.65	16816
835.788	16767
835.926	16675
836.064	16634
836.202	16649
836.34	16752
836.478	16919
836.615	16801
836.753	16824
836.891	16843
837.029	16824
837.167	16729
837.305	16767
837.443	16725
837.58	16618
837.718	16694
837.856	16611
837.993	16584
838.131	16611
838.269	16424
838.406	16599
838.544	16542
838.681	16257
838.819	16386
838.956	16120
839.094	16147
839.231	16188
839.369	16390
839.506	16596
839.643	16478
839.781	16185
839.918	16185
840.055	16177
840.193	16147
840.33	16204
840.467	16139
840.604	16242
840.742	16462
840.879	15911
841.016	16071
841.153	16147
841.29	16265
841.427	16090
841.564	16188
841.701	16158
841.838	16105
841.975	16124
842.112	16112
842.249	15998
842.385	15907
842.522	16067
842.659	15994
842.796	15838
842.933	15854
843.069	15823
843.206	15964
843.343	16051
843.479	15892
843.616	16040
843.752	15660
843.889	15732
844.025	15911
844.162	15618
844.298	15755
844.435	15770
844.571	15599
844.708	15766
844.844	15857
844.98	15857
845.117	15895
845.253	15663
845.389	15686
845.525	15667
845.661	15625
845.798	15572
845.934	15614
846.07	15545
846.206	15606
846.342	15739
846.478	15553
846.614	15374
846.75	15317
846.886	15272
847.022	15378
847.158	15329
847.294	15378
847.429	15317
847.565	15332
847.701	15519
847.837	14994
847.972	15009
848.108	15123
848.244	15058
848.379	14956
848.515	14902
848.65	14823
848.786	14933
848.921	14853
849.057	14979
849.192	14990
849.328	14876
849.463	14887
849.598	14910
849.734	14868
849.869	14720
850.004	14663
850.14	14773
850.275	14670
850.41	14617
850.545	14640
850.68	14602
850.815	14746
850.95	14629
851.085	14788
851.22	14705
851.355	14564
851.49	14617
851.625	14663
851.76	14651
851.895	14598
852.03	14473
852.165	14545
852.299	14663
852.434	14716
852.569	14701
852.703	14613
852.838	14769
852.973	14758
853.107	14781
853.242	14590
853.376	14518
853.511	14377
853.645	14503
853.78	14659
853.914	14541
854.048	14530
854.183	14446
854.317	14594
854.451	14678
854.585	14541
854.72	14499
854.854	14621
854.988	14374
855.122	14492
855.256	14351
855.39	14484
855.524	14598
855.658	14549
855.792	14522
855.926	14492
856.06	14549
856.194	14670
856.327	14495
856.461	14438
856.595	14454
856.729	14400
856.862	14499
856.996	14640
857.13	14560
857.263	14758
857.397	14693
857.53	14606
857.664	14514
857.797	14625
857.931	14636
858.064	14533
858.197	14663
858.331	14503
858.464	14419
858.597	14415
858.731	14549
858.864	14533
858.997	14514
859.13	14476
859.263	14530
859.396	14575
859.529	14476
859.662	14526
859.795	14465
859.928	14545
860.061	14785
860.194	14716
860.327	14545
860.46	14568
860.592	14625
860.725	14682
860.858	14613
860.99	14465
861.123	14480
861.256	14549
861.388	14499
861.521	15272
861.653	14332
861.786	14298
861.918	14377
862.05	14374
862.183	14473
862.315	14526
862.447	14492
862.58	14434
862.712	14336
862.844	14252
862.976	14320
863.108	14374
863.24	14773
863.372	14176
863.504	14195
863.636	14233
863.768	14343
863.9	14282
864.032	14267
864.164	14351
864.296	14233
864.428	14374
864.559	14492
864.691	14347
864.823	14355
864.954	14362
865.086	14400
865.217	14290
865.349	14267
865.48	14244
865.612	14301
865.743	14381
865.875	14301
866.006	14210
866.137	14324
866.269	14199
866.4	14221
866.531	14252
866.662	14214
866.793	14161
866.924	14206
867.055	14275
867.186	14263
867.317	14263
867.448	14183
867.579	14221
867.71	14187
867.841	14259
867.972	14301
868.103	14225
868.233	14183
868.364	14237
868.495	14324
868.625	14476
868.756	14602
868.886	14400
869.017	14545
869.147	14606
869.278	14689
869.408	14442
869.539	14450
869.669	14594
869.799	14545
869.929	14590
870.06	14560
870.19	14800
870.32	14769
870.45	14868
870.58	14902
870.71	14994
870.84	14982
870.97	14944
871.1	14872
871.23	15104
871.36	15062
871.489	14963
871.619	15089
871.749	15085
871.879	15180
872.008	15055
872.138	15093
872.267	15150
872.397	14994
872.526	14948
872.656	14952
872.785	14925
872.915	15077
873.044	15184
873.173	15268
873.303	15127
873.432	15207
873.561	15165
873.69	15207
873.819	15192
873.948	15188
874.077	15203
874.206	15058
874.335	15203
874.464	15260
874.593	15435
874.722	15370
874.851	15591
874.979	15462
875.108	15580
875.237	15431
875.365	15329
875.494	15408
875.623	15488
875.751	15374
875.88	15466
876.008	15690
876.136	15762
876.265	15823
876.393	15876
876.521	15960
876.65	15873
876.778	15865
876.906	15755
877.034	15800
877.162	15861
877.29	15766
877.418	15808
877.546	15865
877.674	15854
877.802	15850
877.93	15876
878.058	15751
878.185	15812
878.313	15766
878.441	15899
878.568	15819
878.696	15819
878.824	15869
878.951	16002
879.079	16048
879.206	16185
879.333	16051
879.461	15983
879.588	16017
879.715	16135
879.842	16249
879.97	16086
880.097	15774
880.224	15747
880.351	15816
880.478	15770
880.605	15732
880.732	15762
880.859	15915
880.986	15895
881.112	15812
881.239	15622
881.366	15488
881.493	15363
881.619	15401
881.746	15416
881.872	15405
881.999	15420
882.125	15370
882.252	15469
882.378	15424
882.505	15466
882.631	15374
882.757	15222
882.883	15317
883.01	15237
883.136	15176
883.262	15127
883.388	15017
883.514	15188
883.64	15203
883.766	15062
883.892	14925
884.018	15089
884.143	15226
884.269	15344
884.395	14941
884.52	14868
884.646	14998
884.772	14929
884.897	14872
885.023	14933
885.148	14956
885.274	14994
885.399	14982
885.524	14994
885.65	14937
885.775	14952
885.9	14910
886.025	15051
886.15	14933
886.275	14826
886.4	14823
886.525	14788
886.65	14845
886.775	14853
886.9	15039
887.025	15097
887.149	14807
887.274	14788
887.399	14758
887.523	14636
887.648	14678
887.773	14670
887.897	14750
888.021	14796
888.146	14636
888.27	14853
888.395	14826
888.519	14739
888.643	14762
888.767	14773
888.891	14602
889.015	14632
889.139	14571
889.263	14552
889.387	14644
889.511	14743
889.635	14640
889.759	14621
889.883	14507
890.006	14632
890.13	14644
890.254	14541
890.377	14511
890.501	14328
890.624	14309
890.748	14469
890.871	14278
890.995	14225
891.118	14161
891.241	14263
891.364	14324
891.488	14244
891.611	14199
891.734	14271
891.857	14317
891.98	14294
892.103	14351
892.226	14328
892.349	14309
892.471	14092
892.594	14259
892.717	14259
892.839	14298
892.962	14263
893.085	14305
893.207	14305
893.33	14206
893.452	14214
893.575	14320
893.697	14271
893.819	14518
893.941	14419
894.064	14408
894.186	14294
894.308	14225
894.43	14389
894.552	14575
894.674	14362
894.796	14145
894.918	14282
895.04	14339
895.161	14507
895.283	14324
895.405	14362
895.526	14332
895.648	14385
895.769	14412
895.891	14366
896.012	14473
896.134	14476
896.255	14446
896.376	14461
896.498	14454
896.619	14454
896.74	14442
896.861	14571
896.982	14731
897.103	15020
897.224	14750
897.345	14621
897.466	14659
897.587	14701
897.708	14773
897.828	14701
897.949	14590
898.07	14571
898.19	14765
898.311	14918
898.431	14750
898.552	14796
898.672	14853
898.792	14925
898.913	14773
899.033	14701
899.153	14663
899.273	14552
899.393	14594
899.513	14682
899.633	14568
899.753	14731
899.873	14583
899.993	14746
900.113	14644
900.232	14705
900.352	14598
900.472	14575
900.591	14522
900.711	14503
900.83	14503
900.95	14651
901.069	14659
901.189	14465
901.308	14286
901.427	14191
901.546	14126
901.665	14244
901.784	14267
901.904	14145
902.023	14031
902.141	13860
902.26	13772
902.379	13963
902.498	13811
902.617	13639
902.735	13826
902.854	13788
902.973	13734
903.091	13571
903.21	13457
903.328	13422
903.446	13403
903.565	13308
903.683	13388
903.801	13304
903.919	13282
904.038	13247
904.156	13145
904.274	13183
904.392	13084
904.51	13149
904.627	13190
904.745	13145
904.863	13209
904.981	12970
905.098	12833
905.216	12833
905.334	12871
905.451	12749
905.569	12916
905.686	12924
905.803	12848
905.921	12753
906.038	12787
906.155	12601
906.272	12658
906.389	12578
906.506	12456
906.623	12528
906.74	12498
906.857	12281
906.974	12414
907.091	12544
907.208	12574
907.324	12448
907.441	12414
907.557	12167
907.674	12235
907.79	12186
907.907	12201
908.023	12235
908.139	12136
908.256	12098
908.372	12129
908.488	12106
908.604	12053
908.72	11874
908.836	11939
908.952	11912
909.068	11908
909.184	12026
909.3	11958
909.415	12034
909.531	11942
909.647	11775
909.762	11722
909.878	11615
909.993	11684
910.108	11756
910.224	11604
910.339	11668
910.454	11577
910.57	11581
910.685	11463
910.8	11786
910.915	11634
911.03	11615
911.145	11490
911.259	11383
911.374	11398
911.489	11303
911.604	11254
911.718	11170
911.833	11212
911.947	11064
912.062	10923
912.176	11178
912.291	11250
912.405	11181
912.519	11353
912.633	11364
912.748	11212
912.862	11124
912.976	10961
913.09	10915
913.204	10927
913.318	11037
913.431	11064
913.545	11159
913.659	11185
913.772	11014
913.886	10831
914	10866
914.113	11018
914.226	11022
914.34	11029
914.453	10869
914.566	10930
914.68	10866
914.793	10869
914.906	10672
915.019	10660
915.132	10519
915.245	10637
915.358	10759
915.47	10656
915.583	10660
915.696	10687
915.809	10835
915.921	10816
916.034	10519
916.146	10603
916.259	10558
916.371	10748
916.483	10656
916.595	10573
916.708	10660
916.82	10516
916.932	10615
917.044	10584
917.156	10538
917.268	10462
917.38	10542
917.491	10478
917.603	10443
917.715	10554
917.826	10512
917.938	10390
918.049	10424
918.161	10508
918.272	10584
918.384	10504
918.495	10519
918.606	10421
918.717	10246
918.828	10344
918.939	10344
919.05	10265
919.161	10322
919.272	10173
919.383	10162
919.494	10417
919.604	10493
919.715	10348
919.826	10295
919.936	10337
920.047	10424
920.157	10356
920.267	10546
920.378	10394
920.488	10409
920.598	10561
920.708	10725
920.818	10561
920.928	10656
921.038	10809
921.148	10656
921.258	10325
921.368	10284
921.477	10207
921.587	10188
921.697	10128
921.806	10341
921.916	10082
922.025	9983
922.134	9953
922.244	9842
922.353	9998
922.462	9755
922.571	9766
922.68	9587
922.789	9595
922.898	9610
923.007	9564
923.116	9660
923.224	9576
923.333	9595
923.442	9526
923.55	9481
923.659	9477
923.767	9530
923.876	9454
923.984	9530
924.092	9428
924.201	9496
924.309	9412
924.417	9477
924.525	9416
924.633	9488
924.741	10249
924.849	9268
924.956	9397
925.064	9279
925.172	9199
925.279	9249
925.387	9321
925.494	9291
925.602	9397
925.709	9253
925.816	9165
925.924	9245
926.031	9348
926.138	9214
926.245	9344
926.352	9241
926.459	9313
926.566	9310
926.673	9154
926.779	9123
926.886	9097
926.993	9043
927.099	9005
927.206	8906
927.312	8937
927.419	9013
927.525	8979
927.631	9009
927.737	8868
927.843	8880
927.95	8716
928.056	8792
928.162	8948
928.267	8914
928.373	9412
928.479	8933
928.585	8705
928.69	8887
928.796	8937
928.901	8788
929.007	8689
929.112	8762
929.218	8754
929.323	8689
929.428	8606
929.533	8815
929.638	8670
929.743	8743
929.848	8769
929.953	8678
930.058	8644
930.163	8442
930.267	8503
930.372	8556
930.477	8431
930.581	8682
930.685	8552
930.79	8355
930.894	8400
930.998	8389
931.103	8579
931.207	8180
931.311	8115
931.415	8069
931.519	7936
931.623	7875
