Data from test_V78500241_2387.txt Node
Date: Fri Mar 25 14:50:20 CST 2022
User: usil
Spectrometer: V785-0024
Trigger mode: 0
Integration Time (sec): 4.000000E-1
Scans to average: 1
Nonlinearity correction enabled: false
Boxcar width: 0
Storing dark spectrum: false
XAxis mode: Wavelengths
Number of Pixels in Spectrum: 1024
>>>>>Begin Spectral Data<<<<<
801.071	22013
801.214	22063
801.356	21720
801.499	21587
801.641	21462
801.783	21462
801.926	21496
802.068	21515
802.211	21325
802.353	21203
802.496	20998
802.638	20918
802.78	21085
802.923	20842
803.065	20724
803.208	20629
803.35	20765
803.492	20925
803.635	20899
803.777	20929
803.919	20864
804.061	21184
804.204	20887
804.346	20792
804.488	20849
804.63	20838
804.773	20667
804.915	20796
805.057	20731
805.199	20796
805.341	20788
805.483	20990
805.626	20811
805.768	20712
805.91	20796
806.052	20853
806.194	20602
806.336	20868
806.478	20762
806.62	20648
806.762	20826
806.904	20861
807.046	21249
807.188	21070
807.33	21077
807.472	21199
807.614	20891
807.756	21070
807.898	20925
808.04	20758
808.182	20910
808.324	20845
808.465	20777
808.607	20994
808.749	21119
808.891	21241
809.033	21428
809.174	21306
809.316	21043
809.458	21119
809.6	21047
809.741	21180
809.883	21195
810.025	21374
810.166	21408
810.308	21112
810.45	21264
810.591	21272
810.733	20986
810.875	20876
811.016	20773
811.158	20731
811.299	20830
811.441	20979
811.582	21150
811.724	20963
811.865	20800
812.007	20876
812.148	20781
812.29	20906
812.431	21009
812.573	21146
812.714	21344
812.855	21355
812.997	21500
813.138	21454
813.279	21420
813.421	21416
813.562	21249
813.703	21173
813.845	21013
813.986	20727
814.127	20625
814.268	20499
814.41	20450
814.551	20461
814.692	20560
814.833	20419
814.974	20450
815.115	20347
815.256	20290
815.397	20370
815.539	20324
815.68	20164
815.821	20084
815.962	20153
816.103	20149
816.244	20065
816.385	19879
816.526	19879
816.666	19757
816.807	19620
816.948	19765
817.089	19616
817.23	19677
817.371	19685
817.512	19719
817.653	19499
817.793	19483
817.934	19563
818.075	19708
818.216	19670
818.356	19525
818.497	19350
818.638	19221
818.778	19190
818.919	19213
819.06	19266
819.2	19392
819.341	19453
819.481	19529
819.622	19540
819.762	19647
819.903	19655
820.043	19643
820.184	19548
820.324	19624
820.465	19533
820.605	19590
820.746	19571
820.886	19453
821.026	19487
821.167	19525
821.307	19685
821.447	19537
821.588	19320
821.728	19240
821.868	19198
822.008	19012
822.149	19038
822.289	18840
822.429	18707
822.569	18623
822.709	18635
822.849	18547
822.99	18391
823.13	18350
823.27	18388
823.41	18315
823.55	18296
823.69	18296
823.83	18311
823.97	18220
824.11	18053
824.25	17996
824.389	17988
824.529	18053
824.669	18117
824.809	18106
824.949	18121
825.089	18102
825.228	18041
825.368	17882
825.508	17783
825.648	17863
825.787	17821
825.927	17821
826.067	17695
826.206	17855
826.346	17863
826.485	17817
826.625	17737
826.765	17786
826.904	17741
827.044	17642
827.183	17528
827.323	17524
827.462	17608
827.601	17543
827.741	17463
827.88	17448
828.02	17368
828.159	17520
828.298	17455
828.437	17684
828.577	17471
828.716	17608
828.855	17520
828.994	17296
829.134	17189
829.273	17231
829.412	17174
829.551	17258
829.69	17250
829.829	17223
829.968	17288
830.107	17261
830.246	17284
830.385	17143
830.524	17045
830.663	17010
830.802	16881
830.941	16824
831.08	16869
831.219	16904
831.357	16995
831.496	16999
831.635	16797
831.774	16911
831.913	16748
832.051	16546
832.19	16634
832.329	16698
832.467	16504
832.606	16493
832.744	16554
832.883	16535
833.022	16497
833.16	16500
833.299	16573
833.437	16527
833.576	16489
833.714	16641
833.852	16565
833.991	16577
834.129	16577
834.267	16542
834.406	16626
834.544	16561
834.682	16577
834.821	16603
834.959	16683
835.097	16531
835.235	16622
835.373	16607
835.511	16550
835.65	16481
835.788	16432
835.926	16394
836.064	16223
836.202	16226
836.34	16584
836.478	16573
836.615	16424
836.753	16531
836.891	16653
837.029	16538
837.167	16436
837.305	16394
837.443	16318
837.58	16314
837.718	16386
837.856	16318
837.993	16322
838.131	16356
838.269	16299
838.406	16310
838.544	16173
838.681	16055
838.819	16090
838.956	15949
839.094	15892
839.231	15930
839.369	15949
839.506	16363
839.643	16093
839.781	15861
839.918	15918
840.055	15865
840.193	15762
840.33	15842
840.467	15827
840.604	15873
840.742	16109
840.879	15717
841.016	15637
841.153	15835
841.29	15968
841.427	15880
841.564	15816
841.701	15888
841.838	15873
841.975	15789
842.112	15804
842.249	15755
842.385	15587
842.522	15816
842.659	15625
842.796	15648
842.933	15644
843.069	15648
843.206	15633
843.343	15717
843.479	15625
843.616	15743
843.752	15462
843.889	15416
844.025	15633
844.162	15473
844.298	15553
844.435	15462
844.571	15450
844.708	15572
844.844	15705
844.98	15557
845.117	15606
845.253	15416
845.389	15317
845.525	15370
845.661	15435
845.798	15298
845.934	15336
846.07	15256
846.206	15329
846.342	15431
846.478	15287
846.614	15161
846.75	15055
846.886	15036
847.022	15108
847.158	15074
847.294	15036
847.429	15089
847.565	15062
847.701	15332
847.837	14785
847.972	14731
848.108	14872
848.244	14792
848.379	14746
848.515	14537
848.65	14545
848.786	14613
848.921	14697
849.057	14746
849.192	14674
849.328	14705
849.463	14670
849.598	14617
849.734	14533
849.869	14610
850.004	14446
850.14	14427
850.275	14374
850.41	14328
850.545	14328
850.68	14438
850.815	14431
850.95	14385
851.085	14598
851.22	14518
851.355	14385
851.49	14370
851.625	14343
851.76	14347
851.895	14351
852.03	14282
852.165	14351
852.299	14431
852.434	14374
852.569	14366
852.703	14446
852.838	14518
852.973	14590
853.107	14552
853.242	14431
853.376	14244
853.511	14187
853.645	14214
853.78	14408
853.914	14324
854.048	14244
854.183	14202
854.317	14263
854.451	14442
854.585	14210
854.72	14218
854.854	14343
854.988	14256
855.122	14282
855.256	14027
855.39	14225
855.524	14370
855.658	14278
855.792	14313
855.926	14244
856.06	14290
856.194	14404
856.327	14195
856.461	14149
856.595	14218
856.729	14202
856.862	14328
856.996	14259
857.13	14305
857.263	14370
857.397	14393
857.53	14202
857.664	14313
857.797	14355
857.931	14336
858.064	14317
858.197	14404
858.331	14263
858.464	14210
858.597	14142
858.731	14237
858.864	14237
858.997	14240
859.13	14263
859.263	14320
859.396	14347
859.529	14240
859.662	14210
859.795	14145
859.928	14164
860.061	14389
860.194	14469
860.327	14366
860.46	14180
860.592	14400
860.725	14427
860.858	14374
860.99	14183
861.123	14145
861.256	14126
861.388	14271
861.521	14792
861.653	14088
861.786	14046
861.918	14145
862.05	14115
862.183	14191
862.315	14305
862.447	14339
862.58	14111
862.712	14016
862.844	14001
862.976	14077
863.108	14069
863.24	14438
863.372	13928
863.504	14005
863.636	14020
863.768	14111
863.9	14008
864.032	13978
864.164	13967
864.296	14130
864.428	14172
864.559	14123
864.691	14123
864.823	14115
864.954	14180
865.086	14062
865.217	14016
865.349	14005
865.48	14027
865.612	14107
865.743	14134
865.875	13997
866.006	14016
866.137	14031
866.269	14005
866.4	13875
866.531	13947
866.662	14020
866.793	13963
866.924	13986
867.055	14031
867.186	13997
867.317	14031
867.448	13967
867.579	13944
867.71	13963
867.841	13913
867.972	14005
868.103	14024
868.233	13986
868.364	14043
868.495	14069
868.625	14225
868.756	14419
868.886	14210
869.017	14142
869.147	14393
869.278	14446
869.408	14389
869.539	14161
869.669	14336
869.799	14377
869.929	14507
870.06	14400
870.19	14583
870.32	14621
870.45	14632
870.58	14613
870.71	14902
870.84	14788
870.97	14762
871.1	14663
871.23	14800
871.36	14948
871.489	14788
871.619	14727
871.749	14864
871.879	14880
872.008	15032
872.138	14861
872.267	14845
872.397	14807
872.526	14743
872.656	14716
872.785	14758
872.915	14891
873.044	14956
873.173	14883
873.303	15009
873.432	15055
873.561	14979
873.69	14937
873.819	14929
873.948	14975
874.077	14937
874.206	14872
874.335	14979
874.464	15119
874.593	15142
874.722	15123
874.851	15405
874.979	15363
875.108	15260
875.237	15165
875.365	15154
875.494	15226
875.623	15264
875.751	15211
875.88	15237
876.008	15386
876.136	15424
876.265	15610
876.393	15774
876.521	15781
876.65	15789
876.778	15690
876.906	15587
877.034	15625
877.162	15679
877.29	15656
877.418	15667
877.546	15603
877.674	15682
877.802	15720
877.93	15568
878.058	15534
878.185	15534
878.313	15584
878.441	15622
878.568	15557
878.696	15633
878.824	15762
878.951	15682
879.079	15816
879.206	15907
879.333	15800
879.461	15781
879.588	15808
879.715	15850
879.842	15880
879.97	15720
880.097	15584
880.224	15553
880.351	15587
880.478	15485
880.605	15382
880.732	15530
880.859	15709
880.986	15599
881.112	15526
881.239	15386
881.366	15340
881.493	15146
881.619	15188
881.746	15108
881.872	15203
881.999	15058
882.125	15081
882.252	15275
882.378	15272
882.505	15256
882.631	15081
882.757	14998
882.883	15036
883.01	14967
883.136	14960
883.262	14750
883.388	14758
883.514	14921
883.64	15009
883.766	14971
883.892	14762
884.018	14849
884.143	14971
884.269	15112
884.395	14739
884.52	14667
884.646	14727
884.772	14674
884.897	14670
885.023	14705
885.148	14758
885.274	14899
885.399	14830
885.524	14693
885.65	14674
885.775	14625
885.9	14670
886.025	14800
886.15	14758
886.275	14636
886.4	14659
886.525	14689
886.65	14590
886.775	14640
886.9	14800
887.025	14853
887.149	14689
887.274	14511
887.399	14507
887.523	14526
887.648	14469
887.773	14473
887.897	14514
888.021	14552
888.146	14473
888.27	14549
888.395	14644
888.519	14610
888.643	14625
888.767	14606
888.891	14522
889.015	14389
889.139	14351
889.263	14389
889.387	14507
889.511	14552
889.635	14469
889.759	14351
889.883	14480
890.006	14400
890.13	14537
890.254	14404
890.377	14229
890.501	14214
890.624	14119
890.748	14298
890.871	14058
890.995	14084
891.118	13997
891.241	14164
891.364	14039
891.488	14149
891.611	14058
891.734	14077
891.857	14221
891.98	14195
892.103	14168
892.226	14134
892.349	14005
892.471	13986
892.594	14020
892.717	14145
892.839	14039
892.962	14031
893.085	14176
893.207	14050
893.33	13986
893.452	13955
893.575	14187
893.697	14123
893.819	14191
893.941	14298
894.064	14233
894.186	13997
894.308	14035
894.43	14248
894.552	14347
894.674	14259
894.796	13986
894.918	14031
895.04	14123
895.161	14248
895.283	14233
895.405	14126
895.526	14138
895.648	14225
895.769	14286
895.891	14149
896.012	14324
896.134	14248
896.255	14199
896.376	14225
896.498	14202
896.619	14358
896.74	14301
896.861	14431
896.982	14632
897.103	14788
897.224	14590
897.345	14434
897.466	14412
897.587	14564
897.708	14693
897.828	14617
897.949	14412
898.07	14358
898.19	14499
898.311	14659
898.431	14556
898.552	14610
898.672	14625
898.792	14682
898.913	14670
899.033	14488
899.153	14446
899.273	14290
899.393	14461
899.513	14549
899.633	14431
899.753	14434
899.873	14431
899.993	14552
900.113	14492
900.232	14537
900.352	14476
900.472	14347
900.591	14267
900.711	14362
900.83	14271
900.95	14450
901.069	14457
901.189	14347
901.308	13993
901.427	13940
901.546	14058
901.665	14096
901.784	14016
901.904	13898
902.023	13807
902.141	13655
902.26	13575
902.379	13636
902.498	13495
902.617	13472
902.735	13681
902.854	13521
902.973	13476
903.091	13331
903.21	13369
903.328	13365
903.446	13190
903.565	13156
903.683	13285
903.801	13042
903.919	13179
904.038	13145
904.156	12958
904.274	13046
904.392	12958
904.51	12913
904.627	13023
904.745	13023
904.863	12962
904.981	12810
905.098	12627
905.216	12608
905.334	12639
905.451	12642
905.569	12616
905.686	12700
905.803	12662
905.921	12395
906.038	12517
906.155	12490
906.272	12285
906.389	12357
906.506	12190
906.623	12243
906.74	12186
906.857	12178
906.974	12232
907.091	12239
907.208	12353
907.324	12273
907.441	12167
907.557	11996
907.674	12026
907.79	11874
907.907	11946
908.023	12026
908.139	11984
908.256	12022
908.372	11961
908.488	11893
908.604	11805
908.72	11794
908.836	11665
908.952	11691
909.068	11748
909.184	11893
909.3	11813
909.415	11764
909.531	11718
909.647	11459
909.762	11471
909.878	11532
909.993	11592
910.108	11512
910.224	11539
910.339	11505
910.454	11474
910.57	11387
910.685	11277
910.8	11532
910.915	11505
911.03	11356
911.145	11201
911.259	11159
911.374	11242
911.489	11060
911.604	11052
911.718	10980
911.833	10942
911.947	10885
912.062	10854
912.176	10961
912.291	10957
912.405	10953
912.519	11136
912.633	11162
912.748	11052
912.862	10923
912.976	10831
913.09	10744
913.204	10710
913.318	10835
913.431	10934
913.545	10904
913.659	10938
913.772	10862
913.886	10774
914	10771
914.113	10847
914.226	10915
914.34	10763
914.453	10637
914.566	10927
914.68	10710
914.793	10702
914.906	10516
915.019	10500
915.132	10447
915.245	10443
915.358	10500
915.47	10470
915.583	10519
915.696	10462
915.809	10664
915.921	10660
916.034	10451
916.146	10474
916.259	10405
916.371	10500
916.483	10455
916.595	10405
916.708	10421
916.82	10455
916.932	10394
917.044	10390
917.156	10398
917.268	10253
917.38	10261
917.491	10287
917.603	10341
917.715	10348
917.826	10398
917.938	10291
918.049	10207
918.161	10314
918.272	10390
918.384	10443
918.495	10291
918.606	10284
918.717	10200
918.828	10101
918.939	10188
919.05	10093
919.161	10196
919.272	9953
919.383	10086
919.494	10227
919.604	10489
919.715	10265
919.826	10105
919.936	10135
920.047	10211
920.157	10227
920.267	10424
920.378	10272
920.488	10192
920.598	10398
920.708	10580
920.818	10356
920.928	10390
921.038	10527
921.148	10516
921.258	10242
921.368	10223
921.477	10017
921.587	9953
921.697	9994
921.806	10067
921.916	9991
922.025	9797
922.134	9789
922.244	9679
922.353	9827
922.462	9724
922.571	9587
922.68	9500
922.789	9348
922.898	9428
923.007	9420
923.116	9466
923.224	9359
923.333	9496
923.442	9313
923.55	9370
923.659	9321
923.767	9378
923.876	9253
923.984	9374
924.092	9306
924.201	9287
924.309	9283
924.417	9329
924.525	9214
924.633	9256
924.741	10082
924.849	9108
924.956	9199
925.064	9081
925.172	9047
925.279	9070
925.387	9150
925.494	9169
925.602	9211
925.709	9241
925.816	9074
925.924	9051
926.031	9192
926.138	9051
926.245	9218
926.352	9066
926.459	9089
926.566	9233
926.673	8986
926.779	9001
926.886	8986
926.993	8849
927.099	8743
927.206	8724
927.312	8819
927.419	8861
927.525	8834
927.631	8883
927.737	8758
927.843	8705
927.95	8640
928.056	8644
928.162	8720
928.267	8811
928.373	9378
928.479	8826
928.585	8564
928.69	8648
928.796	8785
928.901	8682
929.007	8530
929.112	8712
929.218	8678
929.323	8549
929.428	8552
929.533	8686
929.638	8465
929.743	8552
929.848	8590
929.953	8583
930.058	8488
930.163	8347
930.267	8355
930.372	8423
930.477	8244
930.581	8495
930.685	8396
930.79	8229
930.894	8271
930.998	8214
931.103	8358
931.207	8054
931.311	8027
931.415	7902
931.519	7723
931.623	7750
