Data from test_V78500241_600.txt Node
Date: Fri Mar 25 14:37:53 CST 2022
User: usil
Spectrometer: V785-0024
Trigger mode: 0
Integration Time (sec): 4.000000E-1
Scans to average: 1
Nonlinearity correction enabled: false
Boxcar width: 0
Storing dark spectrum: false
XAxis mode: Wavelengths
Number of Pixels in Spectrum: 1024
>>>>>Begin Spectral Data<<<<<
801.071	28044
801.214	27854
801.356	27572
801.499	27614
801.641	27424
801.783	27245
801.926	27298
802.068	27256
802.211	27275
802.353	27058
802.496	26952
802.638	26845
802.78	26845
802.923	26849
803.065	26750
803.208	26823
803.35	26899
803.492	26971
803.635	27028
803.777	26853
803.919	27081
804.061	27306
804.204	27070
804.346	26994
804.488	26990
804.63	27047
804.773	26948
804.915	27081
805.057	27252
805.199	27249
805.341	27260
805.483	27306
805.626	27378
805.768	27386
805.91	27488
806.052	27564
806.194	27572
806.336	27880
806.478	27907
806.62	28029
806.762	28337
806.904	28607
807.046	28908
807.188	29170
807.33	29406
807.472	29866
807.614	30258
807.756	30825
807.898	31651
808.04	32393
808.182	33907
808.324	35790
808.465	37776
808.607	40067
808.749	41999
808.891	43304
809.033	43312
809.174	42064
809.316	40139
809.458	37837
809.6	35429
809.741	33686
809.883	32275
810.025	31384
810.166	30661
810.308	30125
810.45	29581
810.591	29303
810.733	28793
810.875	28634
811.016	28219
811.158	28246
811.299	28284
811.441	28268
811.582	28078
811.724	27701
811.865	27755
812.007	27793
812.148	27751
812.29	27679
812.431	27618
812.573	27789
812.714	27766
812.855	28044
812.997	28078
813.138	28120
813.279	27888
813.421	28032
813.562	27759
813.703	27507
813.845	27348
813.986	27123
814.127	26891
814.268	26876
814.41	26667
814.551	26644
814.692	26944
814.833	26568
814.974	26640
815.115	26625
815.256	26362
815.397	26476
815.539	26469
815.68	26366
815.821	26317
815.962	26233
816.103	26370
816.244	25982
816.385	26031
816.526	25921
816.666	25753
816.807	25556
816.948	25655
817.089	25738
817.23	25704
817.371	25609
817.512	25609
817.653	25506
817.793	25510
817.934	25537
818.075	25460
818.216	25457
818.356	25384
818.497	25362
818.638	25091
818.778	25255
818.919	25335
819.06	25255
819.2	25388
819.341	25419
819.481	25419
819.622	25685
819.762	25639
819.903	25647
820.043	25559
820.184	25495
820.324	25403
820.465	25605
820.605	25324
820.746	25362
820.886	25320
821.026	25453
821.167	25381
821.307	25392
821.447	25297
821.588	25175
821.728	24947
821.868	24741
822.008	24616
822.149	24882
822.289	24612
822.429	24471
822.569	24308
822.709	24334
822.849	24186
822.99	24110
823.13	24209
823.27	24034
823.41	23866
823.55	23783
823.69	23927
823.83	23882
823.97	23817
824.11	23722
824.25	23649
824.389	23623
824.529	23619
824.669	23695
824.809	23786
824.949	23649
825.089	23729
825.228	23687
825.368	23585
825.508	23482
825.648	23585
825.787	23459
825.927	23486
826.067	23459
826.206	23425
826.346	23478
826.485	23493
826.625	23398
826.765	23566
826.904	23474
827.044	23341
827.183	23048
827.323	23121
827.462	23231
827.601	23208
827.741	23052
827.88	23044
828.02	23033
828.159	23109
828.298	23105
828.437	23220
828.577	23041
828.716	23189
828.855	22976
828.994	22812
829.134	22892
829.273	22934
829.412	22721
829.551	22809
829.69	22828
829.829	22801
829.968	22835
830.107	22793
830.246	22858
830.385	22801
830.524	22774
830.663	22603
830.802	22538
830.941	22337
831.08	22363
831.219	22474
831.357	22451
831.496	22599
831.635	22367
831.774	22329
831.913	22200
832.051	22337
832.19	22090
832.329	22367
832.467	22223
832.606	22032
832.744	22131
832.883	22204
833.022	22112
833.16	22318
833.299	22485
833.437	22466
833.576	22535
833.714	22645
833.852	22858
833.991	23010
834.129	23064
834.267	22873
834.406	22965
834.544	22885
834.682	22615
834.821	22618
834.959	22763
835.097	22440
835.235	22462
835.373	22272
835.511	22173
835.65	22010
835.788	21991
835.926	21907
836.064	21819
836.202	21835
836.34	21934
836.478	22010
836.615	21865
836.753	21884
836.891	22017
837.029	21934
837.167	21854
837.305	21698
837.443	21743
837.58	21743
837.718	21739
837.856	21770
837.993	21618
838.131	21717
838.269	21549
838.406	21633
838.544	21561
838.681	21473
838.819	21272
838.956	21176
839.094	21195
839.231	21192
839.369	21268
839.506	21557
839.643	21226
839.781	21131
839.918	21093
840.055	21138
840.193	21032
840.33	21070
840.467	20914
840.604	21036
840.742	21203
840.879	20823
841.016	20937
841.153	20998
841.29	21119
841.427	21036
841.564	21047
841.701	20956
841.838	21024
841.975	20727
842.112	20956
842.249	20739
842.385	20800
842.522	20948
842.659	20933
842.796	20739
842.933	20785
843.069	20750
843.206	20883
843.343	20876
843.479	20857
843.616	21032
843.752	20739
843.889	20887
844.025	21020
844.162	20792
844.298	20944
844.435	21043
844.571	21157
844.708	21313
844.844	21736
844.98	21918
845.117	22379
845.253	22869
845.389	24076
845.525	26404
845.661	30281
845.798	34877
845.934	38549
846.07	39964
846.206	39070
846.342	36213
846.478	31400
846.614	27340
846.75	24589
846.886	23056
847.022	22120
847.158	21583
847.294	21009
847.429	20754
847.565	20602
847.701	20758
847.837	20164
847.972	20126
848.108	20164
848.244	20107
848.379	19868
848.515	19830
848.65	19734
848.786	19780
848.921	19757
849.057	19826
849.192	19765
849.328	19803
849.463	19685
849.598	19719
849.734	19529
849.869	19521
850.004	19377
850.14	19460
850.275	19472
850.41	19415
850.545	19285
850.68	19468
850.815	19415
850.95	19369
851.085	19605
851.22	19491
851.355	19407
851.49	19373
851.625	19350
851.76	19388
851.895	19255
852.03	19282
852.165	19369
852.299	19491
852.434	19373
852.569	19426
852.703	19472
852.838	19521
852.973	19563
853.107	19582
853.242	19464
853.376	19289
853.511	19187
853.645	19316
853.78	19483
853.914	19384
854.048	19468
854.183	19464
854.317	19388
854.451	19635
854.585	19449
854.72	19445
854.854	19464
854.988	19369
855.122	19362
855.256	19148
855.39	19358
855.524	19411
855.658	19289
855.792	19297
855.926	19350
856.06	19308
856.194	19373
856.327	19145
856.461	19244
856.595	19046
856.729	19088
856.862	19289
856.996	19126
857.13	19263
857.263	19331
857.397	19255
857.53	19190
857.664	19148
857.797	19213
857.931	19179
858.064	19129
858.197	19369
858.331	19061
858.464	19061
858.597	19053
858.731	19126
858.864	19008
858.997	18954
859.13	18966
859.263	19088
859.396	19122
859.529	18962
859.662	18924
859.795	19027
859.928	19080
860.061	19247
860.194	19160
860.327	19091
860.46	19027
860.592	19050
860.725	19183
860.858	19137
860.99	19069
861.123	18875
861.256	18996
861.388	19038
861.521	19620
861.653	18867
861.786	18878
861.918	18878
862.05	18973
862.183	18996
862.315	19057
862.447	19148
862.58	18996
862.712	18871
862.844	18764
862.976	18833
863.108	18757
863.24	19232
863.372	18631
863.504	18738
863.636	18783
863.768	18783
863.9	18707
864.032	18612
864.164	18635
864.296	18730
864.428	18848
864.559	18753
864.691	18802
864.823	18772
864.954	18719
865.086	18681
865.217	18688
865.349	18555
865.48	18623
865.612	18631
865.743	18639
865.875	18623
866.006	18601
866.137	18688
866.269	18688
866.4	18661
866.531	18566
866.662	18570
866.793	18498
866.924	18578
867.055	18585
867.186	18658
867.317	18536
867.448	18559
867.579	18681
867.71	18506
867.841	18486
867.972	18502
868.103	18544
868.233	18692
868.364	18631
868.495	18753
868.625	18688
868.756	18905
868.886	18783
869.017	18890
869.147	18962
869.278	18856
869.408	18867
869.539	18897
869.669	18970
869.799	18825
869.929	18970
870.06	18840
870.19	19187
870.32	19122
870.45	19141
870.58	19194
870.71	19415
870.84	19293
870.97	19335
871.1	19400
871.23	19411
871.36	19578
871.489	19457
871.619	19499
871.749	19476
871.879	19411
872.008	19647
872.138	19533
872.267	19616
872.397	19373
872.526	19499
872.656	19358
872.785	19415
872.915	19590
873.044	19670
873.173	19632
873.303	19563
873.432	19700
873.561	19803
873.69	19689
873.819	19556
873.948	19791
874.077	19780
874.206	19757
874.335	19822
874.464	20065
874.593	20024
874.722	20069
874.851	20180
874.979	20164
875.108	20176
875.237	20046
875.365	20183
875.494	20244
875.623	20278
875.751	20362
875.88	20229
876.008	20492
876.136	20568
876.265	20777
876.393	21005
876.521	20956
876.65	20982
876.778	20921
876.906	20868
877.034	21013
877.162	20994
877.29	21058
877.418	21203
877.546	21351
877.674	21211
877.802	21370
877.93	21443
878.058	21477
878.185	21587
878.313	21911
878.441	22059
878.568	22280
878.696	22752
878.824	23254
878.951	23980
879.079	25179
879.206	26579
879.333	27907
879.461	29071
879.588	29927
879.715	29996
879.842	29383
879.97	28025
880.097	26552
880.224	25346
880.351	24547
880.478	23866
880.605	23551
880.732	23235
880.859	23242
880.986	23060
881.112	22999
881.239	22740
881.366	22713
881.493	22546
881.619	22527
881.746	22542
881.872	22656
881.999	22561
882.125	22565
882.252	22729
882.378	22691
882.505	22641
882.631	22649
882.757	22428
882.883	22459
883.01	22382
883.136	22409
883.262	22257
883.388	22192
883.514	22432
883.64	22550
883.766	22284
883.892	22192
884.018	22257
884.143	22428
884.269	22405
884.395	22147
884.52	22211
884.646	22196
884.772	22169
884.897	22109
885.023	22131
885.148	22101
885.274	22074
885.399	22112
885.524	21869
885.65	21865
885.775	21770
885.9	21743
886.025	21793
886.15	21606
886.275	21370
886.4	21287
886.525	21165
886.65	21055
886.775	20925
886.9	21024
887.025	21039
887.149	20960
887.274	20568
887.399	20514
887.523	20469
887.648	20408
887.773	20339
887.897	20309
888.021	20370
888.146	20180
888.27	20240
888.395	20305
888.519	20195
888.643	20206
888.767	20092
888.891	19974
889.015	19849
889.139	19898
889.263	19807
889.387	19822
889.511	20016
889.635	19757
889.759	19594
889.883	19677
890.006	19616
890.13	19624
890.254	19457
890.377	19487
890.501	19312
890.624	19217
890.748	19430
890.871	19232
890.995	19091
891.118	18962
891.241	19129
891.364	18924
891.488	19088
891.611	18989
891.734	18947
891.857	18947
891.98	18951
892.103	18954
892.226	18913
892.349	18916
892.471	18703
892.594	18825
892.717	18817
892.839	18734
892.962	18688
893.085	18783
893.207	18772
893.33	18585
893.452	18570
893.575	18776
893.697	18532
893.819	18825
893.941	18719
894.064	18734
894.186	18559
894.308	18483
894.43	18635
894.552	18665
894.674	18601
894.796	18323
894.918	18536
895.04	18422
895.161	18448
895.283	18452
895.405	18471
895.526	18448
895.648	18384
895.769	18448
895.891	18407
896.012	18506
896.134	18490
896.255	18452
896.376	18407
896.498	18311
896.619	18475
896.74	18445
896.861	18502
896.982	18654
897.103	18840
897.224	18684
897.345	18616
897.466	18559
897.587	18627
897.708	18635
897.828	18745
897.949	18460
898.07	18471
898.19	18513
898.311	18681
898.431	18559
898.552	18639
898.672	18616
898.792	18684
898.913	18681
899.033	18532
899.153	18388
899.273	18205
899.393	18384
899.513	18247
899.633	18330
899.753	18414
899.873	18327
899.993	18292
900.113	18270
900.232	18365
900.352	18239
900.472	18213
900.591	18159
900.711	18148
900.83	18102
900.95	18197
901.069	18216
901.189	18121
901.308	17855
901.427	17790
901.546	17657
901.665	17733
901.784	17802
901.904	17589
902.023	17474
902.141	17406
902.26	17265
902.379	17356
902.498	17273
902.617	17178
902.735	17178
902.854	17174
902.973	17124
903.091	16866
903.21	16835
903.328	16900
903.446	16763
903.565	16664
903.683	16812
903.801	16611
903.919	16603
904.038	16641
904.156	16462
904.274	16523
904.392	16405
904.51	16413
904.627	16447
904.745	16314
904.863	16451
904.981	16204
905.098	16090
905.216	16124
905.334	16063
905.451	16010
905.569	16055
905.686	16059
905.803	16116
905.921	15835
906.038	15979
906.155	15873
906.272	15686
906.389	15759
906.506	15545
906.623	15534
906.74	15572
906.857	15462
906.974	15443
907.091	15667
907.208	15713
907.324	15526
907.441	15500
907.557	15374
907.674	15344
907.79	15188
907.907	15256
908.023	15329
908.139	15199
908.256	15233
908.372	15211
908.488	15119
908.604	14998
908.72	14861
908.836	15017
908.952	14891
909.068	15032
909.184	15100
909.3	14956
909.415	14986
909.531	15043
909.647	14651
909.762	14754
909.878	14670
909.993	14754
910.108	14682
910.224	14583
910.339	14556
910.454	14419
910.57	14442
910.685	14461
910.8	14785
910.915	14705
911.03	14556
911.145	14252
911.259	14233
911.374	14324
911.489	14233
911.604	14123
911.718	13963
911.833	13963
911.947	13986
912.062	13822
912.176	14073
912.291	14123
912.405	14016
912.519	14240
912.633	14225
912.748	14111
912.862	14084
912.976	13928
913.09	13795
913.204	13811
913.318	13887
913.431	13894
913.545	13947
913.659	13940
913.772	13746
913.886	13772
914	13651
914.113	13814
914.226	13856
914.34	13841
914.453	13693
914.566	13761
914.68	13594
914.793	13563
914.906	13411
915.019	13441
915.132	13419
915.245	13327
915.358	13400
915.47	13483
915.583	13400
915.696	13419
915.809	13453
915.921	13571
916.034	13381
916.146	13388
916.259	13297
916.371	13403
916.483	13388
916.595	13263
916.708	13358
916.82	13312
916.932	13358
917.044	13263
917.156	13183
917.268	13171
917.38	13194
917.491	13088
917.603	13156
917.715	13183
917.826	13240
917.938	13046
918.049	12943
918.161	13088
918.272	13251
918.384	13251
918.495	13042
918.606	12916
918.717	12890
918.828	12837
918.939	12916
919.05	12741
919.161	12844
919.272	12646
919.383	12802
919.494	12909
919.604	13091
919.715	12905
919.826	12795
919.936	12798
920.047	12939
920.157	12878
920.267	12989
920.378	12901
920.488	12783
920.598	13099
920.708	13171
920.818	13004
920.928	12951
921.038	13149
921.148	13088
921.258	12707
921.368	12711
921.477	12707
921.587	12582
921.697	12433
921.806	12593
921.916	12437
922.025	12334
922.134	12209
922.244	12209
922.353	12254
922.462	12152
922.571	12087
922.68	11954
922.789	11950
922.898	11939
923.007	11874
923.116	11859
923.224	11893
923.333	11912
923.442	11794
923.55	11741
923.659	11760
923.767	11714
923.876	11760
923.984	11726
924.092	11699
924.201	11699
924.309	11756
924.417	11703
924.525	11623
924.633	11680
924.741	12418
924.849	11406
924.956	11547
925.064	11448
925.172	11315
925.279	11417
925.387	11516
925.494	11425
925.602	11585
925.709	11414
925.816	11292
925.924	11440
926.031	11596
926.138	11391
926.245	11395
926.352	11231
926.459	11493
926.566	11406
926.673	11318
926.779	11242
926.886	11162
926.993	11071
927.099	11090
927.206	10995
927.312	11083
927.419	11140
927.525	11067
927.631	11064
927.737	10946
927.843	10866
927.95	10797
928.056	10858
928.162	10968
928.267	10987
928.373	11395
928.479	10934
928.585	10744
928.69	10896
928.796	10946
928.901	10759
929.007	10630
929.112	10809
929.218	10706
929.323	10736
929.428	10683
929.533	10740
929.638	10607
929.743	10531
929.848	10675
929.953	10538
930.058	10519
930.163	10447
930.267	10428
930.372	10538
930.477	10341
930.581	10489
930.685	10417
930.79	10322
930.894	10287
930.998	10227
931.103	10356
931.207	10105
931.311	9876
931.415	9895
931.519	9724
931.623	9781
