Data from test_V78500241_2639.txt Node
Date: Fri Mar 25 14:52:05 CST 2022
User: usil
Spectrometer: V785-0024
Trigger mode: 0
Integration Time (sec): 4.000000E-1
Scans to average: 1
Nonlinearity correction enabled: false
Boxcar width: 0
Storing dark spectrum: false
XAxis mode: Wavelengths
Number of Pixels in Spectrum: 1024
>>>>>Begin Spectral Data<<<<<
801.071	22082
801.214	21846
801.356	21648
801.499	21511
801.641	21370
801.783	21329
801.926	21428
802.068	21203
802.211	21154
802.353	21058
802.496	20998
802.638	20876
802.78	20864
802.923	20788
803.065	20648
803.208	20716
803.35	20651
803.492	20765
803.635	20720
803.777	20697
803.919	20796
804.061	20990
804.204	20674
804.346	20594
804.488	20640
804.63	20632
804.773	20667
804.915	20488
805.057	20731
805.199	20640
805.341	20678
805.483	20727
805.626	20705
805.768	20507
805.91	20663
806.052	20655
806.194	20560
806.336	20670
806.478	20530
806.62	20655
806.762	20636
806.904	20842
807.046	20994
807.188	20925
807.33	20986
807.472	20956
807.614	20724
807.756	20762
807.898	20689
808.04	20705
808.182	20735
808.324	20693
808.465	20785
808.607	20861
808.749	20933
808.891	21150
809.033	21112
809.174	21047
809.316	20998
809.458	20998
809.6	20960
809.741	20990
809.883	20998
810.025	21074
810.166	21207
810.308	21028
810.45	21055
810.591	20967
810.733	20823
810.875	20792
811.016	20796
811.158	20667
811.299	20804
811.441	20807
811.582	20899
811.724	20781
811.865	20594
812.007	20693
812.148	20731
812.29	20792
812.431	20823
812.573	21135
812.714	21161
812.855	21199
812.997	21370
813.138	21473
813.279	21332
813.421	21203
813.562	21112
813.703	21127
813.845	20826
813.986	20678
814.127	20358
814.268	20465
814.41	20328
814.551	20256
814.692	20423
814.833	20286
814.974	20298
815.115	20267
815.256	20187
815.397	20046
815.539	20062
815.68	19925
815.821	19951
815.962	20024
816.103	20031
816.244	19902
816.385	19753
816.526	19655
816.666	19578
816.807	19403
816.948	19578
817.089	19487
817.23	19422
817.371	19339
817.512	19362
817.653	19377
817.793	19400
817.934	19354
818.075	19480
818.216	19460
818.356	19331
818.497	19164
818.638	19088
818.778	19148
818.919	19061
819.06	19118
819.2	19266
819.341	19316
819.481	19320
819.622	19525
819.762	19578
819.903	19499
820.043	19430
820.184	19453
820.324	19365
820.465	19350
820.605	19460
820.746	19358
820.886	19179
821.026	19362
821.167	19285
821.307	19430
821.447	19331
821.588	19324
821.728	19069
821.868	18962
822.008	18897
822.149	18825
822.289	18814
822.429	18585
822.569	18456
822.709	18528
822.849	18380
822.99	18289
823.13	18296
823.27	18270
823.41	18114
823.55	18034
823.69	18015
823.83	18030
823.97	18015
824.11	17843
824.25	17885
824.389	17817
824.529	18007
824.669	17882
824.809	17977
824.949	17942
825.089	18003
825.228	17904
825.368	17771
825.508	17729
825.648	17748
825.787	17707
825.927	17608
826.067	17661
826.206	17649
826.346	17741
826.485	17703
826.625	17661
826.765	17817
826.904	17752
827.044	17402
827.183	17414
827.323	17299
827.462	17474
827.601	17353
827.741	17299
827.88	17299
828.02	17220
828.159	17341
828.298	17376
828.437	17383
828.577	17341
828.716	17417
828.855	17345
828.994	17098
829.134	17121
829.273	17193
829.412	17086
829.551	16946
829.69	17113
829.829	17109
829.968	17220
830.107	17136
830.246	17170
830.385	17071
830.524	16946
830.663	16938
830.802	16793
830.941	16831
831.08	16641
831.219	16828
831.357	16790
831.496	16949
831.635	16759
831.774	16675
831.913	16679
832.051	16474
832.19	16531
832.329	16630
832.467	16485
832.606	16375
832.744	16337
832.883	16424
833.022	16367
833.16	16508
833.299	16558
833.437	16512
833.576	16512
833.714	16398
833.852	16554
833.991	16523
834.129	16550
834.267	16615
834.406	16504
834.544	16569
834.682	16569
834.821	16371
834.959	16622
835.097	16462
835.235	16588
835.373	16531
835.511	16466
835.65	16413
835.788	16348
835.926	16226
836.064	16295
836.202	16253
836.34	16375
836.478	16508
836.615	16428
836.753	16432
836.891	16504
837.029	16497
837.167	16325
837.305	16337
837.443	16394
837.58	16249
837.718	16459
837.856	16280
837.993	16226
838.131	16246
838.269	16169
838.406	16143
838.544	16276
838.681	16017
838.819	15945
838.956	15838
839.094	15857
839.231	15899
839.369	15964
839.506	16204
839.643	16112
839.781	15816
839.918	15880
840.055	15895
840.193	15892
840.33	15857
840.467	15804
840.604	15911
840.742	16128
840.879	15728
841.016	15770
841.153	15797
841.29	16067
841.427	15880
841.564	15835
841.701	15823
841.838	15835
841.975	15812
842.112	15842
842.249	15644
842.385	15553
842.522	15827
842.659	15663
842.796	15675
842.933	15713
843.069	15576
843.206	15637
843.343	15713
843.479	15644
843.616	15618
843.752	15431
843.889	15408
844.025	15614
844.162	15435
844.298	15496
844.435	15405
844.571	15378
844.708	15538
844.844	15538
844.98	15618
845.117	15496
845.253	15294
845.389	15252
845.525	15340
845.661	15355
845.798	15135
845.934	15188
846.07	15192
846.206	15275
846.342	15291
846.478	15123
846.614	15100
846.75	14887
846.886	14971
847.022	15081
847.158	14990
847.294	15005
847.429	15036
847.565	14971
847.701	15252
847.837	14750
847.972	14651
848.108	14883
848.244	14754
848.379	14727
848.515	14590
848.65	14537
848.786	14629
848.921	14636
849.057	14724
849.192	14606
849.328	14765
849.463	14564
849.598	14583
849.734	14518
849.869	14492
850.004	14419
850.14	14537
850.275	14408
850.41	14324
850.545	14389
850.68	14339
850.815	14415
850.95	14377
851.085	14484
851.22	14507
851.355	14351
851.49	14343
851.625	14347
851.76	14271
851.895	14309
852.03	14237
852.165	14298
852.299	14374
852.434	14473
852.569	14454
852.703	14412
852.838	14415
852.973	14423
853.107	14488
853.242	14400
853.376	14183
853.511	14077
853.645	14336
853.78	14393
853.914	14294
854.048	14191
854.183	14221
854.317	14240
854.451	14423
854.585	14259
854.72	14206
854.854	14377
854.988	14187
855.122	14221
855.256	14142
855.39	14145
855.524	14328
855.658	14347
855.792	14225
855.926	14256
856.06	14351
856.194	14374
856.327	14240
856.461	14202
856.595	14244
856.729	14301
856.862	14423
856.996	14221
857.13	14336
857.263	14385
857.397	14393
857.53	14294
857.664	14183
857.797	14286
857.931	14263
858.064	14282
858.197	14358
858.331	14275
858.464	14278
858.597	14111
858.731	14168
858.864	14252
858.997	14187
859.13	14313
859.263	14298
859.396	14332
859.529	14176
859.662	14161
859.795	14271
859.928	14286
860.061	14446
860.194	14419
860.327	14278
860.46	14305
860.592	14389
860.725	14469
860.858	14400
860.99	14298
861.123	14088
861.256	14195
861.388	14309
861.521	14868
861.653	14180
861.786	14027
861.918	14149
862.05	14199
862.183	14153
862.315	14286
862.447	14309
862.58	14324
862.712	13967
862.844	14046
862.976	14069
863.108	14081
863.24	14568
863.372	13974
863.504	14058
863.636	14024
863.768	14043
863.9	14008
864.032	14020
864.164	14035
864.296	14134
864.428	14142
864.559	14244
864.691	14107
864.823	14024
864.954	14062
865.086	14054
865.217	14001
865.349	13974
865.48	14005
865.612	14084
865.743	14176
865.875	13989
866.006	14039
866.137	14016
866.269	14050
866.4	13986
866.531	13860
866.662	13909
866.793	13921
866.924	13978
867.055	14073
867.186	13967
867.317	13963
867.448	13883
867.579	13890
867.71	13925
867.841	13890
867.972	13917
868.103	14046
868.233	14069
868.364	14020
868.495	14107
868.625	14183
868.756	14332
868.886	14050
869.017	14271
869.147	14336
869.278	14347
869.408	14252
869.539	14339
869.669	14434
869.799	14191
869.929	14495
870.06	14366
870.19	14644
870.32	14606
870.45	14575
870.58	14686
870.71	14697
870.84	14788
870.97	14640
871.1	14686
871.23	14796
871.36	14941
871.489	14849
871.619	14804
871.749	14834
871.879	14876
872.008	14967
872.138	14872
872.267	14849
872.397	14629
872.526	14674
872.656	14644
872.785	14701
872.915	14868
873.044	14956
873.173	14921
873.303	15005
873.432	14853
873.561	15028
873.69	14967
873.819	15009
873.948	15047
874.077	14921
874.206	14880
874.335	15001
874.464	15165
874.593	15214
874.722	15112
874.851	15241
874.979	15241
875.108	15359
875.237	15233
875.365	15157
875.494	15157
875.623	15378
875.751	15249
875.88	15310
876.008	15325
876.136	15549
876.265	15629
876.393	15774
876.521	15743
876.65	15682
876.778	15671
876.906	15606
877.034	15553
877.162	15610
877.29	15603
877.418	15542
877.546	15667
877.674	15675
877.802	15652
877.93	15679
878.058	15644
878.185	15580
878.313	15614
878.441	15660
878.568	15462
878.696	15595
878.824	15671
878.951	15682
879.079	15812
879.206	15983
879.333	15846
879.461	15717
879.588	15759
879.715	15808
879.842	15835
879.97	15713
880.097	15477
880.224	15572
880.351	15625
880.478	15447
880.605	15401
880.732	15526
880.859	15713
880.986	15504
881.112	15515
881.239	15439
881.366	15378
881.493	15214
881.619	15176
881.746	15161
881.872	15154
881.999	15119
882.125	15100
882.252	15192
882.378	15256
882.505	15230
882.631	15131
882.757	14960
882.883	15104
883.01	14971
883.136	14956
883.262	14872
883.388	14765
883.514	14990
883.64	15009
883.766	14834
883.892	14769
884.018	14807
884.143	14891
884.269	15058
884.395	14708
884.52	14625
884.646	14739
884.772	14617
884.897	14621
885.023	14610
885.148	14758
885.274	14823
885.399	14796
885.524	14758
885.65	14887
885.775	14705
885.9	14610
886.025	14807
886.15	14781
886.275	14598
886.4	14621
886.525	14689
886.65	14583
886.775	14674
886.9	14823
887.025	14902
887.149	14724
887.274	14431
887.399	14564
887.523	14552
887.648	14431
887.773	14385
887.897	14587
888.021	14579
888.146	14537
888.27	14590
888.395	14648
888.519	14457
888.643	14629
888.767	14518
888.891	14450
889.015	14271
889.139	14461
889.263	14374
889.387	14423
889.511	14473
889.635	14514
889.759	14396
889.883	14457
890.006	14415
890.13	14537
890.254	14320
890.377	14358
890.501	14191
890.624	14252
890.748	14161
890.871	14221
890.995	14062
891.118	14016
891.241	14172
891.364	14164
891.488	14100
891.611	14027
891.734	14020
891.857	14103
891.98	14248
892.103	14134
892.226	14172
892.349	14180
892.471	13887
892.594	14092
892.717	14088
892.839	14107
892.962	14096
893.085	14157
893.207	14065
893.33	13967
893.452	13982
893.575	14195
893.697	14008
893.819	14252
893.941	14225
894.064	14256
894.186	14081
894.308	14062
894.43	14225
894.552	14370
894.674	14278
894.796	14008
894.918	14096
895.04	14130
895.161	14172
895.283	14202
895.405	14145
895.526	14252
895.648	14073
895.769	14259
895.891	14305
896.012	14244
896.134	14240
896.255	14309
896.376	14240
896.498	14252
896.619	14278
896.74	14240
896.861	14187
896.982	14556
897.103	14807
897.224	14564
897.345	14560
897.466	14514
897.587	14488
897.708	14655
897.828	14625
897.949	14389
898.07	14370
898.19	14499
898.311	14625
898.431	14480
898.552	14602
898.672	14659
898.792	14659
898.913	14629
899.033	14511
899.153	14385
899.273	14393
899.393	14434
899.513	14412
899.633	14377
899.753	14469
899.873	14492
899.993	14446
900.113	14408
900.232	14434
900.352	14404
900.472	14377
900.591	14252
900.711	14271
900.83	14336
900.95	14374
901.069	14476
901.189	14199
901.308	14031
901.427	13944
901.546	13898
901.665	14020
901.784	13944
901.904	13894
902.023	13841
902.141	13639
902.26	13590
902.379	13731
902.498	13582
902.617	13521
902.735	13670
902.854	13563
902.973	13457
903.091	13392
903.21	13263
903.328	13365
903.446	13183
903.565	13164
903.683	13034
903.801	13114
903.919	13118
904.038	13168
904.156	12932
904.274	13019
904.392	12973
904.51	13000
904.627	12977
904.745	12981
904.863	12928
904.981	12741
905.098	12635
905.216	12612
905.334	12635
905.451	12696
905.569	12555
905.686	12768
905.803	12620
905.921	12498
906.038	12608
906.155	12483
906.272	12391
906.389	12334
906.506	12243
906.623	12182
906.74	12247
906.857	12159
906.974	12087
907.091	12247
907.208	12361
907.324	12266
907.441	12148
907.557	12053
907.674	11958
907.79	11916
907.907	11931
908.023	11969
908.139	12015
908.256	12038
908.372	11809
908.488	11863
908.604	11851
908.72	11741
908.836	11733
908.952	11718
909.068	11764
909.184	11882
909.3	11726
909.415	11832
909.531	11745
909.647	11577
909.762	11520
909.878	11459
909.993	11573
910.108	11543
910.224	11551
910.339	11516
910.454	11459
910.57	11379
910.685	11193
910.8	11638
910.915	11516
911.03	11433
911.145	11204
911.259	11132
911.374	11246
911.489	11090
911.604	11094
911.718	10965
911.833	11048
911.947	10877
912.062	10729
912.176	10885
912.291	10995
912.405	11029
912.519	11132
912.633	11181
912.748	10991
912.862	11014
912.976	10752
913.09	10748
913.204	10748
913.318	10900
913.431	10976
913.545	10961
913.659	10908
913.772	10850
913.886	10733
914	10641
914.113	10748
914.226	10847
914.34	10763
914.453	10660
914.566	10767
914.68	10725
914.793	10664
914.906	10447
915.019	10413
915.132	10409
915.245	10440
915.358	10428
915.47	10440
915.583	10474
915.696	10516
915.809	10599
915.921	10622
916.034	10462
916.146	10390
916.259	10516
916.371	10424
916.483	10478
916.595	10371
916.708	10341
916.82	10333
916.932	10356
917.044	10455
917.156	10405
917.268	10303
917.38	10303
917.491	10272
917.603	10272
917.715	10459
917.826	10432
917.938	10318
918.049	10227
918.161	10329
918.272	10440
918.384	10363
918.495	10329
918.606	10112
918.717	10177
918.828	10185
918.939	10192
919.05	10112
919.161	10166
919.272	10051
919.383	10074
919.494	10227
919.604	10367
919.715	10223
919.826	10207
919.936	10158
920.047	10238
920.157	10227
920.267	10474
920.378	10261
920.488	10116
920.598	10421
920.708	10504
920.818	10455
920.928	10390
921.038	10519
921.148	10596
921.258	10284
921.368	10120
921.477	10101
921.587	10090
921.697	9922
921.806	10128
921.916	9926
922.025	9793
922.134	9816
922.244	9740
922.353	9838
922.462	9720
922.571	9584
922.68	9428
922.789	9439
922.898	9443
923.007	9351
923.116	9477
923.224	9466
923.333	9450
923.442	9393
923.55	9351
923.659	9336
923.767	9447
923.876	9298
923.984	9397
924.092	9279
924.201	9294
924.309	9306
924.417	9321
924.525	9291
924.633	9291
924.741	10032
924.849	9081
924.956	9264
925.064	9074
925.172	8994
925.279	9093
925.387	9119
925.494	9108
925.602	9230
925.709	9192
925.816	9062
925.924	9112
926.031	9199
926.138	9199
926.245	9131
926.352	9028
926.459	9165
926.566	9199
926.673	9081
926.779	8990
926.886	8967
926.993	8830
927.099	8826
927.206	8815
927.312	8788
927.419	8918
927.525	8861
927.631	8872
927.737	8701
927.843	8697
927.95	8629
928.056	8720
928.162	8762
928.267	8815
928.373	9431
928.479	8792
928.585	8625
928.69	8663
928.796	8819
928.901	8686
929.007	8427
929.112	8613
929.218	8537
929.323	8545
929.428	8545
929.533	8648
929.638	8465
929.743	8492
929.848	8533
929.953	8533
930.058	8442
930.163	8294
930.267	8343
930.372	8385
930.477	8275
930.581	8492
930.685	8423
930.79	8187
930.894	8240
930.998	8275
931.103	8423
931.207	8058
931.311	8016
931.415	7986
931.519	7723
931.623	7727
