Data from test_V78500241_816.txt Node
Date: Fri Mar 25 14:39:24 CST 2022
User: usil
Spectrometer: V785-0024
Trigger mode: 0
Integration Time (sec): 4.000000E-1
Scans to average: 1
Nonlinearity correction enabled: false
Boxcar width: 0
Storing dark spectrum: false
XAxis mode: Wavelengths
Number of Pixels in Spectrum: 1024
>>>>>Begin Spectral Data<<<<<
801.071	26362
801.214	26199
801.356	25769
801.499	25849
801.641	25655
801.783	25548
801.926	25628
802.068	25643
802.211	25411
802.353	25263
802.496	25278
802.638	25240
802.78	25019
802.923	25008
803.065	24939
803.208	25069
803.35	25088
803.492	25103
803.635	25183
803.777	25145
803.919	25312
804.061	25632
804.204	25335
804.346	25255
804.488	25312
804.63	25259
804.773	25285
804.915	25289
805.057	25514
805.199	25365
805.341	25499
805.483	25719
805.626	25635
805.768	25590
805.91	25795
806.052	25791
806.194	25894
806.336	26081
806.478	26138
806.62	26275
806.762	26476
806.904	26804
807.046	27355
807.188	27549
807.33	27675
807.472	28318
807.614	28691
807.756	29356
807.898	30106
808.04	31232
808.182	32503
808.324	34542
808.465	36703
808.607	39195
808.749	41216
808.891	42589
809.033	42642
809.174	41482
809.316	39298
809.458	36753
809.6	34173
809.741	32495
809.883	30867
810.025	29847
810.166	29136
810.308	28436
810.45	27991
810.591	27431
810.733	27165
810.875	26921
811.016	26648
811.158	26465
811.299	26343
811.441	26427
811.582	26301
811.724	25955
811.865	26119
812.007	25997
812.148	25890
812.29	25814
812.431	25879
812.573	25978
812.714	26008
812.855	26183
812.997	26347
813.138	26366
813.279	26275
813.421	26126
813.562	25902
813.703	25788
813.845	25521
813.986	25221
814.127	25065
814.268	24989
814.41	24962
814.551	24871
814.692	25023
814.833	24692
814.974	24840
815.115	24650
815.256	24711
815.397	24563
815.539	24608
815.68	24582
815.821	24471
815.962	24426
816.103	24433
816.244	24133
816.385	24121
816.526	24110
816.666	23931
816.807	23878
816.948	23954
817.089	23904
817.23	23790
817.371	23874
817.512	23779
817.653	23661
817.793	23665
817.934	23805
818.075	23790
818.216	23760
818.356	23653
818.497	23520
818.638	23581
818.778	23444
818.919	23417
819.06	23429
819.2	23402
819.341	23543
819.481	23649
819.622	23745
819.762	23828
819.903	23771
820.043	23767
820.184	23805
820.324	23554
820.465	23775
820.605	23699
820.746	23558
820.886	23383
821.026	23516
821.167	23406
821.307	23524
821.447	23410
821.588	23318
821.728	23288
821.868	22995
822.008	22889
822.149	22831
822.289	22889
822.429	22717
822.569	22478
822.709	22588
822.849	22379
822.99	22177
823.13	22242
823.27	22238
823.41	22059
823.55	22055
823.69	22090
823.83	22154
823.97	22124
824.11	21842
824.25	21778
824.389	21884
824.529	22063
824.669	21972
824.809	21911
824.949	21979
825.089	21911
825.228	21907
825.368	21728
825.508	21675
825.648	21652
825.787	21709
825.927	21698
826.067	21576
826.206	21618
826.346	21549
826.485	21732
826.625	21690
826.765	21583
826.904	21675
827.044	21367
827.183	21351
827.323	21435
827.462	21291
827.601	21344
827.741	21294
827.88	21329
828.02	21173
828.159	21218
828.298	21298
828.437	21321
828.577	21256
828.716	21458
828.855	21211
828.994	21024
829.134	20952
829.273	21055
829.412	20982
829.551	20948
829.69	20910
829.829	21020
829.968	21100
830.107	20975
830.246	20960
830.385	20845
830.524	20864
830.663	20880
830.802	20815
830.941	20564
831.08	20564
831.219	20629
831.357	20705
831.496	20765
831.635	20640
831.774	20541
831.913	20393
832.051	20442
832.19	20480
832.329	20488
832.467	20374
832.606	20362
832.744	20358
832.883	20442
833.022	20454
833.16	20705
833.299	20731
833.437	20693
833.576	20971
833.714	20975
833.852	21074
833.991	21291
834.129	21264
834.267	21355
834.406	21036
834.544	21165
834.682	21051
834.821	20975
834.959	20910
835.097	20823
835.235	20842
835.373	20625
835.511	20556
835.65	20286
835.788	20324
835.926	20336
836.064	19967
836.202	20084
836.34	20046
836.478	20107
836.615	20145
836.753	20122
836.891	20240
837.029	20180
837.167	20100
837.305	20145
837.443	19932
837.58	19970
837.718	20081
837.856	19917
837.993	19856
838.131	19921
838.269	19852
838.406	19902
838.544	19940
838.681	19624
838.819	19632
838.956	19445
839.094	19441
839.231	19384
839.369	19575
839.506	19780
839.643	19605
839.781	19373
839.918	19293
840.055	19453
840.193	19365
840.33	19297
840.467	19415
840.604	19411
840.742	19693
840.879	19274
841.016	19289
841.153	19270
841.29	19464
841.427	19609
841.564	19441
841.701	19308
841.838	19304
841.975	19289
842.112	19274
842.249	19187
842.385	19133
842.522	19358
842.659	19228
842.796	19175
842.933	19289
843.069	19072
843.206	19118
843.343	19377
843.479	19304
843.616	19278
843.752	19057
843.889	19072
844.025	19198
844.162	19259
844.298	19373
844.435	19392
844.571	19472
844.708	19753
844.844	20161
844.98	20484
845.117	20902
845.253	21363
845.389	22660
845.525	25118
845.661	29364
845.798	34162
845.934	38035
846.07	39778
846.206	38598
846.342	35577
846.478	30532
846.614	26221
846.75	23459
846.886	21504
847.022	20686
847.158	19887
847.294	19544
847.429	19266
847.565	19050
847.701	19126
847.837	18585
847.972	18601
848.108	18456
848.244	18448
848.379	18399
848.515	18148
848.65	18224
848.786	18182
848.921	18201
849.057	18346
849.192	18243
849.328	18167
849.463	18011
849.598	18045
849.734	18022
849.869	17897
850.004	17760
850.14	17828
850.275	17824
850.41	17668
850.545	17767
850.68	17752
850.815	17699
850.95	17870
851.085	17969
851.22	17843
851.355	17809
851.49	17893
851.625	17764
851.76	17813
851.895	17714
852.03	17760
852.165	17707
852.299	17984
852.434	17863
852.569	17802
852.703	17939
852.838	17866
852.973	17996
853.107	18053
853.242	17859
853.376	17786
853.511	17691
853.645	17771
853.78	18015
853.914	17885
854.048	17927
854.183	17893
854.317	18015
854.451	18186
854.585	17988
854.72	17916
854.854	17954
854.988	17805
855.122	17832
855.256	17634
855.39	17703
855.524	17726
855.658	17790
855.792	17737
855.926	17783
856.06	17718
856.194	17699
856.327	17676
856.461	17726
856.595	17585
856.729	17627
856.862	17687
856.996	17649
857.13	17684
857.263	17741
857.397	17699
857.53	17532
857.664	17619
857.797	17741
857.931	17741
858.064	17554
858.197	17699
858.331	17554
858.464	17600
858.597	17429
858.731	17512
858.864	17551
858.997	17570
859.13	17547
859.263	17512
859.396	17634
859.529	17532
859.662	17315
859.795	17455
859.928	17600
860.061	17676
860.194	17741
860.327	17520
860.46	17474
860.592	17532
860.725	17596
860.858	17714
860.99	17478
861.123	17448
861.256	17372
861.388	17467
861.521	18110
861.653	17391
861.786	17368
861.918	17379
862.05	17269
862.183	17425
862.315	17455
862.447	17490
862.58	17444
862.712	17334
862.844	17113
862.976	17280
863.108	17178
863.24	17539
863.372	17140
863.504	17254
863.636	17193
863.768	17269
863.9	17208
864.032	17231
864.164	17197
864.296	17189
864.428	17299
864.559	17258
864.691	17239
864.823	17178
864.954	17189
865.086	17277
865.217	17155
865.349	17067
865.48	17147
865.612	17086
865.743	17303
865.875	17155
866.006	17006
866.137	17071
866.269	17117
866.4	17109
866.531	17045
866.662	17048
866.793	16995
866.924	17105
867.055	17124
867.186	17037
867.317	16968
867.448	16946
867.579	17029
867.71	17083
867.841	17067
867.972	17086
868.103	17143
868.233	17090
868.364	17060
868.495	17197
868.625	17356
868.756	17417
868.886	17258
869.017	17391
869.147	17410
869.278	17532
869.408	17528
869.539	17395
869.669	17406
869.799	17452
869.929	17611
870.06	17539
870.19	17756
870.32	17695
870.45	17843
870.58	17817
870.71	17920
870.84	17843
870.97	17748
871.1	17752
871.23	18011
871.36	17954
871.489	17923
871.619	17946
871.749	17992
871.879	18091
872.008	18205
872.138	18167
872.267	18091
872.397	17897
872.526	17916
872.656	17920
872.785	18015
872.915	18232
873.044	18232
873.173	18243
873.303	18174
873.432	18304
873.561	18327
873.69	18201
873.819	18251
873.948	18407
874.077	18330
874.206	18289
874.335	18285
874.464	18532
874.593	18597
874.722	18559
874.851	18681
874.979	18669
875.108	18829
875.237	18711
875.365	18791
875.494	18719
875.623	18973
875.751	18894
875.88	18905
876.008	19038
876.136	19206
876.265	19346
876.393	19552
876.521	19480
876.65	19590
876.778	19559
876.906	19529
877.034	19681
877.162	19635
877.29	19639
877.418	19795
877.546	19883
877.674	19879
877.802	19963
877.93	20103
878.058	20187
878.185	20286
878.313	20400
878.441	20834
878.568	20944
878.696	21397
878.824	22074
878.951	22755
879.079	24053
879.206	25567
879.333	27077
879.461	28379
879.588	29079
879.715	29166
879.842	28664
879.97	27017
880.097	25468
880.224	24155
880.351	23326
880.478	22717
880.605	22314
880.732	22013
880.859	22017
880.986	21793
881.112	21652
881.239	21507
881.366	21241
881.493	21245
881.619	21203
881.746	21298
881.872	21317
881.999	21325
882.125	21298
882.252	21408
882.378	21450
882.505	21625
882.631	21313
882.757	21256
882.883	21329
883.01	21275
883.136	21207
883.262	21146
883.388	21032
883.514	21237
883.64	21230
883.766	21184
883.892	20902
884.018	21070
884.143	21184
884.269	21230
884.395	21036
884.52	20914
884.646	20921
884.772	20788
884.897	20781
885.023	20868
885.148	20998
885.274	20918
885.399	20895
885.524	20735
885.65	20705
885.775	20609
885.9	20499
886.025	20492
886.15	20366
886.275	19978
886.4	20050
886.525	19913
886.65	19860
886.775	19738
886.9	19868
887.025	19879
887.149	19499
887.274	19483
887.399	19228
887.523	19183
887.648	19076
887.773	19076
887.897	19141
888.021	19000
888.146	18958
888.27	19034
888.395	18973
888.519	18875
888.643	18787
888.767	18856
888.891	18696
889.015	18589
889.139	18479
889.263	18460
889.387	18536
889.511	18631
889.635	18433
889.759	18334
889.883	18391
890.006	18361
890.13	18384
890.254	18174
890.377	18251
890.501	17999
890.624	17920
890.748	18049
890.871	17908
890.995	17821
891.118	17771
891.241	17771
891.364	17786
891.488	17794
891.611	17699
891.734	17729
891.857	17741
891.98	17710
892.103	17802
892.226	17634
892.349	17630
892.471	17414
892.594	17516
892.717	17608
892.839	17516
892.962	17459
893.085	17524
893.207	17379
893.33	17387
893.452	17345
893.575	17486
893.697	17349
893.819	17486
893.941	17478
894.064	17395
894.186	17223
894.308	17170
894.43	17360
894.552	17433
894.674	17356
894.796	17060
894.918	17246
895.04	17140
895.161	17239
895.283	17341
895.405	17048
895.526	17075
895.648	17189
895.769	17136
895.891	17140
896.012	17242
896.134	17216
896.255	17151
896.376	17094
896.498	17155
896.619	17159
896.74	17166
896.861	17147
896.982	17376
897.103	17570
897.224	17459
897.345	17368
897.466	17239
897.587	17341
897.708	17448
897.828	17322
897.949	17204
898.07	17189
898.19	17376
898.311	17436
898.431	17349
898.552	17387
898.672	17414
898.792	17482
898.913	17379
899.033	17242
899.153	17200
899.273	17094
899.393	17166
899.513	17231
899.633	17204
899.753	17132
899.873	17105
899.993	17204
900.113	17098
900.232	17178
900.352	17151
900.472	17022
900.591	16873
900.711	16999
900.83	17003
900.95	17102
901.069	17048
901.189	16820
901.308	16698
901.427	16523
901.546	16565
901.665	16512
901.784	16531
901.904	16470
902.023	16356
902.141	16257
902.26	16112
902.379	16200
902.498	16154
902.617	16002
902.735	16071
902.854	16071
902.973	15838
903.091	15720
903.21	15717
903.328	15755
903.446	15694
903.565	15622
903.683	15652
903.801	15557
903.919	15485
904.038	15443
904.156	15306
904.274	15370
904.392	15306
904.51	15272
904.627	15237
904.745	15275
904.863	15363
904.981	15051
905.098	14929
905.216	14933
905.334	14956
905.451	15017
905.569	14815
905.686	14883
905.803	14967
905.921	14716
906.038	14857
906.155	14716
906.272	14629
906.389	14659
906.506	14427
906.623	14526
906.74	14469
906.857	14374
906.974	14419
907.091	14621
907.208	14625
907.324	14541
907.441	14362
907.557	14187
907.674	14187
907.79	14119
907.907	14149
908.023	14206
908.139	14157
908.256	14142
908.372	14130
908.488	14039
908.604	13936
908.72	13883
908.836	13887
908.952	13871
909.068	13917
909.184	13970
909.3	13879
909.415	13913
909.531	13932
909.647	13719
909.762	13658
909.878	13571
909.993	13704
910.108	13655
910.224	13628
910.339	13632
910.454	13544
910.57	13495
910.685	13487
910.8	13822
910.915	13651
911.03	13506
911.145	13392
911.259	13346
911.374	13274
911.489	13308
911.604	13175
911.718	13133
911.833	13031
911.947	12966
912.062	12848
912.176	13027
912.291	13088
912.405	13050
912.519	13255
912.633	13194
912.748	13023
912.862	13050
912.976	12905
913.09	12738
913.204	12821
913.318	12859
913.431	13008
913.545	13004
913.659	12954
913.772	12882
913.886	12795
914	12601
914.113	12783
914.226	12814
914.34	12844
914.453	12658
914.566	12791
914.68	12711
914.793	12650
914.906	12540
915.019	12372
915.132	12300
915.245	12494
915.358	12532
915.47	12509
915.583	12486
915.696	12525
915.809	12642
915.921	12642
916.034	12448
916.146	12471
916.259	12448
916.371	12429
916.483	12437
916.595	12380
916.708	12361
916.82	12308
916.932	12338
917.044	12410
917.156	12353
917.268	12254
917.38	12247
917.491	12239
917.603	12304
917.715	12239
917.826	12304
917.938	12186
918.049	12133
918.161	12197
918.272	12300
918.384	12262
918.495	12167
918.606	12057
918.717	12003
918.828	11992
918.939	12095
919.05	11973
919.161	11939
919.272	11710
919.383	11843
919.494	12045
919.604	12197
919.715	11969
919.826	11939
919.936	11980
920.047	12034
920.157	12106
920.267	12110
920.378	12076
920.488	11984
920.598	12205
920.708	12292
920.818	12258
920.928	12125
921.038	12289
921.148	12243
921.258	11965
921.368	11965
921.477	11863
921.587	11783
921.697	11691
921.806	11745
921.916	11703
922.025	11497
922.134	11493
922.244	11486
922.353	11478
922.462	11345
922.571	11147
922.68	11155
922.789	11113
922.898	11121
923.007	11109
923.116	11197
923.224	11170
923.333	11094
923.442	10995
923.55	11003
923.659	11056
923.767	11037
923.876	10938
923.984	10980
924.092	10790
924.201	10919
924.309	10915
924.417	10968
924.525	10900
924.633	10809
924.741	11741
924.849	10645
924.956	10831
925.064	10679
925.172	10634
925.279	10664
925.387	10656
925.494	10660
925.602	10835
925.709	10744
925.816	10554
925.924	10622
926.031	10736
926.138	10668
926.245	10675
926.352	10607
926.459	10736
926.566	10752
926.673	10634
926.779	10500
926.886	10531
926.993	10394
927.099	10375
927.206	10242
927.312	10234
927.419	10337
927.525	10318
927.631	10341
927.737	10295
927.843	10128
927.95	10135
928.056	10211
928.162	10287
928.267	10280
928.373	10797
928.479	10181
928.585	9991
928.69	10147
928.796	10188
928.901	10097
929.007	9960
929.112	10105
929.218	10109
929.323	10029
929.428	9987
929.533	10071
929.638	9873
929.743	9880
929.848	10002
929.953	9987
930.058	9857
930.163	9732
930.267	9713
930.372	9819
930.477	9701
930.581	9865
930.685	9819
930.79	9629
930.894	9618
930.998	9599
931.103	9827
931.207	9431
931.311	9363
931.415	9241
931.519	9127
931.623	9017
