Data from test_V78500241_765.txt Node
Date: Fri Mar 25 14:39:02 CST 2022
User: usil
Spectrometer: V785-0024
Trigger mode: 0
Integration Time (sec): 4.000000E-1
Scans to average: 1
Nonlinearity correction enabled: false
Boxcar width: 0
Storing dark spectrum: false
XAxis mode: Wavelengths
Number of Pixels in Spectrum: 1024
>>>>>Begin Spectral Data<<<<<
801.071	26906
801.214	26845
801.356	26594
801.499	26453
801.641	26408
801.783	26256
801.926	26233
802.068	26130
802.211	26134
802.353	26050
802.496	25845
802.638	25753
802.78	25799
802.923	25757
803.065	25643
803.208	25784
803.35	25643
803.492	25879
803.635	25875
803.777	25849
803.919	25947
804.061	26278
804.204	25997
804.346	26065
804.488	25951
804.63	25936
804.773	25989
804.915	26077
805.057	26214
805.199	26199
805.341	26294
805.483	26393
805.626	26533
805.768	26541
805.91	26552
806.052	26762
806.194	26587
806.336	27104
806.478	27142
806.62	27420
806.762	27739
806.904	28082
807.046	28542
807.188	28782
807.33	29296
807.472	29847
807.614	30357
807.756	31232
807.898	32324
808.04	34040
808.182	35973
808.324	38400
808.465	41246
808.607	44552
808.749	47596
808.891	49342
809.033	49430
809.174	47821
809.316	45135
809.458	41600
809.6	38305
809.741	35547
809.883	33344
810.025	32088
810.166	30787
810.308	30003
810.45	29406
810.591	28786
810.733	28424
810.875	27960
811.016	27633
811.158	27416
811.299	27306
811.441	27462
811.582	27222
811.724	26895
811.865	26720
812.007	26735
812.148	26632
812.29	26617
812.431	26686
812.573	26773
812.714	26868
812.855	26842
812.997	26834
813.138	27055
813.279	26910
813.421	26682
813.562	26537
813.703	26431
813.845	26305
813.986	25959
814.127	25655
814.268	25594
814.41	25518
814.551	25533
814.692	25628
814.833	25358
814.974	25392
815.115	25289
815.256	24985
815.397	25183
815.539	25057
815.68	25080
815.821	25088
815.962	25095
816.103	24966
816.244	24844
816.385	24730
816.526	24654
816.666	24532
816.807	24414
816.948	24380
817.089	24437
817.23	24270
817.371	24300
817.512	24262
817.653	24194
817.793	24167
817.934	24174
818.075	24182
818.216	24167
818.356	24098
818.497	23897
818.638	23809
818.778	23912
818.919	23935
819.06	23859
819.2	23984
819.341	24106
819.481	24068
819.622	24232
819.762	24422
819.903	24201
820.043	24041
820.184	24152
820.324	24201
820.465	24213
820.605	24026
820.746	23912
820.886	23882
821.026	23984
821.167	23931
821.307	23855
821.447	23916
821.588	23676
821.728	23722
821.868	23356
822.008	23269
822.149	23353
822.289	23288
822.429	22995
822.569	22927
822.709	22934
822.849	22839
822.99	22755
823.13	22702
823.27	22531
823.41	22622
823.55	22481
823.69	22485
823.83	22516
823.97	22459
824.11	22265
824.25	22306
824.389	22265
824.529	22470
824.669	22276
824.809	22223
824.949	22287
825.089	22443
825.228	22310
825.368	22048
825.508	22154
825.648	22150
825.787	22040
825.927	22150
826.067	21964
826.206	22078
826.346	22105
826.485	22105
826.625	21972
826.765	22181
826.904	22173
827.044	21797
827.183	21701
827.323	21743
827.462	21892
827.601	21747
827.741	21724
827.88	21728
828.02	21629
828.159	21671
828.298	21774
828.437	21713
828.577	21572
828.716	21972
828.855	21622
828.994	21473
829.134	21359
829.273	21473
829.412	21447
829.551	21207
829.69	21389
829.829	21340
829.968	21424
830.107	21549
830.246	21428
830.385	21325
830.524	21329
830.663	21382
830.802	21203
830.941	21058
831.08	21081
831.219	21142
831.357	21070
831.496	21062
831.635	21074
831.774	20952
831.913	20941
832.051	20819
832.19	20952
832.329	20937
832.467	20952
832.606	20735
832.744	20792
832.883	20956
833.022	20994
833.16	21119
833.299	21264
833.437	21279
833.576	21530
833.714	21671
833.852	21808
833.991	21831
834.129	21991
834.267	22010
834.406	21907
834.544	21915
834.682	21743
834.821	21568
834.959	21701
835.097	21336
835.235	21302
835.373	21268
835.511	21013
835.65	20948
835.788	20838
835.926	20674
836.064	20552
836.202	20689
836.34	20705
836.478	20705
836.615	20526
836.753	20564
836.891	20636
837.029	20594
837.167	20522
837.305	20480
837.443	20495
837.58	20415
837.718	20450
837.856	20423
837.993	20389
838.131	20294
838.269	20298
838.406	20286
838.544	20252
838.681	20031
838.819	20035
838.956	19776
839.094	19803
839.231	19852
839.369	19909
839.506	20332
839.643	20073
839.781	19750
839.918	19719
840.055	19830
840.193	19845
840.33	19723
840.467	19772
840.604	19852
840.742	20050
840.879	19822
841.016	19753
841.153	19655
841.29	20039
841.427	19784
841.564	19864
841.701	19841
841.838	19750
841.975	19666
842.112	19693
842.249	19613
842.385	19712
842.522	19898
842.659	19613
842.796	19571
842.933	19639
843.069	19578
843.206	19578
843.343	19788
843.479	19734
843.616	19753
843.752	19651
843.889	19620
844.025	19864
844.162	19727
844.298	19936
844.435	20024
844.571	20225
844.708	20514
844.844	20937
844.98	21439
845.117	21888
845.253	22946
845.389	24779
845.525	28333
845.661	34036
845.798	40763
845.934	45766
846.07	47691
846.206	46322
846.342	41615
846.478	34831
846.614	29102
846.75	25335
846.886	22995
847.022	21804
847.158	20845
847.294	20427
847.429	19921
847.565	19750
847.701	19742
847.837	19145
847.972	18977
848.108	19080
848.244	18966
848.379	18966
848.515	18745
848.65	18692
848.786	18623
848.921	18616
849.057	18635
849.192	18745
849.328	18608
849.463	18513
849.598	18395
849.734	18540
849.869	18369
850.004	18391
850.14	18452
850.275	18319
850.41	18091
850.545	18216
850.68	18258
850.815	18159
850.95	18239
851.085	18445
851.22	18296
851.355	18254
851.49	18342
851.625	18182
851.76	18182
851.895	18182
852.03	18148
852.165	18304
852.299	18319
852.434	18407
852.569	18338
852.703	18361
852.838	18460
852.973	18437
853.107	18483
853.242	18308
853.376	18311
853.511	18140
853.645	18334
853.78	18437
853.914	18525
854.048	18380
854.183	18433
854.317	18498
854.451	18639
854.585	18532
854.72	18532
854.854	18540
854.988	18334
855.122	18384
855.256	18235
855.39	18296
855.524	18460
855.658	18300
855.792	18254
855.926	18232
856.06	18182
856.194	18239
856.327	18178
856.461	18049
856.595	18083
856.729	18068
856.862	18258
856.996	18072
857.13	18125
857.263	18152
857.397	18129
857.53	18049
857.664	18159
857.797	18072
857.931	18079
858.064	17996
858.197	18026
858.331	17965
858.464	17912
858.597	17885
858.731	18022
858.864	17931
858.997	17878
859.13	17935
859.263	17980
859.396	17931
859.529	17920
859.662	17954
859.795	17851
859.928	17950
860.061	18019
860.194	18121
860.327	17942
860.46	17969
860.592	18019
860.725	17973
860.858	18076
860.99	17996
861.123	17767
861.256	17824
861.388	17855
861.521	18669
861.653	17657
861.786	17680
861.918	17657
862.05	17760
862.183	17840
862.315	17847
862.447	17920
862.58	17623
862.712	17619
862.844	17623
862.976	17695
863.108	17661
863.24	18068
863.372	17505
863.504	17619
863.636	17524
863.768	17524
863.9	17554
864.032	17436
864.164	17535
864.296	17649
864.428	17589
864.559	17611
864.691	17566
864.823	17547
864.954	17638
865.086	17535
865.217	17452
865.349	17448
865.48	17493
865.612	17490
865.743	17657
865.875	17501
866.006	17425
866.137	17364
866.269	17512
866.4	17471
866.531	17497
866.662	17364
866.793	17459
866.924	17448
867.055	17524
867.186	17573
867.317	17444
867.448	17311
867.579	17452
867.71	17288
867.841	17235
867.972	17505
868.103	17490
868.233	17467
868.364	17455
868.495	17562
868.625	17729
868.756	17805
868.886	17630
869.017	17672
869.147	17828
869.278	17821
869.408	17767
869.539	17733
869.669	17843
869.799	17813
869.929	17855
870.06	17935
870.19	18087
870.32	18076
870.45	18053
870.58	18201
870.71	18308
870.84	18353
870.97	18228
871.1	18243
871.23	18327
871.36	18494
871.489	18353
871.619	18319
871.749	18471
871.879	18407
872.008	18441
872.138	18467
872.267	18521
872.397	18380
872.526	18319
872.656	18273
872.785	18418
872.915	18677
873.044	18665
873.173	18696
873.303	18707
873.432	18711
873.561	18787
873.69	18681
873.819	18730
873.948	18783
874.077	18764
874.206	18791
874.335	18817
874.464	19015
874.593	19190
874.722	19160
874.851	19179
874.979	19145
875.108	19278
875.237	19244
875.365	19209
875.494	19362
875.623	19396
875.751	19415
875.88	19525
876.008	19628
876.136	19799
876.265	20027
876.393	20309
876.521	20324
876.65	20206
876.778	20176
876.906	20168
877.034	20317
877.162	20294
877.29	20465
877.418	20492
877.546	20682
877.674	20705
877.802	20826
877.93	20941
878.058	21165
878.185	21336
878.313	21667
878.441	21949
878.568	22246
878.696	22729
878.824	23687
878.951	24760
879.079	26385
879.206	28306
879.333	30369
879.461	32027
879.588	33142
879.715	33195
879.842	32290
879.97	30426
880.097	28356
880.224	26575
880.351	25491
880.478	24616
880.605	24079
880.732	23646
880.859	23630
880.986	23239
881.112	23159
881.239	23010
881.366	22847
881.493	22790
881.619	22759
881.746	22828
881.872	22816
881.999	22740
882.125	22740
882.252	22854
882.378	22984
882.505	23109
882.631	22892
882.757	22843
882.883	22877
883.01	22778
883.136	22809
883.262	22626
883.388	22577
883.514	22797
883.64	22873
883.766	22634
883.892	22637
884.018	22580
884.143	22694
884.269	22736
884.395	22409
884.52	22569
884.646	22611
884.772	22531
884.897	22470
885.023	22493
885.148	22557
885.274	22668
885.399	22409
885.524	22192
885.65	22173
885.775	22021
885.9	21861
886.025	21804
886.15	21637
886.275	21408
886.4	21283
886.525	21260
886.65	20975
886.775	20861
886.9	20948
887.025	20918
887.149	20674
887.274	20454
887.399	20313
887.523	20221
887.648	19959
887.773	19906
887.897	20107
888.021	19955
888.146	19864
888.27	19913
888.395	19807
888.519	19731
888.643	19620
888.767	19533
888.891	19514
889.015	19403
889.139	19354
889.263	19346
889.387	19293
889.511	19354
889.635	19312
889.759	19137
889.883	19160
890.006	19160
890.13	19133
890.254	18947
890.377	18966
890.501	18760
890.624	18582
890.748	18844
890.871	18509
890.995	18460
891.118	18319
891.241	18353
891.364	18418
891.488	18486
891.611	18338
891.734	18334
891.857	18323
891.98	18365
892.103	18323
892.226	18254
892.349	18136
892.471	18022
892.594	18087
892.717	18030
892.839	18038
892.962	18038
893.085	18015
893.207	18053
893.33	17821
893.452	17821
893.575	17874
893.697	17851
893.819	18003
893.941	17996
894.064	17920
894.186	17680
894.308	17646
894.43	17805
894.552	17923
894.674	17863
894.796	17577
894.918	17634
895.04	17566
895.161	17661
895.283	17733
895.405	17600
895.526	17661
895.648	17653
895.769	17707
895.891	17600
896.012	17657
896.134	17573
896.255	17543
896.376	17482
896.498	17600
896.619	17501
896.74	17497
896.861	17581
896.982	17904
897.103	17988
897.224	17752
897.345	17623
897.466	17608
897.587	17585
897.708	17889
897.828	17771
897.949	17600
898.07	17566
898.19	17558
898.311	17699
898.431	17707
898.552	17760
898.672	17657
898.792	17771
898.913	17824
899.033	17661
899.153	17611
899.273	17512
899.393	17512
899.513	17463
899.633	17467
899.753	17417
899.873	17497
899.993	17524
900.113	17478
900.232	17547
900.352	17410
900.472	17395
900.591	17265
900.711	17239
900.83	17311
900.95	17417
901.069	17410
901.189	17181
901.308	17018
901.427	16824
901.546	16919
901.665	16987
901.784	16961
901.904	16736
902.023	16637
902.141	16500
902.26	16371
902.379	16428
902.498	16268
902.617	16310
902.735	16325
902.854	16261
902.973	16306
903.091	16029
903.21	16029
903.328	15968
903.446	15846
903.565	15888
903.683	15930
903.801	15675
903.919	15694
904.038	15728
904.156	15534
904.274	15644
904.392	15561
904.51	15507
904.627	15526
904.745	15504
904.863	15641
904.981	15348
905.098	15272
905.216	15161
905.334	15245
905.451	15195
905.569	15222
905.686	15252
905.803	15150
905.921	15032
906.038	14998
906.155	15024
906.272	14845
906.389	14781
906.506	14792
906.623	14693
906.74	14701
906.857	14488
906.974	14655
907.091	14842
907.208	14845
907.324	14781
907.441	14689
907.557	14381
907.674	14427
907.79	14408
907.907	14389
908.023	14347
908.139	14366
908.256	14332
908.372	14374
908.488	14298
908.604	14180
908.72	14149
908.836	14176
908.952	14100
909.068	14240
909.184	14267
909.3	14183
909.415	14202
909.531	14195
909.647	13921
909.762	13959
909.878	13864
909.993	13883
910.108	13849
910.224	13845
910.339	13993
910.454	13742
910.57	13833
910.685	13712
910.8	13909
910.915	13868
911.03	13826
911.145	13639
911.259	13556
911.374	13567
911.489	13460
911.604	13407
911.718	13190
911.833	13396
911.947	13160
912.062	13091
912.176	13312
912.291	13335
912.405	13297
912.519	13480
912.633	13419
912.748	13293
912.862	13312
912.976	13103
913.09	12882
913.204	13122
913.318	13270
913.431	13270
913.545	13232
913.659	13285
913.772	13129
913.886	13000
914	13061
914.113	13076
914.226	13118
914.34	13091
914.453	12920
914.566	13122
914.68	13027
914.793	12920
914.906	12783
915.019	12730
915.132	12715
915.245	12753
915.358	12696
915.47	12722
915.583	12768
915.696	12817
915.809	12798
915.921	12943
916.034	12738
916.146	12711
916.259	12658
916.371	12707
916.483	12783
916.595	12654
916.708	12688
916.82	12658
916.932	12684
917.044	12654
917.156	12654
917.268	12509
917.38	12597
917.491	12498
917.603	12490
917.715	12540
917.826	12604
917.938	12464
918.049	12270
918.161	12509
918.272	12521
918.384	12498
918.495	12448
918.606	12235
918.717	12205
918.828	12213
918.939	12323
919.05	12182
919.161	12270
919.272	12057
919.383	12022
919.494	12247
919.604	12395
919.715	12247
919.826	12133
919.936	12140
920.047	12243
920.157	12220
920.267	12353
920.378	12311
920.488	12270
920.598	12384
920.708	12551
920.818	12334
920.928	12361
921.038	12517
921.148	12494
921.258	12140
921.368	12030
921.477	11977
921.587	12015
921.697	11870
921.806	12034
921.916	11855
922.025	11684
922.134	11661
922.244	11642
922.353	11649
922.462	11539
922.571	11528
922.68	11322
922.789	11284
922.898	11307
923.007	11265
923.116	11372
923.224	11280
923.333	11246
923.442	11231
923.55	11170
923.659	11261
923.767	11223
923.876	11166
923.984	11212
924.092	11079
924.201	11201
924.309	11151
924.417	11083
924.525	11033
924.633	11025
924.741	11775
924.849	10824
924.956	11102
925.064	10900
925.172	10816
925.279	10850
925.387	10869
925.494	10858
925.602	10930
925.709	10934
925.816	10774
925.924	10843
926.031	10919
926.138	10869
926.245	10915
926.352	10710
926.459	10915
926.566	10984
926.673	10778
926.779	10771
926.886	10679
926.993	10561
927.099	10478
927.206	10497
927.312	10470
927.419	10516
927.525	10443
927.631	10485
927.737	10402
927.843	10375
927.95	10325
928.056	10390
928.162	10402
928.267	10409
928.373	11014
928.479	10550
928.585	10310
928.69	10402
928.796	10470
928.901	10219
929.007	10082
929.112	10291
929.218	10223
929.323	10177
929.428	10188
929.533	10310
929.638	10082
929.743	10093
929.848	10173
929.953	10086
930.058	10040
930.163	9785
930.267	9949
930.372	10006
930.477	9873
930.581	10063
930.685	9949
930.79	9793
930.894	9846
930.998	9793
931.103	9956
931.207	9534
931.311	9561
931.415	9420
931.519	9199
931.623	9203
