Data from test_V78500241_370.txt Node
Date: Fri Mar 25 14:36:17 CST 2022
User: usil
Spectrometer: V785-0024
Trigger mode: 0
Integration Time (sec): 4.000000E-1
Scans to average: 1
Nonlinearity correction enabled: false
Boxcar width: 0
Storing dark spectrum: false
XAxis mode: Wavelengths
Number of Pixels in Spectrum: 1024
>>>>>Begin Spectral Data<<<<<
801.071	26769
801.214	26621
801.356	26495
801.499	26469
801.641	26278
801.783	26122
801.926	26202
802.068	26206
802.211	26176
802.353	25959
802.496	25944
802.638	25913
802.78	25746
802.923	25818
803.065	25647
803.208	25731
803.35	25761
803.492	25890
803.635	25902
803.777	25734
803.919	25978
804.061	26122
804.204	25849
804.346	25700
804.488	25567
804.63	25666
804.773	25651
804.915	25719
805.057	25818
805.199	25750
805.341	25799
805.483	25822
805.626	25898
805.768	25765
805.91	25719
806.052	25868
806.194	25818
806.336	25811
806.478	25624
806.62	25852
806.762	25925
806.904	26119
807.046	26172
807.188	26145
807.33	26176
807.472	26191
807.614	26012
807.756	26107
807.898	25974
808.04	25826
808.182	26027
808.324	25947
808.465	25959
808.607	26130
808.749	26191
808.891	26423
809.033	26431
809.174	26385
809.316	26229
809.458	26229
809.6	26229
809.741	26309
809.883	26275
810.025	26617
810.166	26396
810.308	26480
810.45	26385
810.591	26248
810.733	26180
810.875	26225
811.016	26183
811.158	26088
811.299	26195
811.441	26290
811.582	26248
811.724	26058
811.865	26084
812.007	26126
812.148	26195
812.29	26187
812.431	26339
812.573	26336
812.714	26400
812.855	26575
812.997	26674
813.138	26773
813.279	26686
813.421	26575
813.562	26514
813.703	26473
813.845	26278
813.986	26008
814.127	25795
814.268	25677
814.41	25658
814.551	25597
814.692	25693
814.833	25689
814.974	25521
815.115	25696
815.256	25422
815.397	25529
815.539	25499
815.68	25476
815.821	25339
815.962	25392
816.103	25289
816.244	25209
816.385	25091
816.526	24996
816.666	24973
816.807	24867
816.948	24798
817.089	24916
817.23	24829
817.371	24863
817.512	24833
817.653	24821
817.793	24871
817.934	24700
818.075	24760
818.216	24837
818.356	24616
818.497	24604
818.638	24551
818.778	24486
818.919	24513
819.06	24582
819.2	24639
819.341	24726
819.481	24757
819.622	24863
819.762	25008
819.903	24947
820.043	24901
820.184	24722
820.324	24669
820.465	24935
820.605	24806
820.746	24856
820.886	24528
821.026	24684
821.167	24722
821.307	24768
821.447	24741
821.588	24513
821.728	24403
821.868	24388
822.008	24098
822.149	24114
822.289	24011
822.429	23821
822.569	23676
822.709	23794
822.849	23570
822.99	23554
823.13	23497
823.27	23535
823.41	23414
823.55	23296
823.69	23433
823.83	23376
823.97	23227
824.11	23121
824.25	23022
824.389	23136
824.529	23242
824.669	23143
824.809	23227
824.949	23128
825.089	23109
825.228	23056
825.368	23014
825.508	22991
825.648	22961
825.787	23025
825.927	22972
826.067	22919
826.206	22915
826.346	23052
826.485	22995
826.625	22866
826.765	23010
826.904	22957
827.044	22824
827.183	22592
827.323	22649
827.462	22668
827.601	22615
827.741	22622
827.88	22615
828.02	22440
828.159	22630
828.298	22550
828.437	22637
828.577	22462
828.716	22580
828.855	22573
828.994	22291
829.134	22310
829.273	22322
829.412	22261
829.551	22181
829.69	22265
829.829	22325
829.968	22367
830.107	22325
830.246	22280
830.385	22169
830.524	22192
830.663	22143
830.802	22048
830.941	21922
831.08	21869
831.219	21888
831.357	21949
831.496	21998
831.635	21903
831.774	21778
831.913	21797
832.051	21652
832.19	21614
832.329	21778
832.467	21561
832.606	21428
832.744	21447
832.883	21545
833.022	21344
833.16	21553
833.299	21431
833.437	21492
833.576	21507
833.714	21416
833.852	21496
833.991	21576
834.129	21629
834.267	21641
834.406	21526
834.544	21587
834.682	21534
834.821	21526
834.959	21515
835.097	21454
835.235	21500
835.373	21557
835.511	21500
835.65	21306
835.788	21370
835.926	21344
836.064	21161
836.202	21287
836.34	21306
836.478	21401
836.615	21504
836.753	21405
836.891	21500
837.029	21351
837.167	21378
837.305	21321
837.443	21325
837.58	21256
837.718	21275
837.856	21207
837.993	21226
838.131	21184
838.269	21150
838.406	21173
838.544	21058
838.681	20811
838.819	20800
838.956	20560
839.094	20568
839.231	20762
839.369	20849
839.506	21074
839.643	20941
839.781	20590
839.918	20678
840.055	20617
840.193	20575
840.33	20480
840.467	20602
840.604	20625
840.742	20796
840.879	20377
841.016	20537
841.153	20488
841.29	20575
841.427	20629
841.564	20636
841.701	20564
841.838	20507
841.975	20461
842.112	20427
842.249	20355
842.385	20248
842.522	20575
842.659	20286
842.796	20252
842.933	20339
843.069	20358
843.206	20275
843.343	20332
843.479	20282
843.616	20370
843.752	20202
843.889	20183
844.025	20195
844.162	19959
844.298	20122
844.435	20020
844.571	19993
844.708	19993
844.844	20248
844.98	20278
845.117	20100
845.253	20054
845.389	20035
845.525	19879
845.661	19883
845.798	19947
845.934	19902
846.07	19940
846.206	19837
846.342	19871
846.478	19940
846.614	19559
846.75	19594
846.886	19499
847.022	19582
847.158	19514
847.294	19567
847.429	19582
847.565	19445
847.701	19674
847.837	19213
847.972	19168
848.108	19240
848.244	19232
848.379	19129
848.515	19114
848.65	19110
848.786	19103
848.921	19129
849.057	19141
849.192	19225
849.328	19061
849.463	19084
849.598	18954
849.734	19042
849.869	18844
850.004	18772
850.14	18776
850.275	18833
850.41	18700
850.545	18791
850.68	18844
850.815	18871
850.95	18783
851.085	18973
851.22	18928
851.355	18844
851.49	18707
851.625	18677
851.76	18688
851.895	18642
852.03	18696
852.165	18779
852.299	18856
852.434	18958
852.569	18863
852.703	18837
852.838	18738
852.973	18814
853.107	18848
853.242	18665
853.376	18661
853.511	18547
853.645	18631
853.78	18715
853.914	18570
854.048	18536
854.183	18631
854.317	18661
854.451	18779
854.585	18658
854.72	18601
854.854	18749
854.988	18555
855.122	18547
855.256	18528
855.39	18563
855.524	18768
855.658	18559
855.792	18669
855.926	18669
856.06	18654
856.194	18715
856.327	18635
856.461	18585
856.595	18555
856.729	18467
856.862	18688
856.996	18673
857.13	18513
857.263	18707
857.397	18681
857.53	18608
857.664	18574
857.797	18681
857.931	18753
858.064	18806
858.197	18688
858.331	18563
858.464	18502
858.597	18380
858.731	18623
858.864	18608
858.997	18582
859.13	18631
859.263	18559
859.396	18715
859.529	18467
859.662	18574
859.795	18486
859.928	18506
860.061	18684
860.194	18776
860.327	18483
860.46	18414
860.592	18642
860.725	18738
860.858	18604
860.99	18589
861.123	18456
861.256	18494
861.388	18578
861.521	19339
861.653	18452
861.786	18357
861.918	18445
862.05	18467
862.183	18544
862.315	18738
862.447	18631
862.58	18578
862.712	18445
862.844	18273
862.976	18410
863.108	18395
863.24	18711
863.372	18159
863.504	18285
863.636	18254
863.768	18292
863.9	18330
864.032	18201
864.164	18277
864.296	18254
864.428	18327
864.559	18407
864.691	18251
864.823	18220
864.954	18205
865.086	18281
865.217	18254
865.349	18144
865.48	18216
865.612	18186
865.743	18399
865.875	18216
866.006	18167
866.137	18129
866.269	18228
866.4	18205
866.531	18003
866.662	18167
866.793	18068
866.924	18205
867.055	18133
867.186	18125
867.317	18167
867.448	18072
867.579	18117
867.71	18087
867.841	18091
867.972	18209
868.103	18102
868.233	18083
868.364	18144
868.495	18281
868.625	18315
868.756	18509
868.886	18285
869.017	18292
869.147	18502
869.278	18422
869.408	18422
869.539	18380
869.669	18517
869.799	18361
869.929	18502
870.06	18452
870.19	18612
870.32	18692
870.45	18772
870.58	18795
870.71	18760
870.84	18939
870.97	18817
871.1	18711
871.23	18875
871.36	18867
871.489	18886
871.619	18954
871.749	18989
871.879	18935
872.008	19095
872.138	19027
872.267	18985
872.397	18890
872.526	18882
872.656	18730
872.785	18894
872.915	18958
873.044	19000
873.173	18943
873.303	18977
873.432	19053
873.561	19004
873.69	18951
873.819	18966
873.948	19034
874.077	19027
874.206	18954
874.335	19008
874.464	19072
874.593	19209
874.722	19274
874.851	19304
874.979	19316
875.108	19240
875.237	19236
875.365	19259
875.494	19289
875.623	19362
875.751	19289
875.88	19339
876.008	19453
876.136	19480
876.265	19685
876.393	19757
876.521	19795
876.65	19753
876.778	19719
876.906	19597
877.034	19632
877.162	19670
877.29	19563
877.418	19689
877.546	19734
877.674	19689
877.802	19616
877.93	19578
878.058	19639
878.185	19647
878.313	19647
878.441	19696
878.568	19502
878.696	19655
878.824	19597
878.951	19772
879.079	19765
879.206	20005
879.333	19875
879.461	19723
879.588	19780
879.715	19849
879.842	19955
879.97	19795
880.097	19571
880.224	19388
880.351	19639
880.478	19502
880.605	19457
880.732	19529
880.859	19670
880.986	19578
881.112	19559
881.239	19388
881.366	19266
881.493	19240
881.619	19198
881.746	19213
881.872	19099
881.999	19076
882.125	19023
882.252	19168
882.378	19168
882.505	19251
882.631	19080
882.757	19012
882.883	18977
883.01	19019
883.136	18890
883.262	18696
883.388	18829
883.514	18996
883.64	18840
883.766	18878
883.892	18703
884.018	18745
884.143	18954
884.269	18932
884.395	18582
884.52	18494
884.646	18555
884.772	18521
884.897	18479
885.023	18513
885.148	18711
885.274	18738
885.399	18620
885.524	18604
885.65	18551
885.775	18437
885.9	18547
886.025	18616
886.15	18688
886.275	18433
886.4	18467
886.525	18464
886.65	18376
886.775	18460
886.9	18604
887.025	18684
887.149	18422
887.274	18285
887.399	18266
887.523	18296
887.648	18304
887.773	18148
887.897	18464
888.021	18448
888.146	18216
888.27	18437
888.395	18357
888.519	18350
888.643	18319
888.767	18281
888.891	18174
889.015	18186
889.139	18095
889.263	18068
889.387	18178
889.511	18391
889.635	18174
889.759	18034
889.883	18106
890.006	18098
890.13	18140
890.254	18091
890.377	18125
890.501	17851
890.624	17794
890.748	17954
890.871	17851
890.995	17729
891.118	17668
891.241	17855
891.364	17691
891.488	17817
891.611	17699
891.734	17695
891.857	17889
891.98	17596
892.103	17775
892.226	17809
892.349	17680
892.471	17558
892.594	17703
892.717	17695
892.839	17619
892.962	17634
893.085	17767
893.207	17729
893.33	17714
893.452	17699
893.575	17684
893.697	17589
893.819	17809
893.941	17958
894.064	17885
894.186	17608
894.308	17630
894.43	17783
894.552	17840
894.674	17741
894.796	17691
894.918	17653
895.04	17729
895.161	17809
895.283	17760
895.405	17714
895.526	17680
895.648	17684
895.769	17783
895.891	17703
896.012	17821
896.134	17745
896.255	17851
896.376	17737
896.498	17817
896.619	17847
896.74	17847
896.861	17851
896.982	18038
897.103	18102
897.224	18057
897.345	17965
897.466	17939
897.587	18064
897.708	18182
897.828	18015
897.949	17916
898.07	17836
898.19	17893
898.311	18121
898.431	18026
898.552	18049
898.672	18076
898.792	18053
898.913	17931
899.033	17824
899.153	17851
899.273	17672
899.393	17756
899.513	17809
899.633	17767
899.753	17771
899.873	17760
899.993	17767
900.113	17764
900.232	17707
900.352	17680
900.472	17619
900.591	17596
900.711	17585
900.83	17581
900.95	17764
901.069	17676
901.189	17558
901.308	17303
901.427	17212
901.546	17307
901.665	17269
901.784	17311
901.904	17056
902.023	17033
902.141	16755
902.26	16748
902.379	16755
902.498	16698
902.617	16778
902.735	16828
902.854	16691
902.973	16599
903.091	16424
903.21	16424
903.328	16329
903.446	16363
903.565	16257
903.683	16207
903.801	16128
903.919	16223
904.038	16196
904.156	15998
904.274	16166
904.392	15964
904.51	16029
904.627	16032
904.745	16048
904.863	16249
904.981	15850
905.098	15709
905.216	15709
905.334	15793
905.451	15743
905.569	15690
905.686	15724
905.803	15603
905.921	15458
906.038	15622
906.155	15542
906.272	15428
906.389	15450
906.506	15222
906.623	15146
906.74	15306
906.857	15169
906.974	15131
907.091	15378
907.208	15272
907.324	15199
907.441	15036
907.557	15028
907.674	15005
907.79	14906
907.907	14899
908.023	14887
908.139	14979
908.256	14895
908.372	14963
908.488	14857
908.604	14701
908.72	14708
908.836	14708
908.952	14625
909.068	14621
909.184	14746
909.3	14663
909.415	14773
909.531	14587
909.647	14415
909.762	14400
909.878	14385
909.993	14434
910.108	14225
910.224	14393
910.339	14377
910.454	14282
910.57	14153
910.685	14240
910.8	14381
910.915	14389
911.03	14195
911.145	14008
911.259	13982
911.374	13928
911.489	13803
911.604	13928
911.718	13860
911.833	13700
911.947	13624
912.062	13613
912.176	13803
912.291	13769
912.405	13776
912.519	13967
912.633	13963
912.748	13723
912.862	13738
912.976	13578
913.09	13460
913.204	13575
913.318	13605
913.431	13681
913.545	13571
913.659	13685
913.772	13510
913.886	13506
914	13362
914.113	13480
914.226	13624
914.34	13445
914.453	13312
914.566	13548
914.68	13324
914.793	13365
914.906	13217
915.019	13088
915.132	13053
915.245	13107
915.358	13141
915.47	13152
915.583	13114
915.696	13103
915.809	13179
915.921	13194
916.034	13019
916.146	13118
916.259	12947
916.371	13084
916.483	13034
916.595	12981
916.708	12973
916.82	13031
916.932	12878
917.044	12954
917.156	12970
917.268	12715
917.38	12791
917.491	12757
917.603	12791
917.715	12958
917.826	12867
917.938	12753
918.049	12734
918.161	12738
918.272	12871
918.384	12993
918.495	12753
918.606	12688
918.717	12517
918.828	12589
918.939	12681
919.05	12563
919.161	12574
919.272	12448
919.383	12509
919.494	12627
919.604	12791
919.715	12536
919.826	12513
919.936	12669
920.047	12722
920.157	12589
920.267	12787
920.378	12570
920.488	12604
920.598	12787
920.708	12901
920.818	12711
920.928	12776
921.038	12852
921.148	12882
921.258	12597
921.368	12407
921.477	12418
921.587	12369
921.697	12273
921.806	12342
921.916	12228
922.025	12125
922.134	12045
922.244	11927
922.353	12087
922.462	11931
922.571	11828
922.68	11767
922.789	11638
922.898	11718
923.007	11642
923.116	11680
923.224	11638
923.333	11596
923.442	11433
923.55	11501
923.659	11535
923.767	11600
923.876	11501
923.984	11524
924.092	11474
924.201	11505
924.309	11516
924.417	11463
924.525	11376
924.633	11376
924.741	12235
924.849	11212
924.956	11356
925.064	11239
925.172	11143
925.279	11151
925.387	11258
925.494	11212
925.602	11356
925.709	11341
925.816	11132
925.924	11086
926.031	11239
926.138	11216
926.245	11246
926.352	11064
926.459	11170
926.566	11174
926.673	11098
926.779	10965
926.886	10968
926.993	10858
927.099	10881
927.206	10801
927.312	10790
927.419	10915
927.525	10854
927.631	10885
927.737	10752
927.843	10672
927.95	10603
928.056	10668
928.162	10694
928.267	10744
928.373	11330
928.479	10755
928.585	10493
928.69	10679
928.796	10710
928.901	10512
929.007	10348
929.112	10634
929.218	10519
929.323	10443
929.428	10398
929.533	10527
929.638	10367
929.743	10421
929.848	10459
929.953	10379
930.058	10261
930.163	10200
930.267	10082
930.372	10310
930.477	10147
930.581	10325
930.685	10150
930.79	10082
930.894	9972
930.998	10032
931.103	10200
931.207	9785
931.311	9762
931.415	9686
931.519	9500
931.623	9416
