Data from test_V78500241_1246.txt Node
Date: Fri Mar 25 14:42:23 CST 2022
User: usil
Spectrometer: V785-0024
Trigger mode: 0
Integration Time (sec): 4.000000E-1
Scans to average: 1
Nonlinearity correction enabled: false
Boxcar width: 0
Storing dark spectrum: false
XAxis mode: Wavelengths
Number of Pixels in Spectrum: 1024
>>>>>Begin Spectral Data<<<<<
801.071	22291
801.214	22306
801.356	21972
801.499	21903
801.641	21751
801.783	21682
801.926	21778
802.068	21679
802.211	21599
802.353	21542
802.496	21329
802.638	21405
802.78	21173
802.923	21131
803.065	20994
803.208	21005
803.35	20982
803.492	21116
803.635	21192
803.777	21188
803.919	21211
804.061	21473
804.204	21211
804.346	21070
804.488	21093
804.63	20956
804.773	20830
804.915	20933
805.057	21051
805.199	20944
805.341	21043
805.483	21119
805.626	21112
805.768	21032
805.91	20948
806.052	20948
806.194	20876
806.336	21192
806.478	21119
806.62	20815
806.762	20998
806.904	21131
807.046	21321
807.188	21233
807.33	21313
807.472	21321
807.614	21317
807.756	21359
807.898	21150
808.04	21074
808.182	21192
808.324	21237
808.465	21211
808.607	21310
808.749	21439
808.891	21599
809.033	21679
809.174	21530
809.316	21382
809.458	21405
809.6	21268
809.741	21507
809.883	21477
810.025	21507
810.166	21610
810.308	21485
810.45	21462
810.591	21351
810.733	21306
810.875	21074
811.016	21157
811.158	21066
811.299	21287
811.441	21386
811.582	21294
811.724	21298
811.865	21195
812.007	21089
812.148	21207
812.29	21142
812.431	21211
812.573	21466
812.714	21644
812.855	21709
812.997	21873
813.138	21922
813.279	21854
813.421	21660
813.562	21534
813.703	21416
813.845	21389
813.986	21013
814.127	20902
814.268	20834
814.41	20796
814.551	20716
814.692	20739
814.833	20754
814.974	20746
815.115	20621
815.256	20594
815.397	20438
815.539	20625
815.68	20495
815.821	20351
815.962	20503
816.103	20400
816.244	20393
816.385	20180
816.526	20225
816.666	19890
816.807	19932
816.948	19963
817.089	19955
817.23	19974
817.371	19921
817.512	19894
817.653	19909
817.793	19818
817.934	19868
818.075	19940
818.216	19811
818.356	19841
818.497	19666
818.638	19525
818.778	19616
818.919	19616
819.06	19540
819.2	19921
819.341	19681
819.481	19731
819.622	19757
819.762	20073
819.903	19902
820.043	19917
820.184	19856
820.324	19917
820.465	19955
820.605	19932
820.746	19830
820.886	19750
821.026	19822
821.167	19734
821.307	19826
821.447	19818
821.588	19772
821.728	19571
821.868	19354
822.008	19190
822.149	19339
822.289	19221
822.429	19042
822.569	19050
822.709	19008
822.849	18787
822.99	18753
823.13	18745
823.27	18757
823.41	18532
823.55	18422
823.69	18521
823.83	18490
823.97	18536
824.11	18327
824.25	18270
824.389	18292
824.529	18448
824.669	18384
824.809	18483
824.949	18403
825.089	18441
825.228	18350
825.368	18095
825.508	18174
825.648	18072
825.787	18152
825.927	18079
826.067	18140
826.206	18133
826.346	18220
826.485	18232
826.625	18057
826.765	18201
826.904	18136
827.044	17961
827.183	17843
827.323	17832
827.462	17813
827.601	17783
827.741	17771
827.88	17767
828.02	17737
828.159	17699
828.298	17817
828.437	17843
828.577	17790
828.716	17874
828.855	17767
828.994	17577
829.134	17562
829.273	17760
829.412	17505
829.551	17535
829.69	17535
829.829	17573
829.968	17649
830.107	17623
830.246	17577
830.385	17535
830.524	17509
830.663	17501
830.802	17360
830.941	17246
831.08	17197
831.219	17383
831.357	17307
831.496	17345
831.635	17083
831.774	17045
831.913	17124
832.051	16953
832.19	16984
832.329	17117
832.467	16949
832.606	16908
832.744	16797
832.883	16881
833.022	16820
833.16	16885
833.299	17025
833.437	16953
833.576	16934
833.714	16904
833.852	16946
833.991	17010
834.129	17128
834.267	17037
834.406	16972
834.544	17094
834.682	17045
834.821	16968
834.959	17162
835.097	17003
835.235	16930
835.373	16976
835.511	17041
835.65	16904
835.788	16854
835.926	16748
836.064	16702
836.202	16698
836.34	16835
836.478	16919
836.615	16847
836.753	16873
836.891	16881
837.029	16915
837.167	16911
837.305	16774
837.443	16721
837.58	16717
837.718	16820
837.856	16824
837.993	16683
838.131	16797
838.269	16713
838.406	16653
838.544	16702
838.681	16421
838.819	16394
838.956	16249
839.094	16226
839.231	16234
839.369	16474
839.506	16721
839.643	16466
839.781	16371
839.918	16249
840.055	16337
840.193	16246
840.33	16238
840.467	16234
840.604	16234
840.742	16550
840.879	16040
841.016	16166
841.153	16101
841.29	16379
841.427	16276
841.564	16276
841.701	16363
841.838	16192
841.975	16295
842.112	16219
842.249	16086
842.385	16017
842.522	16204
842.659	16051
842.796	16086
842.933	16074
843.069	16093
843.206	16074
843.343	16173
843.479	16071
843.616	16051
843.752	15861
843.889	15857
844.025	15945
844.162	15774
844.298	16002
844.435	15949
844.571	15835
844.708	15873
844.844	16006
844.98	15941
845.117	15945
845.253	15804
845.389	15728
845.525	15861
845.661	15842
845.798	15812
845.934	15747
846.07	15641
846.206	15774
846.342	15907
846.478	15724
846.614	15549
846.75	15428
846.886	15370
847.022	15587
847.158	15462
847.294	15481
847.429	15397
847.565	15374
847.701	15663
847.837	15226
847.972	15089
848.108	15340
848.244	15199
848.379	15005
848.515	15024
848.65	14986
848.786	14967
848.921	15028
849.057	15085
849.192	15154
849.328	15100
849.463	15112
849.598	15100
849.734	14975
849.869	14910
850.004	14830
850.14	14845
850.275	14773
850.41	14781
850.545	14788
850.68	14838
850.815	14727
850.95	14708
851.085	14979
851.22	14906
851.355	14750
851.49	14800
851.625	14697
851.76	14712
851.895	14655
852.03	14632
852.165	14716
852.299	14921
852.434	14883
852.569	14819
852.703	14857
852.838	14834
852.973	14941
853.107	14899
853.242	14693
853.376	14651
853.511	14492
853.645	14575
853.78	14750
853.914	14682
854.048	14625
854.183	14606
854.317	14648
854.451	14826
854.585	14651
854.72	14503
854.854	14777
854.988	14746
855.122	14659
855.256	14537
855.39	14644
855.524	14621
855.658	14648
855.792	14682
855.926	14636
856.06	14678
856.194	14796
856.327	14629
856.461	14667
856.595	14663
856.729	14583
856.862	14712
856.996	14708
857.13	14754
857.263	14765
857.397	14834
857.53	14625
857.664	14705
857.797	14788
857.931	14811
858.064	14701
858.197	14727
858.331	14674
858.464	14644
858.597	14533
858.731	14697
858.864	14621
858.997	14579
859.13	14750
859.263	14708
859.396	14750
859.529	14644
859.662	14621
859.795	14556
859.928	14617
860.061	14918
860.194	14918
860.327	14644
860.46	14629
860.592	14861
860.725	14765
860.858	14769
860.99	14552
861.123	14533
861.256	14610
861.388	14606
861.521	15374
861.653	14476
861.786	14446
861.918	14556
862.05	14556
862.183	14640
862.315	14682
862.447	14724
862.58	14625
862.712	14438
862.844	14317
862.976	14480
863.108	14522
863.24	14891
863.372	14427
863.504	14381
863.636	14473
863.768	14473
863.9	14381
864.032	14358
864.164	14343
864.296	14366
864.428	14488
864.559	14507
864.691	14530
864.823	14461
864.954	14419
865.086	14488
865.217	14442
865.349	14294
865.48	14415
865.612	14415
865.743	14564
865.875	14434
866.006	14408
866.137	14499
866.269	14362
866.4	14366
866.531	14374
866.662	14351
866.793	14324
866.924	14294
867.055	14495
867.186	14343
867.317	14320
867.448	14237
867.579	14358
867.71	14294
867.841	14377
867.972	14419
868.103	14389
868.233	14389
868.364	14374
868.495	14541
868.625	14545
868.756	14731
868.886	14598
869.017	14598
869.147	14773
869.278	14716
869.408	14682
869.539	14682
869.669	14701
869.799	14678
869.929	14834
870.06	14689
870.19	14891
870.32	14948
870.45	14937
870.58	15142
870.71	15116
870.84	15150
870.97	15020
871.1	15077
871.23	15150
871.36	15218
871.489	15173
871.619	15135
871.749	15230
871.879	15313
872.008	15291
872.138	15230
872.267	15211
872.397	15097
872.526	15116
872.656	14982
872.785	15043
872.915	15348
873.044	15401
873.173	15264
873.303	15340
873.432	15279
873.561	15428
873.69	15264
873.819	15325
873.948	15401
874.077	15340
874.206	15340
874.335	15344
874.464	15462
874.593	15625
874.722	15545
874.851	15694
874.979	15610
875.108	15732
875.237	15584
875.365	15515
875.494	15561
875.623	15728
875.751	15584
875.88	15679
876.008	15709
876.136	15880
876.265	16040
876.393	16139
876.521	16147
876.65	16051
876.778	15987
876.906	15903
877.034	15983
877.162	16048
877.29	15956
877.418	16097
877.546	16078
877.674	16040
877.802	16013
877.93	16036
878.058	15888
878.185	16048
878.313	15972
878.441	15987
878.568	15835
878.696	15922
878.824	16013
878.951	16090
879.079	16280
879.206	16447
879.333	16173
879.461	16177
879.588	16207
879.715	16272
879.842	16424
879.97	16112
880.097	15987
880.224	15972
880.351	15934
880.478	15956
880.605	15911
880.732	15831
880.859	16188
880.986	15892
881.112	15922
881.239	15793
881.366	15656
881.493	15614
881.619	15454
881.746	15572
881.872	15542
881.999	15500
882.125	15580
882.252	15561
882.378	15553
882.505	15610
882.631	15561
882.757	15329
882.883	15329
883.01	15359
883.136	15260
883.262	15146
883.388	15192
883.514	15298
883.64	15355
883.766	15287
883.892	15146
884.018	15222
884.143	15389
884.269	15298
884.395	15108
884.52	15051
884.646	15062
884.772	14998
884.897	14929
885.023	14956
885.148	15104
885.274	15233
885.399	15100
885.524	15100
885.65	15119
885.775	15085
885.9	15047
886.025	15097
886.15	15173
886.275	15001
886.4	14883
886.525	15047
886.65	14921
886.775	14895
886.9	15142
887.025	15275
887.149	15116
887.274	14830
887.399	14883
887.523	14887
887.648	14800
887.773	14720
887.897	15032
888.021	14994
888.146	14842
888.27	15039
888.395	15036
888.519	14906
888.643	14895
888.767	14902
888.891	14838
889.015	14716
889.139	14773
889.263	14686
889.387	14826
889.511	14971
889.635	14830
889.759	14712
889.883	14686
890.006	14746
890.13	14864
890.254	14640
890.377	14746
890.501	14492
890.624	14526
890.748	14610
890.871	14408
890.995	14347
891.118	14396
891.241	14438
891.364	14469
891.488	14495
891.611	14514
891.734	14541
891.857	14450
891.98	14408
892.103	14419
892.226	14457
892.349	14324
892.471	14237
892.594	14423
892.717	14499
892.839	14438
892.962	14511
893.085	14454
893.207	14393
893.33	14351
893.452	14351
893.575	14545
893.697	14533
893.819	14446
893.941	14705
894.064	14552
894.186	14374
894.308	14412
894.43	14556
894.552	14514
894.674	14533
894.796	14332
894.918	14450
895.04	14370
895.161	14530
895.283	14564
895.405	14484
895.526	14374
895.648	14469
895.769	14545
895.891	14514
896.012	14587
896.134	14632
896.255	14564
896.376	14541
896.498	14564
896.619	14499
896.74	14621
896.861	14636
896.982	14785
897.103	15001
897.224	14902
897.345	14731
897.466	14788
897.587	14792
897.708	14883
897.828	14883
897.949	14876
898.07	14640
898.19	14834
898.311	14868
898.431	14830
898.552	14899
898.672	15024
898.792	15028
898.913	14914
899.033	14842
899.153	14758
899.273	14693
899.393	14708
899.513	14773
899.633	14750
899.753	14830
899.873	14705
899.993	14887
900.113	14750
900.232	14823
900.352	14720
900.472	14689
900.591	14564
900.711	14663
900.83	14568
900.95	14689
901.069	14644
901.189	14492
901.308	14343
901.427	14244
901.546	14248
901.665	14313
901.784	14389
901.904	14233
902.023	14058
902.141	13902
902.26	13837
902.379	13913
902.498	13788
902.617	13818
902.735	13951
902.854	13898
902.973	13750
903.091	13605
903.21	13533
903.328	13578
903.446	13400
903.565	13457
903.683	13445
903.801	13381
903.919	13297
904.038	13388
904.156	13343
904.274	13263
904.392	13266
904.51	13164
904.627	13187
904.745	13301
904.863	13327
904.981	12993
905.098	12928
905.216	12943
905.334	13042
905.451	12909
905.569	12859
905.686	12924
905.803	12935
905.921	12741
906.038	12787
906.155	12722
906.272	12658
906.389	12620
906.506	12433
906.623	12498
906.74	12536
906.857	12407
906.974	12410
907.091	12642
907.208	12669
907.324	12593
907.441	12479
907.557	12254
907.674	12342
907.79	12197
907.907	12292
908.023	12311
908.139	12171
908.256	12197
908.372	12167
908.488	12167
908.604	12011
908.72	12038
908.836	12015
908.952	11996
909.068	12026
909.184	12129
909.3	11999
909.415	12041
909.531	12076
909.647	11870
909.762	11904
909.878	11809
909.993	11840
910.108	11619
910.224	11794
910.339	11840
910.454	11649
910.57	11707
910.685	11589
910.8	11912
910.915	11783
911.03	11726
911.145	11532
911.259	11505
911.374	11505
911.489	11421
911.604	11398
911.718	11258
911.833	11250
911.947	11166
912.062	11010
912.176	11208
912.291	11212
912.405	11204
912.519	11391
912.633	11512
912.748	11299
912.862	11208
912.976	11117
913.09	11014
913.204	11071
913.318	11094
913.431	11159
913.545	11269
913.659	11223
913.772	11128
913.886	10995
914	10911
914.113	11071
914.226	11090
914.34	11064
914.453	10938
914.566	11098
914.68	11010
914.793	10968
914.906	10793
915.019	10645
915.132	10672
915.245	10812
915.358	10763
915.47	10710
915.583	10725
915.696	10714
915.809	10889
915.921	10896
916.034	10717
916.146	10672
916.259	10653
916.371	10782
916.483	10710
916.595	10577
916.708	10634
916.82	10611
916.932	10656
917.044	10615
917.156	10618
917.268	10508
917.38	10508
917.491	10489
917.603	10615
917.715	10615
917.826	10626
917.938	10656
918.049	10447
918.161	10538
918.272	10744
918.384	10710
918.495	10436
918.606	10455
918.717	10367
918.828	10459
918.939	10440
919.05	10333
919.161	10398
919.272	10219
919.383	10318
919.494	10497
919.604	10679
919.715	10428
919.826	10394
919.936	10363
920.047	10565
920.157	10474
920.267	10577
920.378	10497
920.488	10352
920.598	10573
920.708	10816
920.818	10588
920.928	10679
921.038	10793
921.148	10786
921.258	10424
921.368	10417
921.477	10272
921.587	10257
921.697	10150
921.806	10257
921.916	10150
922.025	10063
922.134	9972
922.244	9998
922.353	10051
922.462	9816
922.571	9808
922.68	9740
922.789	9599
922.898	9614
923.007	9656
923.116	9648
923.224	9637
923.333	9603
923.442	9568
923.55	9477
923.659	9538
923.767	9587
923.876	9492
923.984	9515
924.092	9428
924.201	9557
924.309	9561
924.417	9538
924.525	9485
924.633	9534
924.741	10223
924.849	9313
924.956	9504
925.064	9306
925.172	9233
925.279	9230
925.387	9332
925.494	9268
925.602	9370
925.709	9408
925.816	9233
925.924	9344
926.031	9408
926.138	9340
926.245	9317
926.352	9226
926.459	9416
926.566	9302
926.673	9306
926.779	9142
926.886	9207
926.993	9039
927.099	8986
927.206	9009
927.312	8975
927.419	9081
927.525	9085
927.631	9089
927.737	8883
927.843	8899
927.95	8769
928.056	8952
928.162	8883
928.267	8944
928.373	9637
928.479	9036
928.585	8777
928.69	8944
928.796	9039
928.901	8796
929.007	8724
929.112	8887
929.218	8823
929.323	8689
929.428	8785
929.533	8887
929.638	8693
929.743	8712
929.848	8773
929.953	8689
930.058	8693
930.163	8442
930.267	8587
930.372	8689
930.477	8492
930.581	8792
930.685	8667
930.79	8431
930.894	8594
930.998	8423
931.103	8602
931.207	8240
931.311	8252
931.415	8191
931.519	7951
931.623	7989
