Data from test_V78500241_2309.txt Node
Date: Fri Mar 25 14:49:47 CST 2022
User: usil
Spectrometer: V785-0024
Trigger mode: 0
Integration Time (sec): 4.000000E-1
Scans to average: 1
Nonlinearity correction enabled: false
Boxcar width: 0
Storing dark spectrum: false
XAxis mode: Wavelengths
Number of Pixels in Spectrum: 1024
>>>>>Begin Spectral Data<<<<<
801.071	22200
801.214	22067
801.356	21812
801.499	21728
801.641	21561
801.783	21507
801.926	21595
802.068	21424
802.211	21538
802.353	21351
802.496	21085
802.638	20975
802.78	21013
802.923	20883
803.065	20872
803.208	20765
803.35	20876
803.492	20975
803.635	21028
803.777	20861
803.919	20929
804.061	21192
804.204	20883
804.346	20819
804.488	20777
804.63	20777
804.773	20670
804.915	20750
805.057	20975
805.199	20773
805.341	20804
805.483	20925
805.626	20765
805.768	20689
805.91	20887
806.052	20876
806.194	20743
806.336	20925
806.478	20861
806.62	20773
806.762	20792
806.904	21001
807.046	21169
807.188	21081
807.33	21066
807.472	21165
807.614	21055
807.756	21032
807.898	20937
808.04	20925
808.182	20998
808.324	20868
808.465	20914
808.607	21169
808.749	21298
808.891	21351
809.033	21416
809.174	21169
809.316	21203
809.458	21131
809.6	21207
809.741	21222
809.883	21279
810.025	21348
810.166	21351
810.308	21462
810.45	21275
810.591	21176
810.733	21207
810.875	21017
811.016	20872
811.158	20815
811.299	21104
811.441	21081
811.582	21119
811.724	20967
811.865	20956
812.007	20933
812.148	20963
812.29	21020
812.431	21199
812.573	21374
812.714	21450
812.855	21496
812.997	21553
813.138	21755
813.279	21603
813.421	21504
813.562	21386
813.703	21199
813.845	21100
813.986	20739
814.127	20739
814.268	20556
814.41	20526
814.551	20583
814.692	20602
814.833	20549
814.974	20556
815.115	20518
815.256	20298
815.397	20332
815.539	20351
815.68	20275
815.821	20180
815.962	20286
816.103	20191
816.244	19967
816.385	19936
816.526	19989
816.666	19837
816.807	19616
816.948	19708
817.089	19708
817.23	19765
817.371	19620
817.512	19582
817.653	19719
817.793	19613
817.934	19620
818.075	19700
818.216	19727
818.356	19632
818.497	19495
818.638	19190
818.778	19312
818.919	19335
819.06	19392
819.2	19518
819.341	19491
819.481	19601
819.622	19662
819.762	19852
819.903	19772
820.043	19723
820.184	19719
820.324	19594
820.465	19624
820.605	19552
820.746	19628
820.886	19506
821.026	19586
821.167	19441
821.307	19620
821.447	19613
821.588	19422
821.728	19365
821.868	19228
822.008	19095
822.149	18985
822.289	19206
822.429	18734
822.569	18719
822.709	18764
822.849	18502
822.99	18521
823.13	18437
823.27	18467
823.41	18399
823.55	18350
823.69	18327
823.83	18258
823.97	18197
824.11	18072
824.25	18095
824.389	18174
824.529	18201
824.669	18171
824.809	18072
824.949	18171
825.089	18053
825.228	18034
825.368	17813
825.508	17942
825.648	17851
825.787	17874
825.927	18011
826.067	17813
826.206	17805
826.346	17870
826.485	17737
826.625	17843
826.765	17954
826.904	17851
827.044	17573
827.183	17608
827.323	17535
827.462	17611
827.601	17665
827.741	17516
827.88	17668
828.02	17417
828.159	17467
828.298	17623
828.437	17634
828.577	17547
828.716	17551
828.855	17539
828.994	17254
829.134	17368
829.273	17269
829.412	17277
829.551	17277
829.69	17311
829.829	17296
829.968	17364
830.107	17360
830.246	17326
830.385	17216
830.524	17170
830.663	17121
830.802	17102
830.941	16904
831.08	16957
831.219	17075
831.357	17052
831.496	17189
831.635	16957
831.774	16881
831.913	16919
832.051	16672
832.19	16653
832.329	16656
832.467	16672
832.606	16599
832.744	16569
832.883	16573
833.022	16493
833.16	16637
833.299	16694
833.437	16687
833.576	16664
833.714	16558
833.852	16706
833.991	16611
834.129	16694
834.267	16645
834.406	16691
834.544	16691
834.682	16809
834.821	16717
834.959	16835
835.097	16561
835.235	16683
835.373	16706
835.511	16660
835.65	16580
835.788	16622
835.926	16344
836.064	16390
836.202	16413
836.34	16561
836.478	16668
836.615	16592
836.753	16542
836.891	16706
837.029	16550
837.167	16519
837.305	16390
837.443	16432
837.58	16363
837.718	16440
837.856	16516
837.993	16474
838.131	16409
838.269	16371
838.406	16402
838.544	16261
838.681	16143
838.819	16154
838.956	16010
839.094	15968
839.231	16055
839.369	16128
839.506	16348
839.643	16242
839.781	15979
839.918	15930
840.055	15975
840.193	15983
840.33	15911
840.467	15975
840.604	16059
840.742	16200
840.879	15884
841.016	15766
841.153	15903
841.29	16109
841.427	16025
841.564	15987
841.701	15987
841.838	15846
841.975	15869
842.112	15899
842.249	15876
842.385	15759
842.522	15915
842.659	15831
842.796	15751
842.933	15690
843.069	15717
843.206	15766
843.343	15785
843.479	15781
843.616	15755
843.752	15557
843.889	15534
844.025	15637
844.162	15462
844.298	15591
844.435	15549
844.571	15488
844.708	15618
844.844	15816
844.98	15694
845.117	15629
845.253	15488
845.389	15329
845.525	15523
845.661	15397
845.798	15249
845.934	15310
846.07	15264
846.206	15450
846.342	15370
846.478	15287
846.614	15169
846.75	15146
846.886	15093
847.022	15135
847.158	15051
847.294	15043
847.429	15077
847.565	14990
847.701	15287
847.837	14811
847.972	14781
848.108	14906
848.244	14895
848.379	14712
848.515	14667
848.65	14720
848.786	14701
848.921	14727
849.057	14651
849.192	14845
849.328	14720
849.463	14667
849.598	14651
849.734	14663
849.869	14560
850.004	14583
850.14	14537
850.275	14476
850.41	14355
850.545	14507
850.68	14385
850.815	14431
850.95	14358
851.085	14735
851.22	14537
851.355	14503
851.49	14351
851.625	14499
851.76	14419
851.895	14393
852.03	14454
852.165	14381
852.299	14465
852.434	14514
852.569	14507
852.703	14419
852.838	14613
852.973	14587
853.107	14537
853.242	14358
853.376	14332
853.511	14218
853.645	14309
853.78	14370
853.914	14347
854.048	14218
854.183	14298
854.317	14328
854.451	14545
854.585	14374
854.72	14290
854.854	14396
854.988	14221
855.122	14400
855.256	14130
855.39	14278
855.524	14355
855.658	14347
855.792	14336
855.926	14385
856.06	14400
856.194	14404
856.327	14343
856.461	14328
856.595	14282
856.729	14183
856.862	14393
856.996	14351
857.13	14396
857.263	14339
857.397	14465
857.53	14393
857.664	14400
857.797	14412
857.931	14473
858.064	14370
858.197	14469
858.331	14374
858.464	14294
858.597	14176
858.731	14324
858.864	14259
858.997	14332
859.13	14248
859.263	14237
859.396	14374
859.529	14183
859.662	14240
859.795	14218
859.928	14248
860.061	14465
860.194	14495
860.327	14427
860.46	14343
860.592	14412
860.725	14495
860.858	14484
860.99	14298
861.123	14210
861.256	14229
861.388	14393
861.521	14910
861.653	14157
861.786	14202
861.918	14134
862.05	14267
862.183	14282
862.315	14218
862.447	14374
862.58	14218
862.712	14164
862.844	13902
862.976	14138
863.108	14111
863.24	14473
863.372	14084
863.504	14062
863.636	14115
863.768	14062
863.9	14054
864.032	14157
864.164	14020
864.296	14134
864.428	14180
864.559	14138
864.691	14191
864.823	14115
864.954	14096
865.086	14111
865.217	14065
865.349	13970
865.48	14077
865.612	14046
865.743	14259
865.875	14172
866.006	14119
866.137	14035
866.269	14103
866.4	14020
866.531	13986
866.662	14005
866.793	13997
866.924	14103
867.055	14153
867.186	14012
867.317	14001
867.448	13947
867.579	14081
867.71	14065
867.841	14046
867.972	14062
868.103	14035
868.233	14054
868.364	13989
868.495	14145
868.625	14343
868.756	14412
868.886	14282
869.017	14317
869.147	14332
869.278	14385
869.408	14434
869.539	14313
869.669	14374
869.799	14267
869.929	14454
870.06	14488
870.19	14587
870.32	14571
870.45	14602
870.58	14762
870.71	14830
870.84	14842
870.97	14743
871.1	14617
871.23	14883
871.36	14990
871.489	14762
871.619	14933
871.749	14899
871.879	14982
872.008	14967
872.138	14906
872.267	14857
872.397	14823
872.526	14708
872.656	14777
872.785	14727
872.915	14990
873.044	15089
873.173	14963
873.303	15013
873.432	14952
873.561	15131
873.69	15005
873.819	14872
873.948	15081
874.077	14948
874.206	14986
874.335	14979
874.464	15207
874.593	15310
874.722	15268
874.851	15241
874.979	15279
875.108	15294
875.237	15184
875.365	15268
875.494	15252
875.623	15386
875.751	15169
875.88	15321
876.008	15473
876.136	15431
876.265	15732
876.393	15842
876.521	15781
876.65	15739
876.778	15656
876.906	15720
877.034	15507
877.162	15698
877.29	15656
877.418	15739
877.546	15720
877.674	15625
877.802	15690
877.93	15743
878.058	15652
878.185	15538
878.313	15633
878.441	15755
878.568	15443
878.696	15656
878.824	15656
878.951	15743
879.079	15869
879.206	16010
879.333	15797
879.461	15747
879.588	15812
879.715	15926
879.842	15972
879.97	15720
880.097	15576
880.224	15538
880.351	15519
880.478	15557
880.605	15625
880.732	15523
880.859	15739
880.986	15572
881.112	15557
881.239	15496
881.366	15268
881.493	15226
881.619	15157
881.746	15211
881.872	15203
881.999	15195
882.125	15150
882.252	15272
882.378	15268
882.505	15382
882.631	15108
882.757	15055
882.883	15195
883.01	15032
883.136	14891
883.262	14807
883.388	14868
883.514	14948
883.64	15032
883.766	14937
883.892	14823
884.018	14880
884.143	15039
884.269	15135
884.395	14819
884.52	14746
884.646	14765
884.772	14667
884.897	14674
885.023	14686
885.148	14849
885.274	14815
885.399	14826
885.524	14644
885.65	14705
885.775	14716
885.9	14568
886.025	14864
886.15	14777
886.275	14610
886.4	14720
886.525	14754
886.65	14632
886.775	14632
886.9	14861
887.025	14956
887.149	14792
887.274	14598
887.399	14434
887.523	14427
887.648	14450
887.773	14434
887.897	14625
888.021	14568
888.146	14499
888.27	14663
888.395	14727
888.519	14571
888.643	14598
888.767	14682
888.891	14473
889.015	14396
889.139	14374
889.263	14446
889.387	14484
889.511	14587
889.635	14461
889.759	14408
889.883	14320
890.006	14434
890.13	14594
890.254	14286
890.377	14332
890.501	14244
890.624	14233
890.748	14278
890.871	14142
890.995	14058
891.118	14005
891.241	14195
891.364	14081
891.488	14218
891.611	14126
891.734	14111
891.857	14092
891.98	14111
892.103	14164
892.226	14145
892.349	14069
892.471	14008
892.594	14111
892.717	14244
892.839	14084
892.962	14138
893.085	14138
893.207	14119
893.33	14073
893.452	14084
893.575	14088
893.697	14088
893.819	14229
893.941	14275
894.064	14317
894.186	14145
894.308	14107
894.43	14161
894.552	14294
894.674	14298
894.796	14039
894.918	14153
895.04	14119
895.161	14221
895.283	14134
895.405	14134
895.526	14214
895.648	14164
895.769	14286
895.891	14252
896.012	14377
896.134	14252
896.255	14282
896.376	14259
896.498	14343
896.619	14419
896.74	14267
896.861	14290
896.982	14644
897.103	14785
897.224	14579
897.345	14579
897.466	14545
897.587	14530
897.708	14651
897.828	14636
897.949	14457
898.07	14484
898.19	14549
898.311	14796
898.431	14610
898.552	14564
898.672	14777
898.792	14739
898.913	14689
899.033	14621
899.153	14503
899.273	14336
899.393	14419
899.513	14495
899.633	14537
899.753	14579
899.873	14423
899.993	14530
900.113	14454
900.232	14545
900.352	14393
900.472	14457
900.591	14366
900.711	14370
900.83	14294
900.95	14507
901.069	14587
901.189	14328
901.308	14145
901.427	13959
901.546	14027
901.665	14016
901.784	14142
901.904	13902
902.023	13753
902.141	13757
902.26	13605
902.379	13696
902.498	13590
902.617	13582
902.735	13605
902.854	13575
902.973	13563
903.091	13369
903.21	13346
903.328	13381
903.446	13217
903.565	13145
903.683	13183
903.801	13217
903.919	13156
904.038	13168
904.156	13023
904.274	13031
904.392	13042
904.51	12973
904.627	13012
904.745	13042
904.863	13023
904.981	12783
905.098	12673
905.216	12642
905.334	12688
905.451	12673
905.569	12627
905.686	12745
905.803	12631
905.921	12502
906.038	12589
906.155	12494
906.272	12388
906.389	12403
906.506	12232
906.623	12292
906.74	12281
906.857	12220
906.974	12228
907.091	12353
907.208	12445
907.324	12338
907.441	12159
907.557	12140
907.674	12083
907.79	11939
907.907	11988
908.023	12034
908.139	12095
908.256	12030
908.372	11950
908.488	11893
908.604	11923
908.72	11786
908.836	11794
908.952	11809
909.068	11859
909.184	11885
909.3	11813
909.415	11893
909.531	11794
909.647	11676
909.762	11524
909.878	11520
909.993	11611
910.108	11463
910.224	11547
910.339	11532
910.454	11448
910.57	11376
910.685	11379
910.8	11771
910.915	11566
911.03	11402
911.145	11227
911.259	11193
911.374	11296
911.489	11292
911.604	11201
911.718	10965
911.833	11136
911.947	10919
912.062	10942
912.176	11060
912.291	11033
912.405	10984
912.519	11292
912.633	11235
912.748	11094
912.862	10968
912.976	10900
913.09	10736
913.204	10843
913.318	10934
913.431	11014
913.545	10976
913.659	11029
913.772	10919
913.886	10809
914	10790
914.113	10904
914.226	10908
914.34	10862
914.453	10630
914.566	10881
914.68	10778
914.793	10660
914.906	10554
915.019	10618
915.132	10417
915.245	10554
915.358	10584
915.47	10596
915.583	10531
915.696	10538
915.809	10645
915.921	10580
916.034	10546
916.146	10497
916.259	10512
916.371	10645
916.483	10421
916.595	10443
916.708	10497
916.82	10516
916.932	10474
917.044	10413
917.156	10424
917.268	10325
917.38	10386
917.491	10295
917.603	10478
917.715	10447
917.826	10409
917.938	10322
918.049	10219
918.161	10360
918.272	10417
918.384	10455
918.495	10390
918.606	10234
918.717	10131
918.828	10238
918.939	10325
919.05	10166
919.161	10185
919.272	10040
919.383	10044
919.494	10261
919.604	10489
919.715	10234
919.826	10196
919.936	10154
920.047	10276
920.157	10333
920.267	10489
920.378	10310
920.488	10299
920.598	10409
920.708	10596
920.818	10432
920.928	10424
921.038	10641
921.148	10512
921.258	10371
921.368	10230
921.477	10192
921.587	10131
921.697	9975
921.806	10135
921.916	10010
922.025	9812
922.134	9781
922.244	9789
922.353	9846
922.462	9618
922.571	9679
922.68	9545
922.789	9462
922.898	9488
923.007	9420
923.116	9549
923.224	9576
923.333	9561
923.442	9439
923.55	9351
923.659	9386
923.767	9340
923.876	9408
923.984	9454
924.092	9336
924.201	9431
924.309	9344
924.417	9317
924.525	9260
924.633	9329
924.741	10246
924.849	9173
924.956	9313
925.064	9123
925.172	9032
925.279	9180
925.387	9154
925.494	9085
925.602	9245
925.709	9199
925.816	9062
925.924	9180
926.031	9241
926.138	9199
926.245	9192
926.352	9127
926.459	9169
926.566	9245
926.673	9173
926.779	9028
926.886	8990
926.993	8910
927.099	8864
927.206	8796
927.312	8834
927.419	8952
927.525	8880
927.631	8933
927.737	8811
927.843	8773
927.95	8640
928.056	8697
928.162	8743
928.267	8781
928.373	9458
928.479	8853
928.585	8651
928.69	8804
928.796	8766
928.901	8625
929.007	8617
929.112	8773
929.218	8708
929.323	8606
929.428	8629
929.533	8712
929.638	8511
929.743	8629
929.848	8579
929.953	8511
930.058	8423
930.163	8347
930.267	8400
930.372	8480
930.477	8336
930.581	8644
930.685	8358
930.79	8305
930.894	8362
930.998	8309
931.103	8465
931.207	8103
931.311	7959
931.415	7947
931.519	7807
931.623	7822
