Data from test_V78500241_3421.txt Node
Date: Fri Mar 25 14:57:32 CST 2022
User: usil
Spectrometer: V785-0024
Trigger mode: 0
Integration Time (sec): 4.000000E-1
Scans to average: 1
Nonlinearity correction enabled: false
Boxcar width: 0
Storing dark spectrum: false
XAxis mode: Wavelengths
Number of Pixels in Spectrum: 1024
>>>>>Begin Spectral Data<<<<<
801.071	21865
801.214	21800
801.356	21606
801.499	21428
801.641	21351
801.783	21325
801.926	21241
802.068	21272
802.211	21062
802.353	21104
802.496	20838
802.638	20743
802.78	20750
802.923	20811
803.065	20545
803.208	20511
803.35	20575
803.492	20659
803.635	20659
803.777	20594
803.919	20587
804.061	21020
804.204	20648
804.346	20446
804.488	20465
804.63	20575
804.773	20503
804.915	20492
805.057	20431
805.199	20492
805.341	20556
805.483	20617
805.626	20541
805.768	20389
805.91	20526
806.052	20537
806.194	20488
806.336	20674
806.478	20583
806.62	20358
806.762	20556
806.904	20648
807.046	20941
807.188	20899
807.33	20857
807.472	20933
807.614	20727
807.756	20651
807.898	20705
808.04	20499
808.182	20446
808.324	20564
808.465	20617
808.607	20765
808.749	20887
808.891	20948
809.033	20933
809.174	21009
809.316	20758
809.458	20864
809.6	20834
809.741	20792
809.883	20906
810.025	21017
810.166	21055
810.308	20960
810.45	20975
810.591	20937
810.733	20804
810.875	20655
811.016	20495
811.158	20560
811.299	20670
811.441	20708
811.582	20731
811.724	20667
811.865	20545
812.007	20518
812.148	20693
812.29	20735
812.431	20773
812.573	20864
812.714	20994
812.855	21085
812.997	21211
813.138	21332
813.279	21154
813.421	21039
813.562	21028
813.703	20861
813.845	20632
813.986	20499
814.127	20298
814.268	20263
814.41	20115
814.551	20161
814.692	20290
814.833	20054
814.974	20126
815.115	20157
815.256	19932
815.397	20081
815.539	20119
815.68	19894
815.821	19772
815.962	19913
816.103	19860
816.244	19788
816.385	19578
816.526	19521
816.666	19464
816.807	19354
816.948	19403
817.089	19434
817.23	19308
817.371	19297
817.512	19198
817.653	19316
817.793	19202
817.934	19244
818.075	19403
818.216	19373
818.356	19232
818.497	19198
818.638	18993
818.778	19107
818.919	18924
819.06	19031
819.2	19057
819.341	19160
819.481	19133
819.622	19240
819.762	19415
819.903	19381
820.043	19350
820.184	19225
820.324	19327
820.465	19304
820.605	19183
820.746	19152
820.886	19187
821.026	19198
821.167	19228
821.307	19373
821.447	19228
821.588	19148
821.728	19034
821.868	18939
822.008	18707
822.149	18665
822.289	18665
822.429	18433
822.569	18460
822.709	18407
822.849	18163
822.99	18171
823.13	18091
823.27	18171
823.41	18072
823.55	17996
823.69	17954
823.83	17920
823.97	17870
824.11	17802
824.25	17764
824.389	17840
824.529	17786
824.669	17923
824.809	17897
824.949	17969
825.089	17828
825.228	17874
825.368	17642
825.508	17562
825.648	17570
825.787	17604
825.927	17596
826.067	17528
826.206	17608
826.346	17623
826.485	17680
826.625	17562
826.765	17611
826.904	17558
827.044	17356
827.183	17383
827.323	17349
827.462	17376
827.601	17239
827.741	17284
827.88	17277
828.02	17121
828.159	17315
828.298	17220
828.437	17410
828.577	17132
828.716	17383
828.855	17204
828.994	17056
829.134	17105
829.273	17124
829.412	17014
829.551	17022
829.69	17025
829.829	17083
829.968	17140
830.107	17083
830.246	17041
830.385	16972
830.524	16976
830.663	16824
830.802	16774
830.941	16660
831.08	16615
831.219	16771
831.357	16733
831.496	16828
831.635	16516
831.774	16618
831.913	16603
832.051	16352
832.19	16447
832.329	16508
832.467	16474
832.606	16375
832.744	16352
832.883	16348
833.022	16344
833.16	16382
833.299	16455
833.437	16322
833.576	16447
833.714	16333
833.852	16344
833.991	16424
834.129	16523
834.267	16489
834.406	16329
834.544	16405
834.682	16466
834.821	16318
834.959	16603
835.097	16371
835.235	16481
835.373	16466
835.511	16500
835.65	16344
835.788	16352
835.926	16196
836.064	16116
836.202	16188
836.34	16440
836.478	16489
836.615	16382
836.753	16459
836.891	16375
837.029	16402
837.167	16226
837.305	16211
837.443	16169
837.58	16211
837.718	16310
837.856	16200
837.993	16139
838.131	16124
838.269	16120
838.406	16128
838.544	16169
838.681	15934
838.819	15884
838.956	15819
839.094	15755
839.231	15861
839.369	15846
839.506	16124
839.643	16055
839.781	15827
839.918	15755
840.055	15762
840.193	15728
840.33	15736
840.467	15705
840.604	15800
840.742	16055
840.879	15545
841.016	15682
841.153	15580
841.29	15865
841.427	15766
841.564	15785
841.701	15759
841.838	15656
841.975	15576
842.112	15686
842.249	15652
842.385	15526
842.522	15793
842.659	15549
842.796	15473
842.933	15523
843.069	15496
843.206	15359
843.343	15694
843.479	15595
843.616	15545
843.752	15439
843.889	15370
844.025	15568
844.162	15230
844.298	15431
844.435	15401
844.571	15348
844.708	15523
844.844	15450
844.98	15507
845.117	15458
845.253	15355
845.389	15123
845.525	15294
845.661	15340
845.798	15116
845.934	15097
846.07	14994
846.206	15180
846.342	15275
846.478	15135
846.614	14952
846.75	14857
846.886	14864
847.022	15058
847.158	14769
847.294	14891
847.429	14933
847.565	14918
847.701	15211
847.837	14640
847.972	14613
848.108	14750
848.244	14686
848.379	14629
848.515	14484
848.65	14457
848.786	14530
848.921	14545
849.057	14667
849.192	14632
849.328	14530
849.463	14541
849.598	14530
849.734	14530
849.869	14294
850.004	14252
850.14	14339
850.275	14309
850.41	14164
850.545	14202
850.68	14278
850.815	14324
850.95	14199
851.085	14488
851.22	14339
851.355	14271
851.49	14271
851.625	14183
851.76	14332
851.895	14210
852.03	14149
852.165	14267
852.299	14320
852.434	14324
852.569	14263
852.703	14202
852.838	14362
852.973	14389
853.107	14434
853.242	14278
853.376	14168
853.511	14024
853.645	14069
853.78	14180
853.914	14157
854.048	13974
854.183	14073
854.317	14115
854.451	14366
854.585	14248
854.72	14153
854.854	14199
854.988	14138
855.122	14031
855.256	13974
855.39	14168
855.524	14267
855.658	14119
855.792	14195
855.926	14237
856.06	14229
856.194	14244
856.327	14111
856.461	14161
856.595	14142
856.729	14168
856.862	14206
856.996	14176
857.13	14180
857.263	14282
857.397	14248
857.53	14210
857.664	14202
857.797	14164
857.931	14195
858.064	14195
858.197	14191
858.331	14180
858.464	14138
858.597	14058
858.731	14035
858.864	14103
858.997	14069
859.13	14103
859.263	14214
859.396	14202
859.529	14092
859.662	14123
859.795	14031
859.928	14111
860.061	14347
860.194	14317
860.327	14233
860.46	14145
860.592	14183
860.725	14256
860.858	14237
860.99	14164
861.123	14077
861.256	14126
861.388	14195
861.521	14857
861.653	14054
861.786	13845
861.918	14054
862.05	14012
862.183	14084
862.315	14206
862.447	14157
862.58	14123
862.712	13974
862.844	13746
862.976	14043
863.108	13970
863.24	14362
863.372	13841
863.504	13902
863.636	13906
863.768	13955
863.9	13978
864.032	13909
864.164	13940
864.296	13921
864.428	14039
864.559	13989
864.691	14043
864.823	13951
864.954	13925
865.086	14050
865.217	13841
865.349	13860
865.48	13909
865.612	13989
865.743	14050
865.875	13963
866.006	13894
866.137	13967
866.269	13894
866.4	13906
866.531	13978
866.662	13772
866.793	13883
866.924	13978
867.055	13879
867.186	13959
867.317	13795
867.448	13826
867.579	13879
867.71	13765
867.841	13788
867.972	14001
868.103	13909
868.233	13955
868.364	13932
868.495	13928
868.625	14046
868.756	14294
868.886	14035
869.017	14149
869.147	14199
869.278	14317
869.408	14248
869.539	14195
869.669	14282
869.799	14256
869.929	14324
870.06	14271
870.19	14522
870.32	14450
870.45	14499
870.58	14499
870.71	14674
870.84	14621
870.97	14549
871.1	14514
871.23	14724
871.36	14758
871.489	14674
871.619	14727
871.749	14788
871.879	14804
872.008	14785
872.138	14724
872.267	14765
872.397	14674
872.526	14606
872.656	14613
872.785	14606
872.915	14750
873.044	14899
873.173	14849
873.303	14743
873.432	14895
873.561	14845
873.69	14880
873.819	14800
873.948	14830
874.077	14826
874.206	14781
874.335	14746
874.464	14971
874.593	15074
874.722	15013
874.851	15131
874.979	15165
875.108	15104
875.237	15146
875.365	15039
875.494	15108
875.623	15211
875.751	15165
875.88	15123
876.008	15214
876.136	15344
876.265	15690
876.393	15599
876.521	15545
876.65	15713
876.778	15629
876.906	15519
877.034	15538
877.162	15545
877.29	15435
877.418	15469
877.546	15507
877.674	15534
877.802	15545
877.93	15538
878.058	15469
878.185	15466
878.313	15557
878.441	15526
878.568	15382
878.696	15473
878.824	15648
878.951	15641
879.079	15599
879.206	15880
879.333	15759
879.461	15568
879.588	15614
879.715	15759
879.842	15876
879.97	15595
880.097	15355
880.224	15469
880.351	15428
880.478	15367
880.605	15393
880.732	15279
880.859	15526
880.986	15485
881.112	15477
881.239	15279
881.366	15207
881.493	15089
881.619	14979
881.746	15142
881.872	15104
881.999	15043
882.125	15032
882.252	15074
882.378	15062
882.505	15169
882.631	14914
882.757	14781
882.883	14902
883.01	14876
883.136	14872
883.262	14705
883.388	14731
883.514	14834
883.64	14982
883.766	14883
883.892	14682
884.018	14754
884.143	14754
884.269	14899
884.395	14686
884.52	14598
884.646	14598
884.772	14556
884.897	14514
885.023	14587
885.148	14682
885.274	14720
885.399	14663
885.524	14552
885.65	14545
885.775	14613
885.9	14606
886.025	14651
886.15	14598
886.275	14488
886.4	14442
886.525	14495
886.65	14522
886.775	14480
886.9	14674
887.025	14857
887.149	14632
887.274	14442
887.399	14381
887.523	14282
887.648	14336
887.773	14237
887.897	14427
888.021	14370
888.146	14404
888.27	14545
888.395	14503
888.519	14465
888.643	14480
888.767	14488
888.891	14332
889.015	14244
889.139	14275
889.263	14202
889.387	14427
889.511	14469
889.635	14438
889.759	14199
889.883	14282
890.006	14328
890.13	14457
890.254	14195
890.377	14187
890.501	14073
890.624	14027
890.748	14119
890.871	13974
890.995	13928
891.118	13864
891.241	13963
891.364	13951
891.488	14069
891.611	13936
891.734	14035
891.857	14031
891.98	13989
892.103	13986
892.226	14001
892.349	14008
892.471	13894
892.594	13997
892.717	14020
892.839	13944
892.962	14016
893.085	14039
893.207	13860
893.33	13750
893.452	13963
893.575	13986
893.697	13921
893.819	14126
893.941	14221
894.064	14168
894.186	13986
894.308	13940
894.43	14107
894.552	14157
894.674	14096
894.796	14088
894.918	14065
895.04	13978
895.161	14149
895.283	14130
895.405	13982
895.526	14069
895.648	14096
895.769	14221
895.891	14202
896.012	14214
896.134	14100
896.255	14202
896.376	14111
896.498	14119
896.619	14199
896.74	14161
896.861	14168
896.982	14389
897.103	14651
897.224	14434
897.345	14415
897.466	14355
897.587	14362
897.708	14670
897.828	14492
897.949	14393
898.07	14301
898.19	14358
898.311	14537
898.431	14408
898.552	14495
898.672	14625
898.792	14541
898.913	14625
899.033	14442
899.153	14336
899.273	14202
899.393	14400
899.513	14347
899.633	14381
899.753	14267
899.873	14259
899.993	14423
900.113	14370
900.232	14442
900.352	14271
900.472	14176
900.591	14233
900.711	14263
900.83	14153
900.95	14339
901.069	14351
901.189	14248
901.308	13997
901.427	13883
901.546	13860
901.665	13860
901.784	13959
901.904	13712
902.023	13643
902.141	13525
902.26	13480
902.379	13521
902.498	13419
902.617	13426
902.735	13457
902.854	13480
902.973	13381
903.091	13183
903.21	13164
903.328	13175
903.446	13072
903.565	13034
903.683	13053
903.801	12943
903.919	13000
904.038	13012
904.156	12817
904.274	12932
904.392	12810
904.51	12852
904.627	12833
904.745	12970
904.863	12882
904.981	12631
905.098	12517
905.216	12517
905.334	12597
905.451	12563
905.569	12574
905.686	12582
905.803	12601
905.921	12369
906.038	12452
906.155	12357
906.272	12327
906.389	12315
906.506	12117
906.623	12186
906.74	12129
906.857	12057
906.974	12015
907.091	12251
907.208	12292
907.324	12167
907.441	12106
907.557	11912
907.674	11851
907.79	11745
907.907	11893
908.023	11942
908.139	11889
908.256	11783
908.372	11817
908.488	11771
908.604	11676
908.72	11547
908.836	11619
908.952	11676
909.068	11634
909.184	11779
909.3	11611
909.415	11714
909.531	11623
909.647	11372
909.762	11474
909.878	11417
909.993	11383
910.108	11330
910.224	11455
910.339	11452
910.454	11235
910.57	11311
910.685	11181
910.8	11421
910.915	11417
911.03	11341
911.145	11147
911.259	11151
911.374	11121
911.489	11033
911.604	11041
911.718	10930
911.833	10892
911.947	10702
912.062	10725
912.176	10881
912.291	10881
912.405	10869
912.519	11018
912.633	11079
912.748	10961
912.862	10866
912.976	10729
913.09	10637
913.204	10637
913.318	10824
913.431	10862
913.545	10759
913.659	10911
913.772	10831
913.886	10630
914	10592
914.113	10710
914.226	10835
914.34	10733
914.453	10588
914.566	10660
914.68	10641
914.793	10611
914.906	10481
915.019	10375
915.132	10398
915.245	10413
915.358	10478
915.47	10474
915.583	10459
915.696	10474
915.809	10542
915.921	10508
916.034	10436
916.146	10333
916.259	10409
916.371	10375
916.483	10409
916.595	10382
916.708	10341
916.82	10287
916.932	10314
917.044	10329
917.156	10329
917.268	10131
917.38	10219
917.491	10215
917.603	10253
917.715	10333
917.826	10329
917.938	10227
918.049	10105
918.161	10207
918.272	10337
918.384	10402
918.495	10291
918.606	10135
918.717	9987
918.828	10215
918.939	10124
919.05	9945
919.161	10055
919.272	9956
919.383	9949
919.494	10204
919.604	10417
919.715	10166
919.826	10097
919.936	10059
920.047	10139
920.157	10162
920.267	10367
920.378	10188
920.488	10219
920.598	10379
920.708	10531
920.818	10287
920.928	10341
921.038	10428
921.148	10436
921.258	10128
921.368	10105
921.477	9983
921.587	9975
921.697	9857
921.806	9983
921.916	9895
922.025	9724
922.134	9686
922.244	9686
922.353	9812
922.462	9545
922.571	9523
922.68	9340
922.789	9294
922.898	9450
923.007	9359
923.116	9420
923.224	9416
923.333	9401
923.442	9298
923.55	9226
923.659	9367
923.767	9336
923.876	9291
923.984	9336
924.092	9214
924.201	9241
924.309	9237
924.417	9256
924.525	9203
924.633	9264
924.741	10135
924.849	9089
924.956	9188
925.064	9077
925.172	9039
925.279	9055
925.387	9119
925.494	9058
925.602	9188
925.709	9176
925.816	8929
925.924	9089
926.031	9123
926.138	9013
926.245	9112
926.352	8933
926.459	9119
926.566	9176
926.673	8982
926.779	8849
926.886	8887
926.993	8781
927.099	8708
927.206	8743
927.312	8724
927.419	8857
927.525	8735
927.631	8838
927.737	8682
927.843	8708
927.95	8602
928.056	8651
928.162	8674
928.267	8727
928.373	9287
928.479	8727
928.585	8568
928.69	8651
928.796	8697
928.901	8632
929.007	8446
929.112	8541
929.218	8522
929.323	8412
929.428	8469
929.533	8598
929.638	8480
929.743	8552
929.848	8495
929.953	8442
930.058	8461
930.163	8263
930.267	8210
930.372	8412
930.477	8233
930.581	8419
930.685	8393
930.79	8271
930.894	8298
930.998	8161
931.103	8313
931.207	8043
931.311	7902
931.415	7856
931.519	7708
931.623	7696
