Data from test_V78500241_1283.txt Node
Date: Fri Mar 25 14:42:38 CST 2022
User: usil
Spectrometer: V785-0024
Trigger mode: 0
Integration Time (sec): 4.000000E-1
Scans to average: 1
Nonlinearity correction enabled: false
Boxcar width: 0
Storing dark spectrum: false
XAxis mode: Wavelengths
Number of Pixels in Spectrum: 1024
>>>>>Begin Spectral Data<<<<<
801.071	22443
801.214	22299
801.356	22105
801.499	21998
801.641	21728
801.783	21743
801.926	21781
802.068	21766
802.211	21622
802.353	21591
802.496	21424
802.638	21192
802.78	21184
802.923	21237
803.065	21169
803.208	21138
803.35	21142
803.492	21188
803.635	21218
803.777	21108
803.919	21233
804.061	21450
804.204	21165
804.346	21150
804.488	21100
804.63	21142
804.773	20952
804.915	20963
805.057	21157
805.199	20986
805.341	21222
805.483	21108
805.626	21116
805.768	20899
805.91	21032
806.052	20986
806.194	20864
806.336	21074
806.478	21005
806.62	21047
806.762	21116
806.904	21195
807.046	21435
807.188	21424
807.33	21298
807.472	21439
807.614	21367
807.756	21291
807.898	21184
808.04	21173
808.182	21116
808.324	21260
808.465	21359
808.607	21424
808.749	21576
808.891	21568
809.033	21671
809.174	21576
809.316	21481
809.458	21504
809.6	21374
809.741	21561
809.883	21534
810.025	21686
810.166	21534
810.308	21557
810.45	21511
810.591	21462
810.733	21321
810.875	21355
811.016	21081
811.158	21176
811.299	21249
811.441	21283
811.582	21374
811.724	21218
811.865	21135
812.007	21066
812.148	21264
812.29	21233
812.431	21332
812.573	21469
812.714	21534
812.855	21553
812.997	21789
813.138	21987
813.279	21732
813.421	21587
813.562	21523
813.703	21405
813.845	21412
813.986	21165
814.127	20975
814.268	20743
814.41	20815
814.551	20765
814.692	20826
814.833	20708
814.974	20659
815.115	20632
815.256	20465
815.397	20518
815.539	20659
815.68	20469
815.821	20362
815.962	20644
816.103	20381
816.244	20381
816.385	20309
816.526	20183
816.666	20039
816.807	19890
816.948	19940
817.089	19959
817.23	19856
817.371	19993
817.512	19837
817.653	19894
817.793	19887
817.934	19913
818.075	20077
818.216	19856
818.356	19822
818.497	19712
818.638	19453
818.778	19715
818.919	19601
819.06	19632
819.2	19719
819.341	19784
819.481	19731
819.622	19864
819.762	20027
819.903	20069
820.043	20020
820.184	19860
820.324	19864
820.465	19936
820.605	19826
820.746	19894
820.886	19784
821.026	19856
821.167	19830
821.307	19887
821.447	19830
821.588	19609
821.728	19369
821.868	19396
822.008	19285
822.149	19320
822.289	19190
822.429	19053
822.569	18932
822.709	18981
822.849	18825
822.99	18821
823.13	18738
823.27	18700
823.41	18490
823.55	18513
823.69	18646
823.83	18585
823.97	18623
824.11	18323
824.25	18285
824.389	18414
824.529	18407
824.669	18319
824.809	18475
824.949	18338
825.089	18494
825.228	18448
825.368	18121
825.508	18102
825.648	18190
825.787	18197
825.927	18174
826.067	18106
826.206	18095
826.346	18174
826.485	18163
826.625	18129
826.765	18098
826.904	18167
827.044	17954
827.183	17874
827.323	17824
827.462	17939
827.601	17783
827.741	17836
827.88	17874
828.02	17745
828.159	17771
828.298	17779
828.437	17836
828.577	17870
828.716	17893
828.855	17802
828.994	17596
829.134	17638
829.273	17589
829.412	17543
829.551	17493
829.69	17512
829.829	17589
829.968	17726
830.107	17611
830.246	17566
830.385	17547
830.524	17619
830.663	17402
830.802	17307
830.941	17166
831.08	17258
831.219	17303
831.357	17208
831.496	17410
831.635	17151
831.774	17086
831.913	17098
832.051	16957
832.19	17041
832.329	17010
832.467	16972
832.606	16919
832.744	16904
832.883	16980
833.022	16919
833.16	16911
833.299	17045
833.437	17033
833.576	16984
833.714	16919
833.852	17014
833.991	16934
834.129	17022
834.267	16976
834.406	17083
834.544	16911
834.682	16961
834.821	16850
834.959	17086
835.097	16984
835.235	17056
835.373	16972
835.511	17090
835.65	16885
835.788	16896
835.926	16694
836.064	16733
836.202	16809
836.34	16858
836.478	17029
836.615	16885
836.753	16873
836.891	16949
837.029	16927
837.167	16828
837.305	16683
837.443	16698
837.58	16740
837.718	16755
837.856	16866
837.993	16672
838.131	16675
838.269	16694
838.406	16691
838.544	16580
838.681	16409
838.819	16333
838.956	16219
839.094	16253
839.231	16268
839.369	16379
839.506	16702
839.643	16584
839.781	16322
839.918	16303
840.055	16318
840.193	16249
840.33	16284
840.467	16234
840.604	16322
840.742	16554
840.879	16166
841.016	16185
841.153	16116
841.29	16375
841.427	16219
841.564	16265
841.701	16299
841.838	16158
841.975	16154
842.112	16299
842.249	16082
842.385	15991
842.522	16234
842.659	16017
842.796	16040
842.933	16021
843.069	16029
843.206	16078
843.343	16059
843.479	16090
843.616	15960
843.752	15762
843.889	15827
844.025	15960
844.162	15812
844.298	15892
844.435	15774
844.571	15835
844.708	15911
844.844	15892
844.98	16002
845.117	15960
845.253	15793
845.389	15785
845.525	15865
845.661	15846
845.798	15838
845.934	15941
846.07	15762
846.206	15918
846.342	15972
846.478	15793
846.614	15462
846.75	15424
846.886	15431
847.022	15431
847.158	15408
847.294	15439
847.429	15473
847.565	15412
847.701	15656
847.837	15230
847.972	15207
848.108	15256
848.244	15264
848.379	15066
848.515	15077
848.65	14971
848.786	14994
848.921	15005
849.057	15070
849.192	15203
849.328	15119
849.463	15001
849.598	14971
849.734	14876
849.869	14804
850.004	14701
850.14	14830
850.275	14796
850.41	14804
850.545	14613
850.68	14785
850.815	14777
850.95	14712
851.085	14994
851.22	14887
851.355	14773
851.49	14686
851.625	14758
851.76	14701
851.895	14689
852.03	14632
852.165	14735
852.299	14807
852.434	14838
852.569	14857
852.703	14754
852.838	14853
852.973	14899
853.107	14921
853.242	14754
853.376	14746
853.511	14530
853.645	14621
853.78	14746
853.914	14602
854.048	14568
854.183	14663
854.317	14697
854.451	14762
854.585	14674
854.72	14617
854.854	14689
854.988	14564
855.122	14625
855.256	14552
855.39	14701
855.524	14807
855.658	14689
855.792	14712
855.926	14663
856.06	14689
856.194	14777
856.327	14678
856.461	14621
856.595	14568
856.729	14556
856.862	14731
856.996	14613
857.13	14731
857.263	14762
857.397	14819
857.53	14674
857.664	14750
857.797	14727
857.931	14819
858.064	14613
858.197	14655
858.331	14648
858.464	14583
858.597	14587
858.731	14663
858.864	14712
858.997	14678
859.13	14651
859.263	14632
859.396	14769
859.529	14640
859.662	14621
859.795	14689
859.928	14659
860.061	14762
860.194	14872
860.327	14617
860.46	14644
860.592	14693
860.725	14705
860.858	14762
860.99	14659
861.123	14632
861.256	14587
861.388	14682
861.521	15462
861.653	14533
861.786	14473
861.918	14446
862.05	14533
862.183	14575
862.315	14625
862.447	14670
862.58	14556
862.712	14427
862.844	14385
862.976	14526
863.108	14442
863.24	14918
863.372	14351
863.504	14404
863.636	14457
863.768	14408
863.9	14412
864.032	14336
864.164	14419
864.296	14412
864.428	14579
864.559	14575
864.691	14499
864.823	14404
864.954	14446
865.086	14484
865.217	14522
865.349	14377
865.48	14412
865.612	14423
865.743	14541
865.875	14389
866.006	14408
866.137	14457
866.269	14431
866.4	14374
866.531	14328
866.662	14275
866.793	14393
866.924	14301
867.055	14400
867.186	14465
867.317	14282
867.448	14244
867.579	14362
867.71	14278
867.841	14290
867.972	14415
868.103	14438
868.233	14511
868.364	14423
868.495	14431
868.625	14583
868.756	14769
868.886	14632
869.017	14587
869.147	14754
869.278	14785
869.408	14655
869.539	14583
869.669	14648
869.799	14667
869.929	14735
870.06	14769
870.19	15043
870.32	15032
870.45	14948
870.58	14941
870.71	15112
870.84	15161
870.97	14979
871.1	14929
871.23	15222
871.36	15332
871.489	15169
871.619	15207
871.749	15195
871.879	15256
872.008	15348
872.138	15207
872.267	15074
872.397	15116
872.526	15020
872.656	15047
872.785	15131
872.915	15249
873.044	15241
873.173	15260
873.303	15268
873.432	15329
873.561	15310
873.69	15306
873.819	15264
873.948	15435
874.077	15367
874.206	15351
874.335	15275
874.464	15408
874.593	15614
874.722	15576
874.851	15656
874.979	15629
875.108	15549
875.237	15633
875.365	15511
875.494	15515
875.623	15656
875.751	15587
875.88	15656
876.008	15717
876.136	15812
876.265	15941
876.393	16173
876.521	16002
876.65	16093
876.778	15968
876.906	15968
877.034	15854
877.162	16010
877.29	15987
877.418	16086
877.546	16040
877.674	16063
877.802	16006
877.93	16090
878.058	15949
878.185	15873
878.313	16032
878.441	15994
878.568	15838
878.696	15953
878.824	16120
878.951	16128
879.079	16215
879.206	16310
879.333	16246
879.461	16188
879.588	16219
879.715	16276
879.842	16348
879.97	16090
880.097	15941
880.224	15903
880.351	15918
880.478	15888
880.605	15880
880.732	15991
880.859	16207
880.986	16036
881.112	15850
881.239	15804
881.366	15614
881.493	15599
881.619	15500
881.746	15523
881.872	15587
881.999	15534
882.125	15443
882.252	15663
882.378	15511
882.505	15580
882.631	15408
882.757	15450
882.883	15439
883.01	15401
883.136	15249
883.262	15214
883.388	15135
883.514	15325
883.64	15408
883.766	15313
883.892	15176
884.018	15165
884.143	15245
884.269	15416
884.395	15157
884.52	15047
884.646	15138
884.772	15005
884.897	14883
885.023	15058
885.148	15207
885.274	15283
885.399	15085
885.524	15081
885.65	15108
885.775	15043
885.9	15036
886.025	15207
886.15	15108
886.275	14971
886.4	14948
886.525	15131
886.65	15051
886.775	14956
886.9	15241
887.025	15294
887.149	15085
887.274	14861
887.399	14845
887.523	14906
887.648	14849
887.773	14788
887.897	14883
888.021	14944
888.146	14880
888.27	15001
888.395	15009
888.519	14883
888.643	14883
888.767	14883
888.891	14842
889.015	14693
889.139	14781
889.263	14796
889.387	14727
889.511	14891
889.635	14842
889.759	14670
889.883	14670
890.006	14743
890.13	14872
890.254	14674
890.377	14629
890.501	14495
890.624	14412
890.748	14568
890.871	14537
890.995	14396
891.118	14252
891.241	14518
891.364	14396
891.488	14469
891.611	14476
891.734	14450
891.857	14507
891.98	14328
892.103	14450
892.226	14404
892.349	14358
892.471	14263
892.594	14351
892.717	14431
892.839	14408
892.962	14518
893.085	14427
893.207	14389
893.33	14229
893.452	14320
893.575	14408
893.697	14404
893.819	14571
893.941	14613
894.064	14629
894.186	14396
894.308	14320
894.43	14511
894.552	14629
894.674	14480
894.796	14423
894.918	14526
895.04	14370
895.161	14651
895.283	14473
895.405	14381
895.526	14434
895.648	14511
895.769	14454
895.891	14522
896.012	14648
896.134	14651
896.255	14621
896.376	14476
896.498	14564
896.619	14594
896.74	14549
896.861	14598
896.982	14933
897.103	14933
897.224	14830
897.345	14826
897.466	14800
897.587	14834
897.708	15013
897.828	14887
897.949	14765
898.07	14663
898.19	14861
898.311	14956
898.431	14845
898.552	14914
898.672	14952
898.792	15013
898.913	14899
899.033	14864
899.153	14701
899.273	14670
899.393	14663
899.513	14781
899.633	14876
899.753	14834
899.873	14758
899.993	14708
900.113	14758
900.232	14804
900.352	14746
900.472	14716
900.591	14526
900.711	14648
900.83	14492
900.95	14750
901.069	14712
901.189	14507
901.308	14332
901.427	14149
901.546	14191
901.665	14298
901.784	14263
901.904	14115
902.023	14145
902.141	13917
902.26	13845
902.379	13947
902.498	13928
902.617	13723
902.735	13837
902.854	13814
902.973	13658
903.091	13594
903.21	13624
903.328	13521
903.446	13483
903.565	13510
903.683	13419
903.801	13274
903.919	13365
904.038	13514
904.156	13168
904.274	13377
904.392	13145
904.51	13175
904.627	13247
904.745	13263
904.863	13251
904.981	13046
905.098	12882
905.216	12939
905.334	13008
905.451	12890
905.569	12932
905.686	12989
905.803	12859
905.921	12730
906.038	12806
906.155	12639
906.272	12563
906.389	12692
906.506	12490
906.623	12544
906.74	12517
906.857	12388
906.974	12448
907.091	12612
907.208	12673
907.324	12559
907.441	12395
907.557	12319
907.674	12239
907.79	12175
907.907	12235
908.023	12243
908.139	12186
908.256	12186
908.372	12152
908.488	12095
908.604	12045
908.72	11980
908.836	12041
908.952	11946
909.068	12079
909.184	12098
909.3	11946
909.415	12038
909.531	11996
909.647	11817
909.762	11722
909.878	11733
909.993	11771
910.108	11760
910.224	11649
910.339	11718
910.454	11668
910.57	11672
910.685	11436
910.8	11828
910.915	11821
911.03	11760
911.145	11467
911.259	11490
911.374	11619
911.489	11391
911.604	11395
911.718	11208
911.833	11387
911.947	11136
912.062	11045
912.176	11235
912.291	11170
912.405	11197
912.519	11406
912.633	11497
912.748	11269
912.862	11254
912.976	11018
913.09	10987
913.204	11022
913.318	11102
913.431	11220
913.545	11201
913.659	11265
913.772	11136
913.886	11029
914	10938
914.113	11098
914.226	11067
914.34	11064
914.453	10930
914.566	11162
914.68	10980
914.793	11003
914.906	10824
915.019	10767
915.132	10801
915.245	10744
915.358	10797
915.47	10854
915.583	10797
915.696	10828
915.809	10953
915.921	10904
916.034	10729
916.146	10691
916.259	10710
916.371	10702
916.483	10790
916.595	10675
916.708	10782
916.82	10763
916.932	10660
917.044	10615
917.156	10687
917.268	10523
917.38	10565
917.491	10611
917.603	10645
917.715	10717
917.826	10733
917.938	10588
918.049	10474
918.161	10504
918.272	10653
918.384	10740
918.495	10618
918.606	10542
918.717	10386
918.828	10504
918.939	10440
919.05	10329
919.161	10417
919.272	10322
919.383	10257
919.494	10550
919.604	10649
919.715	10451
919.826	10333
919.936	10379
920.047	10508
920.157	10561
920.267	10729
920.378	10512
920.488	10409
920.598	10626
920.708	10812
920.818	10660
920.928	10702
921.038	10854
921.148	10778
921.258	10523
921.368	10428
921.477	10303
921.587	10344
921.697	10162
921.806	10280
921.916	10246
922.025	10055
922.134	10086
922.244	9899
922.353	10006
922.462	9934
922.571	9789
922.68	9762
922.789	9599
922.898	9690
923.007	9629
923.116	9728
923.224	9720
923.333	9736
923.442	9572
923.55	9511
923.659	9682
923.767	9671
923.876	9534
923.984	9614
924.092	9473
924.201	9576
924.309	9576
924.417	9545
924.525	9500
924.633	9595
924.741	10280
924.849	9363
924.956	9515
925.064	9370
925.172	9256
925.279	9329
925.387	9340
925.494	9332
925.602	9439
925.709	9401
925.816	9253
925.924	9325
926.031	9443
926.138	9389
926.245	9401
926.352	9283
926.459	9397
926.566	9507
926.673	9268
926.779	9222
926.886	9195
926.993	9013
927.099	9062
927.206	8975
927.312	9017
927.419	9093
927.525	9047
927.631	9207
927.737	8933
927.843	8982
927.95	8792
928.056	8979
928.162	8921
928.267	8967
928.373	9618
928.479	9070
928.585	8769
928.69	8891
928.796	8952
928.901	8807
929.007	8716
929.112	8899
929.218	8845
929.323	8781
929.428	8762
929.533	8895
929.638	8758
929.743	8781
929.848	8811
929.953	8758
930.058	8712
930.163	8507
930.267	8465
930.372	8659
930.477	8446
930.581	8686
930.685	8632
930.79	8419
930.894	8484
930.998	8465
931.103	8571
931.207	8259
931.311	8191
931.415	8081
931.519	7936
931.623	7978
