Data from test_V78500241_1264.txt Node
Date: Fri Mar 25 14:42:31 CST 2022
User: usil
Spectrometer: V785-0024
Trigger mode: 0
Integration Time (sec): 4.000000E-1
Scans to average: 1
Nonlinearity correction enabled: false
Boxcar width: 0
Storing dark spectrum: false
XAxis mode: Wavelengths
Number of Pixels in Spectrum: 1024
>>>>>Begin Spectral Data<<<<<
801.071	22428
801.214	22314
801.356	21979
801.499	21953
801.641	21739
801.783	21888
801.926	21808
802.068	21755
802.211	21648
802.353	21504
802.496	21405
802.638	21237
802.78	21192
802.923	21142
803.065	21127
803.208	21093
803.35	21100
803.492	21119
803.635	21268
803.777	21066
803.919	21214
804.061	21454
804.204	21256
804.346	21085
804.488	20941
804.63	21089
804.773	20944
804.915	20986
805.057	21230
805.199	20986
805.341	20986
805.483	21157
805.626	20990
805.768	20914
805.91	21062
806.052	21036
806.194	20887
806.336	21058
806.478	21077
806.62	20963
806.762	21123
806.904	21256
807.046	21435
807.188	21447
807.33	21340
807.472	21428
807.614	21325
807.756	21321
807.898	21214
808.04	21203
808.182	21036
808.324	21161
808.465	21298
808.607	21325
808.749	21507
808.891	21644
809.033	21728
809.174	21492
809.316	21405
809.458	21428
809.6	21374
809.741	21492
809.883	21492
810.025	21549
810.166	21686
810.308	21507
810.45	21523
810.591	21359
810.733	21351
810.875	21218
811.016	21096
811.158	21119
811.299	21252
811.441	21329
811.582	21367
811.724	21142
811.865	21203
812.007	21123
812.148	21241
812.29	21222
812.431	21485
812.573	21500
812.714	21538
812.855	21709
812.997	21793
813.138	21937
813.279	21759
813.421	21564
813.562	21625
813.703	21515
813.845	21397
813.986	21058
814.127	20830
814.268	20804
814.41	20769
814.551	20739
814.692	20838
814.833	20792
814.974	20705
815.115	20667
815.256	20629
815.397	20511
815.539	20514
815.68	20511
815.821	20374
815.962	20461
816.103	20495
816.244	20374
816.385	20267
816.526	20225
816.666	20126
816.807	19875
816.948	19944
817.089	19993
817.23	19871
817.371	19830
817.512	19913
817.653	19890
817.793	19826
817.934	19890
818.075	19913
818.216	19921
818.356	19887
818.497	19639
818.638	19597
818.778	19575
818.919	19590
819.06	19632
819.2	19734
819.341	19875
819.481	19776
819.622	19849
819.762	20111
819.903	19993
820.043	19875
820.184	19845
820.324	19978
820.465	19875
820.605	19803
820.746	19906
820.886	19776
821.026	19784
821.167	19814
821.307	19909
821.447	19693
821.588	19727
821.728	19666
821.868	19457
822.008	19312
822.149	19324
822.289	19255
822.429	18894
822.569	19023
822.709	19038
822.849	18738
822.99	18719
823.13	18810
823.27	18779
823.41	18551
823.55	18563
823.69	18642
823.83	18665
823.97	18536
824.11	18327
824.25	18346
824.389	18292
824.529	18471
824.669	18369
824.809	18433
824.949	18410
825.089	18452
825.228	18475
825.368	18064
825.508	18129
825.648	18216
825.787	18159
825.927	18159
826.067	18114
826.206	18216
826.346	18110
826.485	18152
826.625	18106
826.765	18277
826.904	18057
827.044	17992
827.183	17874
827.323	17813
827.462	17840
827.601	17783
827.741	17764
827.88	17802
828.02	17691
828.159	17817
828.298	17942
828.437	17942
828.577	17897
828.716	17889
828.855	17817
828.994	17619
829.134	17752
829.273	17684
829.412	17604
829.551	17501
829.69	17638
829.829	17642
829.968	17657
830.107	17589
830.246	17589
830.385	17539
830.524	17524
830.663	17417
830.802	17398
830.941	17231
831.08	17235
831.219	17284
831.357	17242
831.496	17406
831.635	17178
831.774	17147
831.913	17014
832.051	16972
832.19	17003
832.329	17056
832.467	16965
832.606	16946
832.744	16820
832.883	16820
833.022	16805
833.16	16946
833.299	16999
833.437	16930
833.576	16927
833.714	16999
833.852	16965
833.991	17003
834.129	17033
834.267	16923
834.406	16919
834.544	16999
834.682	16957
834.821	16900
834.959	17102
835.097	16934
835.235	17117
835.373	17094
835.511	16957
835.65	16793
835.788	16786
835.926	16736
836.064	16748
836.202	16691
836.34	17006
836.478	16987
836.615	16790
836.753	16915
836.891	17006
837.029	16892
837.167	16847
837.305	16843
837.443	16797
837.58	16843
837.718	16892
837.856	16702
837.993	16733
838.131	16782
838.269	16615
838.406	16607
838.544	16641
838.681	16443
838.819	16417
838.956	16284
839.094	16329
839.231	16367
839.369	16424
839.506	16740
839.643	16516
839.781	16257
839.918	16318
840.055	16268
840.193	16276
840.33	16303
840.467	16306
840.604	16379
840.742	16554
840.879	16192
841.016	16150
841.153	16177
841.29	16367
841.427	16249
841.564	16268
841.701	16268
841.838	16272
841.975	16177
842.112	16291
842.249	16147
842.385	16025
842.522	16242
842.659	16158
842.796	16082
842.933	16036
843.069	16013
843.206	16013
843.343	16082
843.479	16128
843.616	16055
843.752	15865
843.889	15827
844.025	15987
844.162	15819
844.298	16006
844.435	15781
844.571	15842
844.708	15956
844.844	16048
844.98	15922
845.117	16017
845.253	15835
845.389	15675
845.525	15880
845.661	15838
845.798	15812
845.934	15873
846.07	15747
846.206	15827
846.342	15922
846.478	15854
846.614	15542
846.75	15504
846.886	15386
847.022	15504
847.158	15374
847.294	15439
847.429	15488
847.565	15420
847.701	15618
847.837	15142
847.972	15154
848.108	15241
848.244	15260
848.379	15135
848.515	14906
848.65	15039
848.786	15089
848.921	14921
849.057	15116
849.192	15131
849.328	15036
849.463	14982
849.598	14994
849.734	14944
849.869	14967
850.004	14819
850.14	14883
850.275	14800
850.41	14686
850.545	14750
850.68	14754
850.815	14804
850.95	14720
851.085	15017
851.22	14845
851.355	14807
851.49	14754
851.625	14773
851.76	14727
851.895	14590
852.03	14598
852.165	14788
852.299	14762
852.434	14872
852.569	14762
852.703	14842
852.838	14845
852.973	15055
853.107	14952
853.242	14735
853.376	14606
853.511	14522
853.645	14632
853.78	14735
853.914	14640
854.048	14610
854.183	14629
854.317	14632
854.451	14758
854.585	14617
854.72	14621
854.854	14655
854.988	14552
855.122	14644
855.256	14522
855.39	14613
855.524	14765
855.658	14693
855.792	14583
855.926	14648
856.06	14625
856.194	14693
856.327	14587
856.461	14575
856.595	14495
856.729	14613
856.862	14788
856.996	14674
857.13	14705
857.263	14785
857.397	14720
857.53	14606
857.664	14617
857.797	14792
857.931	14853
858.064	14769
858.197	14765
858.331	14659
858.464	14655
858.597	14511
858.731	14621
858.864	14598
858.997	14598
859.13	14674
859.263	14796
859.396	14731
859.529	14579
859.662	14670
859.795	14571
859.928	14670
860.061	14697
860.194	14910
860.327	14697
860.46	14602
860.592	14781
860.725	14792
860.858	14727
860.99	14663
861.123	14556
861.256	14530
861.388	14667
861.521	15359
861.653	14545
861.786	14465
861.918	14492
862.05	14480
862.183	14571
862.315	14629
862.447	14701
862.58	14636
862.712	14400
862.844	14339
862.976	14583
863.108	14545
863.24	14925
863.372	14336
863.504	14381
863.636	14488
863.768	14533
863.9	14351
864.032	14305
864.164	14446
864.296	14488
864.428	14598
864.559	14488
864.691	14522
864.823	14484
864.954	14545
865.086	14450
865.217	14377
865.349	14275
865.48	14450
865.612	14434
865.743	14507
865.875	14427
866.006	14419
866.137	14381
866.269	14313
866.4	14370
866.531	14294
866.662	14442
866.793	14381
866.924	14358
867.055	14415
867.186	14404
867.317	14328
867.448	14362
867.579	14370
867.71	14221
867.841	14351
867.972	14419
868.103	14492
868.233	14370
868.364	14438
868.495	14511
868.625	14590
868.756	14762
868.886	14606
869.017	14712
869.147	14735
869.278	14762
869.408	14689
869.539	14682
869.669	14842
869.799	14762
869.929	14804
870.06	14804
870.19	14902
870.32	15089
870.45	14971
870.58	15127
870.71	15222
870.84	15055
870.97	14971
871.1	15020
871.23	15302
871.36	15249
871.489	15131
871.619	15245
871.749	15119
871.879	15268
872.008	15374
872.138	15268
872.267	15184
872.397	14956
872.526	15093
872.656	15043
872.785	15199
872.915	15287
873.044	15351
873.173	15283
873.303	15340
873.432	15412
873.561	15439
873.69	15325
873.819	15317
873.948	15401
874.077	15317
874.206	15275
874.335	15268
874.464	15447
874.593	15580
874.722	15519
874.851	15644
874.979	15679
875.108	15637
875.237	15576
875.365	15599
875.494	15553
875.623	15690
875.751	15629
875.88	15717
876.008	15732
876.136	15831
876.265	16051
876.393	16082
876.521	16025
876.65	16055
876.778	16082
876.906	15956
877.034	16032
877.162	16017
877.29	15930
877.418	16025
877.546	16048
877.674	16040
877.802	16059
877.93	16105
878.058	15949
878.185	15949
878.313	15983
878.441	15949
878.568	15911
878.696	15945
878.824	16116
878.951	16131
879.079	16295
879.206	16287
879.333	16344
879.461	16158
879.588	16101
879.715	16207
879.842	16341
879.97	16147
880.097	15869
880.224	15842
880.351	15895
880.478	15911
880.605	15861
880.732	15831
880.859	16177
880.986	15918
881.112	15956
881.239	15808
881.366	15622
881.493	15568
881.619	15450
881.746	15504
881.872	15576
881.999	15542
882.125	15481
882.252	15618
882.378	15545
882.505	15694
882.631	15511
882.757	15412
882.883	15439
883.01	15344
883.136	15222
883.262	15154
883.388	15176
883.514	15332
883.64	15408
883.766	15386
883.892	15119
884.018	15165
884.143	15428
884.269	15355
884.395	15180
884.52	15097
884.646	15055
884.772	15077
884.897	14975
885.023	15024
885.148	15237
885.274	15230
885.399	15138
885.524	15070
885.65	15013
885.775	15093
885.9	15043
886.025	15272
886.15	15131
886.275	14975
886.4	14986
886.525	15077
886.65	14986
886.775	15070
886.9	15138
887.025	15283
887.149	15150
887.274	14853
887.399	14880
887.523	14750
887.648	14842
887.773	14765
887.897	14845
888.021	14975
888.146	14807
888.27	15001
888.395	15020
888.519	14834
888.643	14929
888.767	14956
888.891	14705
889.015	14644
889.139	14781
889.263	14743
889.387	14804
889.511	15009
889.635	14933
889.759	14819
889.883	14617
890.006	14705
890.13	14864
890.254	14659
890.377	14682
890.501	14522
890.624	14545
890.748	14606
890.871	14560
890.995	14336
891.118	14381
891.241	14537
891.364	14431
891.488	14537
891.611	14454
891.734	14476
891.857	14511
891.98	14389
892.103	14484
892.226	14461
892.349	14419
892.471	14214
892.594	14404
892.717	14461
892.839	14476
892.962	14484
893.085	14427
893.207	14343
893.33	14370
893.452	14377
893.575	14389
893.697	14446
893.819	14602
893.941	14556
894.064	14499
894.186	14412
894.308	14362
894.43	14495
894.552	14632
894.674	14579
894.796	14408
894.918	14400
895.04	14476
895.161	14507
895.283	14404
895.405	14526
895.526	14545
895.648	14613
895.769	14564
895.891	14579
896.012	14499
896.134	14636
896.255	14556
896.376	14568
896.498	14571
896.619	14625
896.74	14541
896.861	14610
896.982	14830
897.103	15081
897.224	14914
897.345	14735
897.466	14819
897.587	14804
897.708	14944
897.828	14937
897.949	14891
898.07	14701
898.19	14792
898.311	14849
898.431	14899
898.552	14948
898.672	14883
898.792	14982
898.913	14880
899.033	14895
899.153	14720
899.273	14587
899.393	14720
899.513	14887
899.633	14849
899.753	14815
899.873	14682
899.993	14811
900.113	14811
900.232	14796
900.352	14754
900.472	14613
900.591	14648
900.711	14636
900.83	14590
900.95	14800
901.069	14739
901.189	14602
901.308	14396
901.427	14313
901.546	14286
901.665	14309
901.784	14343
901.904	14138
902.023	14073
902.141	13986
902.26	13852
902.379	13951
902.498	13890
902.617	13818
902.735	13989
902.854	13833
902.973	13883
903.091	13499
903.21	13575
903.328	13537
903.446	13548
903.565	13449
903.683	13434
903.801	13358
903.919	13278
904.038	13396
904.156	13285
904.274	13331
904.392	13293
904.51	13206
904.627	13225
904.745	13320
904.863	13312
904.981	13042
905.098	12947
905.216	12981
905.334	12996
905.451	12905
905.569	12894
905.686	13012
905.803	12916
905.921	12753
906.038	12897
906.155	12722
906.272	12593
906.389	12658
906.506	12475
906.623	12479
906.74	12437
906.857	12334
906.974	12441
907.091	12559
907.208	12623
907.324	12559
907.441	12429
907.557	12300
907.674	12342
907.79	12209
907.907	12140
908.023	12308
908.139	12251
908.256	12194
908.372	12125
908.488	12133
908.604	11999
908.72	11889
908.836	12053
908.952	11946
909.068	12038
909.184	12167
909.3	11950
909.415	12125
909.531	11958
909.647	11809
909.762	11783
909.878	11767
909.993	11779
910.108	11798
910.224	11684
910.339	11809
910.454	11577
910.57	11585
910.685	11581
910.8	11775
910.915	11783
911.03	11653
911.145	11474
911.259	11566
911.374	11577
911.489	11478
911.604	11303
911.718	11235
911.833	11239
911.947	11201
912.062	11048
912.176	11162
912.291	11242
912.405	11254
912.519	11383
912.633	11436
912.748	11277
912.862	11258
912.976	11090
913.09	11056
913.204	11056
913.318	11064
913.431	11174
913.545	11166
913.659	11136
913.772	11064
913.886	10930
914	10904
914.113	11090
914.226	11048
914.34	10972
914.453	10930
914.566	11029
914.68	10961
914.793	10934
914.906	10778
915.019	10698
915.132	10641
915.245	10672
915.358	10736
915.47	10805
915.583	10687
915.696	10771
915.809	10824
915.921	10911
916.034	10634
916.146	10714
916.259	10558
916.371	10679
916.483	10672
916.595	10641
916.708	10755
916.82	10660
916.932	10615
917.044	10630
917.156	10622
917.268	10497
917.38	10580
917.491	10561
917.603	10584
917.715	10714
917.826	10725
917.938	10508
918.049	10474
918.161	10596
918.272	10748
918.384	10675
918.495	10519
918.606	10375
918.717	10325
918.828	10432
918.939	10485
919.05	10348
919.161	10451
919.272	10295
919.383	10227
919.494	10508
919.604	10672
919.715	10428
919.826	10322
919.936	10386
920.047	10478
920.157	10440
920.267	10668
920.378	10531
920.488	10459
920.598	10694
920.708	10805
920.818	10584
920.928	10656
921.038	10843
921.148	10683
921.258	10405
921.368	10375
921.477	10341
921.587	10276
921.697	10162
921.806	10390
921.916	10287
922.025	10082
922.134	10013
922.244	9918
922.353	10029
922.462	9895
922.571	9785
922.68	9663
922.789	9648
922.898	9724
923.007	9633
923.116	9804
923.224	9679
923.333	9686
923.442	9587
923.55	9599
923.659	9584
923.767	9599
923.876	9450
923.984	9660
924.092	9526
924.201	9568
924.309	9397
924.417	9545
924.525	9405
924.633	9519
924.741	10299
924.849	9359
924.956	9408
925.064	9317
925.172	9195
925.279	9264
925.387	9401
925.494	9310
925.602	9393
925.709	9374
925.816	9272
925.924	9344
926.031	9477
926.138	9336
926.245	9370
926.352	9241
926.459	9382
926.566	9378
926.673	9264
926.779	9222
926.886	9146
926.993	9055
927.099	9009
927.206	8963
927.312	8971
927.419	9036
927.525	9028
927.631	9093
927.737	8910
927.843	8895
927.95	8830
928.056	8906
928.162	8918
928.267	9001
928.373	9618
928.479	9051
928.585	8830
928.69	8849
928.796	8910
928.901	8800
929.007	8625
929.112	8811
929.218	8819
929.323	8716
929.428	8750
929.533	8902
929.638	8682
929.743	8766
929.848	8727
929.953	8701
930.058	8632
930.163	8492
930.267	8511
930.372	8670
930.477	8419
930.581	8708
930.685	8507
930.79	8381
930.894	8488
930.998	8377
931.103	8610
931.207	8263
931.311	8157
931.415	8119
931.519	7925
931.623	7944
