Data from test_V78500241_654.txt Node
Date: Fri Mar 25 14:38:16 CST 2022
User: usil
Spectrometer: V785-0024
Trigger mode: 0
Integration Time (sec): 4.000000E-1
Scans to average: 1
Nonlinearity correction enabled: false
Boxcar width: 0
Storing dark spectrum: false
XAxis mode: Wavelengths
Number of Pixels in Spectrum: 1024
>>>>>Begin Spectral Data<<<<<
801.071	28017
801.214	27819
801.356	27663
801.499	27629
801.641	27485
801.783	27469
801.926	27485
802.068	27252
802.211	27188
802.353	27131
802.496	26944
802.638	26933
802.78	26921
802.923	26807
803.065	26864
803.208	26918
803.35	26910
803.492	26899
803.635	27043
803.777	27074
803.919	27047
804.061	27454
804.204	27203
804.346	27108
804.488	27135
804.63	27146
804.773	27150
804.915	27252
805.057	27458
805.199	27447
805.341	27427
805.483	27622
805.626	27580
805.768	27614
805.91	27599
806.052	27911
806.194	27827
806.336	28287
806.478	28143
806.62	28417
806.762	28691
806.904	28965
807.046	29623
807.188	29874
807.33	30091
807.472	30738
807.614	31251
807.756	32263
807.898	33039
808.04	34516
808.182	36330
808.324	38682
808.465	41543
808.607	44526
808.749	47056
808.891	48612
809.033	48825
809.174	47185
809.316	44636
809.458	41566
809.6	38400
809.741	35996
809.883	34086
810.025	32632
810.166	31761
810.308	31133
810.45	30353
810.591	29920
810.733	29566
810.875	29166
811.016	28774
811.158	28538
811.299	28470
811.441	28394
811.582	28318
811.724	28188
811.865	28017
812.007	27899
812.148	27899
812.29	27728
812.431	27873
812.573	27953
812.714	28040
812.855	28074
812.997	28219
813.138	28177
813.279	28032
813.421	27724
813.562	27850
813.703	27618
813.845	27435
813.986	27081
814.127	26906
814.268	26727
814.41	26811
814.551	26697
814.692	26781
814.833	26663
814.974	26587
815.115	26453
815.256	26507
815.397	26415
815.539	26385
815.68	26381
815.821	26305
815.962	26240
816.103	26221
816.244	26130
816.385	25951
816.526	25902
816.666	25632
816.807	25677
816.948	25674
817.089	25624
817.23	25674
817.371	25529
817.512	25483
817.653	25453
817.793	25464
817.934	25506
818.075	25499
818.216	25441
818.356	25407
818.497	25365
818.638	25103
818.778	25255
818.919	25122
819.06	25175
819.2	25327
819.341	25388
819.481	25400
819.622	25457
819.762	25643
819.903	25670
820.043	25495
820.184	25377
820.324	25479
820.465	25445
820.605	25331
820.746	25331
820.886	25175
821.026	25285
821.167	25095
821.307	25236
821.447	25080
821.588	24932
821.728	24943
821.868	24810
822.008	24582
822.149	24661
822.289	24604
822.429	24540
822.569	24254
822.709	24133
822.849	24018
822.99	24098
823.13	24022
823.27	23878
823.41	23870
823.55	23676
823.69	23790
823.83	23775
823.97	23642
824.11	23604
824.25	23486
824.389	23543
824.529	23615
824.669	23497
824.809	23745
824.949	23649
825.089	23665
825.228	23733
825.368	23364
825.508	23280
825.648	23315
825.787	23288
825.927	23433
826.067	23299
826.206	23353
826.346	23360
826.485	23421
826.625	23356
826.765	23440
826.904	23471
827.044	23166
827.183	23056
827.323	22908
827.462	22999
827.601	22995
827.741	22972
827.88	23018
828.02	22911
828.159	22946
828.298	22938
828.437	23006
828.577	22900
828.716	23022
828.855	22824
828.994	22683
829.134	22626
829.273	22782
829.412	22504
829.551	22596
829.69	22599
829.829	22634
829.968	22801
830.107	22774
830.246	22706
830.385	22561
830.524	22474
830.663	22527
830.802	22280
830.941	22158
831.08	22257
831.219	22272
831.357	22306
831.496	22500
831.635	22204
831.774	22169
831.913	22139
832.051	22067
832.19	22063
832.329	22109
832.467	22093
832.606	21994
832.744	22116
832.883	22067
833.022	22109
833.16	22443
833.299	22561
833.437	22596
833.576	22504
833.714	22771
833.852	22889
833.991	23083
834.129	23242
834.267	23269
834.406	22923
834.544	23010
834.682	22740
834.821	22710
834.959	22744
835.097	22580
835.235	22611
835.373	22333
835.511	22303
835.65	22219
835.788	21987
835.926	21736
836.064	21679
836.202	21743
836.34	21964
836.478	22010
836.615	21838
836.753	21827
836.891	21922
837.029	21637
837.167	21717
837.305	21705
837.443	21660
837.58	21603
837.718	21622
837.856	21644
837.993	21519
838.131	21515
838.269	21408
838.406	21469
838.544	21313
838.681	21241
838.819	21135
838.956	21039
839.094	20906
839.231	21119
839.369	21256
839.506	21378
839.643	21165
839.781	21017
839.918	20975
840.055	21020
840.193	20975
840.33	20880
840.467	20746
840.604	20925
840.742	21131
840.879	20849
841.016	20921
841.153	20830
841.29	21192
841.427	20998
841.564	20956
841.701	21005
841.838	20857
841.975	20914
842.112	20864
842.249	20743
842.385	20727
842.522	20887
842.659	20785
842.796	20811
842.933	20800
843.069	20735
843.206	20693
843.343	20899
843.479	20830
843.616	20880
843.752	20659
843.889	20895
844.025	20883
844.162	20804
844.298	21017
844.435	21211
844.571	21226
844.708	21504
844.844	21994
844.98	22390
845.117	22790
845.253	23748
845.389	25263
845.525	28668
845.661	33812
845.798	40055
845.934	44750
846.07	46466
846.206	45104
846.342	40980
846.478	34755
846.614	29391
846.75	25860
846.886	23889
847.022	22622
847.158	21876
847.294	21237
847.429	21062
847.565	20727
847.701	20746
847.837	20210
847.972	20084
848.108	20225
848.244	20145
848.379	19856
848.515	19833
848.65	19727
848.786	19795
848.921	19708
849.057	19784
849.192	19780
849.328	19742
849.463	19578
849.598	19601
849.734	19506
849.869	19434
850.004	19350
850.14	19308
850.275	19270
850.41	19251
850.545	19259
850.68	19263
850.815	19293
850.95	19354
851.085	19430
851.22	19445
851.355	19339
851.49	19118
851.625	19278
851.76	19232
851.895	19156
852.03	19156
852.165	19266
852.299	19411
852.434	19476
852.569	19453
852.703	19301
852.838	19350
852.973	19590
853.107	19476
853.242	19422
853.376	19377
853.511	19183
853.645	19346
853.78	19476
853.914	19415
854.048	19430
854.183	19438
854.317	19506
854.451	19704
854.585	19544
854.72	19552
854.854	19575
854.988	19312
855.122	19331
855.256	19209
855.39	19274
855.524	19358
855.658	19438
855.792	19202
855.926	19187
856.06	19244
856.194	19324
856.327	19190
856.461	19069
856.595	19240
856.729	18939
856.862	19198
856.996	19118
857.13	19190
857.263	19148
857.397	19213
857.53	19080
857.664	19160
857.797	19209
857.931	19160
858.064	19042
858.197	19091
858.331	19008
858.464	18977
858.597	18928
858.731	18947
858.864	18981
858.997	18916
859.13	19080
859.263	18985
859.396	19069
859.529	18977
859.662	18920
859.795	18814
859.928	18966
860.061	19122
860.194	19141
860.327	18935
860.46	18848
860.592	19088
860.725	18970
860.858	19084
860.99	18981
861.123	18795
861.256	18810
861.388	18856
861.521	19563
861.653	18703
861.786	18787
861.918	18776
862.05	18848
862.183	18821
862.315	18958
862.447	18958
862.58	18814
862.712	18772
862.844	18574
862.976	18722
863.108	18848
863.24	18920
863.372	18627
863.504	18711
863.636	18494
863.768	18623
863.9	18536
864.032	18585
864.164	18635
864.296	18551
864.428	18719
864.559	18734
864.691	18623
864.823	18574
864.954	18593
865.086	18559
865.217	18574
865.349	18506
865.48	18521
865.612	18547
865.743	18547
865.875	18635
866.006	18490
866.137	18536
866.269	18566
866.4	18540
866.531	18448
866.662	18327
866.793	18384
866.924	18452
867.055	18369
867.186	18403
867.317	18506
867.448	18338
867.579	18445
867.71	18395
867.841	18555
867.972	18536
868.103	18601
868.233	18490
868.364	18547
868.495	18559
868.625	18719
868.756	18798
868.886	18658
869.017	18810
869.147	18764
869.278	18814
869.408	18833
869.539	18753
869.669	18848
869.799	18673
869.929	18989
870.06	18878
870.19	19023
870.32	18951
870.45	19221
870.58	19141
870.71	19240
870.84	19263
870.97	19183
871.1	19183
871.23	19483
871.36	19426
871.489	19316
871.619	19396
871.749	19327
871.879	19434
872.008	19392
872.138	19468
872.267	19499
872.397	19430
872.526	19293
872.656	19441
872.785	19430
872.915	19548
873.044	19662
873.173	19544
873.303	19464
873.432	19613
873.561	19799
873.69	19662
873.819	19791
873.948	19761
874.077	20008
874.206	19833
874.335	19772
874.464	19951
874.593	20077
874.722	20103
874.851	20195
874.979	20229
875.108	20248
875.237	20202
875.365	20081
875.494	20199
875.623	20415
875.751	20282
875.88	20442
876.008	20606
876.136	20678
876.265	20895
876.393	21195
876.521	21131
876.65	21161
876.778	21214
876.906	21203
877.034	21272
877.162	21249
877.29	21325
877.418	21492
877.546	21458
877.674	21637
877.802	21690
877.93	21804
878.058	21880
878.185	22048
878.313	22402
878.441	22691
878.568	22995
878.696	23566
878.824	24289
878.951	25335
879.079	26792
879.206	28710
879.333	30369
879.461	32035
879.588	33211
879.715	33005
879.842	32214
879.97	30547
880.097	28474
880.224	27036
880.351	26103
880.478	25171
880.605	24677
880.732	24323
880.859	24216
880.986	23980
881.112	23897
881.239	23638
881.366	23482
881.493	23410
881.619	23368
881.746	23501
881.872	23440
881.999	23391
882.125	23463
882.252	23653
882.378	23600
882.505	23847
882.631	23592
882.757	23497
882.883	23509
883.01	23406
883.136	23570
883.262	23364
883.388	23341
883.514	23414
883.64	23440
883.766	23277
883.892	23121
884.018	23292
884.143	23425
884.269	23543
884.395	23288
884.52	23136
884.646	23124
884.772	23083
884.897	23010
885.023	23170
885.148	23246
885.274	23147
885.399	22980
885.524	22854
885.65	22790
885.775	22725
885.9	22599
886.025	22565
886.15	22276
886.275	22139
886.4	21888
886.525	21903
886.65	21789
886.775	21682
886.9	21671
887.025	21701
887.149	21462
887.274	21252
887.399	21055
887.523	21001
887.648	20899
887.773	20724
887.897	20861
888.021	20743
888.146	20636
888.27	20716
888.395	20644
888.519	20575
888.643	20492
888.767	20522
888.891	20210
889.015	20180
889.139	20172
889.263	19986
889.387	20218
889.511	20210
889.635	20084
889.759	19913
889.883	19909
890.006	19906
890.13	20062
890.254	19788
890.377	19795
890.501	19544
890.624	19438
890.748	19594
890.871	19331
890.995	19354
891.118	19206
891.241	19282
891.364	19278
891.488	19354
891.611	19168
891.734	19194
891.857	19240
891.98	19190
892.103	19168
892.226	19069
892.349	19084
892.471	18947
892.594	19027
892.717	18951
892.839	18878
892.962	18848
893.085	18871
893.207	18882
893.33	18684
893.452	18650
893.575	18833
893.697	18703
893.819	18951
893.941	18817
894.064	18825
894.186	18513
894.308	18566
894.43	18715
894.552	18829
894.674	18692
894.796	18460
894.918	18521
895.04	18464
895.161	18540
895.283	18601
895.405	18369
895.526	18418
895.648	18414
895.769	18429
895.891	18467
896.012	18441
896.134	18486
896.255	18384
896.376	18422
896.498	18490
896.619	18418
896.74	18380
896.861	18437
896.982	18642
897.103	18856
897.224	18623
897.345	18631
897.466	18578
897.587	18620
897.708	18635
897.828	18684
897.949	18604
898.07	18330
898.19	18544
898.311	18631
898.431	18475
898.552	18544
898.672	18669
898.792	18715
898.913	18589
899.033	18464
899.153	18353
899.273	18232
899.393	18262
899.513	18350
899.633	18308
899.753	18483
899.873	18330
899.993	18365
900.113	18220
900.232	18289
900.352	18209
900.472	18239
900.591	18129
900.711	18136
900.83	18110
900.95	18281
901.069	18262
901.189	18011
901.308	17840
901.427	17672
901.546	17741
901.665	17828
901.784	17882
901.904	17627
902.023	17547
902.141	17303
902.26	17220
902.379	17273
902.498	17223
902.617	17155
902.735	17204
902.854	17159
902.973	17109
903.091	16816
903.21	16820
903.328	16858
903.446	16744
903.565	16691
903.683	16607
903.801	16672
903.919	16592
904.038	16588
904.156	16314
904.274	16466
904.392	16398
904.51	16356
904.627	16379
904.745	16382
904.863	16409
904.981	16112
905.098	16029
905.216	15907
905.334	16055
905.451	15983
905.569	15991
905.686	15987
905.803	15987
905.921	15816
906.038	15903
906.155	15838
906.272	15633
906.389	15694
906.506	15568
906.623	15580
906.74	15595
906.857	15363
906.974	15481
907.091	15591
907.208	15660
907.324	15644
907.441	15397
907.557	15355
907.674	15237
907.79	15188
907.907	15077
908.023	15351
908.139	15245
908.256	15157
908.372	15169
908.488	15020
908.604	14910
908.72	14933
908.836	14952
908.952	14925
909.068	14963
909.184	14982
909.3	14880
909.415	14998
909.531	14861
909.647	14682
909.762	14606
909.878	14716
909.993	14708
910.108	14648
910.224	14655
910.339	14606
910.454	14571
910.57	14526
910.685	14385
910.8	14629
910.915	14693
911.03	14610
911.145	14351
911.259	14343
911.374	14309
911.489	14294
911.604	14202
911.718	14134
911.833	14103
911.947	13928
912.062	13841
912.176	13974
912.291	13997
912.405	13970
912.519	14237
912.633	14206
912.748	14077
912.862	13993
912.976	13856
913.09	13826
913.204	13757
913.318	13875
913.431	14012
913.545	13849
913.659	13936
913.772	13780
913.886	13761
914	13784
914.113	13845
914.226	13788
914.34	13715
914.453	13590
914.566	13753
914.68	13613
914.793	13556
914.906	13430
915.019	13228
915.132	13293
915.245	13411
915.358	13419
915.47	13434
915.583	13324
915.696	13396
915.809	13548
915.921	13464
916.034	13403
916.146	13346
916.259	13228
916.371	13400
916.483	13396
916.595	13278
916.708	13285
916.82	13339
916.932	13289
917.044	13301
917.156	13270
917.268	13187
917.38	13194
917.491	13122
917.603	13084
917.715	13244
917.826	13194
917.938	13065
918.049	12897
918.161	13072
918.272	13129
918.384	13225
918.495	13091
918.606	12882
918.717	12878
918.828	12905
918.939	12894
919.05	12776
919.161	12825
919.272	12631
919.383	12840
919.494	12875
919.604	12913
919.715	12886
919.826	12787
919.936	12779
920.047	12928
920.157	12859
920.267	13065
920.378	12871
920.488	12821
920.598	13118
920.708	13179
920.818	13046
920.928	12996
921.038	13099
921.148	13072
921.258	12681
921.368	12696
921.477	12631
921.587	12620
921.697	12391
921.806	12578
921.916	12483
922.025	12247
922.134	12205
922.244	12197
922.353	12232
922.462	12140
922.571	12030
922.68	11961
922.789	11961
922.898	11927
923.007	11874
923.116	12011
923.224	11912
923.333	11935
923.442	11729
923.55	11756
923.659	11786
923.767	11794
923.876	11707
923.984	11802
924.092	11646
924.201	11760
924.309	11775
924.417	11630
924.525	11623
924.633	11634
924.741	12334
924.849	11467
924.956	11608
925.064	11452
925.172	11360
925.279	11433
925.387	11395
925.494	11417
925.602	11532
925.709	11482
925.816	11307
925.924	11395
926.031	11455
926.138	11353
926.245	11387
926.352	11303
926.459	11467
926.566	11463
926.673	11277
926.779	11242
926.886	11208
926.993	11067
927.099	11045
927.206	10904
927.312	11041
927.419	11132
927.525	11113
927.631	11056
927.737	10949
927.843	10862
927.95	10824
928.056	10927
928.162	10873
928.267	10869
928.373	11433
928.479	10946
928.585	10816
928.69	10938
928.796	10934
928.901	10805
929.007	10679
929.112	10816
929.218	10702
929.323	10694
929.428	10664
929.533	10824
929.638	10599
929.743	10580
929.848	10725
929.953	10577
930.058	10508
930.163	10394
930.267	10360
930.372	10512
930.477	10348
930.581	10577
930.685	10390
930.79	10211
930.894	10375
930.998	10310
931.103	10405
931.207	9998
931.311	9941
931.415	9880
931.519	9663
931.623	9663
