Data from test_V78500241_104.txt Node
Date: Fri Mar 25 14:34:26 CST 2022
User: usil
Spectrometer: V785-0024
Trigger mode: 0
Integration Time (sec): 4.000000E-1
Scans to average: 1
Nonlinearity correction enabled: false
Boxcar width: 0
Storing dark spectrum: false
XAxis mode: Wavelengths
Number of Pixels in Spectrum: 1024
>>>>>Begin Spectral Data<<<<<
801.071	29395
801.214	29315
801.356	29200
801.499	29181
801.641	28786
801.783	28927
801.926	28809
802.068	28888
802.211	28809
802.353	28733
802.496	28577
802.638	28588
802.78	28580
802.923	28565
803.065	28428
803.208	28573
803.35	28672
803.492	28649
803.635	28793
803.777	28634
803.919	28748
804.061	29113
804.204	28888
804.346	28877
804.488	28725
804.63	28831
804.773	28710
804.915	28790
805.057	28942
805.199	28892
805.341	28915
805.483	29056
805.626	29033
805.768	28984
805.91	29094
806.052	29094
806.194	29117
806.336	29307
806.478	29322
806.62	29299
806.762	29452
806.904	29699
807.046	29783
807.188	29977
807.33	30060
807.472	30315
807.614	30346
807.756	30749
807.898	30992
808.04	31289
808.182	31944
808.324	32343
808.465	33466
808.607	34325
808.749	35136
808.891	35634
809.033	35680
809.174	35094
809.316	34238
809.458	33458
809.6	32381
809.741	31837
809.883	31449
810.025	31091
810.166	30673
810.308	30486
810.45	30384
810.591	30163
810.733	29893
810.875	29790
811.016	29630
811.158	29463
811.299	29707
811.441	29771
811.582	29665
811.724	29547
811.865	29474
812.007	29509
812.148	29330
812.29	29543
812.431	29615
812.573	29741
812.714	29684
812.855	29836
812.997	29828
813.138	29893
813.279	30053
813.421	29885
813.562	29642
813.703	29570
813.845	29414
813.986	29147
814.127	28957
814.268	28801
814.41	28957
814.551	28847
814.692	28938
814.833	28782
814.974	28664
815.115	28698
815.256	28588
815.397	28664
815.539	28660
815.68	28424
815.821	28462
815.962	28455
816.103	28360
816.244	28230
816.385	28257
816.526	28162
816.666	28177
816.807	27759
816.948	27918
817.089	27937
817.23	27888
817.371	27899
817.512	27770
817.653	27846
817.793	27770
817.934	27907
818.075	27850
818.216	27797
818.356	27717
818.497	27641
818.638	27572
818.778	27523
818.919	27523
819.06	27534
819.2	27698
819.341	27713
819.481	27705
819.622	27945
819.762	28063
819.903	28059
820.043	28010
820.184	27930
820.324	27736
820.465	27926
820.605	27842
820.746	27705
820.886	27545
821.026	27679
821.167	27793
821.307	27861
821.447	27682
821.588	27603
821.728	27351
821.868	27287
822.008	27154
822.149	27024
822.289	27055
822.429	26872
822.569	26735
822.709	26697
822.849	26670
822.99	26606
823.13	26480
823.27	26453
823.41	26434
823.55	26172
823.69	26248
823.83	26393
823.97	26294
824.11	26050
824.25	26016
824.389	26134
824.529	26317
824.669	26100
824.809	26172
824.949	26145
825.089	26145
825.228	26164
825.368	25887
825.508	25875
825.648	25970
825.787	26016
825.927	25982
826.067	25750
826.206	25769
826.346	26050
826.485	25928
826.625	25852
826.765	26031
826.904	25845
827.044	25658
827.183	25651
827.323	25544
827.462	25620
827.601	25552
827.741	25655
827.88	25635
828.02	25430
828.159	25479
828.298	25464
828.437	25460
828.577	25453
828.716	25594
828.855	25422
828.994	25316
829.134	25236
829.273	25225
829.412	25148
829.551	25114
829.69	25179
829.829	25110
829.968	25156
830.107	25240
830.246	25179
830.385	25072
830.524	25129
830.663	25031
830.802	24871
830.941	24745
831.08	24833
831.219	24772
831.357	24757
831.496	25038
831.635	24783
831.774	24521
831.913	24669
832.051	24566
832.19	24494
832.329	24528
832.467	24441
832.606	24270
832.744	24445
832.883	24479
833.022	24388
833.16	24483
833.299	24433
833.437	24460
833.576	24635
833.714	24646
833.852	24760
833.991	24825
834.129	24837
834.267	24848
834.406	24707
834.544	24791
834.682	24646
834.821	24509
834.959	24722
835.097	24563
835.235	24448
835.373	24494
835.511	24509
835.65	24285
835.788	24422
835.926	24125
836.064	23969
836.202	24266
836.34	24254
836.478	24292
836.615	24235
836.753	24254
836.891	24292
837.029	24216
837.167	24076
837.305	24125
837.443	23939
837.58	23935
837.718	24155
837.856	23923
837.993	23904
838.131	24053
838.269	23946
838.406	23912
838.544	23851
838.681	23543
838.819	23630
838.956	23474
839.094	23440
839.231	23360
839.369	23547
839.506	23729
839.643	23634
839.781	23395
839.918	23376
840.055	23356
840.193	23383
840.33	23376
840.467	23254
840.604	23398
840.742	23699
840.879	23067
841.016	23436
841.153	23292
841.29	23406
841.427	23273
841.564	23311
841.701	23284
841.838	23067
841.975	23246
842.112	23151
842.249	23056
842.385	23064
842.522	23288
842.659	23094
842.796	23003
842.933	23094
843.069	23109
843.206	23006
843.343	23147
843.479	22942
843.616	23037
843.752	22949
843.889	22949
844.025	22968
844.162	22866
844.298	23010
844.435	23041
844.571	22889
844.708	23147
844.844	23284
844.98	23463
845.117	23516
845.253	23611
845.389	24026
845.525	24890
845.661	26183
845.798	28150
845.934	29501
846.07	30087
846.206	29916
846.342	28748
846.478	26868
846.614	25164
846.75	24030
846.886	23398
847.022	22972
847.158	22908
847.294	22729
847.429	22424
847.565	22402
847.701	22527
847.837	22048
847.972	22055
848.108	21972
848.244	22135
848.379	21835
848.515	21816
848.65	21690
848.786	21835
848.921	21793
849.057	21846
849.192	21781
849.328	21797
849.463	21766
849.598	21736
849.734	21648
849.869	21549
850.004	21610
850.14	21530
850.275	21660
850.41	21351
850.545	21473
850.68	21412
850.815	21416
850.95	21511
851.085	21637
851.22	21507
851.355	21637
851.49	21519
851.625	21443
851.76	21523
851.895	21519
852.03	21424
852.165	21526
852.299	21443
852.434	21599
852.569	21500
852.703	21549
852.838	21591
852.973	21625
853.107	21591
853.242	21431
853.376	21389
853.511	21256
853.645	21397
853.78	21374
853.914	21393
854.048	21348
854.183	21405
854.317	21405
854.451	21656
854.585	21405
854.72	21336
854.854	21515
854.988	21405
855.122	21363
855.256	21138
855.39	21226
855.524	21485
855.658	21306
855.792	21439
855.926	21393
856.06	21317
856.194	21416
856.327	21313
856.461	21173
856.595	21222
856.729	21203
856.862	21466
856.996	21256
857.13	21389
857.263	21587
857.397	21294
857.53	21245
857.664	21169
857.797	21237
857.931	21359
858.064	21211
858.197	21211
858.331	21230
858.464	21272
858.597	21165
858.731	21173
858.864	21203
858.997	21131
859.13	21207
859.263	21195
859.396	21359
859.529	21131
859.662	21142
859.795	21207
859.928	21173
860.061	21294
860.194	21260
860.327	21218
860.46	21138
860.592	21176
860.725	21264
860.858	21245
860.99	21146
861.123	21096
861.256	21131
861.388	21135
861.521	21682
861.653	21017
861.786	20990
861.918	21085
862.05	21150
862.183	21184
862.315	21233
862.447	21325
862.58	21100
862.712	21085
862.844	20880
862.976	20921
863.108	20956
863.24	21249
863.372	20792
863.504	20735
863.636	20807
863.768	20925
863.9	20914
864.032	20785
864.164	20796
864.296	20857
864.428	20861
864.559	20921
864.691	20963
864.823	20880
864.954	20765
865.086	20880
865.217	20697
865.349	20762
865.48	20781
865.612	20693
865.743	20826
865.875	20644
866.006	20636
866.137	20727
866.269	20777
866.4	20727
866.531	20651
866.662	20560
866.793	20670
866.924	20655
867.055	20743
867.186	20663
867.317	20598
867.448	20507
867.579	20602
867.71	20514
867.841	20697
867.972	20621
868.103	20552
868.233	20663
868.364	20674
868.495	20693
868.625	20887
868.756	20941
868.886	20746
869.017	20853
869.147	21009
869.278	21100
869.408	21058
869.539	20838
869.669	20986
869.799	20804
869.929	21062
870.06	20975
870.19	21233
870.32	21180
870.45	21180
870.58	21351
870.71	21325
870.84	21344
870.97	21211
871.1	21272
871.23	21351
871.36	21492
871.489	21519
871.619	21374
871.749	21469
871.879	21545
872.008	21580
872.138	21538
872.267	21519
872.397	21374
872.526	21450
872.656	21382
872.785	21313
872.915	21549
873.044	21736
873.173	21553
873.303	21652
873.432	21679
873.561	21698
873.69	21519
873.819	21568
873.948	21743
874.077	21580
874.206	21637
874.335	21595
874.464	21915
874.593	21888
874.722	21774
874.851	21975
874.979	21918
875.108	22036
875.237	21941
875.365	21857
875.494	21949
875.623	21941
875.751	21926
875.88	21972
876.008	22154
876.136	22234
876.265	22428
876.393	22424
876.521	22512
876.65	22584
876.778	22413
876.906	22470
877.034	22363
877.162	22443
877.29	22447
877.418	22577
877.546	22508
877.674	22569
877.802	22675
877.93	22683
878.058	22622
878.185	22584
878.313	22698
878.441	23098
878.568	22911
878.696	23079
878.824	23360
878.951	23764
879.079	24095
879.206	24787
879.333	25278
879.461	25712
879.588	26126
879.715	25963
879.842	25970
879.97	25240
880.097	24483
880.224	24072
880.351	23889
880.478	23509
880.605	23337
880.732	23220
880.859	23345
880.986	23200
881.112	23391
881.239	22892
881.366	22900
881.493	22847
881.619	22835
881.746	22759
881.872	22839
881.999	22786
882.125	22668
882.252	22889
882.378	22713
882.505	22824
882.631	22611
882.757	22478
882.883	22577
883.01	22428
883.136	22424
883.262	22485
883.388	22253
883.514	22436
883.64	22550
883.766	22489
883.892	22246
884.018	22284
884.143	22493
884.269	22637
884.395	22230
884.52	22181
884.646	22067
884.772	22090
884.897	22078
885.023	22131
885.148	22150
885.274	22272
885.399	22162
885.524	22196
885.65	22124
885.775	21968
885.9	21892
886.025	21972
886.15	21945
886.275	21751
886.4	21751
886.525	21717
886.65	21606
886.775	21587
886.9	21698
887.025	21781
887.149	21500
887.274	21340
887.399	21313
887.523	21313
887.648	21264
887.773	21173
887.897	21252
888.021	21291
888.146	21135
888.27	21184
888.395	21287
888.519	21093
888.643	21241
888.767	21199
888.891	21043
889.015	20979
889.139	20941
889.263	20910
889.387	20914
889.511	21112
889.635	21017
889.759	20880
889.883	20758
890.006	20861
890.13	20918
890.254	20743
890.377	20667
890.501	20499
890.624	20617
890.748	20598
890.871	20454
890.995	20271
891.118	20229
891.241	20298
891.364	20233
891.488	20450
891.611	20328
891.734	20301
891.857	20221
891.98	20256
892.103	20324
892.226	20225
892.349	20195
892.471	20077
892.594	20157
892.717	20069
892.839	20020
892.962	20145
893.085	20199
893.207	20122
893.33	20020
893.452	19875
893.575	20043
893.697	20008
893.819	20195
893.941	20221
894.064	20130
894.186	19967
894.308	19902
894.43	20115
894.552	20248
894.674	20210
894.796	19822
894.918	19955
895.04	20043
895.161	20043
895.283	20005
895.405	19944
895.526	19887
895.648	19947
895.769	19989
895.891	20103
896.012	20027
896.134	19978
896.255	19928
896.376	20012
896.498	19868
896.619	20062
896.74	19967
896.861	20115
896.982	20233
897.103	20278
897.224	20199
897.345	20202
897.466	20077
897.587	20126
897.708	20275
897.828	20115
897.949	20107
898.07	19902
898.19	20054
898.311	20153
898.431	19932
898.552	19944
898.672	20084
898.792	20149
898.913	20012
899.033	19833
899.153	19776
899.273	19746
899.393	19772
899.513	19780
899.633	19731
899.753	19830
899.873	19655
899.993	19814
900.113	19765
900.232	19830
900.352	19616
900.472	19578
900.591	19537
900.711	19643
900.83	19609
900.95	19696
901.069	19651
901.189	19540
901.308	19133
901.427	19263
901.546	19206
901.665	19183
901.784	19221
901.904	19072
902.023	18871
902.141	18741
902.26	18620
902.379	18734
902.498	18612
902.617	18623
902.735	18635
902.854	18604
902.973	18532
903.091	18262
903.21	18292
903.328	18281
903.446	18186
903.565	18186
903.683	18076
903.801	18030
903.919	18041
904.038	17973
904.156	17878
904.274	17958
904.392	17847
904.51	17855
904.627	17889
904.745	17859
904.863	17893
904.981	17642
905.098	17505
905.216	17505
905.334	17509
905.451	17516
905.569	17539
905.686	17623
905.803	17452
905.921	17318
906.038	17410
906.155	17303
906.272	17170
906.389	17220
906.506	17155
906.623	17117
906.74	17014
906.857	17029
906.974	16953
907.091	17056
907.208	17132
907.324	17109
907.441	16889
907.557	16908
907.674	16725
907.79	16672
907.907	16725
908.023	16687
908.139	16683
908.256	16672
908.372	16592
908.488	16558
908.604	16538
908.72	16481
908.836	16432
908.952	16348
909.068	16523
909.184	16561
909.3	16367
909.415	16382
909.531	16394
909.647	16112
909.762	16215
909.878	16154
909.993	16192
910.108	16147
910.224	16116
910.339	16131
910.454	15987
910.57	15888
910.685	15835
910.8	16124
910.915	16173
911.03	15915
911.145	15709
911.259	15698
911.374	15686
911.489	15644
911.604	15614
911.718	15496
911.833	15469
911.947	15325
912.062	15336
912.176	15363
912.291	15488
912.405	15458
912.519	15610
912.633	15610
912.748	15553
912.862	15458
912.976	15283
913.09	15104
913.204	15241
913.318	15218
913.431	15256
913.545	15272
913.659	15275
913.772	15233
913.886	15157
914	15157
914.113	15093
914.226	15275
914.34	15112
914.453	15070
914.566	15180
914.68	15001
914.793	14880
914.906	14765
915.019	14689
915.132	14686
915.245	14743
915.358	14746
915.47	14739
915.583	14823
915.696	14712
915.809	14838
915.921	14876
916.034	14720
916.146	14651
916.259	14644
916.371	14697
916.483	14590
916.595	14575
916.708	14552
916.82	14541
916.932	14583
917.044	14480
917.156	14522
917.268	14404
917.38	14488
917.491	14377
917.603	14370
917.715	14355
917.826	14450
917.938	14355
918.049	14271
918.161	14320
918.272	14545
918.384	14423
918.495	14286
918.606	14180
918.717	14084
918.828	14069
918.939	14183
919.05	14008
919.161	14130
919.272	13951
919.383	14008
919.494	14130
919.604	14313
919.715	14168
919.826	13917
919.936	14062
920.047	14176
920.157	14039
920.267	14248
920.378	14103
920.488	14111
920.598	14187
920.708	14324
920.818	14191
920.928	14157
921.038	14332
921.148	14286
921.258	14001
921.368	13776
921.477	13818
921.587	13700
921.697	13628
921.806	13746
921.916	13620
922.025	13491
922.134	13400
922.244	13449
922.353	13502
922.462	13327
922.571	13152
922.68	13031
922.789	13042
922.898	13057
923.007	12981
923.116	13133
923.224	13027
923.333	13061
923.442	12981
923.55	12886
923.659	12897
923.767	12905
923.876	12817
923.984	12901
924.092	12814
924.201	12833
924.309	12920
924.417	12757
924.525	12700
924.633	12688
924.741	13620
924.849	12467
924.956	12734
925.064	12551
925.172	12467
925.279	12376
925.387	12494
925.494	12479
925.602	12684
925.709	12574
925.816	12403
925.924	12395
926.031	12585
926.138	12414
926.245	12460
926.352	12350
926.459	12490
926.566	12525
926.673	12342
926.779	12285
926.886	12285
926.993	12095
927.099	12114
927.206	11931
927.312	11999
927.419	12098
927.525	12003
927.631	12106
927.737	11965
927.843	11942
927.95	11737
928.056	11805
928.162	11889
928.267	11931
928.373	12445
928.479	11958
928.585	11741
928.69	11802
928.796	11828
928.901	11802
929.007	11600
929.112	11699
929.218	11714
929.323	11688
929.428	11581
929.533	11722
929.638	11577
929.743	11653
929.848	11627
929.953	11524
930.058	11482
930.163	11254
930.267	11402
930.372	11410
930.477	11258
930.581	11417
930.685	11372
930.79	11246
930.894	11261
930.998	11151
931.103	11261
931.207	10904
931.311	10866
931.415	10679
931.519	10573
931.623	10489
