Data from test_V78500241_3501.txt Node
Date: Fri Mar 25 14:58:05 CST 2022
User: usil
Spectrometer: V785-0024
Trigger mode: 0
Integration Time (sec): 4.000000E-1
Scans to average: 1
Nonlinearity correction enabled: false
Boxcar width: 0
Storing dark spectrum: false
XAxis mode: Wavelengths
Number of Pixels in Spectrum: 1024
>>>>>Begin Spectral Data<<<<<
801.071	21953
801.214	21656
801.356	21542
801.499	21515
801.641	21325
801.783	21176
801.926	21256
802.068	21150
802.211	21233
802.353	21047
802.496	20883
802.638	20777
802.78	20842
802.923	20678
803.065	20644
803.208	20598
803.35	20583
803.492	20655
803.635	20727
803.777	20575
803.919	20693
804.061	20857
804.204	20769
804.346	20594
804.488	20446
804.63	20606
804.773	20476
804.915	20503
805.057	20564
805.199	20461
805.341	20648
805.483	20644
805.626	20560
805.768	20465
805.91	20575
806.052	20655
806.194	20511
806.336	20731
806.478	20431
806.62	20583
806.762	20598
806.904	20792
807.046	20891
807.188	20826
807.33	20815
807.472	20861
807.614	20758
807.756	20804
807.898	20727
808.04	20621
808.182	20640
808.324	20636
808.465	20613
808.607	20792
808.749	20956
808.891	21009
809.033	21066
809.174	20952
809.316	20765
809.458	20834
809.6	20750
809.741	20971
809.883	20872
810.025	21005
810.166	20941
810.308	21081
810.45	20982
810.591	20910
810.733	20701
810.875	20606
811.016	20503
811.158	20492
811.299	20648
811.441	20796
811.582	20845
811.724	20594
811.865	20724
812.007	20537
812.148	20686
812.29	20625
812.431	20811
812.573	20937
812.714	21127
812.855	20998
812.997	21298
813.138	21325
813.279	21249
813.421	20921
813.562	21039
813.703	20857
813.845	20667
813.986	20450
814.127	20290
814.268	20336
814.41	20244
814.551	20157
814.692	20164
814.833	20172
814.974	20058
815.115	20145
815.256	20073
815.397	20039
815.539	20073
815.68	19856
815.821	19868
815.962	19932
816.103	19826
816.244	19776
816.385	19639
816.526	19628
816.666	19426
816.807	19343
816.948	19297
817.089	19449
817.23	19400
817.371	19297
817.512	19331
817.653	19259
817.793	19301
817.934	19381
818.075	19301
818.216	19274
818.356	19255
818.497	19076
818.638	19050
818.778	18989
818.919	18954
819.06	18993
819.2	19080
819.341	19179
819.481	19164
819.622	19327
819.762	19487
819.903	19441
820.043	19285
820.184	19308
820.324	19152
820.465	19365
820.605	19270
820.746	19255
820.886	19179
821.026	19183
821.167	19274
821.307	19297
821.447	19206
821.588	19179
821.728	19053
821.868	18829
822.008	18764
822.149	18692
822.289	18749
822.429	18479
822.569	18410
822.709	18418
822.849	18171
822.99	18205
823.13	18224
823.27	18216
823.41	18030
823.55	17859
823.69	18072
823.83	17920
823.97	17973
824.11	17726
824.25	17733
824.389	17859
824.529	17756
824.669	17790
824.809	17923
824.949	17863
825.089	17771
825.228	17851
825.368	17528
825.508	17493
825.648	17562
825.787	17646
825.927	17589
826.067	17600
826.206	17562
826.346	17459
826.485	17623
826.625	17471
826.765	17634
826.904	17581
827.044	17337
827.183	17318
827.323	17109
827.462	17337
827.601	17254
827.741	17277
827.88	17181
828.02	17109
828.159	17254
828.298	17277
828.437	17318
828.577	17124
828.716	17459
828.855	17246
828.994	17045
829.134	17102
829.273	16984
829.412	16957
829.551	16968
829.69	17003
829.829	16972
829.968	17136
830.107	16965
830.246	17113
830.385	16938
830.524	16873
830.663	16812
830.802	16725
830.941	16554
831.08	16641
831.219	16672
831.357	16748
831.496	16900
831.635	16653
831.774	16603
831.913	16634
832.051	16344
832.19	16306
832.329	16527
832.467	16417
832.606	16382
832.744	16234
832.883	16154
833.022	16360
833.16	16238
833.299	16299
833.437	16299
833.576	16390
833.714	16325
833.852	16352
833.991	16363
834.129	16459
834.267	16443
834.406	16291
834.544	16386
834.682	16451
834.821	16413
834.959	16459
835.097	16314
835.235	16500
835.373	16348
835.511	16451
835.65	16280
835.788	16166
835.926	16257
836.064	16105
836.202	16215
836.34	16318
836.478	16455
836.615	16242
836.753	16375
836.891	16432
837.029	16265
837.167	16238
837.305	16318
837.443	16173
837.58	16124
837.718	16276
837.856	16181
837.993	16154
838.131	16276
838.269	16105
838.406	16173
838.544	16101
838.681	15907
838.819	15911
838.956	15766
839.094	15732
839.231	15800
839.369	15895
839.506	16013
839.643	15937
839.781	15797
839.918	15637
840.055	15762
840.193	15747
840.33	15701
840.467	15781
840.604	15759
840.742	15899
840.879	15648
841.016	15656
841.153	15663
841.29	15911
841.427	15766
841.564	15827
841.701	15755
841.838	15682
841.975	15698
842.112	15606
842.249	15587
842.385	15397
842.522	15675
842.659	15477
842.796	15477
842.933	15466
843.069	15462
843.206	15397
843.343	15629
843.479	15439
843.616	15492
843.752	15336
843.889	15302
844.025	15416
844.162	15256
844.298	15424
844.435	15268
844.571	15230
844.708	15298
844.844	15473
844.98	15500
845.117	15336
845.253	15195
845.389	15275
845.525	15203
845.661	15192
845.798	15062
845.934	15169
846.07	15112
846.206	15100
846.342	15230
846.478	15093
846.614	14948
846.75	14895
846.886	14891
847.022	14941
847.158	14918
847.294	14826
847.429	14880
847.565	14918
847.701	15165
847.837	14670
847.972	14651
848.108	14746
848.244	14621
848.379	14549
848.515	14438
848.65	14431
848.786	14450
848.921	14507
849.057	14610
849.192	14583
849.328	14492
849.463	14465
849.598	14457
849.734	14332
849.869	14320
850.004	14328
850.14	14267
850.275	14225
850.41	14183
850.545	14168
850.68	14229
850.815	14210
850.95	14187
851.085	14484
851.22	14332
851.355	14282
851.49	14107
851.625	14202
851.76	14096
851.895	14168
852.03	14126
852.165	14286
852.299	14320
852.434	14298
852.569	14286
852.703	14267
852.838	14286
852.973	14431
853.107	14317
853.242	14275
853.376	14103
853.511	13986
853.645	14031
853.78	14248
853.914	14210
854.048	14130
854.183	14058
854.317	14100
854.451	14294
854.585	14100
854.72	14107
854.854	14286
854.988	14035
855.122	14077
855.256	13978
855.39	14123
855.524	14161
855.658	14199
855.792	14077
855.926	14187
856.06	14168
856.194	14233
856.327	14084
856.461	14145
856.595	14073
856.729	14115
856.862	14153
856.996	14126
857.13	14123
857.263	14240
857.397	14214
857.53	14092
857.664	14183
857.797	14237
857.931	14271
858.064	14111
858.197	14256
858.331	14142
858.464	14069
858.597	13986
858.731	14107
858.864	14142
858.997	14046
859.13	14069
859.263	14252
859.396	14225
859.529	14111
859.662	14115
859.795	14081
859.928	14172
860.061	14259
860.194	14358
860.327	14130
860.46	14046
860.592	14164
860.725	14233
860.858	14256
860.99	14062
861.123	14001
861.256	14077
861.388	14107
861.521	14937
861.653	13963
861.786	13955
861.918	14008
862.05	14016
862.183	14130
862.315	14206
862.447	14233
862.58	14046
862.712	13906
862.844	13967
862.976	14039
863.108	13917
863.24	14381
863.372	13769
863.504	13928
863.636	13890
863.768	13951
863.9	13959
864.032	13837
864.164	13902
864.296	13925
864.428	13917
864.559	13967
864.691	13993
864.823	14069
864.954	13951
865.086	13925
865.217	13837
865.349	13818
865.48	13879
865.612	13944
865.743	14088
865.875	13887
866.006	13784
866.137	13887
866.269	13830
866.4	13879
866.531	13913
866.662	13799
866.793	13849
866.924	13860
867.055	13928
867.186	13871
867.317	13868
867.448	13731
867.579	13814
867.71	13750
867.841	13917
867.972	13837
868.103	13879
868.233	13951
868.364	13932
868.495	13970
868.625	14065
868.756	14244
868.886	14008
869.017	14202
869.147	14240
869.278	14317
869.408	14161
869.539	14157
869.669	14267
869.799	14069
869.929	14317
870.06	14278
870.19	14450
870.32	14396
870.45	14404
870.58	14541
870.71	14587
870.84	14499
870.97	14556
871.1	14533
871.23	14830
871.36	14716
871.489	14579
871.619	14727
871.749	14727
871.879	14811
872.008	14823
872.138	14720
872.267	14777
872.397	14587
872.526	14590
872.656	14545
872.785	14507
872.915	14644
873.044	14811
873.173	14849
873.303	14800
873.432	14842
873.561	14918
873.69	14788
873.819	14838
873.948	14891
874.077	14735
874.206	14807
874.335	14895
874.464	14971
874.593	15142
874.722	15032
874.851	15233
874.979	15135
875.108	15112
875.237	15055
875.365	15051
875.494	15089
875.623	15142
875.751	15100
875.88	15058
876.008	15310
876.136	15382
876.265	15633
876.393	15663
876.521	15519
876.65	15603
876.778	15591
876.906	15538
877.034	15526
877.162	15515
877.29	15530
877.418	15523
877.546	15462
877.674	15515
877.802	15530
877.93	15584
878.058	15458
878.185	15378
878.313	15504
878.441	15545
878.568	15374
878.696	15450
878.824	15667
878.951	15618
879.079	15755
879.206	15903
879.333	15625
879.461	15652
879.588	15732
879.715	15751
879.842	15854
879.97	15625
880.097	15374
880.224	15344
880.351	15412
880.478	15416
880.605	15306
880.732	15298
880.859	15507
880.986	15389
881.112	15439
881.239	15272
881.366	15222
881.493	15180
881.619	15051
881.746	15104
881.872	15176
881.999	15074
882.125	15036
882.252	15138
882.378	15226
882.505	15241
882.631	15093
882.757	14826
882.883	14986
883.01	14834
883.136	14807
883.262	14670
883.388	14701
883.514	14918
883.64	14982
883.766	14864
883.892	14625
884.018	14621
884.143	14754
884.269	14975
884.395	14575
884.52	14545
884.646	14583
884.772	14480
884.897	14415
885.023	14587
885.148	14674
885.274	14674
885.399	14667
885.524	14571
885.65	14575
885.775	14602
885.9	14617
886.025	14667
886.15	14579
886.275	14579
886.4	14522
886.525	14507
886.65	14568
886.775	14514
886.9	14682
887.025	14785
887.149	14594
887.274	14370
887.399	14290
887.523	14465
887.648	14358
887.773	14324
887.897	14511
888.021	14488
888.146	14282
888.27	14465
888.395	14598
888.519	14393
888.643	14473
888.767	14442
888.891	14347
889.015	14202
889.139	14317
889.263	14134
889.387	14400
889.511	14438
889.635	14446
889.759	14237
889.883	14336
890.006	14233
890.13	14336
890.254	14130
890.377	14149
890.501	14043
890.624	14050
890.748	14138
890.871	13947
890.995	14031
891.118	13856
891.241	13944
891.364	13997
891.488	13993
891.611	13921
891.734	13928
891.857	14024
891.98	13963
892.103	14084
892.226	14020
892.349	13906
892.471	13784
892.594	13894
892.717	13963
892.839	13944
892.962	13947
893.085	14001
893.207	13909
893.33	13883
893.452	13830
893.575	13944
893.697	13940
893.819	14142
893.941	14218
894.064	14149
894.186	13871
894.308	13940
894.43	14145
894.552	14176
894.674	14195
894.796	13974
894.918	14054
895.04	14100
895.161	14111
895.283	14050
895.405	13986
895.526	14050
895.648	14077
895.769	14065
895.891	14202
896.012	14183
896.134	14115
896.255	14138
896.376	14096
896.498	14149
896.619	14157
896.74	14111
896.861	14134
896.982	14503
897.103	14644
897.224	14423
897.345	14446
897.466	14267
897.587	14442
897.708	14598
897.828	14476
897.949	14408
898.07	14358
898.19	14454
898.311	14541
898.431	14530
898.552	14533
898.672	14549
898.792	14594
898.913	14556
899.033	14454
899.153	14301
899.273	14313
899.393	14305
899.513	14408
899.633	14294
899.753	14355
899.873	14259
899.993	14366
900.113	14408
900.232	14381
900.352	14294
900.472	14210
900.591	14180
900.711	14218
900.83	14157
900.95	14286
901.069	14278
901.189	14126
901.308	13913
901.427	13856
901.546	13940
901.665	13913
901.784	13932
901.904	13788
902.023	13731
902.141	13460
902.26	13487
902.379	13525
902.498	13533
902.617	13331
902.735	13453
902.854	13430
902.973	13392
903.091	13168
903.21	13107
903.328	13190
903.446	13069
903.565	12993
903.683	13099
903.801	12962
903.919	12985
904.038	13050
904.156	12882
904.274	12947
904.392	12768
904.51	12783
904.627	12837
904.745	12867
904.863	12886
904.981	12623
905.098	12517
905.216	12544
905.334	12582
905.451	12593
905.569	12506
905.686	12506
905.803	12563
905.921	12369
906.038	12475
906.155	12258
906.272	12220
906.389	12357
906.506	12171
906.623	12133
906.74	12068
906.857	11954
906.974	12011
907.091	12281
907.208	12243
907.324	12148
907.441	12083
907.557	11908
907.674	11851
907.79	11840
907.907	11912
908.023	11958
908.139	11783
908.256	11805
908.372	11847
908.488	11752
908.604	11745
908.72	11604
908.836	11638
908.952	11642
909.068	11668
909.184	11767
909.3	11619
909.415	11661
909.531	11710
909.647	11516
909.762	11353
909.878	11421
909.993	11444
910.108	11444
910.224	11467
910.339	11322
910.454	11318
910.57	11296
910.685	11246
910.8	11448
910.915	11448
911.03	11334
911.145	11212
911.259	11094
911.374	11235
911.489	11056
911.604	11003
911.718	10900
911.833	10915
911.947	10740
912.062	10725
912.176	10831
912.291	11006
912.405	10953
912.519	11075
912.633	11071
912.748	11052
912.862	10892
912.976	10736
913.09	10645
913.204	10714
913.318	10805
913.431	10930
913.545	10881
913.659	10919
913.772	10843
913.886	10721
914	10637
914.113	10809
914.226	10809
914.34	10858
914.453	10599
914.566	10752
914.68	10622
914.793	10637
914.906	10455
915.019	10451
915.132	10344
915.245	10382
915.358	10447
915.47	10489
915.583	10485
915.696	10519
915.809	10580
915.921	10615
916.034	10382
916.146	10405
916.259	10352
916.371	10497
916.483	10428
916.595	10325
916.708	10287
916.82	10337
916.932	10402
917.044	10382
917.156	10344
917.268	10234
917.38	10284
917.491	10249
917.603	10329
917.715	10329
917.826	10356
917.938	10227
918.049	10162
918.161	10268
918.272	10375
918.384	10405
918.495	10291
918.606	10097
918.717	10112
918.828	10124
918.939	10147
919.05	10128
919.161	10074
919.272	9968
919.383	10010
919.494	10135
919.604	10375
919.715	10147
919.826	10112
919.936	10128
920.047	10204
920.157	10147
920.267	10363
920.378	10253
920.488	10135
920.598	10329
920.708	10512
920.818	10303
920.928	10268
921.038	10432
921.148	10474
921.258	10215
921.368	10166
921.477	9983
921.587	9991
921.697	9922
921.806	10074
921.916	9873
922.025	9701
922.134	9675
922.244	9644
922.353	9743
922.462	9663
922.571	9576
922.68	9382
922.789	9329
922.898	9450
923.007	9313
923.116	9401
923.224	9428
923.333	9431
923.442	9336
923.55	9272
923.659	9317
923.767	9351
923.876	9245
923.984	9336
924.092	9173
924.201	9279
924.309	9275
924.417	9313
924.525	9226
924.633	9253
924.741	9998
924.849	9047
924.956	9237
925.064	9100
925.172	8990
925.279	9001
925.387	9077
925.494	9055
925.602	9275
925.709	9150
925.816	9028
925.924	9051
926.031	9131
926.138	9055
926.245	9161
926.352	8979
926.459	9150
926.566	9199
926.673	9062
926.779	8921
926.886	8914
926.993	8845
927.099	8823
927.206	8796
927.312	8708
927.419	8826
927.525	8830
927.631	8823
927.737	8708
927.843	8678
927.95	8537
928.056	8674
928.162	8678
928.267	8769
928.373	9336
928.479	8781
928.585	8579
928.69	8670
928.796	8735
928.901	8579
929.007	8522
929.112	8590
929.218	8564
929.323	8507
929.428	8476
929.533	8625
929.638	8454
929.743	8473
929.848	8492
929.953	8545
930.058	8355
930.163	8237
930.267	8320
930.372	8438
930.477	8259
930.581	8514
930.685	8362
930.79	8229
930.894	8279
930.998	8199
931.103	8332
931.207	7997
931.311	8016
931.415	7856
931.519	7715
931.623	7761
