Data from test_V78500241_2253.txt Node
Date: Fri Mar 25 14:49:24 CST 2022
User: usil
Spectrometer: V785-0024
Trigger mode: 0
Integration Time (sec): 4.000000E-1
Scans to average: 1
Nonlinearity correction enabled: false
Boxcar width: 0
Storing dark spectrum: false
XAxis mode: Wavelengths
Number of Pixels in Spectrum: 1024
>>>>>Begin Spectral Data<<<<<
801.071	22181
801.214	22002
801.356	21827
801.499	21603
801.641	21705
801.783	21603
801.926	21504
802.068	21412
802.211	21401
802.353	21405
802.496	21150
802.638	20944
802.78	21017
802.923	20910
803.065	20864
803.208	20861
803.35	20971
803.492	20998
803.635	21062
803.777	20868
803.919	20986
804.061	21218
804.204	20948
804.346	20842
804.488	20750
804.63	20861
804.773	20826
804.915	20861
805.057	20941
805.199	20838
805.341	20823
805.483	20971
805.626	20914
805.768	20727
805.91	20849
806.052	20868
806.194	20750
806.336	20998
806.478	20750
806.62	20629
806.762	20845
806.904	20902
807.046	21176
807.188	21104
807.33	21001
807.472	21127
807.614	20956
807.756	21119
807.898	20918
808.04	20956
808.182	20963
808.324	20910
808.465	20929
808.607	21089
808.749	21142
808.891	21230
809.033	21355
809.174	21264
809.316	21112
809.458	21287
809.6	21180
809.741	21233
809.883	21340
810.025	21401
810.166	21355
810.308	21275
810.45	21245
810.591	21272
810.733	21039
810.875	20933
811.016	20857
811.158	20868
811.299	21036
811.441	21268
811.582	21096
811.724	20921
811.865	20872
812.007	20891
812.148	20941
812.29	21013
812.431	21138
812.573	21256
812.714	21393
812.855	21526
812.997	21591
813.138	21625
813.279	21473
813.421	21325
813.562	21363
813.703	21268
813.845	21207
813.986	20849
814.127	20651
814.268	20499
814.41	20533
814.551	20571
814.692	20480
814.833	20495
814.974	20324
815.115	20514
815.256	20336
815.397	20347
815.539	20336
815.68	20259
815.821	20229
815.962	20259
816.103	20221
816.244	20035
816.385	19997
816.526	19917
816.666	19784
816.807	19635
816.948	19677
817.089	19807
817.23	19734
817.371	19712
817.512	19643
817.653	19559
817.793	19628
817.934	19658
818.075	19647
818.216	19575
818.356	19594
818.497	19499
818.638	19270
818.778	19346
818.919	19247
819.06	19320
819.2	19441
819.341	19518
819.481	19453
819.622	19616
819.762	19830
819.903	19727
820.043	19552
820.184	19674
820.324	19677
820.465	19696
820.605	19601
820.746	19594
820.886	19476
821.026	19605
821.167	19605
821.307	19685
821.447	19449
821.588	19506
821.728	19274
821.868	19069
822.008	19015
822.149	19084
822.289	19008
822.429	18791
822.569	18692
822.709	18741
822.849	18479
822.99	18635
823.13	18395
823.27	18452
823.41	18232
823.55	18308
823.69	18357
823.83	18163
823.97	18239
824.11	18076
824.25	18060
824.389	18072
824.529	18038
824.669	18060
824.809	18205
824.949	18205
825.089	18197
825.228	18064
825.368	17935
825.508	17897
825.648	17889
825.787	17908
825.927	17855
826.067	17794
826.206	17863
826.346	17843
826.485	17802
826.625	17699
826.765	17870
826.904	17832
827.044	17596
827.183	17615
827.323	17490
827.462	17646
827.601	17501
827.741	17589
827.88	17516
828.02	17463
828.159	17372
828.298	17440
828.437	17570
828.577	17596
828.716	17608
828.855	17543
828.994	17318
829.134	17337
829.273	17376
829.412	17322
829.551	17159
829.69	17200
829.829	17307
829.968	17383
830.107	17341
830.246	17345
830.385	17326
830.524	17261
830.663	17041
830.802	17025
830.941	16831
831.08	16866
831.219	16995
831.357	17029
831.496	17105
831.635	16828
831.774	16736
831.913	16869
832.051	16653
832.19	16675
832.329	16763
832.467	16508
832.606	16542
832.744	16489
832.883	16523
833.022	16577
833.16	16664
833.299	16626
833.437	16577
833.576	16538
833.714	16573
833.852	16668
833.991	16694
834.129	16679
834.267	16698
834.406	16538
834.544	16542
834.682	16656
834.821	16656
834.959	16835
835.097	16618
835.235	16710
835.373	16713
835.511	16535
835.65	16462
835.788	16500
835.926	16390
836.064	16428
836.202	16344
836.34	16497
836.478	16641
836.615	16535
836.753	16542
836.891	16573
837.029	16565
837.167	16538
837.305	16523
837.443	16428
837.58	16329
837.718	16432
837.856	16394
837.993	16352
838.131	16424
838.269	16314
838.406	16268
838.544	16276
838.681	16101
838.819	16090
838.956	15819
839.094	15934
839.231	15915
839.369	15945
839.506	16287
839.643	16223
839.781	15930
839.918	15895
840.055	15975
840.193	15842
840.33	15835
840.467	15930
840.604	16013
840.742	16116
840.879	15785
841.016	15831
841.153	15819
841.29	15953
841.427	15945
841.564	16006
841.701	15968
841.838	15915
841.975	15823
842.112	15842
842.249	15747
842.385	15614
842.522	15789
842.659	15713
842.796	15762
842.933	15690
843.069	15667
843.206	15652
843.343	15766
843.479	15717
843.616	15705
843.752	15526
843.889	15545
844.025	15671
844.162	15488
844.298	15622
844.435	15462
844.571	15359
844.708	15515
844.844	15675
844.98	15671
845.117	15545
845.253	15408
845.389	15439
845.525	15359
845.661	15424
845.798	15298
845.934	15401
846.07	15199
846.206	15401
846.342	15447
846.478	15230
846.614	15218
846.75	15001
846.886	15005
847.022	15093
847.158	15024
847.294	14956
847.429	15108
847.565	14975
847.701	15298
847.837	14872
847.972	14792
848.108	14948
848.244	14876
848.379	14648
848.515	14632
848.65	14667
848.786	14705
848.921	14705
849.057	14754
849.192	14785
849.328	14724
849.463	14629
849.598	14727
849.734	14617
849.869	14518
850.004	14461
850.14	14404
850.275	14339
850.41	14385
850.545	14393
850.68	14374
850.815	14393
850.95	14400
851.085	14552
851.22	14526
851.355	14457
851.49	14393
851.625	14332
851.76	14377
851.895	14339
852.03	14233
852.165	14351
852.299	14469
852.434	14438
852.569	14434
852.703	14419
852.838	14461
852.973	14568
853.107	14469
853.242	14446
853.376	14313
853.511	14180
853.645	14199
853.78	14412
853.914	14225
854.048	14290
854.183	14278
854.317	14317
854.451	14503
854.585	14259
854.72	14252
854.854	14358
854.988	14214
855.122	14286
855.256	14084
855.39	14195
855.524	14476
855.658	14336
855.792	14343
855.926	14385
856.06	14396
856.194	14484
856.327	14244
856.461	14164
856.595	14290
856.729	14229
856.862	14415
856.996	14324
857.13	14419
857.263	14419
857.397	14412
857.53	14324
857.664	14305
857.797	14438
857.931	14412
858.064	14282
858.197	14431
858.331	14324
858.464	14218
858.597	14183
858.731	14267
858.864	14252
858.997	14305
859.13	14267
859.263	14290
859.396	14358
859.529	14183
859.662	14286
859.795	14298
859.928	14244
860.061	14431
860.194	14495
860.327	14290
860.46	14339
860.592	14412
860.725	14389
860.858	14393
860.99	14225
861.123	14229
861.256	14142
861.388	14240
861.521	14842
861.653	14035
861.786	14138
861.918	14065
862.05	14153
862.183	14195
862.315	14263
862.447	14389
862.58	14305
862.712	14031
862.844	14046
862.976	14062
863.108	14069
863.24	14400
863.372	14073
863.504	14031
863.636	13928
863.768	14123
863.9	14008
864.032	14031
864.164	13963
864.296	14081
864.428	14206
864.559	14081
864.691	14145
864.823	14058
864.954	14115
865.086	14138
865.217	13982
865.349	13978
865.48	14046
865.612	13982
865.743	14218
865.875	14115
866.006	13921
866.137	13986
866.269	14084
866.4	13978
866.531	14043
866.662	13898
866.793	14126
866.924	13986
867.055	14107
867.186	14058
867.317	13970
867.448	13951
867.579	13959
867.71	13974
867.841	13978
867.972	14096
868.103	14081
868.233	14069
868.364	14024
868.495	14027
868.625	14256
868.756	14389
868.886	14221
869.017	14298
869.147	14385
869.278	14419
869.408	14366
869.539	14305
869.669	14275
869.799	14370
869.929	14328
870.06	14389
870.19	14629
870.32	14655
870.45	14629
870.58	14636
870.71	14838
870.84	14807
870.97	14701
871.1	14629
871.23	14921
871.36	14895
871.489	14746
871.619	14788
871.749	14895
871.879	14910
872.008	15020
872.138	14941
872.267	14853
872.397	14735
872.526	14769
872.656	14655
872.785	14739
872.915	14872
873.044	14910
873.173	14910
873.303	14933
873.432	15093
873.561	14986
873.69	14994
873.819	14937
873.948	15047
874.077	14925
874.206	14933
874.335	14979
874.464	15051
874.593	15192
874.722	15241
874.851	15393
874.979	15325
875.108	15283
875.237	15317
875.365	15173
875.494	15199
875.623	15405
875.751	15321
875.88	15313
876.008	15431
876.136	15580
876.265	15618
876.393	15793
876.521	15751
876.65	15778
876.778	15663
876.906	15641
877.034	15603
877.162	15610
877.29	15644
877.418	15622
877.546	15614
877.674	15732
877.802	15698
877.93	15701
878.058	15572
878.185	15641
878.313	15637
878.441	15728
878.568	15572
878.696	15534
878.824	15728
878.951	15778
879.079	15724
879.206	15956
879.333	15899
879.461	15694
879.588	15766
879.715	15903
879.842	15956
879.97	15861
880.097	15458
880.224	15492
880.351	15610
880.478	15515
880.605	15401
880.732	15469
880.859	15656
880.986	15504
881.112	15507
881.239	15340
881.366	15249
881.493	15344
881.619	15142
881.746	15230
881.872	15097
881.999	15142
882.125	15169
882.252	15199
882.378	15325
882.505	15329
882.631	15180
882.757	14986
882.883	14994
883.01	14944
883.136	14910
883.262	14826
883.388	14796
883.514	14967
883.64	15062
883.766	14971
883.892	14777
884.018	14807
884.143	14990
884.269	14998
884.395	14754
884.52	14644
884.646	14655
884.772	14659
884.897	14640
885.023	14712
885.148	14777
885.274	14876
885.399	14849
885.524	14777
885.65	14686
885.775	14796
885.9	14613
886.025	14769
886.15	14796
886.275	14659
886.4	14598
886.525	14648
886.65	14689
886.775	14560
886.9	14743
887.025	14941
887.149	14773
887.274	14590
887.399	14560
887.523	14480
887.648	14469
887.773	14446
887.897	14659
888.021	14632
888.146	14446
888.27	14670
888.395	14590
888.519	14621
888.643	14663
888.767	14621
888.891	14461
889.015	14343
889.139	14408
889.263	14362
889.387	14514
889.511	14579
889.635	14507
889.759	14434
889.883	14381
890.006	14473
890.13	14526
890.254	14351
890.377	14393
890.501	14187
890.624	14202
890.748	14271
890.871	14096
890.995	13993
891.118	14100
891.241	14100
891.364	14077
891.488	14180
891.611	14024
891.734	14092
891.857	14180
891.98	14119
892.103	14218
892.226	14168
892.349	14100
892.471	13997
892.594	14084
892.717	14145
892.839	13997
892.962	14172
893.085	14134
893.207	14191
893.33	13940
893.452	14012
893.575	14115
893.697	14073
893.819	14229
893.941	14381
894.064	14244
894.186	14073
894.308	14065
894.43	14275
894.552	14275
894.674	14206
894.796	14012
894.918	14161
895.04	14126
895.161	14351
895.283	14286
895.405	14123
895.526	14161
895.648	14267
895.769	14248
895.891	14233
896.012	14366
896.134	14332
896.255	14210
896.376	14275
896.498	14225
896.619	14305
896.74	14282
896.861	14324
896.982	14568
897.103	14743
897.224	14575
897.345	14511
897.466	14454
897.587	14522
897.708	14697
897.828	14602
897.949	14431
898.07	14412
898.19	14499
898.311	14693
898.431	14598
898.552	14651
898.672	14674
898.792	14769
898.913	14613
899.033	14552
899.153	14495
899.273	14370
899.393	14434
899.513	14560
899.633	14412
899.753	14507
899.873	14438
899.993	14499
900.113	14434
900.232	14461
900.352	14499
900.472	14339
900.591	14351
900.711	14381
900.83	14339
900.95	14499
901.069	14385
901.189	14282
901.308	14096
901.427	13932
901.546	14005
901.665	14046
901.784	13993
901.904	13906
902.023	13750
902.141	13696
902.26	13632
902.379	13651
902.498	13609
902.617	13575
902.735	13715
902.854	13582
902.973	13586
903.091	13365
903.21	13327
903.328	13362
903.446	13343
903.565	13194
903.683	13171
903.801	13012
903.919	13122
904.038	13065
904.156	13000
904.274	12989
904.392	12993
904.51	12909
904.627	12977
904.745	12966
904.863	13057
904.981	12776
905.098	12734
905.216	12700
905.334	12623
905.451	12772
905.569	12646
905.686	12684
905.803	12692
905.921	12521
906.038	12593
906.155	12513
906.272	12441
906.389	12380
906.506	12235
906.623	12292
906.74	12228
906.857	12072
906.974	12152
907.091	12330
907.208	12395
907.324	12304
907.441	12133
907.557	12034
907.674	11935
907.79	11950
907.907	11950
908.023	12026
908.139	12057
908.256	11999
908.372	11901
908.488	11767
908.604	11741
908.72	11805
908.836	11805
908.952	11714
909.068	11824
909.184	11866
909.3	11779
909.415	11790
909.531	11764
909.647	11615
909.762	11585
909.878	11440
909.993	11562
910.108	11566
910.224	11524
910.339	11551
910.454	11421
910.57	11353
910.685	11246
910.8	11611
910.915	11558
911.03	11402
911.145	11277
911.259	11204
911.374	11254
911.489	11132
911.604	11060
911.718	11045
911.833	11014
911.947	10858
912.062	10839
912.176	10961
912.291	11056
912.405	10946
912.519	11170
912.633	11212
912.748	11098
912.862	10938
912.976	10892
913.09	10714
913.204	10782
913.318	10850
913.431	10953
913.545	10949
913.659	10980
913.772	10869
913.886	10736
914	10721
914.113	10843
914.226	10930
914.34	10824
914.453	10668
914.566	10790
914.68	10714
914.793	10668
914.906	10535
915.019	10493
915.132	10405
915.245	10478
915.358	10485
915.47	10531
915.583	10512
915.696	10592
915.809	10584
915.921	10637
916.034	10523
916.146	10436
916.259	10371
916.371	10611
916.483	10516
916.595	10382
916.708	10421
916.82	10474
916.932	10390
917.044	10394
917.156	10394
917.268	10314
917.38	10348
917.491	10219
917.603	10306
917.715	10413
917.826	10360
917.938	10341
918.049	10173
918.161	10352
918.272	10436
918.384	10398
918.495	10402
918.606	10116
918.717	10150
918.828	10173
918.939	10318
919.05	10105
919.161	10185
919.272	10036
919.383	10112
919.494	10265
919.604	10470
919.715	10272
919.826	10109
919.936	10166
920.047	10284
920.157	10246
920.267	10356
920.378	10192
920.488	10169
920.598	10379
920.708	10577
920.818	10443
920.928	10367
921.038	10485
921.148	10592
921.258	10215
921.368	10227
921.477	10074
921.587	10032
921.697	9979
921.806	10074
921.916	9979
922.025	9804
922.134	9774
922.244	9797
922.353	9846
922.462	9705
922.571	9606
922.68	9393
922.789	9412
922.898	9405
923.007	9443
923.116	9564
923.224	9439
923.333	9523
923.442	9313
923.55	9291
923.659	9329
923.767	9420
923.876	9306
923.984	9370
924.092	9260
924.201	9332
924.309	9378
924.417	9291
924.525	9218
924.633	9332
924.741	10280
924.849	9108
924.956	9241
925.064	9119
925.172	9077
925.279	9036
925.387	9150
925.494	9157
925.602	9294
925.709	9237
925.816	9077
925.924	9112
926.031	9142
926.138	9214
926.245	9112
926.352	9017
926.459	9100
926.566	9245
926.673	9089
926.779	8960
926.886	8979
926.993	8861
927.099	8849
927.206	8807
927.312	8792
927.419	8861
927.525	8830
927.631	8902
927.737	8819
927.843	8663
927.95	8697
928.056	8731
928.162	8739
928.267	8792
928.373	9412
928.479	8891
928.585	8594
928.69	8716
928.796	8804
928.901	8667
929.007	8480
929.112	8651
929.218	8655
929.323	8575
929.428	8533
929.533	8636
929.638	8526
929.743	8575
929.848	8579
929.953	8556
930.058	8465
930.163	8263
930.267	8408
930.372	8446
930.477	8332
930.581	8495
930.685	8385
930.79	8275
930.894	8221
930.998	8290
931.103	8473
931.207	8050
931.311	8058
931.415	7955
931.519	7792
931.623	7693
