Data from test_V78500241_860.txt Node
Date: Fri Mar 25 14:39:42 CST 2022
User: usil
Spectrometer: V785-0024
Trigger mode: 0
Integration Time (sec): 4.000000E-1
Scans to average: 1
Nonlinearity correction enabled: false
Boxcar width: 0
Storing dark spectrum: false
XAxis mode: Wavelengths
Number of Pixels in Spectrum: 1024
>>>>>Begin Spectral Data<<<<<
801.071	25769
801.214	25666
801.356	25400
801.499	25331
801.641	25145
801.783	25072
801.926	25008
802.068	24909
802.211	24890
802.353	24890
802.496	24692
802.638	24696
802.78	24582
802.923	24460
803.065	24540
803.208	24388
803.35	24479
803.492	24669
803.635	24646
803.777	24540
803.919	24563
804.061	24897
804.204	24582
804.346	24513
804.488	24536
804.63	24494
804.773	24471
804.915	24544
805.057	24722
805.199	24753
805.341	24776
805.483	24787
805.626	24776
805.768	24829
805.91	24814
806.052	24913
806.194	24787
806.336	25331
806.478	25038
806.62	25107
806.762	25381
806.904	25712
807.046	25951
807.188	26096
807.33	26206
807.472	26461
807.614	26834
807.756	27382
807.898	27648
808.04	28485
808.182	29261
808.324	30414
808.465	31898
808.607	33427
808.749	34672
808.891	35551
809.033	35657
809.174	34748
809.316	33317
809.458	31826
809.6	30399
809.741	29166
809.883	28257
810.025	27633
810.166	27131
810.308	26788
810.45	26385
810.591	26244
810.733	25852
810.875	25666
811.016	25628
811.158	25400
811.299	25510
811.441	25369
811.582	25464
811.724	25156
811.865	25114
812.007	25004
812.148	25057
812.29	25065
812.431	25118
812.573	25320
812.714	25422
812.855	25472
812.997	25460
813.138	25510
813.279	25460
813.421	25331
813.562	25278
813.703	25076
813.845	25046
813.986	24486
814.127	24433
814.268	24266
814.41	24460
814.551	24304
814.692	24201
814.833	24144
814.974	24216
815.115	24300
815.256	24152
815.397	24034
815.539	24087
815.68	23908
815.821	23996
815.962	23916
816.103	23958
816.244	23729
816.385	23623
816.526	23691
816.666	23524
816.807	23140
816.948	23303
817.089	23429
817.23	23421
817.371	23337
817.512	23197
817.653	23223
817.793	23143
817.934	23204
818.075	23273
818.216	23170
818.356	23136
818.497	23048
818.638	22972
818.778	22877
818.919	22938
819.06	22930
819.2	22927
819.341	23048
819.481	23098
819.622	23223
819.762	23501
819.903	23250
820.043	23220
820.184	23280
820.324	23166
820.465	23292
820.605	23140
820.746	23124
820.886	22892
821.026	23014
821.167	23018
821.307	23056
821.447	23075
821.588	22965
821.728	22717
821.868	22672
822.008	22451
822.149	22538
822.289	22333
822.429	22246
822.569	22112
822.709	22181
822.849	21930
822.99	21732
823.13	21903
823.27	21789
823.41	21838
823.55	21576
823.69	21751
823.83	21709
823.97	21743
824.11	21466
824.25	21526
824.389	21595
824.529	21526
824.669	21450
824.809	21698
824.949	21534
825.089	21595
825.228	21519
825.368	21340
825.508	21272
825.648	21405
825.787	21389
825.927	21332
826.067	21230
826.206	21199
826.346	21332
826.485	21123
826.625	21393
826.765	21336
826.904	21302
827.044	20876
827.183	20967
827.323	20910
827.462	20895
827.601	20982
827.741	20906
827.88	20948
828.02	20830
828.159	20918
828.298	20956
828.437	20979
828.577	20823
828.716	21055
828.855	20815
828.994	20705
829.134	20659
829.273	20655
829.412	20446
829.551	20594
829.69	20568
829.829	20602
829.968	20735
830.107	20754
830.246	20640
830.385	20564
830.524	20415
830.663	20476
830.802	20237
830.941	20336
831.08	20290
831.219	20210
831.357	20366
831.496	20400
831.635	20317
831.774	20202
831.913	20088
832.051	20111
832.19	20001
832.329	20031
832.467	20035
832.606	20024
832.744	20020
832.883	20024
833.022	19970
833.16	20024
833.299	20153
833.437	20149
833.576	20343
833.714	20343
833.852	20347
833.991	20511
834.129	20530
834.267	20511
834.406	20438
834.544	20423
834.682	20370
834.821	20290
834.959	20404
835.097	20180
835.235	20092
835.373	20069
835.511	20100
835.65	19978
835.788	19959
835.926	19769
836.064	19700
836.202	19632
836.34	19879
836.478	19921
836.615	19883
836.753	19791
836.891	19811
837.029	19860
837.167	19776
837.305	19719
837.443	19537
837.58	19540
837.718	19624
837.856	19613
837.993	19548
838.131	19700
838.269	19430
838.406	19426
838.544	19407
838.681	19263
838.819	19171
838.956	19183
839.094	19107
839.231	19099
839.369	19206
839.506	19476
839.643	19213
839.781	18989
839.918	18920
840.055	19107
840.193	18954
840.33	18935
840.467	18943
840.604	19065
840.742	19327
840.879	18920
841.016	18916
841.153	18981
841.29	19061
841.427	19069
841.564	18989
841.701	19126
841.838	18897
841.975	18966
842.112	19000
842.249	18837
842.385	18749
842.522	18993
842.659	18901
842.796	18700
842.933	18768
843.069	18749
843.206	18745
843.343	18837
843.479	18856
843.616	18783
843.752	18593
843.889	18768
844.025	18840
844.162	18692
844.298	18909
844.435	18848
844.571	18863
844.708	19095
844.844	19289
844.98	19537
845.117	19696
845.253	20134
845.389	20750
845.525	22204
845.661	24620
845.798	27618
845.934	30060
846.07	31076
846.206	30810
846.342	28908
846.478	25837
846.614	22946
846.75	21062
846.886	20058
847.022	19449
847.158	18947
847.294	18757
847.429	18635
847.565	18395
847.701	18612
847.837	18060
847.972	17965
848.108	18079
848.244	18049
848.379	17824
848.515	17756
848.65	17775
848.786	17745
848.921	17752
849.057	17741
849.192	17817
849.328	17722
849.463	17630
849.598	17714
849.734	17615
849.869	17562
850.004	17497
850.14	17497
850.275	17493
850.41	17379
850.545	17311
850.68	17493
850.815	17455
850.95	17406
851.085	17535
851.22	17452
851.355	17433
851.49	17360
851.625	17345
851.76	17334
851.895	17322
852.03	17330
852.165	17356
852.299	17398
852.434	17425
852.569	17436
852.703	17402
852.838	17467
852.973	17596
853.107	17642
853.242	17497
853.376	17368
853.511	17258
853.645	17364
853.78	17372
853.914	17455
854.048	17376
854.183	17414
854.317	17322
854.451	17566
854.585	17467
854.72	17349
854.854	17463
854.988	17360
855.122	17277
855.256	17223
855.39	17341
855.524	17368
855.658	17315
855.792	17406
855.926	17200
856.06	17250
856.194	17353
856.327	17258
856.461	17193
856.595	17239
856.729	17296
856.862	17307
856.996	17299
857.13	17360
857.263	17326
857.397	17353
857.53	17235
857.664	17227
857.797	17216
857.931	17136
858.064	17140
858.197	17307
858.331	17200
858.464	17136
858.597	17128
858.731	17159
858.864	17151
858.997	17121
859.13	17166
859.263	17265
859.396	17250
859.529	17117
859.662	17052
859.795	16946
859.928	17178
860.061	17280
860.194	17269
860.327	17170
860.46	17045
860.592	17189
860.725	17223
860.858	17288
860.99	17121
861.123	17022
861.256	17147
861.388	17200
861.521	17870
861.653	17025
861.786	17010
861.918	16976
862.05	17037
862.183	17143
862.315	17067
862.447	17181
862.58	17102
862.712	16854
862.844	16801
862.976	16889
863.108	16946
863.24	17170
863.372	16710
863.504	16843
863.636	16793
863.768	16965
863.9	16854
864.032	16778
864.164	16892
864.296	16930
864.428	16965
864.559	16869
864.691	16881
864.823	16850
864.954	16835
865.086	16733
865.217	16736
865.349	16634
865.48	16820
865.612	16809
865.743	16942
865.875	16782
866.006	16801
866.137	16801
866.269	16805
866.4	16850
866.531	16740
866.662	16691
866.793	16740
866.924	16763
867.055	16869
867.186	16793
867.317	16725
867.448	16584
867.579	16752
867.71	16706
867.841	16626
867.972	16675
868.103	16736
868.233	16786
868.364	16786
868.495	16885
868.625	17037
868.756	17220
868.886	16927
869.017	16911
869.147	17033
869.278	17155
869.408	16953
869.539	16968
869.669	17155
869.799	17094
869.929	17220
870.06	17151
870.19	17307
870.32	17353
870.45	17448
870.58	17463
870.71	17509
870.84	17478
870.97	17402
871.1	17326
871.23	17649
871.36	17642
871.489	17497
871.619	17676
871.749	17687
871.879	17832
872.008	17786
872.138	17714
872.267	17600
872.397	17543
872.526	17615
872.656	17493
872.785	17459
872.915	17680
873.044	17764
873.173	17714
873.303	17802
873.432	17794
873.561	17939
873.69	17813
873.819	17733
873.948	17828
874.077	17855
874.206	17813
874.335	17802
874.464	18011
874.593	18117
874.722	18125
874.851	18125
874.979	18182
875.108	18220
875.237	18159
875.365	18163
875.494	18232
875.623	18330
875.751	18247
875.88	18334
876.008	18426
876.136	18566
876.265	18745
876.393	18867
876.521	18840
876.65	18977
876.778	18829
876.906	18859
877.034	18817
877.162	18989
877.29	18932
877.418	19072
877.546	18985
877.674	19057
877.802	19202
877.93	19137
878.058	19156
878.185	19202
878.313	19518
878.441	19586
878.568	19597
878.696	20043
878.824	20366
878.951	20941
879.079	21686
879.206	22691
879.333	23562
879.461	24197
879.588	24852
879.715	24970
879.842	24673
879.97	23661
880.097	22386
880.224	21663
880.351	21127
880.478	20785
880.605	20480
880.732	20358
880.859	20434
880.986	20088
881.112	20180
881.239	19913
881.366	19753
881.493	19772
881.619	19772
881.746	19674
881.872	19677
881.999	19734
882.125	19670
882.252	19826
882.378	19814
882.505	19833
882.631	19723
882.757	19590
882.883	19620
883.01	19696
883.136	19483
883.262	19476
883.388	19358
883.514	19658
883.64	19544
883.766	19445
883.892	19415
884.018	19339
884.143	19552
884.269	19651
884.395	19377
884.52	19282
884.646	19266
884.772	19190
884.897	19179
885.023	19403
885.148	19289
885.274	19304
885.399	19282
885.524	19148
885.65	19179
885.775	19069
885.9	18909
886.025	19031
886.15	18958
886.275	18779
886.4	18665
886.525	18715
886.65	18658
886.775	18578
886.9	18620
887.025	18692
887.149	18418
887.274	18228
887.399	18258
887.523	18140
887.648	18106
887.773	18041
887.897	18110
888.021	18102
888.146	18053
888.27	18053
888.395	18057
888.519	17866
888.643	18003
888.767	17954
888.891	17840
889.015	17737
889.139	17760
889.263	17672
889.387	17718
889.511	17707
889.635	17703
889.759	17623
889.883	17619
890.006	17478
890.13	17535
890.254	17459
890.377	17402
890.501	17322
890.624	17341
890.748	17307
890.871	17250
890.995	17098
891.118	17029
891.241	17128
891.364	17102
891.488	17216
891.611	16999
891.734	17132
891.857	17041
891.98	16984
892.103	16972
892.226	17022
892.349	16927
892.471	16824
892.594	16980
892.717	16980
892.839	16866
892.962	16862
893.085	16965
893.207	16900
893.33	16729
893.452	16831
893.575	16854
893.697	16763
893.819	16850
893.941	17048
894.064	16915
894.186	16763
894.308	16782
894.43	16843
894.552	16999
894.674	16892
894.796	16626
894.918	16828
895.04	16733
895.161	16847
895.283	16801
895.405	16698
895.526	16740
895.648	16710
895.769	16900
895.891	16736
896.012	16908
896.134	16812
896.255	16778
896.376	16675
896.498	16771
896.619	16820
896.74	16797
896.861	16892
896.982	17102
897.103	17242
897.224	17109
897.345	16908
897.466	16843
897.587	16953
897.708	17121
897.828	16919
897.949	16976
898.07	16805
898.19	16904
898.311	17200
898.431	16904
898.552	17003
898.672	17060
898.792	17075
898.913	16957
899.033	16850
899.153	16820
899.273	16721
899.393	16904
899.513	16866
899.633	16873
899.753	16839
899.873	16858
899.993	16873
900.113	16839
900.232	16858
900.352	16835
900.472	16713
900.591	16736
900.711	16698
900.83	16653
900.95	16736
901.069	16634
901.189	16660
901.308	16413
901.427	16268
901.546	16333
901.665	16413
901.784	16447
901.904	16166
902.023	16036
902.141	15934
902.26	15854
902.379	15968
902.498	15838
902.617	15762
902.735	15804
902.854	15823
902.973	15709
903.091	15561
903.21	15443
903.328	15553
903.446	15420
903.565	15382
903.683	15199
903.801	15184
903.919	15249
904.038	15241
904.156	15039
904.274	15180
904.392	15043
904.51	15039
904.627	15081
904.745	15001
904.863	15074
904.981	14876
905.098	14743
905.216	14750
905.334	14610
905.451	14823
905.569	14674
905.686	14811
905.803	14727
905.921	14564
906.038	14549
906.155	14484
906.272	14438
906.389	14385
906.506	14278
906.623	14240
906.74	14218
906.857	14092
906.974	14100
907.091	14275
907.208	14347
907.324	14286
907.441	14092
907.557	14027
907.674	13936
907.79	13860
907.907	13909
908.023	13982
908.139	13951
908.256	13822
908.372	13898
908.488	13791
908.604	13750
908.72	13681
908.836	13677
908.952	13655
909.068	13712
909.184	13776
909.3	13727
909.415	13708
909.531	13655
909.647	13430
909.762	13358
909.878	13381
909.993	13411
910.108	13411
910.224	13331
910.339	13297
910.454	13320
910.57	13175
910.685	13160
910.8	13419
910.915	13457
911.03	13202
911.145	13084
911.259	13084
911.374	13050
911.489	13004
911.604	12973
911.718	12806
911.833	12749
911.947	12764
912.062	12585
912.176	12825
912.291	12768
912.405	12867
912.519	12993
912.633	12947
912.748	12795
912.862	12814
912.976	12665
913.09	12551
913.204	12639
913.318	12677
913.431	12821
913.545	12692
913.659	12757
913.772	12677
913.886	12441
914	12502
914.113	12635
914.226	12589
914.34	12532
914.453	12414
914.566	12418
914.68	12467
914.793	12418
914.906	12201
915.019	12216
915.132	12098
915.245	12167
915.358	12277
915.47	12209
915.583	12079
915.696	12376
915.809	12403
915.921	12388
916.034	12136
916.146	12125
916.259	12152
916.371	12281
916.483	12197
916.595	12175
916.708	12095
916.82	12186
916.932	12125
917.044	12121
917.156	12072
917.268	12030
917.38	11950
917.491	11965
917.603	12030
917.715	12095
917.826	12057
917.938	11920
918.049	11760
918.161	12026
918.272	12060
918.384	12038
918.495	11939
918.606	11805
918.717	11771
918.828	11855
918.939	11832
919.05	11688
919.161	11729
919.272	11570
919.383	11649
919.494	11828
919.604	12011
919.715	11859
919.826	11794
919.936	11775
920.047	11889
920.157	11805
920.267	11942
920.378	11710
920.488	11847
920.598	12041
920.708	12182
920.818	11984
920.928	11931
921.038	12178
921.148	12057
921.258	11794
921.368	11661
921.477	11615
921.587	11604
921.697	11524
921.806	11551
921.916	11486
922.025	11273
922.134	11273
922.244	11208
922.353	11345
922.462	11090
922.571	11067
922.68	10873
922.789	10934
922.898	10908
923.007	10847
923.116	10892
923.224	10923
923.333	10923
923.442	10774
923.55	10721
923.659	10793
923.767	10786
923.876	10645
923.984	10828
924.092	10744
924.201	10831
924.309	10744
924.417	10797
924.525	10641
924.633	10736
924.741	11627
924.849	10504
924.956	10592
925.064	10516
925.172	10455
925.279	10462
925.387	10546
925.494	10497
925.602	10592
925.709	10504
925.816	10428
925.924	10508
926.031	10611
926.138	10474
926.245	10573
926.352	10447
926.459	10577
926.566	10569
926.673	10394
926.779	10318
926.886	10280
926.993	10158
927.099	10139
927.206	10120
927.312	10078
927.419	10219
927.525	10116
927.631	10268
927.737	10074
927.843	9979
927.95	10006
928.056	9968
928.162	10063
928.267	10059
928.373	10740
928.479	10139
928.585	9880
928.69	10017
928.796	10074
928.901	9949
929.007	9781
929.112	9979
929.218	9918
929.323	9766
929.428	9793
929.533	9956
929.638	9789
929.743	9812
929.848	9876
929.953	9808
930.058	9755
930.163	9576
930.267	9576
930.372	9728
930.477	9481
930.581	9812
930.685	9580
930.79	9450
930.894	9504
930.998	9412
931.103	9561
931.207	9249
931.311	9237
931.415	9100
931.519	8956
931.623	8872
