Data from test_V78500241_1486.txt Node
Date: Fri Mar 25 14:44:03 CST 2022
User: usil
Spectrometer: V785-0024
Trigger mode: 0
Integration Time (sec): 4.000000E-1
Scans to average: 1
Nonlinearity correction enabled: false
Boxcar width: 0
Storing dark spectrum: false
XAxis mode: Wavelengths
Number of Pixels in Spectrum: 1024
>>>>>Begin Spectral Data<<<<<
801.071	22451
801.214	22295
801.356	22082
801.499	21945
801.641	21789
801.783	21747
801.926	21880
802.068	21701
802.211	21610
802.353	21747
802.496	21382
802.638	21298
802.78	21245
802.923	21233
803.065	21100
803.208	21039
803.35	20960
803.492	21207
803.635	21275
803.777	21108
803.919	21192
804.061	21447
804.204	21203
804.346	21100
804.488	21077
804.63	21051
804.773	20933
804.915	21013
805.057	21070
805.199	21028
805.341	20944
805.483	21116
805.626	21199
805.768	20994
805.91	21070
806.052	21066
806.194	20956
806.336	21291
806.478	20994
806.62	20994
806.762	21062
806.904	21279
807.046	21405
807.188	21272
807.33	21473
807.472	21466
807.614	21344
807.756	21370
807.898	21283
808.04	21344
808.182	21173
808.324	21306
808.465	21279
808.607	21542
808.749	21610
808.891	21785
809.033	21854
809.174	21823
809.316	21587
809.458	21549
809.6	21595
809.741	21625
809.883	21572
810.025	21819
810.166	21610
810.308	21660
810.45	21648
810.591	21572
810.733	21420
810.875	21397
811.016	21142
811.158	21154
811.299	21218
811.441	21313
811.582	21405
811.724	21325
811.865	21188
812.007	21313
812.148	21184
812.29	21340
812.431	21408
812.573	21511
812.714	21591
812.855	21732
812.997	21778
813.138	21857
813.279	21892
813.421	21789
813.562	21831
813.703	21492
813.845	21454
813.986	21218
814.127	20948
814.268	20883
814.41	20918
814.551	20853
814.692	20910
814.833	20807
814.974	20868
815.115	20724
815.256	20659
815.397	20632
815.539	20564
815.68	20549
815.821	20530
815.962	20549
816.103	20602
816.244	20294
816.385	20244
816.526	20320
816.666	20183
816.807	20077
816.948	20031
817.089	20084
817.23	20027
817.371	20054
817.512	19883
817.653	19986
817.793	19921
817.934	19936
818.075	20035
818.216	19955
818.356	19917
818.497	19822
818.638	19632
818.778	19696
818.919	19685
819.06	19708
819.2	19681
819.341	19818
819.481	19936
819.622	20008
819.762	20065
819.903	20065
820.043	19833
820.184	19871
820.324	19928
820.465	19959
820.605	19913
820.746	19913
820.886	19849
821.026	19906
821.167	19814
821.307	20046
821.447	19868
821.588	19761
821.728	19670
821.868	19430
822.008	19282
822.149	19282
822.289	19327
822.429	19114
822.569	19057
822.709	19050
822.849	18844
822.99	18909
823.13	18745
823.27	18802
823.41	18707
823.55	18525
823.69	18700
823.83	18639
823.97	18601
824.11	18342
824.25	18372
824.389	18372
824.529	18494
824.669	18353
824.809	18528
824.949	18460
825.089	18410
825.228	18426
825.368	18209
825.508	18216
825.648	18220
825.787	18315
825.927	18232
826.067	18197
826.206	18144
826.346	18133
826.485	18186
826.625	18182
826.765	18201
826.904	18087
827.044	17992
827.183	17931
827.323	17840
827.462	17988
827.601	17805
827.741	17935
827.88	17893
828.02	17783
828.159	17882
828.298	17805
828.437	17859
828.577	17779
828.716	18045
828.855	17714
828.994	17573
829.134	17589
829.273	17615
829.412	17543
829.551	17551
829.69	17535
829.829	17566
829.968	17691
830.107	17714
830.246	17665
830.385	17505
830.524	17528
830.663	17532
830.802	17322
830.941	17307
831.08	17284
831.219	17303
831.357	17212
831.496	17474
831.635	17223
831.774	17212
831.913	17128
832.051	17041
832.19	17071
832.329	17060
832.467	16911
832.606	16923
832.744	16976
832.883	16961
833.022	16938
833.16	16995
833.299	17071
833.437	16949
833.576	17041
833.714	17010
833.852	17079
833.991	17022
834.129	17003
834.267	17029
834.406	17025
834.544	17052
834.682	17010
834.821	16934
834.959	17174
835.097	16877
835.235	17014
835.373	17014
835.511	16980
835.65	16885
835.788	16873
835.926	16641
836.064	16725
836.202	16649
836.34	16873
836.478	16873
836.615	16786
836.753	16858
836.891	16839
837.029	16828
837.167	16908
837.305	16835
837.443	16733
837.58	16611
837.718	16824
837.856	16679
837.993	16664
838.131	16729
838.269	16649
838.406	16679
838.544	16596
838.681	16474
838.819	16352
838.956	16185
839.094	16265
839.231	16318
839.369	16493
839.506	16736
839.643	16436
839.781	16291
839.918	16131
840.055	16341
840.193	16291
840.33	16211
840.467	16375
840.604	16386
840.742	16527
840.879	16181
841.016	16242
841.153	16124
841.29	16417
841.427	16299
841.564	16348
841.701	16230
841.838	16272
841.975	16238
842.112	16253
842.249	16128
842.385	15991
842.522	16185
842.659	16086
842.796	16109
842.933	15975
843.069	15953
843.206	15998
843.343	16097
843.479	16086
843.616	16128
843.752	15854
843.889	15960
844.025	16032
844.162	15865
844.298	15907
844.435	15888
844.571	15751
844.708	15930
844.844	15983
844.98	16059
845.117	16044
845.253	15774
845.389	15842
845.525	15781
845.661	15930
845.798	15701
845.934	15945
846.07	15785
846.206	15888
846.342	15941
846.478	15762
846.614	15584
846.75	15439
846.886	15264
847.022	15473
847.158	15355
847.294	15382
847.429	15424
847.565	15420
847.701	15629
847.837	15081
847.972	15047
848.108	15218
848.244	15112
848.379	15062
848.515	14990
848.65	14975
848.786	14994
848.921	15066
849.057	15146
849.192	15093
849.328	15024
849.463	15001
849.598	14944
849.734	14902
849.869	14872
850.004	14750
850.14	14815
850.275	14724
850.41	14625
850.545	14712
850.68	14735
850.815	14697
850.95	14823
851.085	14941
851.22	14868
851.355	14792
851.49	14659
851.625	14739
851.76	14750
851.895	14686
852.03	14727
852.165	14777
852.299	14781
852.434	14788
852.569	14765
852.703	14758
852.838	14804
852.973	14823
853.107	14918
853.242	14750
853.376	14705
853.511	14537
853.645	14583
853.78	14746
853.914	14678
854.048	14610
854.183	14560
854.317	14697
854.451	14811
854.585	14587
854.72	14575
854.854	14648
854.988	14473
855.122	14579
855.256	14514
855.39	14583
855.524	14670
855.658	14682
855.792	14644
855.926	14655
856.06	14697
856.194	14773
856.327	14648
856.461	14537
856.595	14587
856.729	14549
856.862	14705
856.996	14568
857.13	14648
857.263	14705
857.397	14640
857.53	14587
857.664	14754
857.797	14731
857.931	14762
858.064	14499
858.197	14754
858.331	14629
858.464	14488
858.597	14530
858.731	14530
858.864	14549
858.997	14556
859.13	14617
859.263	14686
859.396	14686
859.529	14617
859.662	14526
859.795	14564
859.928	14739
860.061	14758
860.194	14804
860.327	14568
860.46	14564
860.592	14727
860.725	14735
860.858	14735
860.99	14594
861.123	14526
861.256	14560
861.388	14636
861.521	15317
861.653	14526
861.786	14480
861.918	14469
862.05	14545
862.183	14579
862.315	14640
862.447	14693
862.58	14541
862.712	14320
862.844	14294
862.976	14537
863.108	14530
863.24	14891
863.372	14328
863.504	14339
863.636	14404
863.768	14461
863.9	14446
864.032	14320
864.164	14355
864.296	14454
864.428	14377
864.559	14499
864.691	14541
864.823	14374
864.954	14385
865.086	14362
865.217	14381
865.349	14294
865.48	14351
865.612	14358
865.743	14492
865.875	14400
866.006	14309
866.137	14305
866.269	14393
866.4	14355
866.531	14404
866.662	14237
866.793	14278
866.924	14263
867.055	14404
867.186	14317
867.317	14290
867.448	14183
867.579	14389
867.71	14252
867.841	14263
867.972	14313
868.103	14305
868.233	14465
868.364	14385
868.495	14530
868.625	14610
868.756	14674
868.886	14530
869.017	14651
869.147	14708
869.278	14689
869.408	14648
869.539	14689
869.669	14655
869.799	14659
869.929	14754
870.06	14788
870.19	15051
870.32	14948
870.45	14979
870.58	14960
870.71	15097
870.84	15249
870.97	15039
871.1	15028
871.23	15104
871.36	15112
871.489	15104
871.619	15135
871.749	15192
871.879	15275
872.008	15279
872.138	15192
872.267	15146
872.397	14956
872.526	15085
872.656	15020
872.785	15085
872.915	15161
873.044	15329
873.173	15268
873.303	15279
873.432	15272
873.561	15249
873.69	15306
873.819	15279
873.948	15332
874.077	15233
874.206	15241
874.335	15302
874.464	15397
874.593	15492
874.722	15557
874.851	15538
874.979	15633
875.108	15485
875.237	15477
875.365	15492
875.494	15561
875.623	15523
875.751	15473
875.88	15709
876.008	15667
876.136	15816
876.265	15956
876.393	16097
876.521	16029
876.65	16124
876.778	15949
876.906	15903
877.034	15975
877.162	15941
877.29	15953
877.418	15987
877.546	16036
877.674	16055
877.802	15934
877.93	16032
878.058	15903
878.185	15991
878.313	15892
878.441	15991
878.568	15884
878.696	15972
878.824	15987
878.951	16059
879.079	16257
879.206	16341
879.333	16333
879.461	16230
879.588	16219
879.715	16280
879.842	16379
879.97	16215
880.097	15880
880.224	15888
880.351	15991
880.478	15857
880.605	15854
880.732	15835
880.859	16128
880.986	15888
881.112	15991
881.239	15747
881.366	15724
881.493	15584
881.619	15553
881.746	15572
881.872	15557
881.999	15599
882.125	15553
882.252	15606
882.378	15568
882.505	15629
882.631	15378
882.757	15348
882.883	15420
883.01	15310
883.136	15302
883.262	15249
883.388	15154
883.514	15317
883.64	15450
883.766	15291
883.892	15157
884.018	15249
884.143	15359
884.269	15500
884.395	15142
884.52	15123
884.646	14960
884.772	15001
884.897	14967
885.023	14967
885.148	15142
885.274	15180
885.399	15146
885.524	15108
885.65	15085
885.775	15055
885.9	14986
886.025	15074
886.15	15123
886.275	15013
886.4	14967
886.525	15070
886.65	14921
886.775	14975
886.9	15218
887.025	15370
887.149	15047
887.274	14948
887.399	14838
887.523	14712
887.648	14758
887.773	14743
887.897	14948
888.021	14861
888.146	14811
888.27	14990
888.395	14971
888.519	14857
888.643	14960
888.767	14929
888.891	14769
889.015	14613
889.139	14754
889.263	14693
889.387	14876
889.511	14941
889.635	14800
889.759	14640
889.883	14701
890.006	14781
890.13	14731
890.254	14648
890.377	14640
890.501	14537
890.624	14415
890.748	14518
890.871	14454
890.995	14434
891.118	14301
891.241	14396
891.364	14454
891.488	14473
891.611	14446
891.734	14393
891.857	14454
891.98	14415
892.103	14492
892.226	14423
892.349	14423
892.471	14278
892.594	14374
892.717	14461
892.839	14381
892.962	14450
893.085	14492
893.207	14320
893.33	14240
893.452	14240
893.575	14480
893.697	14374
893.819	14644
893.941	14533
894.064	14526
894.186	14317
894.308	14320
894.43	14514
894.552	14621
894.674	14590
894.796	14389
894.918	14492
895.04	14404
895.161	14621
895.283	14560
895.405	14419
895.526	14427
895.648	14446
895.769	14533
895.891	14579
896.012	14663
896.134	14556
896.255	14598
896.376	14537
896.498	14526
896.619	14590
896.74	14552
896.861	14556
896.982	14937
897.103	15024
897.224	14845
897.345	14804
897.466	14842
897.587	14861
897.708	15036
897.828	14864
897.949	14788
898.07	14739
898.19	14880
898.311	15043
898.431	14826
898.552	14864
898.672	15093
898.792	14971
898.913	14921
899.033	14785
899.153	14754
899.273	14746
899.393	14708
899.513	14735
899.633	14777
899.753	14727
899.873	14788
899.993	14914
900.113	14678
900.232	14830
900.352	14686
900.472	14727
900.591	14575
900.711	14712
900.83	14575
900.95	14720
901.069	14697
901.189	14503
901.308	14431
901.427	14313
901.546	14324
901.665	14408
901.784	14259
901.904	14126
902.023	14111
902.141	13818
902.26	13871
902.379	13997
902.498	13795
902.617	13822
902.735	13883
902.854	13822
902.973	13772
903.091	13597
903.21	13582
903.328	13605
903.446	13521
903.565	13358
903.683	13403
903.801	13365
903.919	13422
904.038	13388
904.156	13293
904.274	13339
904.392	13213
904.51	13198
904.627	13202
904.745	13278
904.863	13346
904.981	13069
905.098	12913
905.216	12901
905.334	13080
905.451	12878
905.569	12894
905.686	12901
905.803	12943
905.921	12726
906.038	12825
906.155	12802
906.272	12722
906.389	12703
906.506	12551
906.623	12578
906.74	12525
906.857	12311
906.974	12445
907.091	12585
907.208	12601
907.324	12566
907.441	12471
907.557	12281
907.674	12258
907.79	12186
907.907	12273
908.023	12270
908.139	12239
908.256	12175
908.372	12144
908.488	12117
908.604	12076
908.72	12026
908.836	12007
908.952	11992
909.068	11999
909.184	12098
909.3	12015
909.415	12079
909.531	12057
909.647	11824
909.762	11767
909.878	11764
909.993	11802
910.108	11817
910.224	11665
910.339	11718
910.454	11627
910.57	11581
910.685	11501
910.8	11843
910.915	11809
911.03	11623
911.145	11471
911.259	11478
911.374	11501
911.489	11379
911.604	11425
911.718	11246
911.833	11360
911.947	11136
912.062	11045
912.176	11170
912.291	11261
912.405	11239
912.519	11505
912.633	11372
912.748	11299
912.862	11239
912.976	11102
913.09	10976
913.204	11105
913.318	10987
913.431	11204
913.545	11166
913.659	11239
913.772	11083
913.886	11010
914	10965
914.113	11056
914.226	11105
914.34	11056
914.453	10881
914.566	11037
914.68	10953
914.793	10908
914.906	10710
915.019	10721
915.132	10656
915.245	10656
915.358	10752
915.47	10729
915.583	10706
915.696	10694
915.809	10850
915.921	10938
916.034	10778
916.146	10641
916.259	10706
916.371	10748
916.483	10729
916.595	10675
916.708	10668
916.82	10637
916.932	10569
917.044	10664
917.156	10649
917.268	10508
917.38	10527
917.491	10558
917.603	10577
917.715	10721
917.826	10691
917.938	10519
918.049	10493
918.161	10649
918.272	10656
918.384	10634
918.495	10558
918.606	10367
918.717	10405
918.828	10459
918.939	10493
919.05	10284
919.161	10322
919.272	10238
919.383	10268
919.494	10500
919.604	10653
919.715	10417
919.826	10360
919.936	10402
920.047	10538
920.157	10428
920.267	10668
920.378	10451
920.488	10455
920.598	10615
920.708	10698
920.818	10615
920.928	10615
921.038	10805
921.148	10710
921.258	10462
921.368	10394
921.477	10322
921.587	10257
921.697	10166
921.806	10360
921.916	10204
922.025	9991
922.134	9937
922.244	9903
922.353	10032
922.462	9869
922.571	9831
922.68	9701
922.789	9663
922.898	9641
923.007	9587
923.116	9736
923.224	9652
923.333	9686
923.442	9576
923.55	9553
923.659	9507
923.767	9682
923.876	9587
923.984	9629
924.092	9469
924.201	9530
924.309	9526
924.417	9485
924.525	9435
924.633	9443
924.741	10519
924.849	9245
924.956	9355
925.064	9253
925.172	9287
925.279	9275
925.387	9370
925.494	9332
925.602	9485
925.709	9370
925.816	9119
925.924	9253
926.031	9431
926.138	9298
926.245	9367
926.352	9165
926.459	9389
926.566	9428
926.673	9245
926.779	9154
926.886	9157
926.993	9013
927.099	9051
927.206	8990
927.312	8952
927.419	9085
927.525	8994
927.631	9058
927.737	8906
927.843	8982
927.95	8804
928.056	8872
928.162	8857
928.267	8952
928.373	9488
928.479	8998
928.585	8773
928.69	8891
928.796	8857
928.901	8777
929.007	8629
929.112	8861
929.218	8781
929.323	8792
929.428	8731
929.533	8906
929.638	8743
929.743	8716
929.848	8766
929.953	8705
930.058	8689
930.163	8526
930.267	8522
930.372	8686
930.477	8473
930.581	8743
930.685	8518
930.79	8374
930.894	8446
930.998	8415
931.103	8556
931.207	8259
931.311	8103
931.415	8130
931.519	8027
931.623	7902
