Data from test_V78500241_3159.txt Node
Date: Fri Mar 25 14:55:42 CST 2022
User: usil
Spectrometer: V785-0024
Trigger mode: 0
Integration Time (sec): 4.000000E-1
Scans to average: 1
Nonlinearity correction enabled: false
Boxcar width: 0
Storing dark spectrum: false
XAxis mode: Wavelengths
Number of Pixels in Spectrum: 1024
>>>>>Begin Spectral Data<<<<<
801.071	22120
801.214	21972
801.356	21717
801.499	21545
801.641	21519
801.783	21382
801.926	21370
802.068	21321
802.211	21302
802.353	21241
802.496	20899
802.638	20937
802.78	20815
802.923	20823
803.065	20720
803.208	20746
803.35	20636
803.492	20739
803.635	20800
803.777	20773
803.919	20891
804.061	21138
804.204	20727
804.346	20621
804.488	20556
804.63	20743
804.773	20636
804.915	20697
805.057	20739
805.199	20484
805.341	20594
805.483	20781
805.626	20678
805.768	20670
805.91	20716
806.052	20693
806.194	20431
806.336	20762
806.478	20526
806.62	20594
806.762	20602
806.904	20861
807.046	21108
807.188	21036
807.33	20986
807.472	21005
807.614	21017
807.756	20880
807.898	20594
808.04	20617
808.182	20773
808.324	20727
808.465	20792
808.607	21020
808.749	21093
808.891	21199
809.033	21123
809.174	21001
809.316	21070
809.458	20971
809.6	21039
809.741	21020
809.883	21043
810.025	21245
810.166	21169
810.308	21112
810.45	21127
810.591	20998
810.733	20773
810.875	20815
811.016	20629
811.158	20644
811.299	20937
811.441	20868
811.582	20891
811.724	20716
811.865	20743
812.007	20598
812.148	20788
812.29	20914
812.431	20933
812.573	21096
812.714	21207
812.855	21329
812.997	21351
813.138	21542
813.279	21428
813.421	21237
813.562	21355
813.703	21096
813.845	20876
813.986	20617
814.127	20560
814.268	20526
814.41	20560
814.551	20324
814.692	20473
814.833	20362
814.974	20282
815.115	20381
815.256	20180
815.397	20103
815.539	20134
815.68	20081
815.821	20111
815.962	20073
816.103	20103
816.244	19868
816.385	19807
816.526	19807
816.666	19597
816.807	19476
816.948	19613
817.089	19685
817.23	19495
817.371	19533
817.512	19430
817.653	19449
817.793	19384
817.934	19426
818.075	19510
818.216	19480
818.356	19384
818.497	19297
818.638	19118
818.778	19156
818.919	19095
819.06	19213
819.2	19228
819.341	19225
819.481	19240
819.622	19445
819.762	19666
819.903	19521
820.043	19518
820.184	19453
820.324	19445
820.465	19525
820.605	19396
820.746	19346
820.886	19297
821.026	19434
821.167	19324
821.307	19358
821.447	19388
821.588	19198
821.728	19160
821.868	19034
822.008	18848
822.149	18798
822.289	18745
822.429	18479
822.569	18464
822.709	18494
822.849	18334
822.99	18323
823.13	18342
823.27	18289
823.41	18060
823.55	18136
823.69	18186
823.83	18072
823.97	18136
824.11	17824
824.25	17954
824.389	17843
824.529	17977
824.669	17904
824.809	18019
824.949	18034
825.089	17927
825.228	17847
825.368	17695
825.508	17657
825.648	17726
825.787	17699
825.927	17665
826.067	17558
826.206	17608
826.346	17775
826.485	17691
826.625	17634
826.765	17798
826.904	17695
827.044	17516
827.183	17452
827.323	17322
827.462	17395
827.601	17436
827.741	17299
827.88	17440
828.02	17273
828.159	17269
828.298	17448
828.437	17429
828.577	17269
828.716	17524
828.855	17353
828.994	17067
829.134	17155
829.273	17280
829.412	17121
829.551	17155
829.69	17212
829.829	17178
829.968	17128
830.107	17258
830.246	17162
830.385	17124
830.524	17105
830.663	16968
830.802	16812
830.941	16763
831.08	16759
831.219	16850
831.357	16816
831.496	16976
831.635	16793
831.774	16774
831.913	16622
832.051	16428
832.19	16607
832.329	16607
832.467	16470
832.606	16459
832.744	16447
832.883	16519
833.022	16500
833.16	16531
833.299	16413
833.437	16421
833.576	16523
833.714	16519
833.852	16538
833.991	16516
834.129	16565
834.267	16531
834.406	16497
834.544	16500
834.682	16618
834.821	16489
834.959	16805
835.097	16443
835.235	16580
835.373	16550
835.511	16516
835.65	16424
835.788	16424
835.926	16284
836.064	16303
836.202	16333
836.34	16436
836.478	16470
836.615	16382
836.753	16459
836.891	16523
837.029	16367
837.167	16459
837.305	16398
837.443	16207
837.58	16238
837.718	16363
837.856	16325
837.993	16322
838.131	16322
838.269	16223
838.406	16204
838.544	16219
838.681	16002
838.819	16017
838.956	15812
839.094	15827
839.231	15857
839.369	16032
839.506	16219
839.643	16097
839.781	15766
839.918	15854
840.055	15861
840.193	15850
840.33	15770
840.467	15816
840.604	15880
840.742	16116
840.879	15736
841.016	15720
841.153	15751
841.29	15922
841.427	15865
841.564	15857
841.701	15918
841.838	15804
841.975	15759
842.112	15816
842.249	15599
842.385	15534
842.522	15835
842.659	15610
842.796	15644
842.933	15701
843.069	15507
843.206	15625
843.343	15694
843.479	15606
843.616	15614
843.752	15439
843.889	15439
844.025	15641
844.162	15367
844.298	15450
844.435	15363
844.571	15294
844.708	15370
844.844	15576
844.98	15576
845.117	15553
845.253	15397
845.389	15313
845.525	15416
845.661	15340
845.798	15279
845.934	15256
846.07	15173
846.206	15260
846.342	15424
846.478	15123
846.614	15062
846.75	14887
846.886	14849
847.022	15188
847.158	15009
847.294	14982
847.429	14952
847.565	14895
847.701	15249
847.837	14724
847.972	14598
848.108	14800
848.244	14819
848.379	14632
848.515	14552
848.65	14526
848.786	14583
848.921	14537
849.057	14667
849.192	14743
849.328	14667
849.463	14594
849.598	14511
849.734	14575
849.869	14480
850.004	14362
850.14	14347
850.275	14347
850.41	14324
850.545	14286
850.68	14374
850.815	14355
850.95	14309
851.085	14499
851.22	14450
851.355	14324
851.49	14332
851.625	14324
851.76	14366
851.895	14164
852.03	14275
852.165	14214
852.299	14309
852.434	14343
852.569	14438
852.703	14267
852.838	14423
852.973	14541
853.107	14480
853.242	14301
853.376	14244
853.511	14065
853.645	14221
853.78	14366
853.914	14225
854.048	14172
854.183	14206
854.317	14271
854.451	14377
854.585	14256
854.72	14149
854.854	14263
854.988	14065
855.122	14206
855.256	14130
855.39	14092
855.524	14290
855.658	14317
855.792	14225
855.926	14259
856.06	14317
856.194	14339
856.327	14202
856.461	14130
856.595	14187
856.729	14206
856.862	14301
856.996	14225
857.13	14286
857.263	14347
857.397	14271
857.53	14256
857.664	14294
857.797	14195
857.931	14309
858.064	14210
858.197	14358
858.331	14244
858.464	14195
858.597	14096
858.731	14191
858.864	14218
858.997	14115
859.13	14202
859.263	14259
859.396	14320
859.529	14172
859.662	14214
859.795	14130
859.928	14252
860.061	14317
860.194	14404
860.327	14210
860.46	14138
860.592	14294
860.725	14370
860.858	14294
860.99	14183
861.123	14214
861.256	14142
861.388	14324
861.521	14941
861.653	14062
861.786	14008
861.918	14050
862.05	14187
862.183	14149
862.315	14157
862.447	14248
862.58	14069
862.712	13974
862.844	13967
862.976	14031
863.108	13986
863.24	14320
863.372	13909
863.504	14001
863.636	14001
863.768	14005
863.9	13986
864.032	13887
864.164	14043
864.296	13963
864.428	14081
864.559	14130
864.691	14065
864.823	13974
864.954	14065
865.086	14043
865.217	14016
865.349	13894
865.48	14012
865.612	13909
865.743	14123
865.875	14020
866.006	13928
866.137	13963
866.269	13894
866.4	14035
866.531	13932
866.662	13932
866.793	13807
866.924	14027
867.055	13970
867.186	13909
867.317	13967
867.448	13841
867.579	13932
867.71	13909
867.841	14027
867.972	14039
868.103	13864
868.233	13986
868.364	14001
868.495	14103
868.625	14229
868.756	14332
868.886	14103
869.017	14180
869.147	14267
869.278	14393
869.408	14149
869.539	14275
869.669	14256
869.799	14240
869.929	14408
870.06	14313
870.19	14484
870.32	14560
870.45	14511
870.58	14689
870.71	14792
870.84	14773
870.97	14610
871.1	14552
871.23	14819
871.36	14819
871.489	14773
871.619	14834
871.749	14735
871.879	14880
872.008	14910
872.138	14750
872.267	14701
872.397	14659
872.526	14640
872.656	14541
872.785	14625
872.915	14834
873.044	14883
873.173	14880
873.303	14982
873.432	14864
873.561	14887
873.69	14842
873.819	14876
873.948	14880
874.077	14895
874.206	14834
874.335	14914
874.464	15070
874.593	15104
874.722	15039
874.851	15237
874.979	15237
875.108	15211
875.237	15131
875.365	14998
875.494	15211
875.623	15218
875.751	15157
875.88	15211
876.008	15332
876.136	15310
876.265	15557
876.393	15759
876.521	15698
876.65	15637
876.778	15614
876.906	15564
877.034	15523
877.162	15660
877.29	15538
877.418	15599
877.546	15561
877.674	15595
877.802	15591
877.93	15599
878.058	15652
878.185	15534
878.313	15713
878.441	15458
878.568	15416
878.696	15511
878.824	15606
878.951	15576
879.079	15766
879.206	15930
879.333	15804
879.461	15679
879.588	15724
879.715	15755
879.842	16032
879.97	15671
880.097	15469
880.224	15469
880.351	15485
880.478	15519
880.605	15435
880.732	15553
880.859	15682
880.986	15526
881.112	15481
881.239	15378
881.366	15104
881.493	15195
881.619	15017
881.746	15100
881.872	15131
881.999	15055
882.125	15009
882.252	15207
882.378	15188
882.505	15165
882.631	15051
882.757	14880
882.883	15047
883.01	14918
883.136	14845
883.262	14720
883.388	14746
883.514	14929
883.64	14891
883.766	14895
883.892	14678
884.018	14773
884.143	14887
884.269	15043
884.395	14648
884.52	14663
884.646	14610
884.772	14587
884.897	14442
885.023	14636
885.148	14697
885.274	14758
885.399	14667
885.524	14644
885.65	14648
885.775	14708
885.9	14556
886.025	14762
886.15	14598
886.275	14442
886.4	14450
886.525	14644
886.65	14503
886.775	14476
886.9	14629
887.025	14853
887.149	14640
887.274	14564
887.399	14336
887.523	14271
887.648	14431
887.773	14434
887.897	14495
888.021	14434
888.146	14377
888.27	14526
888.395	14636
888.519	14507
888.643	14514
888.767	14495
888.891	14400
889.015	14225
889.139	14351
889.263	14221
889.387	14450
889.511	14579
889.635	14419
889.759	14324
889.883	14317
890.006	14328
890.13	14480
890.254	14286
890.377	14267
890.501	14161
890.624	14088
890.748	14278
890.871	14100
890.995	13959
891.118	13951
891.241	13932
891.364	14073
891.488	14092
891.611	14008
891.734	14035
891.857	14081
891.98	14073
892.103	14088
892.226	14050
892.349	14050
892.471	13887
892.594	14008
892.717	13944
892.839	13894
892.962	14001
893.085	14145
893.207	14107
893.33	13944
893.452	13917
893.575	14054
893.697	14039
893.819	14145
893.941	14275
894.064	14149
894.186	13959
894.308	13993
894.43	14229
894.552	14244
894.674	14145
894.796	14001
894.918	14100
895.04	14050
895.161	14149
895.283	14005
895.405	14073
895.526	14214
895.648	14119
895.769	14161
895.891	14252
896.012	14229
896.134	14183
896.255	14195
896.376	14096
896.498	14153
896.619	14275
896.74	14206
896.861	14309
896.982	14594
897.103	14571
897.224	14514
897.345	14381
897.466	14396
897.587	14541
897.708	14507
897.828	14560
897.949	14473
898.07	14370
898.19	14476
898.311	14571
898.431	14530
898.552	14579
898.672	14606
898.792	14640
898.913	14545
899.033	14556
899.153	14377
899.273	14332
899.393	14450
899.513	14408
899.633	14438
899.753	14454
899.873	14370
899.993	14385
900.113	14514
900.232	14492
900.352	14351
900.472	14305
900.591	14240
900.711	14324
900.83	14172
900.95	14408
901.069	14336
901.189	14248
901.308	14031
901.427	13967
901.546	13974
901.665	14001
901.784	14027
901.904	13784
902.023	13807
902.141	13586
902.26	13556
902.379	13594
902.498	13533
902.617	13464
902.735	13609
902.854	13590
902.973	13483
903.091	13289
903.21	13316
903.328	13255
903.446	13213
903.565	13072
903.683	13202
903.801	13076
903.919	13038
904.038	13057
904.156	12863
904.274	13038
904.392	12829
904.51	12909
904.627	12882
904.745	12973
904.863	12882
904.981	12726
905.098	12525
905.216	12677
905.334	12612
905.451	12612
905.569	12623
905.686	12555
905.803	12593
905.921	12327
906.038	12407
906.155	12437
906.272	12323
906.389	12296
906.506	12239
906.623	12194
906.74	12144
906.857	12155
906.974	12083
907.091	12296
907.208	12342
907.324	12266
907.441	12053
907.557	11870
907.674	11912
907.79	11828
907.907	11878
908.023	11988
908.139	11992
908.256	11836
908.372	11866
908.488	11847
908.604	11794
908.72	11672
908.836	11710
908.952	11676
909.068	11665
909.184	11760
909.3	11710
909.415	11718
909.531	11627
909.647	11524
909.762	11486
909.878	11364
909.993	11558
910.108	11463
910.224	11421
910.339	11467
910.454	11356
910.57	11360
910.685	11299
910.8	11471
910.915	11429
911.03	11239
911.145	11227
911.259	11185
911.374	11124
911.489	11113
911.604	10987
911.718	10896
911.833	10949
911.947	10854
912.062	10786
912.176	10980
912.291	10927
912.405	10881
912.519	11136
912.633	11121
912.748	10972
912.862	10930
912.976	10820
913.09	10656
913.204	10767
913.318	10801
913.431	10900
913.545	10843
913.659	10942
913.772	10820
913.886	10714
914	10694
914.113	10717
914.226	10820
914.34	10763
914.453	10558
914.566	10706
914.68	10569
914.793	10603
914.906	10447
915.019	10405
915.132	10318
915.245	10440
915.358	10432
915.47	10421
915.583	10440
915.696	10443
915.809	10573
915.921	10561
916.034	10402
916.146	10390
916.259	10417
916.371	10459
916.483	10451
916.595	10367
916.708	10367
916.82	10417
916.932	10352
917.044	10413
917.156	10329
917.268	10215
917.38	10253
917.491	10181
917.603	10230
917.715	10409
917.826	10367
917.938	10314
918.049	10234
918.161	10268
918.272	10459
918.384	10424
918.495	10303
918.606	10139
918.717	10082
918.828	10173
918.939	10215
919.05	10055
919.161	10150
919.272	9975
919.383	10010
919.494	10185
919.604	10318
919.715	10223
919.826	10078
919.936	10162
920.047	10230
920.157	10234
920.267	10360
920.378	10215
920.488	10128
920.598	10356
920.708	10565
920.818	10417
920.928	10333
921.038	10504
921.148	10466
921.258	10192
921.368	10185
921.477	10025
921.587	9987
921.697	9880
921.806	10063
921.916	9926
922.025	9724
922.134	9720
922.244	9698
922.353	9778
922.462	9564
922.571	9481
922.68	9359
922.789	9412
922.898	9443
923.007	9294
923.116	9378
923.224	9367
923.333	9378
923.442	9325
923.55	9287
923.659	9241
923.767	9348
923.876	9272
923.984	9370
924.092	9214
924.201	9355
924.309	9302
924.417	9279
924.525	9291
924.633	9214
924.741	10173
924.849	9020
924.956	9165
925.064	8963
925.172	9009
925.279	9024
925.387	9116
925.494	9028
925.602	9264
925.709	9154
925.816	8967
925.924	9131
926.031	9142
926.138	9116
926.245	9127
926.352	9020
926.459	9173
926.566	9157
926.673	8994
926.779	8990
926.886	8895
926.993	8804
927.099	8838
927.206	8811
927.312	8727
927.419	8842
927.525	8807
927.631	8868
927.737	8788
927.843	8697
927.95	8541
928.056	8659
928.162	8659
928.267	8842
928.373	9253
928.479	8731
928.585	8583
928.69	8697
928.796	8720
928.901	8606
929.007	8476
929.112	8564
929.218	8583
929.323	8484
929.428	8457
929.533	8594
929.638	8457
929.743	8457
929.848	8476
929.953	8442
930.058	8404
930.163	8286
930.267	8279
930.372	8427
930.477	8244
930.581	8537
930.685	8377
930.79	8210
930.894	8279
930.998	8123
931.103	8351
931.207	7989
931.311	7989
931.415	7868
931.519	7772
931.623	7830
