Data from test_V78500241_2803.txt Node
Date: Fri Mar 25 14:53:13 CST 2022
User: usil
Spectrometer: V785-0024
Trigger mode: 0
Integration Time (sec): 4.000000E-1
Scans to average: 1
Nonlinearity correction enabled: false
Boxcar width: 0
Storing dark spectrum: false
XAxis mode: Wavelengths
Number of Pixels in Spectrum: 1024
>>>>>Begin Spectral Data<<<<<
801.071	22044
801.214	21960
801.356	21622
801.499	21637
801.641	21553
801.783	21332
801.926	21386
802.068	21386
802.211	21188
802.353	21100
802.496	20891
802.638	21013
802.78	20811
802.923	20845
803.065	20632
803.208	20678
803.35	20769
803.492	20845
803.635	20785
803.777	20872
803.919	20830
804.061	21165
804.204	20868
804.346	20739
804.488	20682
804.63	20781
804.773	20621
804.915	20644
805.057	20720
805.199	20609
805.341	20785
805.483	20731
805.626	20724
805.768	20598
805.91	20663
806.052	20594
806.194	20549
806.336	20899
806.478	20609
806.62	20659
806.762	20712
806.904	20819
807.046	21154
807.188	20986
807.33	21028
807.472	21039
807.614	20971
807.756	20902
807.898	20651
808.04	20788
808.182	20739
808.324	20800
808.465	20830
808.607	20800
808.749	21036
808.891	21211
809.033	21154
809.174	21207
809.316	21028
809.458	21077
809.6	21047
809.741	21024
809.883	21085
810.025	21119
810.166	21230
810.308	21157
810.45	21047
810.591	21009
810.733	20804
810.875	20792
811.016	20659
811.158	20830
811.299	20876
811.441	20853
811.582	20937
811.724	20754
811.865	20720
812.007	20849
812.148	20762
812.29	20826
812.431	20967
812.573	21036
812.714	21150
812.855	21283
812.997	21310
813.138	21545
813.279	21317
813.421	21199
813.562	21123
813.703	21093
813.845	20899
813.986	20655
814.127	20549
814.268	20309
814.41	20320
814.551	20332
814.692	20419
814.833	20263
814.974	20408
815.115	20324
815.256	20252
815.397	20164
815.539	20187
815.68	20027
815.821	20058
815.962	20138
816.103	20008
816.244	19928
816.385	19795
816.526	19689
816.666	19723
816.807	19556
816.948	19559
817.089	19590
817.23	19506
817.371	19411
817.512	19540
817.653	19445
817.793	19362
817.934	19552
818.075	19460
818.216	19438
818.356	19358
818.497	19247
818.638	19053
818.778	19091
818.919	19164
819.06	19232
819.2	19285
819.341	19282
819.481	19381
819.622	19441
819.762	19578
819.903	19578
820.043	19495
820.184	19320
820.324	19434
820.465	19597
820.605	19422
820.746	19460
820.886	19327
821.026	19434
821.167	19392
821.307	19499
821.447	19346
821.588	19228
821.728	19126
821.868	19122
822.008	18905
822.149	18837
822.289	18852
822.429	18612
822.569	18570
822.709	18551
822.849	18380
822.99	18437
823.13	18300
823.27	18365
823.41	18216
823.55	18125
823.69	18270
823.83	18266
823.97	18190
824.11	17912
824.25	17916
824.389	17901
824.529	18038
824.669	17954
824.809	17973
824.949	17988
825.089	18015
825.228	17942
825.368	17783
825.508	17707
825.648	17638
825.787	17817
825.927	17786
826.067	17657
826.206	17676
826.346	17783
826.485	17729
826.625	17745
826.765	17817
826.904	17767
827.044	17493
827.183	17482
827.323	17474
827.462	17376
827.601	17486
827.741	17417
827.88	17433
828.02	17227
828.159	17364
828.298	17318
828.437	17440
828.577	17334
828.716	17493
828.855	17440
828.994	17174
829.134	17151
829.273	17254
829.412	17162
829.551	17280
829.69	17212
829.829	17250
829.968	17197
830.107	17162
830.246	17269
830.385	17113
830.524	17079
830.663	16991
830.802	16877
830.941	16835
831.08	16782
831.219	16839
831.357	16923
831.496	17045
831.635	16793
831.774	16710
831.913	16771
832.051	16504
832.19	16622
832.329	16630
832.467	16531
832.606	16390
832.744	16447
832.883	16485
833.022	16398
833.16	16481
833.299	16546
833.437	16527
833.576	16474
833.714	16599
833.852	16584
833.991	16508
834.129	16607
834.267	16596
834.406	16519
834.544	16634
834.682	16573
834.821	16672
834.959	16748
835.097	16504
835.235	16603
835.373	16656
835.511	16672
835.65	16382
835.788	16512
835.926	16428
836.064	16158
836.202	16310
836.34	16478
836.478	16421
836.615	16409
836.753	16409
836.891	16592
837.029	16493
837.167	16329
837.305	16375
837.443	16367
837.58	16379
837.718	16424
837.856	16333
837.993	16360
838.131	16314
838.269	16230
838.406	16329
838.544	16143
838.681	16128
838.819	15991
838.956	15888
839.094	15846
839.231	15922
839.369	16010
839.506	16329
839.643	16090
839.781	15907
839.918	15842
840.055	15804
840.193	15873
840.33	15823
840.467	15846
840.604	15865
840.742	16101
840.879	15785
841.016	15705
841.153	15831
841.29	15949
841.427	15823
841.564	15892
841.701	15781
841.838	15838
841.975	15747
842.112	15641
842.249	15675
842.385	15770
842.522	15728
842.659	15606
842.796	15629
842.933	15690
843.069	15584
843.206	15675
843.343	15720
843.479	15663
843.616	15667
843.752	15488
843.889	15557
844.025	15534
844.162	15424
844.298	15538
844.435	15408
844.571	15393
844.708	15469
844.844	15549
844.98	15568
845.117	15443
845.253	15359
845.389	15287
845.525	15405
845.661	15462
845.798	15161
845.934	15237
846.07	15222
846.206	15222
846.342	15336
846.478	15176
846.614	15077
846.75	14861
846.886	14956
847.022	15085
847.158	14925
847.294	14979
847.429	15043
847.565	14918
847.701	15272
847.837	14785
847.972	14724
848.108	14838
848.244	14811
848.379	14663
848.515	14575
848.65	14590
848.786	14526
848.921	14636
849.057	14720
849.192	14670
849.328	14651
849.463	14617
849.598	14590
849.734	14621
849.869	14446
850.004	14347
850.14	14514
850.275	14404
850.41	14370
850.545	14267
850.68	14336
850.815	14381
850.95	14336
851.085	14579
851.22	14465
851.355	14332
851.49	14400
851.625	14408
851.76	14298
851.895	14278
852.03	14267
852.165	14351
852.299	14400
852.434	14492
852.569	14370
852.703	14438
852.838	14454
852.973	14469
853.107	14476
853.242	14389
853.376	14355
853.511	14100
853.645	14214
853.78	14370
853.914	14218
854.048	14256
854.183	14256
854.317	14355
854.451	14362
854.585	14195
854.72	14149
854.854	14377
854.988	14176
855.122	14145
855.256	14115
855.39	14256
855.524	14271
855.658	14385
855.792	14320
855.926	14355
856.06	14339
856.194	14473
856.327	14191
856.461	14134
856.595	14153
856.729	14240
856.862	14362
856.996	14221
857.13	14309
857.263	14385
857.397	14358
857.53	14263
857.664	14278
857.797	14233
857.931	14301
858.064	14225
858.197	14256
858.331	14278
858.464	14153
858.597	14062
858.731	14202
858.864	14180
858.997	14168
859.13	14218
859.263	14290
859.396	14355
859.529	14248
859.662	14168
859.795	14134
859.928	14298
860.061	14328
860.194	14518
860.327	14225
860.46	14233
860.592	14290
860.725	14412
860.858	14362
860.99	14339
861.123	14062
861.256	14278
861.388	14263
861.521	14864
861.653	14107
861.786	14062
861.918	14077
862.05	14111
862.183	14237
862.315	14233
862.447	14267
862.58	14153
862.712	14050
862.844	14062
862.976	14084
863.108	14168
863.24	14465
863.372	13871
863.504	14016
863.636	14054
863.768	14081
863.9	14046
864.032	13993
864.164	13940
864.296	14145
864.428	14123
864.559	14092
864.691	14153
864.823	14043
864.954	13947
865.086	14073
865.217	14073
865.349	13959
865.48	14005
865.612	13974
865.743	14126
865.875	14035
866.006	14054
866.137	13989
866.269	14005
866.4	14031
866.531	13963
866.662	13978
866.793	13944
866.924	13913
867.055	14027
867.186	13993
867.317	13955
867.448	13887
867.579	13871
867.71	13913
867.841	13970
867.972	14005
868.103	13936
868.233	13978
868.364	13978
868.495	14126
868.625	14172
868.756	14290
868.886	14161
869.017	14282
869.147	14381
869.278	14290
869.408	14233
869.539	14248
869.669	14347
869.799	14275
869.929	14396
870.06	14347
870.19	14568
870.32	14598
870.45	14610
870.58	14587
870.71	14830
870.84	14708
870.97	14590
871.1	14678
871.23	14697
871.36	14800
871.489	14762
871.619	14727
871.749	14902
871.879	14921
872.008	14952
872.138	14872
872.267	14838
872.397	14670
872.526	14712
872.656	14602
872.785	14663
872.915	14842
873.044	14986
873.173	14918
873.303	14986
873.432	14952
873.561	14963
873.69	14910
873.819	14857
873.948	15009
874.077	14925
874.206	14902
874.335	14960
874.464	15100
874.593	15100
874.722	15100
874.851	15226
874.979	15173
875.108	15203
875.237	15116
875.365	15252
875.494	15093
875.623	15287
875.751	15150
875.88	15226
876.008	15469
876.136	15572
876.265	15606
876.393	15720
876.521	15770
876.65	15732
876.778	15595
876.906	15534
877.034	15549
877.162	15576
877.29	15603
877.418	15694
877.546	15698
877.674	15648
877.802	15595
877.93	15511
878.058	15603
878.185	15564
878.313	15557
878.441	15694
878.568	15435
878.696	15428
878.824	15580
878.951	15675
879.079	15816
879.206	16036
879.333	15751
879.461	15568
879.588	15770
879.715	15846
879.842	15907
879.97	15686
880.097	15447
880.224	15378
880.351	15561
880.478	15504
880.605	15443
880.732	15481
880.859	15663
880.986	15466
881.112	15473
881.239	15386
881.366	15233
881.493	15089
881.619	15093
881.746	15180
881.872	15074
881.999	15062
882.125	15131
882.252	15222
882.378	15207
882.505	15245
882.631	15074
882.757	14899
882.883	15013
883.01	14937
883.136	14906
883.262	14826
883.388	14792
883.514	15024
883.64	15020
883.766	14956
883.892	14815
884.018	14739
884.143	14979
884.269	15047
884.395	14651
884.52	14564
884.646	14720
884.772	14587
884.897	14560
885.023	14678
885.148	14712
885.274	14792
885.399	14731
885.524	14670
885.65	14708
885.775	14648
885.9	14697
886.025	14708
886.15	14682
886.275	14613
886.4	14552
886.525	14598
886.65	14636
886.775	14545
886.9	14735
887.025	14872
887.149	14716
887.274	14530
887.399	14556
887.523	14476
887.648	14412
887.773	14374
887.897	14587
888.021	14499
888.146	14389
888.27	14556
888.395	14629
888.519	14507
888.643	14583
888.767	14594
888.891	14362
889.015	14343
889.139	14454
889.263	14206
889.387	14507
889.511	14644
889.635	14408
889.759	14320
889.883	14396
890.006	14351
890.13	14457
890.254	14229
890.377	14336
890.501	14206
890.624	14138
890.748	14294
890.871	14123
890.995	13993
891.118	13989
891.241	14008
891.364	14100
891.488	14107
891.611	14115
891.734	14100
891.857	14157
891.98	14054
892.103	14077
892.226	14149
892.349	14183
892.471	13909
892.594	13970
892.717	14073
892.839	14077
892.962	14081
893.085	14103
893.207	14001
893.33	13868
893.452	14016
893.575	14130
893.697	14027
893.819	14218
893.941	14233
894.064	14202
894.186	14058
894.308	14043
894.43	14180
894.552	14275
894.674	14168
894.796	14035
894.918	14035
895.04	14054
895.161	14229
895.283	14130
895.405	14039
895.526	14168
895.648	14172
895.769	14237
895.891	14229
896.012	14218
896.134	14229
896.255	14149
896.376	14126
896.498	14183
896.619	14275
896.74	14237
896.861	14339
896.982	14492
897.103	14750
897.224	14579
897.345	14526
897.466	14457
897.587	14476
897.708	14598
897.828	14590
897.949	14454
898.07	14389
898.19	14469
898.311	14625
898.431	14560
898.552	14598
898.672	14701
898.792	14655
898.913	14617
899.033	14495
899.153	14488
899.273	14290
899.393	14385
899.513	14450
899.633	14389
899.753	14476
899.873	14332
899.993	14507
900.113	14385
900.232	14415
900.352	14377
900.472	14275
900.591	14339
900.711	14362
900.83	14267
900.95	14358
901.069	14351
901.189	14248
901.308	14039
901.427	13940
901.546	13883
901.665	14043
901.784	13963
901.904	13887
902.023	13788
902.141	13571
902.26	13491
902.379	13655
902.498	13548
902.617	13521
902.735	13575
902.854	13499
902.973	13480
903.091	13304
903.21	13270
903.328	13327
903.446	13217
903.565	13149
903.683	13084
903.801	13053
903.919	13099
904.038	13034
904.156	12951
904.274	13023
904.392	12894
904.51	12882
904.627	12897
904.745	12993
904.863	13012
904.981	12688
905.098	12559
905.216	12612
905.334	12597
905.451	12696
905.569	12688
905.686	12665
905.803	12631
905.921	12475
906.038	12490
906.155	12384
906.272	12334
906.389	12315
906.506	12243
906.623	12167
906.74	12186
906.857	12045
906.974	12106
907.091	12308
907.208	12369
907.324	12216
907.441	12155
907.557	11912
907.674	11942
907.79	11874
907.907	11999
908.023	11923
908.139	12015
908.256	11836
908.372	11859
908.488	11901
908.604	11745
908.72	11695
908.836	11752
908.952	11672
909.068	11642
909.184	11805
909.3	11779
909.415	11840
909.531	11699
909.647	11372
909.762	11452
909.878	11421
909.993	11520
910.108	11440
910.224	11349
910.339	11520
910.454	11417
910.57	11478
910.685	11269
910.8	11539
910.915	11478
911.03	11406
911.145	11193
911.259	11231
911.374	11223
911.489	11124
911.604	11037
911.718	10987
911.833	10987
911.947	10873
912.062	10820
912.176	10915
912.291	10858
912.405	10866
912.519	11231
912.633	11178
912.748	11010
912.862	10968
912.976	10858
913.09	10759
913.204	10801
913.318	10866
913.431	10957
913.545	10927
913.659	10976
913.772	10744
913.886	10759
914	10672
914.113	10831
914.226	10714
914.34	10774
914.453	10641
914.566	10683
914.68	10641
914.793	10702
914.906	10459
915.019	10417
915.132	10352
915.245	10462
915.358	10459
915.47	10561
915.583	10504
915.696	10516
915.809	10596
915.921	10626
916.034	10421
916.146	10325
916.259	10314
916.371	10596
916.483	10375
916.595	10402
916.708	10402
916.82	10447
916.932	10341
917.044	10375
917.156	10451
917.268	10173
917.38	10314
917.491	10219
917.603	10375
917.715	10371
917.826	10424
917.938	10291
918.049	10154
918.161	10280
918.272	10474
918.384	10519
918.495	10356
918.606	10188
918.717	10109
918.828	10200
918.939	10227
919.05	10135
919.161	10097
919.272	9903
919.383	10067
919.494	10242
919.604	10367
919.715	10128
919.826	10029
919.936	10154
920.047	10261
920.157	10131
920.267	10386
920.378	10246
920.488	10215
920.598	10371
920.708	10558
920.818	10390
920.928	10306
921.038	10523
921.148	10512
921.258	10181
921.368	10147
921.477	10029
921.587	9998
921.697	9922
921.806	10048
921.916	9918
922.025	9816
922.134	9819
922.244	9694
922.353	9759
922.462	9599
922.571	9564
922.68	9473
922.789	9428
922.898	9454
923.007	9389
923.116	9496
923.224	9458
923.333	9443
923.442	9291
923.55	9321
923.659	9264
923.767	9348
923.876	9332
923.984	9294
924.092	9272
924.201	9355
924.309	9355
924.417	9275
924.525	9272
924.633	9294
924.741	9987
924.849	9074
924.956	9222
925.064	9161
925.172	9009
925.279	9062
925.387	9138
925.494	9055
925.602	9260
925.709	9093
925.816	9017
925.924	9097
926.031	9211
926.138	9074
926.245	9199
926.352	9074
926.459	9157
926.566	9211
926.673	9070
926.779	8914
926.886	9039
926.993	8845
927.099	8823
927.206	8720
927.312	8716
927.419	8838
927.525	8811
927.631	8807
927.737	8739
927.843	8716
927.95	8610
928.056	8644
928.162	8716
928.267	8830
928.373	9230
928.479	8804
928.585	8537
928.69	8686
928.796	8754
928.901	8587
929.007	8499
929.112	8674
929.218	8590
929.323	8556
929.428	8511
929.533	8663
929.638	8431
929.743	8549
929.848	8541
929.953	8503
930.058	8358
930.163	8252
930.267	8294
930.372	8370
930.477	8286
930.581	8541
930.685	8377
930.79	8233
930.894	8214
930.998	8237
931.103	8313
931.207	8065
931.311	8065
931.415	7887
931.519	7753
931.623	7780
