Data from test_V78500241_3600.txt Node
Date: Fri Mar 25 14:58:47 CST 2022
User: usil
Spectrometer: V785-0024
Trigger mode: 0
Integration Time (sec): 4.000000E-1
Scans to average: 1
Nonlinearity correction enabled: false
Boxcar width: 0
Storing dark spectrum: false
XAxis mode: Wavelengths
Number of Pixels in Spectrum: 1024
>>>>>Begin Spectral Data<<<<<
801.071	21941
801.214	21869
801.356	21542
801.499	21447
801.641	21256
801.783	21279
801.926	21348
802.068	21344
802.211	21085
802.353	21024
802.496	20880
802.638	20769
802.78	20777
802.923	20617
803.065	20541
803.208	20511
803.35	20629
803.492	20777
803.635	20735
803.777	20609
803.919	20636
804.061	20975
804.204	20663
804.346	20461
804.488	20533
804.63	20590
804.773	20511
804.915	20587
805.057	20598
805.199	20499
805.341	20598
805.483	20590
805.626	20541
805.768	20484
805.91	20590
806.052	20442
806.194	20343
806.336	20701
806.478	20400
806.62	20499
806.762	20549
806.904	20708
807.046	20834
807.188	20956
807.33	20891
807.472	20777
807.614	20712
807.756	20678
807.898	20530
808.04	20484
808.182	20583
808.324	20609
808.465	20514
808.607	20686
808.749	20864
808.891	21020
809.033	20952
809.174	20998
809.316	20777
809.458	20819
809.6	20845
809.741	20979
809.883	20902
810.025	20986
810.166	20963
810.308	21077
810.45	21024
810.591	20861
810.733	20796
810.875	20754
811.016	20587
811.158	20469
811.299	20659
811.441	20823
811.582	20804
811.724	20552
811.865	20560
812.007	20651
812.148	20568
812.29	20648
812.431	20777
812.573	20979
812.714	21047
812.855	21104
812.997	21382
813.138	21245
813.279	21294
813.421	21062
813.562	20948
813.703	20868
813.845	20689
813.986	20514
814.127	20259
814.268	20286
814.41	20278
814.551	20145
814.692	20206
814.833	20172
814.974	20065
815.115	20157
815.256	19978
815.397	20016
815.539	19986
815.68	19967
815.821	19864
815.962	19833
816.103	19887
816.244	19712
816.385	19704
816.526	19662
816.666	19407
816.807	19301
816.948	19407
817.089	19346
817.23	19331
817.371	19350
817.512	19247
817.653	19221
817.793	19362
817.934	19304
818.075	19244
818.216	19160
818.356	19156
818.497	19114
818.638	18970
818.778	18993
818.919	18916
819.06	18981
819.2	19126
819.341	19152
819.481	19206
819.622	19228
819.762	19529
819.903	19316
820.043	19244
820.184	19217
820.324	19244
820.465	19362
820.605	19255
820.746	19202
820.886	19118
821.026	19183
821.167	19129
821.307	19384
821.447	19168
821.588	19004
821.728	18973
821.868	18787
822.008	18734
822.149	18837
822.289	18757
822.429	18479
822.569	18414
822.709	18429
822.849	18171
822.99	18163
823.13	18102
823.27	18182
823.41	17992
823.55	17870
823.69	18076
823.83	17908
823.97	17935
824.11	17809
824.25	17847
824.389	17821
824.529	17741
824.669	17764
824.809	17813
824.949	17752
825.089	17779
825.228	17813
825.368	17573
825.508	17509
825.648	17444
825.787	17710
825.927	17619
826.067	17406
826.206	17391
826.346	17493
826.485	17615
826.625	17516
826.765	17634
826.904	17573
827.044	17250
827.183	17231
827.323	17254
827.462	17277
827.601	17200
827.741	17216
827.88	17280
828.02	17113
828.159	17094
828.298	17349
828.437	17242
828.577	17193
828.716	17292
828.855	17258
828.994	17003
829.134	16980
829.273	17006
829.412	16946
829.551	16949
829.69	16946
829.829	17048
829.968	17132
830.107	17045
830.246	17113
830.385	16854
830.524	16923
830.663	16999
830.802	16831
830.941	16679
831.08	16599
831.219	16778
831.357	16599
831.496	16957
831.635	16660
831.774	16656
831.913	16546
832.051	16413
832.19	16519
832.329	16413
832.467	16363
832.606	16276
832.744	16329
832.883	16348
833.022	16276
833.16	16329
833.299	16375
833.437	16344
833.576	16443
833.714	16287
833.852	16337
833.991	16440
834.129	16516
834.267	16474
834.406	16379
834.544	16478
834.682	16447
834.821	16276
834.959	16573
835.097	16356
835.235	16436
835.373	16402
835.511	16432
835.65	16352
835.788	16284
835.926	16188
836.064	16135
836.202	16185
836.34	16344
836.478	16314
836.615	16230
836.753	16405
836.891	16333
837.029	16299
837.167	16223
837.305	16268
837.443	16177
837.58	16154
837.718	16234
837.856	16169
837.993	16253
838.131	16207
838.269	16230
838.406	16166
838.544	16109
838.681	15823
838.819	15857
838.956	15675
839.094	15694
839.231	15774
839.369	15987
839.506	16124
839.643	15972
839.781	15789
839.918	15728
840.055	15709
840.193	15713
840.33	15709
840.467	15713
840.604	15816
840.742	16006
840.879	15641
841.016	15648
841.153	15606
841.29	15819
841.427	15698
841.564	15713
841.701	15804
841.838	15694
841.975	15637
842.112	15671
842.249	15572
842.385	15511
842.522	15728
842.659	15568
842.796	15447
842.933	15530
843.069	15507
843.206	15526
843.343	15652
843.479	15507
843.616	15523
843.752	15279
843.889	15302
844.025	15545
844.162	15272
844.298	15378
844.435	15329
844.571	15256
844.708	15416
844.844	15420
844.98	15473
845.117	15325
845.253	15340
845.389	15287
845.525	15272
845.661	15294
845.798	15142
845.934	15180
846.07	15077
846.206	15127
846.342	15245
846.478	15032
846.614	14952
846.75	14838
846.886	14864
847.022	14982
847.158	14849
847.294	14842
847.429	14887
847.565	14948
847.701	15024
847.837	14640
847.972	14556
848.108	14773
848.244	14686
848.379	14617
848.515	14465
848.65	14476
848.786	14415
848.921	14598
849.057	14492
849.192	14541
849.328	14465
849.463	14492
849.598	14400
849.734	14351
849.869	14370
850.004	14248
850.14	14298
850.275	14244
850.41	14237
850.545	14267
850.68	14237
850.815	14298
850.95	14301
851.085	14374
851.22	14305
851.355	14278
851.49	14214
851.625	14191
851.76	14225
851.895	14134
852.03	14168
852.165	14180
852.299	14298
852.434	14225
852.569	14320
852.703	14298
852.838	14336
852.973	14366
853.107	14476
853.242	14218
853.376	14149
853.511	13978
853.645	14142
853.78	14237
853.914	14180
854.048	14187
854.183	14183
854.317	14107
854.451	14161
854.585	14107
854.72	14103
854.854	14195
854.988	14043
855.122	14065
855.256	13944
855.39	14092
855.524	14191
855.658	14138
855.792	14252
855.926	14161
856.06	14145
856.194	14153
856.327	14180
856.461	14126
856.595	14054
856.729	14069
856.862	14199
856.996	14153
857.13	14180
857.263	14237
857.397	14157
857.53	14183
857.664	14187
857.797	14145
857.931	14237
858.064	14073
858.197	14183
858.331	14100
858.464	14050
858.597	14001
858.731	14103
858.864	14103
858.997	14202
859.13	14115
859.263	14138
859.396	14233
859.529	14012
859.662	14081
859.795	14062
859.928	14244
860.061	14381
860.194	14347
860.327	14176
860.46	14103
860.592	14180
860.725	14336
860.858	14263
860.99	14111
861.123	14024
861.256	14001
861.388	14123
861.521	14998
861.653	14046
861.786	13982
861.918	13925
862.05	14119
862.183	14054
862.315	14096
862.447	14199
862.58	14039
862.712	13898
862.844	13913
862.976	13967
863.108	13986
863.24	14248
863.372	13852
863.504	13925
863.636	13940
863.768	14035
863.9	13906
864.032	13822
864.164	13830
864.296	13932
864.428	14016
864.559	14069
864.691	13993
864.823	13970
864.954	13925
865.086	13906
865.217	13837
865.349	13811
865.48	13830
865.612	13906
865.743	14046
865.875	13879
866.006	13909
866.137	13909
866.269	13894
866.4	13879
866.531	13856
866.662	13826
866.793	13871
866.924	13887
867.055	13997
867.186	13780
867.317	13833
867.448	13765
867.579	13917
867.71	13753
867.841	13811
867.972	13913
868.103	13879
868.233	13921
868.364	13818
868.495	13978
868.625	14142
868.756	14221
868.886	14069
869.017	14111
869.147	14263
869.278	14259
869.408	14244
869.539	14180
869.669	14240
869.799	14237
869.929	14252
870.06	14180
870.19	14408
870.32	14393
870.45	14511
870.58	14583
870.71	14682
870.84	14575
870.97	14446
871.1	14507
871.23	14697
871.36	14769
871.489	14674
871.619	14701
871.749	14788
871.879	14796
872.008	14819
872.138	14716
872.267	14716
872.397	14587
872.526	14530
872.656	14537
872.785	14663
872.915	14720
873.044	14849
873.173	14743
873.303	14792
873.432	14807
873.561	14880
873.69	14758
873.819	14682
873.948	14811
874.077	14815
874.206	14731
874.335	14731
874.464	14925
874.593	15066
874.722	15005
874.851	15184
874.979	15195
875.108	15169
875.237	15017
875.365	14967
875.494	15066
875.623	15173
875.751	15070
875.88	15089
876.008	15287
876.136	15359
876.265	15496
876.393	15720
876.521	15698
876.65	15625
876.778	15587
876.906	15530
877.034	15591
877.162	15545
877.29	15443
877.418	15504
877.546	15504
877.674	15599
877.802	15511
877.93	15526
878.058	15454
878.185	15477
878.313	15561
878.441	15542
878.568	15348
878.696	15473
878.824	15507
878.951	15622
879.079	15747
879.206	15854
879.333	15637
879.461	15515
879.588	15736
879.715	15709
879.842	15774
879.97	15473
880.097	15291
880.224	15332
880.351	15439
880.478	15443
880.605	15336
880.732	15416
880.859	15561
880.986	15336
881.112	15374
881.239	15378
881.366	15150
881.493	15085
881.619	14986
881.746	15119
881.872	15116
881.999	15036
882.125	15032
882.252	15070
882.378	15039
882.505	15233
882.631	14948
882.757	14880
882.883	14963
883.01	14781
883.136	14762
883.262	14773
883.388	14746
883.514	14899
883.64	14925
883.766	14807
883.892	14629
884.018	14800
884.143	14868
884.269	14933
884.395	14552
884.52	14564
884.646	14579
884.772	14564
884.897	14499
885.023	14682
885.148	14648
885.274	14731
885.399	14724
885.524	14552
885.65	14610
885.775	14651
885.9	14537
886.025	14727
886.15	14606
886.275	14560
886.4	14461
886.525	14617
886.65	14495
886.775	14556
886.9	14689
887.025	14724
887.149	14492
887.274	14442
887.399	14282
887.523	14374
887.648	14282
887.773	14400
887.897	14461
888.021	14412
888.146	14248
888.27	14476
888.395	14442
888.519	14442
888.643	14351
888.767	14446
888.891	14343
889.015	14244
889.139	14214
889.263	14278
889.387	14298
889.511	14381
889.635	14400
889.759	14176
889.883	14263
890.006	14275
890.13	14381
890.254	14172
890.377	14294
890.501	14107
890.624	14027
890.748	14130
890.871	13993
890.995	13902
891.118	13860
891.241	14012
891.364	13944
891.488	13993
891.611	13947
891.734	13906
891.857	14046
891.98	13951
892.103	14016
892.226	14016
892.349	13959
892.471	13811
892.594	13887
892.717	13989
892.839	13978
892.962	13940
893.085	14054
893.207	13947
893.33	13864
893.452	13856
893.575	14123
893.697	13959
893.819	14161
893.941	14153
894.064	14115
894.186	13917
894.308	13887
894.43	14062
894.552	14149
894.674	14130
894.796	13921
894.918	14050
895.04	13982
895.161	14103
895.283	14020
895.405	13997
895.526	14001
895.648	13959
895.769	14096
895.891	14088
896.012	14168
896.134	14161
896.255	14130
896.376	14077
896.498	14073
896.619	14191
896.74	14183
896.861	14263
896.982	14514
897.103	14564
897.224	14473
897.345	14404
897.466	14385
897.587	14454
897.708	14507
897.828	14446
897.949	14381
898.07	14256
898.19	14339
898.311	14541
898.431	14446
898.552	14328
898.672	14606
898.792	14560
898.913	14476
899.033	14396
899.153	14362
899.273	14298
899.393	14176
899.513	14301
899.633	14294
899.753	14377
899.873	14290
899.993	14393
900.113	14408
900.232	14370
900.352	14286
900.472	14195
900.591	14138
900.711	14107
900.83	14199
900.95	14282
901.069	14343
901.189	14199
901.308	13906
901.427	13852
901.546	13913
901.665	13841
901.784	13936
901.904	13734
902.023	13696
902.141	13548
902.26	13464
902.379	13544
902.498	13384
902.617	13403
902.735	13499
902.854	13415
902.973	13354
903.091	13149
903.21	13202
903.328	13171
903.446	13247
903.565	13088
903.683	12985
903.801	12856
903.919	12977
904.038	12966
904.156	12745
904.274	12901
904.392	12772
904.51	12821
904.627	12837
904.745	12878
904.863	12920
904.981	12650
905.098	12650
905.216	12502
905.334	12513
905.451	12544
905.569	12502
905.686	12616
905.803	12494
905.921	12277
906.038	12437
906.155	12380
906.272	12194
906.389	12266
906.506	12140
906.623	12190
906.74	12106
906.857	11988
906.974	12038
907.091	12197
907.208	12292
907.324	12201
907.441	12007
907.557	11916
907.674	11874
907.79	11927
907.907	11958
908.023	11984
908.139	11828
908.256	11939
908.372	11760
908.488	11775
908.604	11707
908.72	11688
908.836	11608
908.952	11592
909.068	11623
909.184	11710
909.3	11478
909.415	11615
909.531	11661
909.647	11433
909.762	11482
909.878	11379
909.993	11383
910.108	11334
910.224	11341
910.339	11360
910.454	11284
910.57	11284
910.685	11159
910.8	11482
910.915	11425
911.03	11254
911.145	11151
911.259	11113
911.374	11075
911.489	10991
911.604	11014
911.718	10900
911.833	10911
911.947	10717
912.062	10645
912.176	10843
912.291	10843
912.405	10911
912.519	11067
912.633	11083
912.748	10869
912.862	10976
912.976	10752
913.09	10611
913.204	10664
913.318	10786
913.431	10847
913.545	10820
913.659	10915
913.772	10763
913.886	10717
914	10596
914.113	10771
914.226	10733
914.34	10752
914.453	10561
914.566	10691
914.68	10656
914.793	10672
914.906	10443
915.019	10356
915.132	10344
915.245	10329
915.358	10428
915.47	10284
915.583	10462
915.696	10394
915.809	10607
915.921	10527
916.034	10352
916.146	10322
916.259	10318
916.371	10428
916.483	10382
916.595	10352
916.708	10409
916.82	10352
916.932	10333
917.044	10325
917.156	10363
917.268	10215
917.38	10196
917.491	10177
917.603	10215
917.715	10272
917.826	10322
917.938	10219
918.049	10086
918.161	10246
918.272	10341
918.384	10337
918.495	10207
918.606	10109
918.717	10051
918.828	10139
918.939	10139
919.05	10032
919.161	10021
919.272	9888
919.383	9972
919.494	10188
919.604	10337
919.715	10101
919.826	10078
919.936	10055
920.047	10173
920.157	10150
920.267	10242
920.378	10143
920.488	10090
920.598	10291
920.708	10497
920.818	10337
920.928	10295
921.038	10470
921.148	10500
921.258	10109
921.368	10131
921.477	10048
921.587	9956
921.697	9789
921.806	9991
921.916	9873
922.025	9709
922.134	9736
922.244	9587
922.353	9694
922.462	9591
922.571	9587
922.68	9408
922.789	9268
922.898	9462
923.007	9325
923.116	9370
923.224	9287
923.333	9348
923.442	9195
923.55	9192
923.659	9321
923.767	9310
923.876	9298
923.984	9279
924.092	9253
924.201	9310
924.309	9180
924.417	9272
924.525	9142
924.633	9233
924.741	9953
924.849	9017
924.956	9176
925.064	9024
925.172	8941
925.279	8937
925.387	8998
925.494	9017
925.602	9150
925.709	9051
925.816	9039
925.924	9077
926.031	9142
926.138	9032
926.245	9066
926.352	8921
926.459	9104
926.566	9157
926.673	9039
926.779	8906
926.886	8880
926.993	8746
927.099	8727
927.206	8705
927.312	8697
927.419	8792
927.525	8792
927.631	8773
927.737	8667
927.843	8606
927.95	8594
928.056	8583
928.162	8655
928.267	8712
928.373	9272
928.479	8785
928.585	8537
928.69	8590
928.796	8575
928.901	8526
929.007	8442
929.112	8613
929.218	8518
929.323	8549
929.428	8511
929.533	8640
929.638	8313
929.743	8503
929.848	8473
929.953	8556
930.058	8381
930.163	8259
930.267	8290
930.372	8389
930.477	8191
930.581	8450
930.685	8309
930.79	8214
930.894	8172
930.998	8149
931.103	8320
931.207	8001
931.311	7883
931.415	7928
931.519	7655
931.623	7590
