Data from test_V78500241_2439.txt Node
Date: Fri Mar 25 14:50:41 CST 2022
User: usil
Spectrometer: V785-0024
Trigger mode: 0
Integration Time (sec): 4.000000E-1
Scans to average: 1
Nonlinearity correction enabled: false
Boxcar width: 0
Storing dark spectrum: false
XAxis mode: Wavelengths
Number of Pixels in Spectrum: 1024
>>>>>Begin Spectral Data<<<<<
801.071	22211
801.214	21953
801.356	21728
801.499	21595
801.641	21492
801.783	21382
801.926	21389
802.068	21355
802.211	21332
802.353	21310
802.496	21055
802.638	20998
802.78	20872
802.923	20906
803.065	20788
803.208	20731
803.35	20739
803.492	20815
803.635	20864
803.777	20735
803.919	20990
804.061	21043
804.204	20857
804.346	20689
804.488	20655
804.63	20712
804.773	20659
804.915	20758
805.057	20819
805.199	20609
805.341	20788
805.483	20804
805.626	20689
805.768	20526
805.91	20727
806.052	20727
806.194	20632
806.336	20769
806.478	20602
806.62	20602
806.762	20682
806.904	20891
807.046	21039
807.188	20994
807.33	20986
807.472	21100
807.614	20982
807.756	21017
807.898	20861
808.04	20705
808.182	20705
808.324	20815
808.465	20853
808.607	21093
808.749	20979
808.891	21272
809.033	21165
809.174	21108
809.316	21096
809.458	21138
809.6	20914
809.741	21112
809.883	21123
810.025	21245
810.166	21245
810.308	21298
810.45	21195
810.591	21119
810.733	21001
810.875	20826
811.016	20750
811.158	20674
811.299	20948
811.441	20910
811.582	20899
811.724	20788
811.865	20781
812.007	20708
812.148	20857
812.29	20925
812.431	21036
812.573	21154
812.714	21317
812.855	21237
812.997	21447
813.138	21614
813.279	21431
813.421	21431
813.562	21317
813.703	21043
813.845	20994
813.986	20823
814.127	20457
814.268	20347
814.41	20404
814.551	20396
814.692	20446
814.833	20400
814.974	20309
815.115	20294
815.256	20107
815.397	20172
815.539	20233
815.68	20202
815.821	20062
815.962	20122
816.103	20153
816.244	19978
816.385	19875
816.526	19822
816.666	19666
816.807	19601
816.948	19563
817.089	19704
817.23	19552
817.371	19460
817.512	19590
817.653	19499
817.793	19445
817.934	19476
818.075	19480
818.216	19605
818.356	19616
818.497	19304
818.638	19171
818.778	19091
818.919	19148
819.06	19278
819.2	19403
819.341	19358
819.481	19346
819.622	19369
819.762	19696
819.903	19643
820.043	19502
820.184	19445
820.324	19518
820.465	19594
820.605	19499
820.746	19415
820.886	19289
821.026	19407
821.167	19331
821.307	19548
821.447	19354
821.588	19244
821.728	19057
821.868	19069
822.008	18844
822.149	18878
822.289	18882
822.429	18696
822.569	18612
822.709	18585
822.849	18330
822.99	18388
823.13	18445
823.27	18407
823.41	18148
823.55	18201
823.69	18292
823.83	18254
823.97	18163
824.11	18019
824.25	17912
824.389	17984
824.529	17973
824.669	17977
824.809	18121
824.949	18125
825.089	18098
825.228	18015
825.368	17752
825.508	17733
825.648	17786
825.787	17794
825.927	17802
826.067	17745
826.206	17752
826.346	17824
826.485	17794
826.625	17657
826.765	17798
826.904	17832
827.044	17608
827.183	17493
827.323	17364
827.462	17539
827.601	17398
827.741	17493
827.88	17482
828.02	17284
828.159	17474
828.298	17467
828.437	17554
828.577	17391
828.716	17577
828.855	17383
828.994	17250
829.134	17223
829.273	17151
829.412	17174
829.551	17132
829.69	17273
829.829	17197
829.968	17315
830.107	17197
830.246	17113
830.385	17166
830.524	17098
830.663	17025
830.802	16854
830.941	16809
831.08	16706
831.219	16835
831.357	16824
831.496	16976
831.635	16805
831.774	16713
831.913	16637
832.051	16611
832.19	16622
832.329	16516
832.467	16523
832.606	16466
832.744	16493
832.883	16500
833.022	16485
833.16	16554
833.299	16569
833.437	16573
833.576	16565
833.714	16478
833.852	16535
833.991	16584
834.129	16592
834.267	16592
834.406	16512
834.544	16428
834.682	16462
834.821	16637
834.959	16637
835.097	16447
835.235	16626
835.373	16542
835.511	16656
835.65	16459
835.788	16371
835.926	16242
836.064	16329
836.202	16173
836.34	16402
836.478	16527
836.615	16421
836.753	16508
836.891	16409
837.029	16443
837.167	16348
837.305	16474
837.443	16322
837.58	16341
837.718	16409
837.856	16291
837.993	16295
838.131	16375
838.269	16306
838.406	16192
838.544	16192
838.681	15979
838.819	16032
838.956	15808
839.094	15854
839.231	15861
839.369	15987
839.506	16314
839.643	16093
839.781	15846
839.918	15736
840.055	15850
840.193	15827
840.33	15778
840.467	15816
840.604	15922
840.742	16025
840.879	15690
841.016	15785
841.153	15808
841.29	15953
841.427	15934
841.564	15945
841.701	15865
841.838	15793
841.975	15694
842.112	15835
842.249	15755
842.385	15629
842.522	15747
842.659	15648
842.796	15663
842.933	15584
843.069	15675
843.206	15614
843.343	15675
843.479	15564
843.616	15709
843.752	15511
843.889	15405
844.025	15610
844.162	15382
844.298	15568
844.435	15439
844.571	15348
844.708	15534
844.844	15572
844.98	15488
845.117	15595
845.253	15382
845.389	15222
845.525	15268
845.661	15416
845.798	15256
845.934	15275
846.07	15173
846.206	15264
846.342	15329
846.478	15207
846.614	15036
846.75	14971
846.886	14990
847.022	15081
847.158	15013
847.294	15024
847.429	15070
847.565	14982
847.701	15207
847.837	14727
847.972	14727
848.108	14838
848.244	14773
848.379	14583
848.515	14644
848.65	14621
848.786	14583
848.921	14644
849.057	14663
849.192	14564
849.328	14648
849.463	14636
849.598	14575
849.734	14575
849.869	14419
850.004	14381
850.14	14370
850.275	14419
850.41	14271
850.545	14305
850.68	14294
850.815	14427
850.95	14351
851.085	14503
851.22	14507
851.355	14522
851.49	14377
851.625	14221
851.76	14377
851.895	14275
852.03	14294
852.165	14366
852.299	14343
852.434	14423
852.569	14400
852.703	14427
852.838	14320
852.973	14480
853.107	14514
853.242	14370
853.376	14339
853.511	14046
853.645	14221
853.78	14362
853.914	14240
854.048	14271
854.183	14142
854.317	14275
854.451	14374
854.585	14199
854.72	14259
854.854	14301
854.988	14111
855.122	14218
855.256	14119
855.39	14259
855.524	14328
855.658	14248
855.792	14187
855.926	14332
856.06	14317
856.194	14248
856.327	14328
856.461	14161
856.595	14282
856.729	14282
856.862	14393
856.996	14180
857.13	14290
857.263	14305
857.397	14317
857.53	14221
857.664	14336
857.797	14320
857.931	14412
858.064	14267
858.197	14366
858.331	14263
858.464	14195
858.597	14115
858.731	14195
858.864	14233
858.997	14191
859.13	14271
859.263	14309
859.396	14328
859.529	14100
859.662	14252
859.795	14244
859.928	14248
860.061	14438
860.194	14305
860.327	14221
860.46	14221
860.592	14347
860.725	14370
860.858	14370
860.99	14271
861.123	14164
861.256	14263
861.388	14240
861.521	14868
861.653	14145
861.786	14145
861.918	14084
862.05	14157
862.183	14202
862.315	14252
862.447	14271
862.58	14199
862.712	14039
862.844	13986
862.976	14115
863.108	14058
863.24	14377
863.372	14027
863.504	14050
863.636	14020
863.768	14020
863.9	14001
864.032	13986
864.164	14016
864.296	14031
864.428	14221
864.559	14043
864.691	14123
864.823	14012
864.954	14065
865.086	14035
865.217	14020
865.349	13902
865.48	14024
865.612	13997
865.743	14161
865.875	14062
866.006	13944
866.137	14065
866.269	13890
866.4	13993
866.531	13974
866.662	13959
866.793	13871
866.924	13982
867.055	13947
867.186	13951
867.317	13932
867.448	13902
867.579	13947
867.71	13951
867.841	13932
867.972	13989
868.103	14008
868.233	13967
868.364	13875
868.495	14031
868.625	14221
868.756	14343
868.886	14199
869.017	14096
869.147	14370
869.278	14366
869.408	14309
869.539	14195
869.669	14301
869.799	14358
869.929	14362
870.06	14385
870.19	14556
870.32	14514
870.45	14636
870.58	14651
870.71	14727
870.84	14769
870.97	14762
871.1	14590
871.23	14807
871.36	14857
871.489	14807
871.619	14800
871.749	14739
871.879	14830
872.008	14895
872.138	14941
872.267	14769
872.397	14724
872.526	14659
872.656	14682
872.785	14663
872.915	14914
873.044	14952
873.173	14933
873.303	14929
873.432	14963
873.561	14944
873.69	14937
873.819	14845
873.948	14986
874.077	14944
874.206	14895
874.335	14956
874.464	15100
874.593	15074
874.722	15119
874.851	15142
874.979	15313
875.108	15294
875.237	15116
875.365	15058
875.494	15214
875.623	15298
875.751	15218
875.88	15173
876.008	15389
876.136	15412
876.265	15637
876.393	15835
876.521	15648
876.65	15751
876.778	15625
876.906	15686
877.034	15496
877.162	15652
877.29	15584
877.418	15614
877.546	15667
877.674	15526
877.802	15606
877.93	15694
878.058	15576
878.185	15500
878.313	15614
878.441	15591
878.568	15466
878.696	15587
878.824	15606
878.951	15774
879.079	15739
879.206	15911
879.333	15732
879.461	15648
879.588	15663
879.715	15816
879.842	15911
879.97	15751
880.097	15462
880.224	15450
880.351	15701
880.478	15485
880.605	15481
880.732	15469
880.859	15850
880.986	15534
881.112	15553
881.239	15367
881.366	15195
881.493	15150
881.619	15146
881.746	15199
881.872	15127
881.999	15077
882.125	15066
882.252	15123
882.378	15157
882.505	15306
882.631	15005
882.757	14944
882.883	15081
883.01	14906
883.136	14918
883.262	14750
883.388	14834
883.514	14975
883.64	14948
883.766	14971
883.892	14754
884.018	14792
884.143	14960
884.269	15055
884.395	14746
884.52	14667
884.646	14689
884.772	14594
884.897	14587
885.023	14667
885.148	14823
885.274	14739
885.399	14842
885.524	14689
885.65	14644
885.775	14769
885.9	14693
886.025	14743
886.15	14785
886.275	14526
886.4	14602
886.525	14701
886.65	14629
886.775	14640
886.9	14754
887.025	14838
887.149	14746
887.274	14594
887.399	14400
887.523	14495
887.648	14442
887.773	14423
887.897	14655
888.021	14469
888.146	14476
888.27	14625
888.395	14606
888.519	14473
888.643	14625
888.767	14590
888.891	14313
889.015	14328
889.139	14328
889.263	14313
889.387	14465
889.511	14552
889.635	14465
889.759	14370
889.883	14355
890.006	14465
890.13	14522
890.254	14282
890.377	14267
890.501	14240
890.624	14164
890.748	14119
890.871	14153
890.995	14065
891.118	13986
891.241	14043
891.364	14096
891.488	14088
891.611	14069
891.734	14024
891.857	14046
891.98	14043
892.103	14142
892.226	14123
892.349	14012
892.471	13917
892.594	14016
892.717	14062
892.839	14096
892.962	14054
893.085	14161
893.207	14081
893.33	13932
893.452	14008
893.575	14092
893.697	14024
893.819	14206
893.941	14252
894.064	14107
894.186	14031
894.308	14043
894.43	14161
894.552	14294
894.674	14199
894.796	14027
894.918	14206
895.04	14180
895.161	14214
895.283	14142
895.405	14073
895.526	14130
895.648	14149
895.769	14210
895.891	14282
896.012	14336
896.134	14309
896.255	14187
896.376	14229
896.498	14180
896.619	14191
896.74	14218
896.861	14313
896.982	14629
897.103	14686
897.224	14438
897.345	14427
897.466	14419
897.587	14499
897.708	14602
897.828	14514
897.949	14438
898.07	14434
898.19	14469
898.311	14621
898.431	14594
898.552	14541
898.672	14644
898.792	14663
898.913	14689
899.033	14507
899.153	14522
899.273	14362
899.393	14473
899.513	14396
899.633	14358
899.753	14533
899.873	14313
899.993	14431
900.113	14427
900.232	14560
900.352	14446
900.472	14305
900.591	14237
900.711	14301
900.83	14225
900.95	14381
901.069	14366
901.189	14176
901.308	14001
901.427	13989
901.546	13978
901.665	14077
901.784	14024
901.904	13833
902.023	13772
902.141	13693
902.26	13544
902.379	13704
902.498	13468
902.617	13506
902.735	13575
902.854	13601
902.973	13457
903.091	13304
903.21	13331
903.328	13244
903.446	13232
903.565	13122
903.683	13099
903.801	12966
903.919	13149
904.038	13110
904.156	12894
904.274	12989
904.392	12882
904.51	12970
904.627	12932
904.745	13034
904.863	13015
904.981	12730
905.098	12692
905.216	12608
905.334	12719
905.451	12700
905.569	12631
905.686	12730
905.803	12662
905.921	12452
906.038	12494
906.155	12509
906.272	12376
906.389	12369
906.506	12262
906.623	12201
906.74	12232
906.857	12144
906.974	12102
907.091	12258
907.208	12369
907.324	12254
907.441	12155
907.557	12045
907.674	11984
907.79	11885
907.907	11847
908.023	11988
908.139	12038
908.256	11931
908.372	11965
908.488	11878
908.604	11733
908.72	11771
908.836	11684
908.952	11684
909.068	11779
909.184	11760
909.3	11775
909.415	11767
909.531	11802
909.647	11436
909.762	11474
909.878	11463
909.993	11596
910.108	11486
910.224	11493
910.339	11463
910.454	11406
910.57	11356
910.685	11239
910.8	11535
910.915	11474
911.03	11356
911.145	11151
911.259	11189
911.374	11201
911.489	11159
911.604	11102
911.718	10991
911.833	10991
911.947	10881
912.062	10820
912.176	10889
912.291	10953
912.405	10984
912.519	11162
912.633	11174
912.748	11022
912.862	10930
912.976	10824
913.09	10759
913.204	10839
913.318	10854
913.431	10972
913.545	10881
913.659	10942
913.772	10877
913.886	10767
914	10618
914.113	10828
914.226	10892
914.34	10793
914.453	10687
914.566	10793
914.68	10630
914.793	10592
914.906	10516
915.019	10504
915.132	10409
915.245	10504
915.358	10508
915.47	10516
915.583	10478
915.696	10516
915.809	10538
915.921	10649
916.034	10329
916.146	10409
916.259	10443
916.371	10508
916.483	10504
916.595	10382
916.708	10428
916.82	10462
916.932	10417
917.044	10375
917.156	10413
917.268	10287
917.38	10363
917.491	10284
917.603	10284
917.715	10417
917.826	10443
917.938	10303
918.049	10188
918.161	10356
918.272	10379
918.384	10405
918.495	10265
918.606	10204
918.717	10158
918.828	10150
918.939	10173
919.05	10074
919.161	10101
919.272	9953
919.383	10090
919.494	10211
919.604	10432
919.715	10185
919.826	10116
919.936	10124
920.047	10223
920.157	10185
920.267	10337
920.378	10261
920.488	10185
920.598	10348
920.708	10535
920.818	10367
920.928	10443
921.038	10561
921.148	10527
921.258	10253
921.368	10154
921.477	10021
921.587	9991
921.697	9892
921.806	10128
921.916	9934
922.025	9846
922.134	9728
922.244	9736
922.353	9831
922.462	9671
922.571	9660
922.68	9447
922.789	9485
922.898	9412
923.007	9401
923.116	9469
923.224	9454
923.333	9393
923.442	9355
923.55	9256
923.659	9344
923.767	9439
923.876	9336
923.984	9336
924.092	9302
924.201	9294
924.309	9298
924.417	9374
924.525	9245
924.633	9283
924.741	9972
924.849	9062
924.956	9237
925.064	9146
925.172	9013
925.279	9100
925.387	9123
925.494	9173
925.602	9272
925.709	9154
925.816	9051
925.924	9058
926.031	9131
926.138	9123
926.245	9123
926.352	9036
926.459	9161
926.566	9283
926.673	9119
926.779	8979
926.886	8899
926.993	8861
927.099	8792
927.206	8785
927.312	8781
927.419	8842
927.525	8773
927.631	8872
927.737	8720
927.843	8708
927.95	8610
928.056	8659
928.162	8648
928.267	8750
928.373	9332
928.479	8792
928.585	8613
928.69	8739
928.796	8708
928.901	8648
929.007	8495
929.112	8724
929.218	8610
929.323	8507
929.428	8507
929.533	8590
929.638	8507
929.743	8571
929.848	8610
929.953	8499
930.058	8381
930.163	8275
930.267	8259
930.372	8370
930.477	8279
930.581	8480
930.685	8374
930.79	8267
930.894	8237
930.998	8225
931.103	8275
931.207	8024
931.311	7947
931.415	7902
931.519	7689
931.623	7677
