Data from test_V78500241_1980.txt Node
Date: Fri Mar 25 14:47:30 CST 2022
User: usil
Spectrometer: V785-0024
Trigger mode: 0
Integration Time (sec): 4.000000E-1
Scans to average: 1
Nonlinearity correction enabled: false
Boxcar width: 0
Storing dark spectrum: false
XAxis mode: Wavelengths
Number of Pixels in Spectrum: 1024
>>>>>Begin Spectral Data<<<<<
801.071	22070
801.214	21907
801.356	21816
801.499	21705
801.641	21580
801.783	21469
801.926	21458
802.068	21462
802.211	21351
802.353	21313
802.496	20975
802.638	20895
802.78	20895
802.923	20826
803.065	20781
803.208	20796
803.35	20667
803.492	21005
803.635	20864
803.777	20762
803.919	20804
804.061	21317
804.204	20887
804.346	20598
804.488	20549
804.63	20842
804.773	20689
804.915	20739
805.057	20807
805.199	20769
805.341	20811
805.483	20720
805.626	20883
805.768	20750
805.91	20754
806.052	20826
806.194	20754
806.336	20872
806.478	20670
806.62	20598
806.762	20800
806.904	20921
807.046	21089
807.188	21047
807.33	21047
807.472	21100
807.614	21017
807.756	20963
807.898	20948
808.04	20815
808.182	20804
808.324	20788
808.465	20807
808.607	20921
808.749	20986
808.891	21211
809.033	21359
809.174	21363
809.316	20982
809.458	21036
809.6	21131
809.741	21116
809.883	21401
810.025	21275
810.166	21195
810.308	21188
810.45	21310
810.591	21112
810.733	21013
810.875	20941
811.016	20754
811.158	20731
811.299	20925
811.441	20990
811.582	20933
811.724	20895
811.865	20769
812.007	20937
812.148	20819
812.29	20952
812.431	20975
812.573	21161
812.714	21340
812.855	21382
812.997	21389
813.138	21553
813.279	21485
813.421	21264
813.562	21268
813.703	21138
813.845	20963
813.986	20842
814.127	20484
814.268	20404
814.41	20419
814.551	20347
814.692	20377
814.833	20408
814.974	20404
815.115	20438
815.256	20256
815.397	20218
815.539	20339
815.68	20134
815.821	20058
815.962	20214
816.103	20043
816.244	19917
816.385	19921
816.526	19822
816.666	19658
816.807	19677
816.948	19704
817.089	19597
817.23	19605
817.371	19575
817.512	19605
817.653	19540
817.793	19518
817.934	19582
818.075	19639
818.216	19567
818.356	19571
818.497	19518
818.638	19247
818.778	19126
818.919	19206
819.06	19293
819.2	19327
819.341	19270
819.481	19403
819.622	19616
819.762	19719
819.903	19632
820.043	19639
820.184	19499
820.324	19491
820.465	19533
820.605	19563
820.746	19464
820.886	19392
821.026	19544
821.167	19457
821.307	19590
821.447	19422
821.588	19495
821.728	19137
821.868	19053
822.008	19023
822.149	19015
822.289	18901
822.429	18593
822.569	18627
822.709	18707
822.849	18437
822.99	18471
823.13	18422
823.27	18391
823.41	18190
823.55	18224
823.69	18163
823.83	18399
823.97	18182
824.11	17969
824.25	17969
824.389	18083
824.529	18148
824.669	18026
824.809	18106
824.949	18167
825.089	18049
825.228	18045
825.368	17813
825.508	17851
825.648	17798
825.787	17783
825.927	17817
826.067	17741
826.206	17737
826.346	17893
826.485	17889
826.625	17714
826.765	17912
826.904	17824
827.044	17558
827.183	17421
827.323	17467
827.462	17524
827.601	17589
827.741	17440
827.88	17459
828.02	17269
828.159	17440
828.298	17455
828.437	17532
828.577	17372
828.716	17646
828.855	17421
828.994	17193
829.134	17307
829.273	17227
829.412	17143
829.551	17235
829.69	17105
829.829	17231
829.968	17379
830.107	17185
830.246	17318
830.385	17189
830.524	17155
830.663	17121
830.802	16961
830.941	16843
831.08	16763
831.219	16946
831.357	16885
831.496	17147
831.635	16896
831.774	16755
831.913	16820
832.051	16641
832.19	16691
832.329	16679
832.467	16641
832.606	16470
832.744	16363
832.883	16470
833.022	16535
833.16	16588
833.299	16596
833.437	16653
833.576	16664
833.714	16618
833.852	16641
833.991	16660
834.129	16713
834.267	16820
834.406	16637
834.544	16679
834.682	16596
834.821	16611
834.959	16900
835.097	16664
835.235	16683
835.373	16630
835.511	16634
835.65	16546
835.788	16523
835.926	16299
836.064	16291
836.202	16443
836.34	16523
836.478	16645
836.615	16538
836.753	16531
836.891	16618
837.029	16519
837.167	16523
837.305	16508
837.443	16504
837.58	16443
837.718	16512
837.856	16394
837.993	16306
838.131	16424
838.269	16333
838.406	16367
838.544	16234
838.681	16169
838.819	16112
838.956	15998
839.094	15956
839.231	15998
839.369	16101
839.506	16325
839.643	16265
839.781	15979
839.918	15926
840.055	15998
840.193	15953
840.33	15964
840.467	16048
840.604	15934
840.742	16139
840.879	15915
841.016	15926
841.153	15907
841.29	16150
841.427	15968
841.564	16025
841.701	16040
841.838	16002
841.975	15778
842.112	15880
842.249	15701
842.385	15713
842.522	15918
842.659	15739
842.796	15614
842.933	15667
843.069	15720
843.206	15728
843.343	15759
843.479	15660
843.616	15774
843.752	15538
843.889	15511
844.025	15785
844.162	15500
844.298	15633
844.435	15580
844.571	15538
844.708	15572
844.844	15770
844.98	15599
845.117	15637
845.253	15454
845.389	15454
845.525	15424
845.661	15443
845.798	15226
845.934	15389
846.07	15332
846.206	15428
846.342	15412
846.478	15222
846.614	15226
846.75	15123
846.886	15062
847.022	15161
847.158	15097
847.294	15119
847.429	15165
847.565	15097
847.701	15370
847.837	14910
847.972	14842
848.108	14956
848.244	14834
848.379	14754
848.515	14693
848.65	14670
848.786	14788
848.921	14731
849.057	14796
849.192	14800
849.328	14716
849.463	14739
849.598	14705
849.734	14651
849.869	14469
850.004	14552
850.14	14575
850.275	14473
850.41	14374
850.545	14454
850.68	14450
850.815	14541
850.95	14499
851.085	14674
851.22	14590
851.355	14480
851.49	14480
851.625	14503
851.76	14457
851.895	14305
852.03	14362
852.165	14434
852.299	14545
852.434	14514
852.569	14488
852.703	14461
852.838	14579
852.973	14568
853.107	14552
853.242	14389
853.376	14355
853.511	14309
853.645	14294
853.78	14442
853.914	14313
854.048	14298
854.183	14282
854.317	14252
854.451	14339
854.585	14317
854.72	14328
854.854	14332
854.988	14191
855.122	14377
855.256	14267
855.39	14286
855.524	14339
855.658	14343
855.792	14446
855.926	14408
856.06	14450
856.194	14461
856.327	14328
856.461	14286
856.595	14233
856.729	14210
856.862	14454
856.996	14332
857.13	14454
857.263	14442
857.397	14328
857.53	14271
857.664	14389
857.797	14381
857.931	14488
858.064	14412
858.197	14408
858.331	14271
858.464	14275
858.597	14248
858.731	14358
858.864	14290
858.997	14317
859.13	14317
859.263	14465
859.396	14446
859.529	14240
859.662	14339
859.795	14263
859.928	14400
860.061	14533
860.194	14473
860.327	14294
860.46	14351
860.592	14476
860.725	14434
860.858	14389
860.99	14336
861.123	14244
861.256	14183
861.388	14393
861.521	15020
861.653	14134
861.786	14157
861.918	14225
862.05	14187
862.183	14252
862.315	14400
862.447	14366
862.58	14271
862.712	14092
862.844	14001
862.976	14153
863.108	14206
863.24	14366
863.372	14058
863.504	14103
863.636	13982
863.768	14183
863.9	14107
864.032	13970
864.164	14027
864.296	14164
864.428	14225
864.559	14168
864.691	14218
864.823	14153
864.954	14191
865.086	14092
865.217	14107
865.349	14161
865.48	14130
865.612	14024
865.743	14229
865.875	14134
866.006	14111
866.137	14050
866.269	14206
866.4	14020
866.531	14027
866.662	13997
866.793	14046
866.924	14031
867.055	14142
867.186	14054
867.317	14088
867.448	13967
867.579	13986
867.71	14050
867.841	14020
867.972	14134
868.103	14065
868.233	14073
868.364	14065
868.495	14164
868.625	14374
868.756	14469
868.886	14278
869.017	14256
869.147	14461
869.278	14488
869.408	14317
869.539	14324
869.669	14526
869.799	14427
869.929	14587
870.06	14507
870.19	14651
870.32	14598
870.45	14693
870.58	14811
870.71	14762
870.84	14883
870.97	14743
871.1	14674
871.23	14941
871.36	14982
871.489	14800
871.619	14948
871.749	14986
871.879	14986
872.008	15081
872.138	14960
872.267	14849
872.397	14845
872.526	14727
872.656	14781
872.785	14845
872.915	14861
873.044	15058
873.173	15013
873.303	15020
873.432	14963
873.561	15013
873.69	15051
873.819	14918
873.948	15013
874.077	14975
874.206	14990
874.335	15005
874.464	15085
874.593	15268
874.722	15245
874.851	15363
874.979	15317
875.108	15260
875.237	15264
875.365	15283
875.494	15203
875.623	15458
875.751	15207
875.88	15382
876.008	15359
876.136	15473
876.265	15709
876.393	15842
876.521	15827
876.65	15800
876.778	15720
876.906	15713
877.034	15671
877.162	15720
877.29	15660
877.418	15770
877.546	15686
877.674	15709
877.802	15644
877.93	15656
878.058	15724
878.185	15690
878.313	15793
878.441	15701
878.568	15576
878.696	15549
878.824	15842
878.951	15819
879.079	15850
879.206	16063
879.333	15934
879.461	15797
879.588	15838
879.715	15907
879.842	15987
879.97	15762
880.097	15496
880.224	15545
880.351	15599
880.478	15591
880.605	15492
880.732	15526
880.859	15785
880.986	15576
881.112	15599
881.239	15420
881.366	15218
881.493	15241
881.619	15211
881.746	15272
881.872	15252
881.999	15211
882.125	15165
882.252	15317
882.378	15298
882.505	15351
882.631	15211
882.757	15062
882.883	15207
883.01	15055
883.136	15058
883.262	14876
883.388	14838
883.514	15039
883.64	15047
883.766	15024
883.892	14834
884.018	14967
884.143	15001
884.269	15104
884.395	14857
884.52	14773
884.646	14670
884.772	14651
884.897	14746
885.023	14792
885.148	14864
885.274	14845
885.399	14849
885.524	14663
885.65	14765
885.775	14724
885.9	14708
886.025	14781
886.15	14868
886.275	14708
886.4	14571
886.525	14708
886.65	14575
886.775	14739
886.9	14914
887.025	14986
887.149	14746
887.274	14556
887.399	14552
887.523	14583
887.648	14598
887.773	14568
887.897	14697
888.021	14564
888.146	14571
888.27	14674
888.395	14796
888.519	14621
888.643	14594
888.767	14571
888.891	14560
889.015	14564
889.139	14503
889.263	14457
889.387	14590
889.511	14610
889.635	14617
889.759	14332
889.883	14320
890.006	14507
890.13	14533
890.254	14393
890.377	14328
890.501	14324
890.624	14237
890.748	14313
890.871	14164
890.995	14142
891.118	14115
891.241	14149
891.364	14142
891.488	14275
891.611	14164
891.734	14153
891.857	14157
891.98	14134
892.103	14240
892.226	14187
892.349	14187
892.471	13986
892.594	14058
892.717	14157
892.839	14138
892.962	14195
893.085	14123
893.207	14111
893.33	14077
893.452	14088
893.575	14157
893.697	14149
893.819	14362
893.941	14362
894.064	14271
894.186	14016
894.308	14100
894.43	14301
894.552	14199
894.674	14218
894.796	14054
894.918	14130
895.04	14130
895.161	14218
895.283	14240
895.405	14180
895.526	14305
895.648	14290
895.769	14278
895.891	14187
896.012	14377
896.134	14438
896.255	14278
896.376	14195
896.498	14313
896.619	14389
896.74	14263
896.861	14427
896.982	14533
897.103	14792
897.224	14659
897.345	14571
897.466	14511
897.587	14526
897.708	14708
897.828	14705
897.949	14480
898.07	14389
898.19	14583
898.311	14689
898.431	14564
898.552	14587
898.672	14781
898.792	14762
898.913	14750
899.033	14606
899.153	14579
899.273	14332
899.393	14499
899.513	14473
899.633	14560
899.753	14526
899.873	14408
899.993	14541
900.113	14366
900.232	14552
900.352	14381
900.472	14290
900.591	14332
900.711	14385
900.83	14317
900.95	14465
901.069	14518
901.189	14256
901.308	14123
901.427	14050
901.546	14100
901.665	14050
901.784	14130
901.904	14016
902.023	13894
902.141	13658
902.26	13632
902.379	13719
902.498	13601
902.617	13502
902.735	13594
902.854	13556
902.973	13537
903.091	13343
903.21	13320
903.328	13285
903.446	13289
903.565	13091
903.683	13156
903.801	13061
903.919	13164
904.038	13114
904.156	13038
904.274	13118
904.392	13038
904.51	13046
904.627	13015
904.745	13168
904.863	13061
904.981	12852
905.098	12722
905.216	12745
905.334	12734
905.451	12787
905.569	12604
905.686	12738
905.803	12639
905.921	12506
906.038	12677
906.155	12502
906.272	12391
906.389	12395
906.506	12350
906.623	12361
906.74	12186
906.857	12190
906.974	12117
907.091	12338
907.208	12391
907.324	12258
907.441	12270
907.557	12049
907.674	12041
907.79	11939
907.907	11950
908.023	12087
908.139	11999
908.256	12015
908.372	12015
908.488	11912
908.604	11885
908.72	11745
908.836	11805
908.952	11745
909.068	11836
909.184	11920
909.3	11767
909.415	11874
909.531	11805
909.647	11551
909.762	11615
909.878	11551
909.993	11501
910.108	11551
910.224	11497
910.339	11611
910.454	11398
910.57	11395
910.685	11433
910.8	11600
910.915	11577
911.03	11398
911.145	11258
911.259	11220
911.374	11242
911.489	11239
911.604	11162
911.718	11045
911.833	11025
911.947	10869
912.062	10843
912.176	10961
912.291	11014
912.405	10972
912.519	11098
912.633	11296
912.748	11045
912.862	10915
912.976	10866
913.09	10759
913.204	10793
913.318	10938
913.431	11006
913.545	10953
913.659	11041
913.772	10915
913.886	10850
914	10748
914.113	10885
914.226	10923
914.34	10828
914.453	10664
914.566	10889
914.68	10778
914.793	10694
914.906	10596
915.019	10538
915.132	10428
915.245	10516
915.358	10558
915.47	10538
915.583	10641
915.696	10599
915.809	10607
915.921	10607
916.034	10424
916.146	10424
916.259	10478
916.371	10558
916.483	10546
916.595	10485
916.708	10466
916.82	10478
916.932	10485
917.044	10455
917.156	10447
917.268	10398
917.38	10382
917.491	10310
917.603	10405
917.715	10478
917.826	10417
917.938	10382
918.049	10192
918.161	10363
918.272	10588
918.384	10550
918.495	10386
918.606	10166
918.717	10101
918.828	10223
918.939	10230
919.05	10147
919.161	10143
919.272	9972
919.383	10017
919.494	10310
919.604	10466
919.715	10223
919.826	10207
919.936	10238
920.047	10329
920.157	10249
920.267	10470
920.378	10314
920.488	10246
920.598	10436
920.708	10615
920.818	10436
920.928	10417
921.038	10508
921.148	10561
921.258	10341
921.368	10257
921.477	10181
921.587	10010
921.697	9979
921.806	10109
921.916	10044
922.025	9850
922.134	9812
922.244	9705
922.353	9831
922.462	9682
922.571	9618
922.68	9447
922.789	9511
922.898	9367
923.007	9458
923.116	9576
923.224	9477
923.333	9439
923.442	9306
923.55	9374
923.659	9351
923.767	9469
923.876	9329
923.984	9454
924.092	9336
924.201	9393
924.309	9317
924.417	9416
924.525	9321
924.633	9302
924.741	10337
924.849	9169
924.956	9260
925.064	9169
925.172	9085
925.279	9093
925.387	9081
925.494	9207
925.602	9283
925.709	9260
925.816	9089
925.924	9154
926.031	9317
926.138	9108
926.245	9157
926.352	9085
926.459	9268
926.566	9264
926.673	9173
926.779	9062
926.886	8944
926.993	8899
927.099	8929
927.206	8807
927.312	8804
927.419	8921
927.525	8845
927.631	8937
927.737	8762
927.843	8731
927.95	8632
928.056	8731
928.162	8674
928.267	8864
928.373	9412
928.479	8849
928.585	8663
928.69	8724
928.796	8762
928.901	8667
929.007	8556
929.112	8689
929.218	8606
929.323	8640
929.428	8632
929.533	8659
929.638	8469
929.743	8579
929.848	8651
929.953	8514
930.058	8514
930.163	8328
930.267	8332
930.372	8431
930.477	8271
930.581	8579
930.685	8465
930.79	8305
930.894	8263
930.998	8320
931.103	8351
931.207	8088
931.311	8069
931.415	7944
931.519	7830
931.623	7784
