Data from test_V78500241_868.txt Node
Date: Fri Mar 25 14:39:45 CST 2022
User: usil
Spectrometer: V785-0024
Trigger mode: 0
Integration Time (sec): 4.000000E-1
Scans to average: 1
Nonlinearity correction enabled: false
Boxcar width: 0
Storing dark spectrum: false
XAxis mode: Wavelengths
Number of Pixels in Spectrum: 1024
>>>>>Begin Spectral Data<<<<<
801.071	25674
801.214	25407
801.356	25308
801.499	25202
801.641	25103
801.783	25076
801.926	24962
802.068	24920
802.211	24844
802.353	24703
802.496	24517
802.638	24414
802.78	24426
802.923	24391
803.065	24483
803.208	24388
803.35	24327
803.492	24445
803.635	24673
803.777	24486
803.919	24536
804.061	24776
804.204	24525
804.346	24502
804.488	24445
804.63	24494
804.773	24471
804.915	24505
805.057	24749
805.199	24471
805.341	24525
805.483	24711
805.626	24783
805.768	24604
805.91	24730
806.052	24795
806.194	24787
806.336	25038
806.478	24973
806.62	24977
806.762	25069
806.904	25434
807.046	25826
807.188	25875
807.33	25947
807.472	26301
807.614	26598
807.756	26952
807.898	27310
808.04	27861
808.182	28660
808.324	29657
808.465	30981
808.607	32218
808.749	33439
808.891	34128
809.033	34291
809.174	33553
809.316	32271
809.458	30844
809.6	29634
809.741	28516
809.883	27785
810.025	27279
810.166	26826
810.308	26442
810.45	26168
810.591	26084
810.733	25776
810.875	25483
811.016	25453
811.158	25137
811.299	25301
811.441	25278
811.582	25133
811.724	25084
811.865	25038
812.007	24878
812.148	24886
812.29	25027
812.431	25050
812.573	25255
812.714	25289
812.855	25244
812.997	25407
813.138	25502
813.279	25285
813.421	25381
813.562	25187
813.703	24985
813.845	24875
813.986	24509
814.127	24334
814.268	24239
814.41	24289
814.551	24159
814.692	24163
814.833	24186
814.974	24106
815.115	24049
815.256	23980
815.397	23980
815.539	23977
815.68	23859
815.821	23859
815.962	23805
816.103	23855
816.244	23676
816.385	23596
816.526	23474
816.666	23410
816.807	23170
816.948	23231
817.089	23330
817.23	23166
817.371	23178
817.512	23235
817.653	23109
817.793	23014
817.934	23235
818.075	23174
818.216	23117
818.356	23067
818.497	23048
818.638	22908
818.778	22809
818.919	22820
819.06	22923
819.2	22934
819.341	23022
819.481	23090
819.622	23151
819.762	23311
819.903	23239
820.043	23216
820.184	23155
820.324	23162
820.465	23178
820.605	23029
820.746	22972
820.886	22904
821.026	22972
821.167	23048
821.307	23102
821.447	22987
821.588	22748
821.728	22729
821.868	22615
822.008	22398
822.149	22356
822.289	22379
822.429	22200
822.569	22093
822.709	22158
822.849	21888
822.99	21972
823.13	21793
823.27	21606
823.41	21728
823.55	21686
823.69	21633
823.83	21625
823.97	21507
824.11	21443
824.25	21420
824.389	21416
824.529	21519
824.669	21401
824.809	21610
824.949	21511
825.089	21363
825.228	21447
825.368	21207
825.508	21363
825.648	21154
825.787	21203
825.927	21325
826.067	21135
826.206	21146
826.346	21249
826.485	21226
826.625	21214
826.765	21241
826.904	21302
827.044	20971
827.183	20979
827.323	20853
827.462	20861
827.601	20895
827.741	20853
827.88	20963
828.02	20670
828.159	20785
828.298	20868
828.437	20929
828.577	20872
828.716	20899
828.855	20746
828.994	20663
829.134	20533
829.273	20583
829.412	20495
829.551	20495
829.69	20541
829.829	20583
829.968	20613
830.107	20568
830.246	20518
830.385	20488
830.524	20434
830.663	20404
830.802	20130
830.941	20240
831.08	20069
831.219	20210
831.357	20062
831.496	20393
831.635	20210
831.774	20077
831.913	20069
832.051	19963
832.19	19837
832.329	19974
832.467	19940
832.606	19803
832.744	19856
832.883	19951
833.022	19875
833.16	20046
833.299	20103
833.437	20001
833.576	20092
833.714	20195
833.852	20282
833.991	20328
834.129	20370
834.267	20324
834.406	20328
834.544	20199
834.682	20149
834.821	20073
834.959	20396
835.097	20062
835.235	20130
835.373	19986
835.511	19932
835.65	19814
835.788	19765
835.926	19655
836.064	19525
836.202	19651
836.34	19723
836.478	19620
836.615	19700
836.753	19655
836.891	19845
837.029	19677
837.167	19559
837.305	19582
837.443	19594
837.58	19594
837.718	19537
837.856	19457
837.993	19411
838.131	19525
838.269	19346
838.406	19396
838.544	19365
838.681	19084
838.819	19076
838.956	18875
839.094	18859
839.231	19004
839.369	19095
839.506	19407
839.643	19164
839.781	18875
839.918	18875
840.055	18916
840.193	18871
840.33	18928
840.467	18909
840.604	18856
840.742	19145
840.879	18806
841.016	18806
841.153	18772
841.29	18985
841.427	18863
841.564	18863
841.701	18795
841.838	18825
841.975	18875
842.112	18673
842.249	18745
842.385	18673
842.522	18840
842.659	18707
842.796	18593
842.933	18669
843.069	18730
843.206	18627
843.343	18692
843.479	18715
843.616	18776
843.752	18597
843.889	18555
844.025	18726
844.162	18589
844.298	18677
844.435	18692
844.571	18669
844.708	18798
844.844	19145
844.98	19187
845.117	19537
845.253	19811
845.389	20381
845.525	21633
845.661	23904
845.798	26362
845.934	28668
846.07	29684
846.206	29105
846.342	27576
846.478	24852
846.614	22379
846.75	20602
846.886	19826
847.022	19168
847.158	18810
847.294	18528
847.429	18441
847.565	18292
847.701	18456
847.837	17984
847.972	17794
848.108	17916
848.244	17901
848.379	17680
848.515	17493
848.65	17592
848.786	17718
848.921	17562
849.057	17577
849.192	17638
849.328	17699
849.463	17615
849.598	17448
849.734	17455
849.869	17402
850.004	17417
850.14	17376
850.275	17356
850.41	17166
850.545	17288
850.68	17368
850.815	17341
850.95	17250
851.085	17478
851.22	17315
851.355	17277
851.49	17239
851.625	17303
851.76	17128
851.895	17041
852.03	17128
852.165	17326
852.299	17326
852.434	17318
852.569	17197
852.703	17292
852.838	17372
852.973	17524
853.107	17539
853.242	17337
853.376	17227
853.511	17204
853.645	17117
853.78	17368
853.914	17212
854.048	17231
854.183	17269
854.317	17235
854.451	17535
854.585	17250
854.72	17220
854.854	17254
854.988	17128
855.122	17239
855.256	17003
855.39	17178
855.524	17235
855.658	17269
855.792	17086
855.926	17235
856.06	17250
856.194	17250
856.327	17045
856.461	16991
856.595	17071
856.729	17151
856.862	17220
856.996	17143
857.13	17254
857.263	17223
857.397	17200
857.53	17075
857.664	17231
857.797	17162
857.931	17185
858.064	17109
858.197	17223
858.331	17060
858.464	17052
858.597	16889
858.731	17006
858.864	17067
858.997	17033
859.13	17147
859.263	16987
859.396	17140
859.529	16991
859.662	17010
859.795	16885
859.928	16995
860.061	17231
860.194	17132
860.327	17014
860.46	16938
860.592	17200
860.725	17060
860.858	17086
860.99	16957
861.123	16995
861.256	16896
861.388	16896
861.521	17790
861.653	16896
861.786	16854
861.918	16934
862.05	17003
862.183	16854
862.315	16927
862.447	17105
862.58	16995
862.712	16752
862.844	16721
862.976	16854
863.108	16835
863.24	17105
863.372	16626
863.504	16801
863.636	16721
863.768	16900
863.9	16713
864.032	16713
864.164	16660
864.296	16736
864.428	16824
864.559	16812
864.691	16843
864.823	16774
864.954	16725
865.086	16683
865.217	16584
865.349	16611
865.48	16763
865.612	16634
865.743	16862
865.875	16759
866.006	16618
866.137	16683
866.269	16580
866.4	16592
866.531	16603
866.662	16607
866.793	16535
866.924	16683
867.055	16538
867.186	16634
867.317	16615
867.448	16447
867.579	16508
867.71	16546
867.841	16478
867.972	16596
868.103	16668
868.233	16755
868.364	16584
868.495	16740
868.625	16850
868.756	17037
868.886	16805
869.017	16923
869.147	17086
869.278	17014
869.408	16877
869.539	16866
869.669	17083
869.799	16995
869.929	17018
870.06	17029
870.19	17303
870.32	17239
870.45	17227
870.58	17284
870.71	17448
870.84	17410
870.97	17303
871.1	17315
871.23	17395
871.36	17436
871.489	17474
871.619	17414
871.749	17509
871.879	17471
872.008	17611
872.138	17547
872.267	17455
872.397	17512
872.526	17402
872.656	17330
872.785	17455
872.915	17604
873.044	17718
873.173	17649
873.303	17733
873.432	17695
873.561	17775
873.69	17627
873.819	17676
873.948	17771
874.077	17764
874.206	17707
874.335	17646
874.464	17745
874.593	18049
874.722	18030
874.851	18019
874.979	18072
875.108	18114
875.237	18121
875.365	17980
875.494	18121
875.623	18148
875.751	18011
875.88	18209
876.008	18251
876.136	18403
876.265	18642
876.393	18757
876.521	18741
876.65	18665
876.778	18661
876.906	18582
877.034	18734
877.162	18692
877.29	18684
877.418	18932
877.546	18768
877.674	18856
877.802	18905
877.93	18939
878.058	18901
878.185	19095
878.313	19145
878.441	19304
878.568	19388
878.696	19670
878.824	19959
878.951	20579
879.079	21279
879.206	22059
879.333	22942
879.461	23589
879.588	23996
879.715	24022
879.842	23760
879.97	22850
880.097	21743
880.224	21009
880.351	20705
880.478	20339
880.605	20035
880.732	20043
880.859	19955
880.986	19731
881.112	19746
881.239	19533
881.366	19571
881.493	19358
881.619	19263
881.746	19369
881.872	19365
881.999	19384
882.125	19422
882.252	19586
882.378	19563
882.505	19677
882.631	19438
882.757	19282
882.883	19400
883.01	19190
883.136	19148
883.262	19088
883.388	19126
883.514	19255
883.64	19312
883.766	19274
883.892	19076
884.018	19088
884.143	19198
884.269	19225
884.395	19057
884.52	18966
884.646	19004
884.772	18848
884.897	18833
885.023	18947
885.148	19008
885.274	18970
885.399	18909
885.524	18795
885.65	18863
885.775	18730
885.9	18642
886.025	18722
886.15	18741
886.275	18452
886.4	18350
886.525	18361
886.65	18323
886.775	18243
886.9	18445
887.025	18437
887.149	18038
887.274	18038
887.399	17954
887.523	17897
887.648	17798
887.773	17855
887.897	17882
888.021	17779
888.146	17748
888.27	17779
888.395	17824
888.519	17764
888.643	17680
888.767	17707
888.891	17566
889.015	17570
889.139	17604
889.263	17311
889.387	17596
889.511	17630
889.635	17512
889.759	17417
889.883	17391
890.006	17376
890.13	17543
890.254	17387
890.377	17356
890.501	17022
890.624	17090
890.748	17147
890.871	17067
890.995	16923
891.118	16740
891.241	16927
891.364	17003
891.488	17052
891.611	16889
891.734	16843
891.857	16850
891.98	16809
892.103	16953
892.226	16881
892.349	16774
892.471	16596
892.594	16839
892.717	16694
892.839	16710
892.962	16759
893.085	16778
893.207	16736
893.33	16584
893.452	16535
893.575	16691
893.697	16687
893.819	16763
893.941	16820
894.064	16820
894.186	16672
894.308	16493
894.43	16725
894.552	16816
894.674	16710
894.796	16550
894.918	16649
895.04	16569
895.161	16683
895.283	16713
895.405	16599
895.526	16611
895.648	16615
895.769	16584
895.891	16729
896.012	16710
896.134	16736
896.255	16702
896.376	16733
896.498	16641
896.619	16698
896.74	16653
896.861	16721
896.982	16949
897.103	17136
897.224	16976
897.345	16927
897.466	16763
897.587	16930
897.708	16999
897.828	16919
897.949	16862
898.07	16759
898.19	16797
898.311	16961
898.431	16854
898.552	16984
898.672	16946
898.792	17086
898.913	17006
899.033	16889
899.153	16866
899.273	16653
899.393	16843
899.513	16828
899.633	16782
899.753	16755
899.873	16736
899.993	16858
900.113	16713
900.232	16828
900.352	16774
900.472	16698
900.591	16584
900.711	16577
900.83	16584
900.95	16767
901.069	16687
901.189	16481
901.308	16341
901.427	16295
901.546	16215
901.665	16230
901.784	16261
901.904	16112
902.023	16010
902.141	15819
902.26	15789
902.379	15774
902.498	15675
902.617	15743
902.735	15781
902.854	15660
902.973	15660
903.091	15428
903.21	15458
903.328	15317
903.446	15378
903.565	15222
903.683	15233
903.801	15047
903.919	15180
904.038	15116
904.156	14960
904.274	15024
904.392	14944
904.51	15020
904.627	14906
904.745	15039
904.863	14960
904.981	14708
905.098	14670
905.216	14587
905.334	14644
905.451	14693
905.569	14549
905.686	14636
905.803	14530
905.921	14454
906.038	14465
906.155	14427
906.272	14313
906.389	14328
906.506	14130
906.623	14164
906.74	14096
906.857	14012
906.974	14031
907.091	14191
907.208	14282
907.324	14199
907.441	14119
907.557	13921
907.674	13928
907.79	13871
907.907	13833
908.023	13906
908.139	13868
908.256	13833
908.372	13833
908.488	13761
908.604	13761
908.72	13567
908.836	13556
908.952	13563
909.068	13605
909.184	13597
909.3	13647
909.415	13670
909.531	13632
909.647	13354
909.762	13331
909.878	13251
909.993	13324
910.108	13255
910.224	13343
910.339	13304
910.454	13171
910.57	13099
910.685	13156
910.8	13415
910.915	13304
911.03	13202
911.145	13012
911.259	12924
911.374	12966
911.489	12897
911.604	12776
911.718	12779
911.833	12779
911.947	12665
912.062	12555
912.176	12711
912.291	12639
912.405	12738
912.519	12913
912.633	12806
912.748	12848
912.862	12703
912.976	12574
913.09	12456
913.204	12551
913.318	12582
913.431	12707
913.545	12631
913.659	12692
913.772	12574
913.886	12498
914	12445
914.113	12566
914.226	12582
914.34	12483
914.453	12380
914.566	12506
914.68	12330
914.793	12456
914.906	12239
915.019	12220
915.132	12034
915.245	12190
915.358	12129
915.47	12175
915.583	12102
915.696	12190
915.809	12292
915.921	12205
916.034	12106
916.146	12068
916.259	12041
916.371	12114
916.483	12159
916.595	12041
916.708	12076
916.82	12102
916.932	12064
917.044	12045
917.156	11942
917.268	11889
917.38	11973
917.491	11939
917.603	12022
917.715	12038
917.826	11988
917.938	11927
918.049	11794
918.161	11912
918.272	11996
918.384	11935
918.495	11847
918.606	11828
918.717	11672
918.828	11710
918.939	11813
919.05	11688
919.161	11733
919.272	11585
919.383	11589
919.494	11802
919.604	11870
919.715	11680
919.826	11585
919.936	11668
920.047	11824
920.157	11729
920.267	11958
920.378	11790
920.488	11748
920.598	11855
920.708	12095
920.818	11950
920.928	11897
921.038	12060
921.148	11973
921.258	11688
921.368	11657
921.477	11509
921.587	11486
921.697	11501
921.806	11577
921.916	11383
922.025	11250
922.134	11124
922.244	11147
922.353	11280
922.462	11071
922.571	10995
922.68	10858
922.789	10805
922.898	10854
923.007	10797
923.116	10942
923.224	10877
923.333	10797
923.442	10691
923.55	10672
923.659	10721
923.767	10797
923.876	10675
923.984	10763
924.092	10588
924.201	10679
924.309	10634
924.417	10664
924.525	10603
924.633	10653
924.741	11577
924.849	10363
924.956	10523
925.064	10459
925.172	10386
925.279	10424
925.387	10493
925.494	10500
925.602	10645
925.709	10500
925.816	10432
925.924	10402
926.031	10519
926.138	10421
926.245	10402
926.352	10367
926.459	10459
926.566	10588
926.673	10356
926.779	10257
926.886	10230
926.993	10158
927.099	10086
927.206	9979
927.312	10063
927.419	10200
927.525	10169
927.631	10074
927.737	9991
927.843	9903
927.95	9835
928.056	9937
928.162	9941
928.267	10044
928.373	10622
928.479	10116
928.585	9873
928.69	10021
928.796	10036
928.901	9960
929.007	9713
929.112	9861
929.218	9774
929.323	9835
929.428	9743
929.533	9922
929.638	9606
929.743	9686
929.848	9781
929.953	9736
930.058	9625
930.163	9485
930.267	9507
930.372	9717
930.477	9447
930.581	9759
930.685	9682
930.79	9515
930.894	9450
930.998	9412
931.103	9553
931.207	9173
931.311	9116
931.415	9127
931.519	8838
931.623	8910
