Data from test_V78500241_927.txt Node
Date: Fri Mar 25 14:40:10 CST 2022
User: usil
Spectrometer: V785-0024
Trigger mode: 0
Integration Time (sec): 4.000000E-1
Scans to average: 1
Nonlinearity correction enabled: false
Boxcar width: 0
Storing dark spectrum: false
XAxis mode: Wavelengths
Number of Pixels in Spectrum: 1024
>>>>>Begin Spectral Data<<<<<
801.071	24692
801.214	24566
801.356	24285
801.499	24220
801.641	24049
801.783	23992
801.926	24045
802.068	23893
802.211	23779
802.353	23760
802.496	23589
802.638	23379
802.78	23471
802.923	23414
803.065	23235
803.208	23315
803.35	23364
803.492	23368
803.635	23440
803.777	23258
803.919	23330
804.061	23623
804.204	23379
804.346	23296
804.488	23288
804.63	23269
804.773	23086
804.915	23334
805.057	23566
805.199	23353
805.341	23345
805.483	23482
805.626	23490
805.768	23307
805.91	23414
806.052	23425
806.194	23391
806.336	23703
806.478	23440
806.62	23376
806.762	23649
806.904	23824
807.046	24091
807.188	24053
807.33	24251
807.472	24178
807.614	24213
807.756	24334
807.898	24494
808.04	24433
808.182	24871
808.324	25285
808.465	25677
808.607	26339
808.749	26705
808.891	27051
809.033	27188
809.174	26762
809.316	26294
809.458	25799
809.6	25403
809.741	25072
809.883	24734
810.025	24795
810.166	24620
810.308	24464
810.45	24292
810.591	24258
810.733	24018
810.875	23843
811.016	23764
811.158	23752
811.299	23726
811.441	23790
811.582	23878
811.724	23623
811.865	23661
812.007	23646
812.148	23813
812.29	23657
812.431	23748
812.573	24083
812.714	23889
812.855	24087
812.997	24182
813.138	24285
813.279	24178
813.421	24133
813.562	23980
813.703	23908
813.845	23836
813.986	23482
814.127	23330
814.268	23147
814.41	23136
814.551	23064
814.692	23277
814.833	23060
814.974	22987
815.115	23159
815.256	22942
815.397	22934
815.539	22923
815.68	22885
815.821	22782
815.962	22801
816.103	22805
816.244	22641
816.385	22607
816.526	22561
816.666	22428
816.807	22314
816.948	22295
817.089	22291
817.23	22207
817.371	22219
817.512	22253
817.653	22272
817.793	22082
817.934	22249
818.075	22314
818.216	22230
818.356	22211
818.497	21964
818.638	21903
818.778	21854
818.919	21903
819.06	21983
819.2	21991
819.341	22101
819.481	22082
819.622	22215
819.762	22261
819.903	22314
820.043	22181
820.184	22207
820.324	22154
820.465	22169
820.605	22105
820.746	22177
820.886	21994
821.026	22147
821.167	22017
821.307	22166
821.447	22078
821.588	21937
821.728	21892
821.868	21648
822.008	21496
822.149	21477
822.289	21424
822.429	21211
822.569	21218
822.709	21150
822.849	20990
822.99	21093
823.13	21032
823.27	20864
823.41	20682
823.55	20724
823.69	20712
823.83	20845
823.97	20686
824.11	20594
824.25	20492
824.389	20549
824.529	20632
824.669	20530
824.809	20788
824.949	20739
825.089	20564
825.228	20587
825.368	20450
825.508	20275
825.648	20328
825.787	20408
825.927	20336
826.067	20271
826.206	20237
826.346	20298
826.485	20305
826.625	20286
826.765	20370
826.904	20442
827.044	20115
827.183	19997
827.323	19860
827.462	20111
827.601	19936
827.741	19913
827.88	19989
828.02	19906
828.159	19921
828.298	20035
828.437	19932
828.577	19837
828.716	19970
828.855	19963
828.994	19761
829.134	19677
829.273	19700
829.412	19704
829.551	19578
829.69	19594
829.829	19738
829.968	19772
830.107	19791
830.246	19700
830.385	19586
830.524	19609
830.663	19449
830.802	19373
830.941	19297
831.08	19255
831.219	19350
831.357	19331
831.496	19426
831.635	19308
831.774	19118
831.913	19213
832.051	19027
832.19	18939
832.329	19095
832.467	18939
832.606	18837
832.744	19015
832.883	19076
833.022	18863
833.16	18966
833.299	18996
833.437	18970
833.576	19126
833.714	19057
833.852	19228
833.991	19206
834.129	19152
834.267	19179
834.406	19129
834.544	19175
834.682	19088
834.821	19091
834.959	19285
835.097	19084
835.235	19053
835.373	19046
835.511	18996
835.65	18852
835.788	18859
835.926	18734
836.064	18639
836.202	18612
836.34	18878
836.478	18837
836.615	18856
836.753	18795
836.891	18760
837.029	18852
837.167	18779
837.305	18779
837.443	18661
837.58	18631
837.718	18711
837.856	18692
837.993	18646
838.131	18627
838.269	18604
838.406	18658
838.544	18467
838.681	18445
838.819	18239
838.956	18144
839.094	18152
839.231	18190
839.369	18277
839.506	18608
839.643	18403
839.781	18152
839.918	18076
840.055	18296
840.193	18209
840.33	18159
840.467	18182
840.604	18213
840.742	18502
840.879	18087
841.016	18030
841.153	18026
841.29	18186
841.427	18178
841.564	18152
841.701	18144
841.838	18068
841.975	17996
842.112	17969
842.249	17935
842.385	17821
842.522	18167
842.659	17885
842.796	17802
842.933	17863
843.069	17745
843.206	17790
843.343	17904
843.479	17904
843.616	17794
843.752	17729
843.889	17745
844.025	17847
844.162	17581
844.298	17821
844.435	17790
844.571	17722
844.708	17748
844.844	18019
844.98	17935
845.117	18060
845.253	18030
845.389	18098
845.525	18620
845.661	19422
845.798	20199
845.934	21028
846.07	21325
846.206	21154
846.342	20739
846.478	19799
846.614	18730
846.75	18121
846.886	17756
847.022	17642
847.158	17505
847.294	17395
847.429	17410
847.565	17239
847.701	17398
847.837	17018
847.972	16820
848.108	17041
848.244	17006
848.379	16847
848.515	16694
848.65	16820
848.786	16793
848.921	16919
849.057	16782
849.192	16786
849.328	16672
849.463	16748
849.598	16656
849.734	16675
849.869	16755
850.004	16596
850.14	16535
850.275	16538
850.41	16451
850.545	16390
850.68	16470
850.815	16531
850.95	16500
851.085	16569
851.22	16603
851.355	16516
851.49	16489
851.625	16440
851.76	16462
851.895	16367
852.03	16333
852.165	16531
852.299	16451
852.434	16535
852.569	16615
852.703	16455
852.838	16580
852.973	16634
853.107	16584
853.242	16478
853.376	16421
853.511	16192
853.645	16356
853.78	16485
853.914	16382
854.048	16375
854.183	16367
854.317	16402
854.451	16512
854.585	16459
854.72	16356
854.854	16466
854.988	16318
855.122	16295
855.256	16177
855.39	16314
855.524	16428
855.658	16344
855.792	16352
855.926	16360
856.06	16459
856.194	16451
856.327	16265
856.461	16287
856.595	16299
856.729	16207
856.862	16379
856.996	16306
857.13	16379
857.263	16432
857.397	16348
857.53	16291
857.664	16382
857.797	16428
857.931	16485
858.064	16455
858.197	16314
858.331	16375
858.464	16230
858.597	16162
858.731	16352
858.864	16303
858.997	16295
859.13	16246
859.263	16348
859.396	16390
859.529	16318
859.662	16261
859.795	16284
859.928	16261
860.061	16440
860.194	16443
860.327	16261
860.46	16322
860.592	16417
860.725	16459
860.858	16459
860.99	16398
861.123	16287
861.256	16192
861.388	16322
861.521	16930
861.653	16116
861.786	16078
861.918	16154
862.05	16192
862.183	16173
862.315	16325
862.447	16261
862.58	16402
862.712	16048
862.844	16002
862.976	16074
863.108	16017
863.24	16489
863.372	15915
863.504	16036
863.636	15994
863.768	15991
863.9	16044
864.032	16017
864.164	15998
864.296	16032
864.428	16192
864.559	16071
864.691	16158
864.823	16082
864.954	16177
865.086	15983
865.217	15998
865.349	15972
865.48	15960
865.612	16067
865.743	16082
865.875	16040
866.006	15983
866.137	16021
866.269	16036
866.4	16025
866.531	15972
866.662	15937
866.793	15800
866.924	16021
867.055	16017
867.186	16063
867.317	15972
867.448	15854
867.579	16010
867.71	15865
867.841	15956
867.972	16025
868.103	15884
868.233	15998
868.364	15975
868.495	16097
868.625	16226
868.756	16272
868.886	16158
869.017	16226
869.147	16310
869.278	16398
869.408	16299
869.539	16181
869.669	16265
869.799	16207
869.929	16360
870.06	16226
870.19	16474
870.32	16504
870.45	16577
870.58	16550
870.71	16717
870.84	16713
870.97	16672
871.1	16466
871.23	16721
871.36	16816
871.489	16702
871.619	16755
871.749	16820
871.879	16767
872.008	16854
872.138	16843
872.267	16885
872.397	16618
872.526	16599
872.656	16569
872.785	16577
872.915	16923
873.044	16923
873.173	16877
873.303	16923
873.432	16949
873.561	16968
873.69	16850
873.819	16911
873.948	16972
874.077	16850
874.206	16915
874.335	16904
874.464	17048
874.593	17208
874.722	17090
874.851	17200
874.979	17258
875.108	17258
875.237	17254
875.365	17189
875.494	17136
875.623	17254
875.751	17204
875.88	17220
876.008	17383
876.136	17368
876.265	17695
876.393	17840
876.521	17714
876.65	17722
876.778	17832
876.906	17661
877.034	17627
877.162	17718
877.29	17718
877.418	17661
877.546	17638
877.674	17794
877.802	17821
877.93	17756
878.058	17699
878.185	17668
878.313	17798
878.441	17859
878.568	17855
878.696	17996
878.824	18098
878.951	18429
879.079	18620
879.206	18977
879.333	19148
879.461	19369
879.588	19563
879.715	19563
879.842	19662
879.97	19183
880.097	18760
880.224	18399
880.351	18292
880.478	18148
880.605	18064
880.732	17965
880.859	18213
880.986	17882
881.112	17897
881.239	17874
881.366	17726
881.493	17657
881.619	17691
881.746	17566
881.872	17600
881.999	17585
882.125	17558
882.252	17600
882.378	17634
882.505	17752
882.631	17596
882.757	17448
882.883	17493
883.01	17315
883.136	17235
883.262	17334
883.388	17208
883.514	17471
883.64	17433
883.766	17296
883.892	17231
884.018	17246
884.143	17299
884.269	17509
884.395	17277
884.52	17079
884.646	17094
884.772	17014
884.897	17056
885.023	17098
885.148	17151
885.274	17212
885.399	17136
885.524	17075
885.65	17094
885.775	16961
885.9	16934
886.025	17018
886.15	16980
886.275	16892
886.4	16877
886.525	16885
886.65	16793
886.775	16892
886.9	17048
887.025	17029
887.149	16782
887.274	16588
887.399	16599
887.523	16649
887.648	16558
887.773	16398
887.897	16672
888.021	16656
888.146	16493
888.27	16736
888.395	16672
888.519	16683
888.643	16561
888.767	16649
888.891	16443
889.015	16424
889.139	16287
889.263	16314
889.387	16535
889.511	16470
889.635	16508
889.759	16382
889.883	16234
890.006	16409
890.13	16424
890.254	16337
890.377	16226
890.501	16029
890.624	16105
890.748	16158
890.871	16112
890.995	16010
891.118	15941
891.241	16067
891.364	15975
891.488	16032
891.611	15937
891.734	16013
891.857	16017
891.98	15987
892.103	16017
892.226	15926
892.349	15865
892.471	15774
892.594	15983
892.717	15850
892.839	15747
892.962	15922
893.085	15975
893.207	15857
893.33	15816
893.452	15778
893.575	15991
893.697	15831
893.819	15979
893.941	16044
894.064	16029
894.186	15861
894.308	15854
894.43	15998
894.552	15983
894.674	15956
894.796	15816
894.918	15800
895.04	15899
895.161	15949
895.283	15991
895.405	15831
895.526	15899
895.648	15895
895.769	15888
895.891	15888
896.012	16116
896.134	16029
896.255	15918
896.376	15930
896.498	15945
896.619	16010
896.74	16025
896.861	16055
896.982	16261
897.103	16489
897.224	16322
897.345	16158
897.466	16109
897.587	16303
897.708	16489
897.828	16303
897.949	16200
898.07	16078
898.19	16284
898.311	16379
898.431	16166
898.552	16314
898.672	16379
898.792	16443
898.913	16390
899.033	16200
899.153	16124
899.273	16017
899.393	16238
899.513	16097
899.633	16154
899.753	16188
899.873	16071
899.993	16253
900.113	16238
900.232	16162
900.352	16162
900.472	16006
900.591	15987
900.711	15983
900.83	15983
900.95	16124
901.069	16188
901.189	15884
901.308	15770
901.427	15713
901.546	15660
901.665	15648
901.784	15720
901.904	15629
902.023	15447
902.141	15252
902.26	15256
902.379	15173
902.498	15116
902.617	15009
902.735	15241
902.854	15142
902.973	15100
903.091	14861
903.21	14811
903.328	14880
903.446	14849
903.565	14648
903.683	14670
903.801	14716
903.919	14617
904.038	14598
904.156	14404
904.274	14446
904.392	14518
904.51	14537
904.627	14446
904.745	14571
904.863	14415
904.981	14263
905.098	14206
905.216	14088
905.334	14195
905.451	14092
905.569	14062
905.686	14176
905.803	14096
905.921	14016
906.038	14035
906.155	13932
906.272	13765
906.389	13837
906.506	13723
906.623	13696
906.74	13578
906.857	13556
906.974	13567
907.091	13723
907.208	13822
907.324	13681
907.441	13628
907.557	13441
907.674	13362
907.79	13468
907.907	13430
908.023	13377
908.139	13350
908.256	13308
908.372	13320
908.488	13247
908.604	13145
908.72	13110
908.836	13160
908.952	13171
909.068	13160
909.184	13232
909.3	12962
909.415	13190
909.531	13095
909.647	12829
909.762	12856
909.878	12806
909.993	12943
910.108	12772
910.224	12802
910.339	12897
910.454	12795
910.57	12764
910.685	12635
910.8	13031
910.915	12886
911.03	12677
911.145	12540
911.259	12513
911.374	12490
911.489	12506
911.604	12308
911.718	12327
911.833	12247
911.947	12186
912.062	12034
912.176	12289
912.291	12213
912.405	12129
912.519	12346
912.633	12448
912.748	12304
912.862	12262
912.976	12144
913.09	12019
913.204	12121
913.318	12155
913.431	12201
913.545	12243
913.659	12296
913.772	12057
913.886	11969
914	11984
914.113	12098
914.226	12072
914.34	12072
914.453	11870
914.566	12015
914.68	11889
914.793	11878
914.906	11775
915.019	11752
915.132	11547
915.245	11760
915.358	11786
915.47	11775
915.583	11699
915.696	11767
915.809	11904
915.921	11874
916.034	11676
916.146	11604
916.259	11665
916.371	11737
916.483	11695
916.595	11585
916.708	11604
916.82	11646
916.932	11619
917.044	11520
917.156	11661
917.268	11520
917.38	11493
917.491	11505
917.603	11520
917.715	11501
917.826	11684
917.938	11436
918.049	11360
918.161	11543
918.272	11634
918.384	11615
918.495	11463
918.606	11398
918.717	11288
918.828	11387
918.939	11364
919.05	11330
919.161	11322
919.272	11098
919.383	11140
919.494	11330
919.604	11486
919.715	11296
919.826	11261
919.936	11372
920.047	11463
920.157	11299
920.267	11573
920.378	11368
920.488	11360
920.598	11482
920.708	11653
920.818	11512
920.928	11505
921.038	11604
921.148	11512
921.258	11334
921.368	11258
921.477	11143
921.587	11132
921.697	11041
921.806	11181
921.916	11010
922.025	10828
922.134	10774
922.244	10736
922.353	10847
922.462	10672
922.571	10630
922.68	10489
922.789	10466
922.898	10500
923.007	10504
923.116	10508
923.224	10424
923.333	10489
923.442	10325
923.55	10337
923.659	10508
923.767	10424
923.876	10344
923.984	10443
924.092	10265
924.201	10325
924.309	10299
924.417	10398
924.525	10162
924.633	10329
924.741	11067
924.849	10074
924.956	10215
925.064	10071
925.172	9956
925.279	10082
925.387	10154
925.494	10143
925.602	10150
925.709	10150
925.816	9972
925.924	10116
926.031	10242
926.138	10093
926.245	10078
926.352	9945
926.459	10086
926.566	10200
926.673	10032
926.779	9960
926.886	9899
926.993	9808
927.099	9816
927.206	9759
927.312	9686
927.419	9797
927.525	9850
927.631	9827
927.737	9686
927.843	9599
927.95	9500
928.056	9622
928.162	9576
928.267	9751
928.373	10341
928.479	9793
928.585	9530
928.69	9648
928.796	9679
928.901	9515
929.007	9454
929.112	9591
929.218	9454
929.323	9504
929.428	9492
929.533	9606
929.638	9367
929.743	9386
929.848	9408
929.953	9443
930.058	9405
930.163	9157
930.267	9214
930.372	9367
930.477	9161
930.581	9447
930.685	9287
930.79	9112
930.894	9195
930.998	9173
931.103	9249
931.207	8929
931.311	8857
931.415	8743
931.519	8644
931.623	8632
