Data from test_V78500241_2556.txt Node
Date: Fri Mar 25 14:51:30 CST 2022
User: usil
Spectrometer: V785-0024
Trigger mode: 0
Integration Time (sec): 4.000000E-1
Scans to average: 1
Nonlinearity correction enabled: false
Boxcar width: 0
Storing dark spectrum: false
XAxis mode: Wavelengths
Number of Pixels in Spectrum: 1024
>>>>>Begin Spectral Data<<<<<
801.071	21850
801.214	21838
801.356	21610
801.499	21500
801.641	21507
801.783	21344
801.926	21504
802.068	21294
802.211	21275
802.353	21218
802.496	20914
802.638	20956
802.78	20842
802.923	20868
803.065	20716
803.208	20739
803.35	20629
803.492	20872
803.635	20834
803.777	20777
803.919	20804
804.061	21077
804.204	20727
804.346	20587
804.488	20564
804.63	20617
804.773	20625
804.915	20609
805.057	20758
805.199	20575
805.341	20617
805.483	20727
805.626	20632
805.768	20674
805.91	20579
806.052	20724
806.194	20533
806.336	20750
806.478	20670
806.62	20549
806.762	20686
806.904	20788
807.046	21070
807.188	20979
807.33	20883
807.472	20967
807.614	20975
807.756	20918
807.898	20655
808.04	20659
808.182	20655
808.324	20663
808.465	20773
808.607	20944
808.749	21051
808.891	21077
809.033	21116
809.174	20975
809.316	20941
809.458	21005
809.6	21085
809.741	21020
809.883	21096
810.025	21184
810.166	21195
810.308	21173
810.45	21047
810.591	21089
810.733	20876
810.875	20868
811.016	20674
811.158	20663
811.299	20914
811.441	20902
811.582	20861
811.724	20750
811.865	20735
812.007	20739
812.148	20861
812.29	20811
812.431	20960
812.573	21074
812.714	21131
812.855	21256
812.997	21382
813.138	21534
813.279	21294
813.421	21268
813.562	21287
813.703	21100
813.845	20842
813.986	20594
814.127	20522
814.268	20442
814.41	20450
814.551	20290
814.692	20404
814.833	20290
814.974	20309
815.115	20290
815.256	20229
815.397	20168
815.539	20256
815.68	20142
815.821	20092
815.962	20073
816.103	19955
816.244	19940
816.385	19826
816.526	19738
816.666	19723
816.807	19365
816.948	19616
817.089	19578
817.23	19540
817.371	19472
817.512	19472
817.653	19453
817.793	19320
817.934	19472
818.075	19483
818.216	19449
818.356	19388
818.497	19327
818.638	19126
818.778	18966
818.919	19129
819.06	19114
819.2	19270
819.341	19388
819.481	19282
819.622	19392
819.762	19723
819.903	19594
820.043	19540
820.184	19445
820.324	19430
820.465	19502
820.605	19415
820.746	19392
820.886	19331
821.026	19335
821.167	19335
821.307	19548
821.447	19213
821.588	19202
821.728	19095
821.868	18973
822.008	18897
822.149	18859
822.289	18844
822.429	18563
822.569	18475
822.709	18506
822.849	18410
822.99	18277
823.13	18285
823.27	18289
823.41	18235
823.55	18060
823.69	18197
823.83	18076
823.97	18148
824.11	17885
824.25	17870
824.389	17828
824.529	17939
824.669	17908
824.809	17950
824.949	17969
825.089	17977
825.228	17920
825.368	17756
825.508	17661
825.648	17714
825.787	17634
825.927	17798
826.067	17695
826.206	17608
826.346	17615
826.485	17615
826.625	17699
826.765	17741
826.904	17703
827.044	17490
827.183	17398
827.323	17208
827.462	17486
827.601	17444
827.741	17273
827.88	17376
828.02	17318
828.159	17330
828.298	17383
828.437	17471
828.577	17277
828.716	17406
828.855	17364
828.994	17166
829.134	17098
829.273	17181
829.412	17094
829.551	17102
829.69	17189
829.829	17231
829.968	17231
830.107	17159
830.246	17204
830.385	17086
830.524	16968
830.663	17067
830.802	16862
830.941	16790
831.08	16767
831.219	16725
831.357	16885
831.496	17022
831.635	16824
831.774	16645
831.913	16588
832.051	16710
832.19	16474
832.329	16565
832.467	16569
832.606	16379
832.744	16386
832.883	16409
833.022	16428
833.16	16512
833.299	16432
833.437	16596
833.576	16531
833.714	16519
833.852	16584
833.991	16561
834.129	16542
834.267	16630
834.406	16535
834.544	16554
834.682	16561
834.821	16455
834.959	16717
835.097	16554
835.235	16580
835.373	16554
835.511	16405
835.65	16379
835.788	16398
835.926	16246
836.064	16173
836.202	16234
836.34	16508
836.478	16523
836.615	16440
836.753	16447
836.891	16481
837.029	16523
837.167	16375
837.305	16314
837.443	16276
837.58	16257
837.718	16398
837.856	16280
837.993	16200
838.131	16318
838.269	16105
838.406	16295
838.544	16188
838.681	15930
838.819	16055
838.956	15880
839.094	15793
839.231	15937
839.369	15972
839.506	16253
839.643	16025
839.781	15888
839.918	15778
840.055	15785
840.193	15808
840.33	15854
840.467	15880
840.604	15918
840.742	16120
840.879	15816
841.016	15698
841.153	15724
841.29	15907
841.427	15789
841.564	15926
841.701	15857
841.838	15857
841.975	15728
842.112	15751
842.249	15660
842.385	15572
842.522	15713
842.659	15652
842.796	15644
842.933	15625
843.069	15549
843.206	15599
843.343	15728
843.479	15584
843.616	15641
843.752	15477
843.889	15374
844.025	15599
844.162	15348
844.298	15492
844.435	15351
844.571	15294
844.708	15545
844.844	15534
844.98	15500
845.117	15530
845.253	15310
845.389	15279
845.525	15325
845.661	15321
845.798	15188
845.934	15291
846.07	15161
846.206	15291
846.342	15329
846.478	15176
846.614	15058
846.75	14876
846.886	14876
847.022	15028
847.158	14963
847.294	14925
847.429	15074
847.565	14941
847.701	15195
847.837	14815
847.972	14716
848.108	14785
848.244	14731
848.379	14670
848.515	14571
848.65	14564
848.786	14655
848.921	14541
849.057	14727
849.192	14670
849.328	14697
849.463	14545
849.598	14625
849.734	14473
849.869	14438
850.004	14343
850.14	14442
850.275	14465
850.41	14309
850.545	14206
850.68	14294
850.815	14400
850.95	14313
851.085	14560
851.22	14400
851.355	14442
851.49	14332
851.625	14271
851.76	14328
851.895	14336
852.03	14267
852.165	14320
852.299	14396
852.434	14370
852.569	14434
852.703	14419
852.838	14427
852.973	14457
853.107	14461
853.242	14324
853.376	14259
853.511	14176
853.645	14229
853.78	14237
853.914	14271
854.048	14199
854.183	14172
854.317	14172
854.451	14336
854.585	14240
854.72	14259
854.854	14343
854.988	14145
855.122	14229
855.256	14183
855.39	14305
855.524	14290
855.658	14339
855.792	14206
855.926	14214
856.06	14233
856.194	14301
856.327	14267
856.461	14221
856.595	14092
856.729	14157
856.862	14237
856.996	14271
857.13	14275
857.263	14313
857.397	14221
857.53	14145
857.664	14218
857.797	14256
857.931	14298
858.064	14248
858.197	14271
858.331	14267
858.464	14214
858.597	14126
858.731	14142
858.864	14191
858.997	14115
859.13	14172
859.263	14225
859.396	14320
859.529	14138
859.662	14237
859.795	14294
859.928	14309
860.061	14438
860.194	14351
860.327	14275
860.46	14237
860.592	14347
860.725	14377
860.858	14332
860.99	14229
861.123	14081
861.256	14058
861.388	14301
861.521	14918
861.653	14225
861.786	14123
861.918	14046
862.05	14081
862.183	14256
862.315	14225
862.447	14271
862.58	14187
862.712	14046
862.844	13837
862.976	14043
863.108	14024
863.24	14530
863.372	13917
863.504	13982
863.636	14031
863.768	14077
863.9	14012
864.032	13967
864.164	13963
864.296	13906
864.428	14130
864.559	14168
864.691	14134
864.823	14088
864.954	14065
865.086	14054
865.217	14096
865.349	13959
865.48	14024
865.612	14005
865.743	14164
865.875	14031
866.006	13982
866.137	13989
866.269	14005
866.4	14005
866.531	13902
866.662	13883
866.793	13906
866.924	13936
867.055	14092
867.186	14008
867.317	13944
867.448	13887
867.579	14008
867.71	13856
867.841	13822
867.972	14008
868.103	13936
868.233	14008
868.364	13963
868.495	14100
868.625	14252
868.756	14389
868.886	14168
869.017	14157
869.147	14415
869.278	14362
869.408	14233
869.539	14320
869.669	14282
869.799	14248
869.929	14309
870.06	14389
870.19	14442
870.32	14503
870.45	14549
870.58	14659
870.71	14716
870.84	14708
870.97	14693
871.1	14701
871.23	14880
871.36	14838
871.489	14773
871.619	14762
871.749	14762
871.879	14868
872.008	14876
872.138	14807
872.267	14838
872.397	14670
872.526	14758
872.656	14617
872.785	14625
872.915	14910
873.044	14868
873.173	14868
873.303	14933
873.432	14956
873.561	14967
873.69	14975
873.819	14842
873.948	14937
874.077	14868
874.206	14773
874.335	14823
874.464	15028
874.593	15222
874.722	15207
874.851	15222
874.979	15203
875.108	15298
875.237	15192
875.365	15214
875.494	15127
875.623	15313
875.751	15199
875.88	15207
876.008	15317
876.136	15363
876.265	15599
876.393	15770
876.521	15671
876.65	15713
876.778	15614
876.906	15603
877.034	15538
877.162	15584
877.29	15534
877.418	15629
877.546	15720
877.674	15637
877.802	15686
877.93	15553
878.058	15447
878.185	15507
878.313	15561
878.441	15641
878.568	15397
878.696	15576
878.824	15717
878.951	15743
879.079	15759
879.206	15892
879.333	15816
879.461	15618
879.588	15717
879.715	15698
879.842	15907
879.97	15625
880.097	15530
880.224	15389
880.351	15469
880.478	15488
880.605	15447
880.732	15545
880.859	15755
880.986	15485
881.112	15481
881.239	15431
881.366	15241
881.493	15203
881.619	15077
881.746	15222
881.872	15062
881.999	15241
882.125	15127
882.252	15195
882.378	15233
882.505	15275
882.631	15169
882.757	15043
882.883	15108
883.01	14998
883.136	14853
883.262	14876
883.388	14804
883.514	15013
883.64	15032
883.766	14929
883.892	14830
884.018	14834
884.143	14967
884.269	15097
884.395	14724
884.52	14693
884.646	14663
884.772	14621
884.897	14648
885.023	14689
885.148	14811
885.274	14910
885.399	14754
885.524	14682
885.65	14750
885.775	14750
885.9	14667
886.025	14819
886.15	14762
886.275	14743
886.4	14659
886.525	14640
886.65	14632
886.775	14594
886.9	14762
887.025	14895
887.149	14651
887.274	14590
887.399	14530
887.523	14522
887.648	14423
887.773	14480
887.897	14594
888.021	14530
888.146	14488
888.27	14533
888.395	14625
888.519	14560
888.643	14594
888.767	14606
888.891	14480
889.015	14286
889.139	14450
889.263	14336
889.387	14339
889.511	14587
889.635	14575
889.759	14412
889.883	14347
890.006	14473
890.13	14537
890.254	14237
890.377	14305
890.501	14191
890.624	14256
890.748	14244
890.871	14145
890.995	14058
891.118	14092
891.241	14073
891.364	14065
891.488	14161
891.611	14020
891.734	14123
891.857	14180
891.98	14115
892.103	14225
892.226	14111
892.349	14046
892.471	13963
892.594	14058
892.717	14161
892.839	14107
892.962	14180
893.085	14176
893.207	14092
893.33	13940
893.452	13936
893.575	14107
893.697	14050
893.819	14229
893.941	14324
894.064	14237
894.186	14046
894.308	13974
894.43	14214
894.552	14328
894.674	14244
894.796	14031
894.918	14142
895.04	14065
895.161	14259
895.283	14267
895.405	14096
895.526	14145
895.648	14263
895.769	14248
895.891	14256
896.012	14244
896.134	14351
896.255	14149
896.376	14313
896.498	14256
896.619	14320
896.74	14305
896.861	14385
896.982	14598
897.103	14746
897.224	14518
897.345	14564
897.466	14511
897.587	14533
897.708	14632
897.828	14541
897.949	14526
898.07	14366
898.19	14446
898.311	14644
898.431	14450
898.552	14598
898.672	14765
898.792	14701
898.913	14556
899.033	14587
899.153	14537
899.273	14381
899.393	14454
899.513	14400
899.633	14457
899.753	14450
899.873	14347
899.993	14438
900.113	14488
900.232	14545
900.352	14457
900.472	14374
900.591	14271
900.711	14377
900.83	14343
900.95	14511
901.069	14404
901.189	14221
901.308	14077
901.427	13932
901.546	14035
901.665	14020
901.784	14039
901.904	13890
902.023	13780
902.141	13594
902.26	13624
902.379	13742
902.498	13544
902.617	13472
902.735	13628
902.854	13483
902.973	13525
903.091	13316
903.21	13331
903.328	13312
903.446	13225
903.565	13091
903.683	13164
903.801	13008
903.919	13194
904.038	13133
904.156	13057
904.274	12977
904.392	13050
904.51	12962
904.627	13046
904.745	13050
904.863	12977
904.981	12798
905.098	12677
905.216	12639
905.334	12639
905.451	12631
905.569	12658
905.686	12544
905.803	12703
905.921	12471
906.038	12563
906.155	12452
906.272	12391
906.389	12384
906.506	12311
906.623	12178
906.74	12270
906.857	12129
906.974	12095
907.091	12334
907.208	12376
907.324	12304
907.441	12114
907.557	12053
907.674	11935
907.79	12034
907.907	12041
908.023	12026
908.139	11954
908.256	12064
908.372	11912
908.488	11870
908.604	11760
908.72	11733
908.836	11813
908.952	11707
909.068	11714
909.184	11859
909.3	11783
909.415	11798
909.531	11771
909.647	11455
909.762	11535
909.878	11490
909.993	11573
910.108	11547
910.224	11463
910.339	11547
910.454	11421
910.57	11372
910.685	11341
910.8	11630
910.915	11547
911.03	11444
911.145	11185
911.259	11280
911.374	11174
911.489	11117
911.604	11174
911.718	11014
911.833	10984
911.947	10873
912.062	10797
912.176	10942
912.291	11067
912.405	11045
912.519	11181
912.633	11231
912.748	10999
912.862	10938
912.976	10892
913.09	10812
913.204	10877
913.318	10816
913.431	10984
913.545	10881
913.659	11033
913.772	10892
913.886	10805
914	10714
914.113	10828
914.226	10778
914.34	10786
914.453	10721
914.566	10729
914.68	10714
914.793	10660
914.906	10561
915.019	10424
915.132	10459
915.245	10447
915.358	10546
915.47	10466
915.583	10531
915.696	10470
915.809	10698
915.921	10706
916.034	10398
916.146	10341
916.259	10344
916.371	10580
916.483	10497
916.595	10394
916.708	10417
916.82	10459
916.932	10382
917.044	10459
917.156	10402
917.268	10196
917.38	10367
917.491	10287
917.603	10367
917.715	10443
917.826	10371
917.938	10322
918.049	10234
918.161	10363
918.272	10474
918.384	10451
918.495	10375
918.606	10265
918.717	10143
918.828	10169
918.939	10238
919.05	10177
919.161	10185
919.272	9968
919.383	10158
919.494	10223
919.604	10432
919.715	10109
919.826	10101
919.936	10230
920.047	10295
920.157	10192
920.267	10398
920.378	10284
920.488	10215
920.598	10382
920.708	10588
920.818	10409
920.928	10371
921.038	10561
921.148	10558
921.258	10284
921.368	10135
921.477	10040
921.587	10112
921.697	10010
921.806	10032
921.916	9991
922.025	9728
922.134	9778
922.244	9728
922.353	9747
922.462	9675
922.571	9652
922.68	9530
922.789	9466
922.898	9439
923.007	9370
923.116	9500
923.224	9454
923.333	9488
923.442	9329
923.55	9256
923.659	9321
923.767	9363
923.876	9298
923.984	9325
924.092	9207
924.201	9306
924.309	9287
924.417	9382
924.525	9253
924.633	9351
924.741	10063
924.849	9131
924.956	9214
925.064	9138
925.172	9017
925.279	8982
925.387	9127
925.494	9104
925.602	9256
925.709	9180
925.816	9116
925.924	9051
926.031	9207
926.138	9135
926.245	9154
926.352	9058
926.459	9165
926.566	9226
926.673	9070
926.779	8963
926.886	9017
926.993	8857
927.099	8807
927.206	8838
927.312	8773
927.419	8887
927.525	8785
927.631	8906
927.737	8781
927.843	8773
927.95	8583
928.056	8735
928.162	8777
928.267	8804
928.373	9420
928.479	8826
928.585	8590
928.69	8773
928.796	8792
928.901	8636
929.007	8526
929.112	8632
929.218	8575
929.323	8541
929.428	8530
929.533	8667
929.638	8514
929.743	8571
929.848	8552
929.953	8518
930.058	8423
930.163	8320
930.267	8355
930.372	8434
930.477	8347
930.581	8511
930.685	8423
930.79	8240
930.894	8214
930.998	8244
931.103	8343
931.207	8084
931.311	8024
931.415	7955
931.519	7811
931.623	7792
