Data from test_V78500241_790.txt Node
Date: Fri Mar 25 14:39:13 CST 2022
User: usil
Spectrometer: V785-0024
Trigger mode: 0
Integration Time (sec): 4.000000E-1
Scans to average: 1
Nonlinearity correction enabled: false
Boxcar width: 0
Storing dark spectrum: false
XAxis mode: Wavelengths
Number of Pixels in Spectrum: 1024
>>>>>Begin Spectral Data<<<<<
801.071	26621
801.214	26434
801.356	26176
801.499	26172
801.641	26073
801.783	25993
801.926	25928
802.068	25871
802.211	25814
802.353	25639
802.496	25609
802.638	25499
802.78	25479
802.923	25415
803.065	25362
803.208	25426
803.35	25537
803.492	25582
803.635	25514
803.777	25457
803.919	25544
804.061	25818
804.204	25613
804.346	25567
804.488	25643
804.63	25670
804.773	25616
804.915	25666
805.057	25928
805.199	25814
805.341	26058
805.483	26081
805.626	26084
805.768	26027
805.91	26142
806.052	26180
806.194	26431
806.336	26640
806.478	26701
806.62	26895
806.762	27089
806.904	27435
807.046	27789
807.188	28253
807.33	28561
807.472	29064
807.614	29687
807.756	30311
807.898	31320
808.04	32686
808.182	34440
808.324	36505
808.465	39089
808.607	41977
808.749	44602
808.891	46059
809.033	46181
809.174	44708
809.316	42285
809.458	39233
809.6	36338
809.741	34051
809.883	32103
810.025	30954
810.166	30003
810.308	29326
810.45	28634
810.591	28204
810.733	27819
810.875	27370
811.016	27176
811.158	27028
811.299	26902
811.441	26902
811.582	26777
811.724	26579
811.865	26461
812.007	26343
812.148	26324
812.29	26252
812.431	26225
812.573	26412
812.714	26358
812.855	26495
812.997	26514
813.138	26667
813.279	26590
813.421	26362
813.562	26225
813.703	26142
813.845	25936
813.986	25582
814.127	25434
814.268	25362
814.41	25137
814.551	25202
814.692	25236
814.833	25046
814.974	24996
815.115	25160
815.256	24939
815.397	25008
815.539	24821
815.68	24837
815.821	24616
815.962	24635
816.103	24707
816.244	24460
816.385	24357
816.526	24270
816.666	24243
816.807	23969
816.948	24163
817.089	24201
817.23	24026
817.371	24091
817.512	24041
817.653	23946
817.793	23809
817.934	24057
818.075	23999
818.216	23916
818.356	23965
818.497	23851
818.638	23638
818.778	23646
818.919	23691
819.06	23745
819.2	23779
819.341	23710
819.481	23901
819.622	23923
819.762	24034
819.903	24026
820.043	23980
820.184	23847
820.324	23847
820.465	23958
820.605	23866
820.746	23779
820.886	23646
821.026	23729
821.167	23600
821.307	23779
821.447	23638
821.588	23524
821.728	23387
821.868	23227
822.008	23090
822.149	23044
822.289	23022
822.429	22896
822.569	22828
822.709	22736
822.849	22504
822.99	22561
823.13	22466
823.27	22459
823.41	22348
823.55	22367
823.69	22272
823.83	22318
823.97	22185
824.11	22017
824.25	21972
824.389	22185
824.529	22196
824.669	22040
824.809	22207
824.949	22112
825.089	22215
825.228	22177
825.368	21915
825.508	21762
825.648	21934
825.787	21865
825.927	21964
826.067	21835
826.206	21823
826.346	21861
826.485	21941
826.625	21778
826.765	21968
826.904	22029
827.044	21481
827.183	21587
827.323	21561
827.462	21610
827.601	21538
827.741	21542
827.88	21530
828.02	21420
828.159	21462
828.298	21405
828.437	21553
828.577	21405
828.716	21595
828.855	21492
828.994	21214
829.134	21367
829.273	21233
829.412	21161
829.551	21077
829.69	21119
829.829	21165
829.968	21287
830.107	21195
830.246	21135
830.385	21104
830.524	21127
830.663	20948
830.802	20883
830.941	20819
831.08	20765
831.219	20902
831.357	20849
831.496	21013
831.635	20762
831.774	20811
831.913	20712
832.051	20575
832.19	20511
832.329	20655
832.467	20743
832.606	20590
832.744	20705
832.883	20629
833.022	20735
833.16	20838
833.299	20963
833.437	21039
833.576	21138
833.714	21340
833.852	21332
833.991	21576
834.129	21610
834.267	21591
834.406	21523
834.544	21488
834.682	21325
834.821	21211
834.959	21287
835.097	21081
835.235	20994
835.373	20899
835.511	20739
835.65	20583
835.788	20598
835.926	20400
836.064	20381
836.202	20237
836.34	20400
836.478	20408
836.615	20244
836.753	20366
836.891	20389
837.029	20317
837.167	20298
837.305	20381
837.443	20092
837.58	20168
837.718	20199
837.856	20168
837.993	20138
838.131	20149
838.269	20012
838.406	20024
838.544	19909
838.681	19791
838.819	19670
838.956	19670
839.094	19590
839.231	19624
839.369	19769
839.506	19955
839.643	19913
839.781	19594
839.918	19529
840.055	19632
840.193	19529
840.33	19670
840.467	19563
840.604	19601
840.742	19852
840.879	19495
841.016	19495
841.153	19422
841.29	19750
841.427	19525
841.564	19613
841.701	19613
841.838	19487
841.975	19499
842.112	19472
842.249	19419
842.385	19198
842.522	19601
842.659	19400
842.796	19297
842.933	19434
843.069	19369
843.206	19476
843.343	19506
843.479	19533
843.616	19518
843.752	19320
843.889	19316
844.025	19605
844.162	19358
844.298	19643
844.435	19677
844.571	19944
844.708	20218
844.844	20419
844.98	20895
845.117	21382
845.253	22147
845.389	23634
845.525	26678
845.661	31601
845.798	37552
845.934	41984
846.07	43860
846.206	42486
846.342	38708
846.478	32727
846.614	27816
846.75	24258
846.886	22272
847.022	21062
847.158	20408
847.294	19898
847.429	19628
847.565	19373
847.701	19559
847.837	18977
847.972	18795
848.108	18749
848.244	18738
848.379	18525
848.515	18418
848.65	18399
848.786	18338
848.921	18365
849.057	18369
849.192	18422
849.328	18388
849.463	18384
849.598	18266
849.734	18201
849.869	18159
850.004	18034
850.14	18106
850.275	17992
850.41	17866
850.545	17999
850.68	18030
850.815	18011
850.95	17946
851.085	18114
851.22	18133
851.355	18136
851.49	17996
851.625	17946
851.76	18022
851.895	17942
852.03	17920
852.165	17984
852.299	18163
852.434	18152
852.569	18022
852.703	18072
852.838	18136
852.973	18057
853.107	18125
853.242	18110
853.376	18079
853.511	17912
853.645	18079
853.78	18159
853.914	18064
854.048	18133
854.183	18068
854.317	18239
854.451	18319
854.585	18266
854.72	18148
854.854	18289
854.988	17923
855.122	18079
855.256	17882
855.39	18079
855.524	18026
855.658	18045
855.792	17889
855.926	17961
856.06	17931
856.194	18026
856.327	17904
856.461	17870
856.595	17897
856.729	17790
856.862	18041
856.996	17878
857.13	17821
857.263	17904
857.397	17908
857.53	17866
857.664	17851
857.797	17942
857.931	17859
858.064	17718
858.197	17863
858.331	17729
858.464	17646
858.597	17627
858.731	17714
858.864	17646
858.997	17649
859.13	17756
859.263	17672
859.396	17798
859.529	17691
859.662	17680
859.795	17649
859.928	17714
860.061	17821
860.194	17798
860.327	17710
860.46	17703
860.592	17745
860.725	17824
860.858	17710
860.99	17646
861.123	17600
861.256	17554
861.388	17726
861.521	18197
861.653	17551
861.786	17486
861.918	17596
862.05	17608
862.183	17646
862.315	17676
862.447	17661
862.58	17592
862.712	17387
862.844	17444
862.976	17402
863.108	17444
863.24	17832
863.372	17258
863.504	17246
863.636	17299
863.768	17315
863.9	17337
864.032	17307
864.164	17246
864.296	17398
864.428	17448
864.559	17459
864.691	17452
864.823	17379
864.954	17345
865.086	17223
865.217	17383
865.349	17185
865.48	17265
865.612	17330
865.743	17516
865.875	17239
866.006	17315
866.137	17349
866.269	17261
866.4	17318
866.531	17334
866.662	17193
866.793	17147
866.924	17235
867.055	17239
867.186	17242
867.317	17235
867.448	17113
867.579	17277
867.71	17258
867.841	17250
867.972	17265
868.103	17216
868.233	17303
868.364	17326
868.495	17322
868.625	17448
868.756	17680
868.886	17516
869.017	17547
869.147	17699
869.278	17748
869.408	17570
869.539	17539
869.669	17600
869.799	17551
869.929	17611
870.06	17737
870.19	17961
870.32	17901
870.45	17942
870.58	18019
870.71	18239
870.84	18098
870.97	18015
871.1	17977
871.23	18224
871.36	18243
871.489	18159
871.619	18273
871.749	18121
871.879	18155
872.008	18452
872.138	18232
872.267	18296
872.397	18197
872.526	18171
872.656	18205
872.785	18186
872.915	18502
873.044	18601
873.173	18365
873.303	18414
873.432	18391
873.561	18479
873.69	18506
873.819	18506
873.948	18570
874.077	18483
874.206	18525
874.335	18612
874.464	18620
874.593	18970
874.722	18882
874.851	19053
874.979	18943
875.108	19012
875.237	18989
875.365	19053
875.494	19129
875.623	19171
875.751	19175
875.88	19217
876.008	19514
876.136	19460
876.265	19784
876.393	19909
876.521	20001
876.65	19989
876.778	20016
876.906	19940
877.034	19951
877.162	19970
877.29	19978
877.418	20191
877.546	20278
877.674	20377
877.802	20537
877.93	20594
878.058	20705
878.185	20796
878.313	21066
878.441	21416
878.568	21652
878.696	22086
878.824	22873
878.951	23973
879.079	25221
879.206	26944
879.333	28710
879.461	30292
879.588	31122
879.715	31156
879.842	30410
879.97	28919
880.097	26823
880.224	25369
880.351	24521
880.478	23798
880.605	23128
880.732	22908
880.859	22835
880.986	22451
881.112	22466
881.239	22276
881.366	22067
881.493	22070
881.619	22032
881.746	22048
881.872	22120
881.999	22040
882.125	22093
882.252	22158
882.378	22265
882.505	22428
882.631	22261
882.757	22086
882.883	22238
883.01	22139
883.136	22116
883.262	21876
883.388	21789
883.514	22086
883.64	22135
883.766	21960
883.892	21846
884.018	21960
884.143	21994
884.269	22150
884.395	21743
884.52	21781
884.646	21831
884.772	21789
884.897	21587
885.023	21808
885.148	21797
885.274	21717
885.399	21762
885.524	21625
885.65	21397
885.775	21355
885.9	21108
886.025	21226
886.15	21070
886.275	20769
886.4	20655
886.525	20651
886.65	20419
886.775	20355
886.9	20465
887.025	20511
887.149	20282
887.274	19887
887.399	19849
887.523	19784
887.648	19674
887.773	19529
887.897	19670
888.021	19590
888.146	19449
888.27	19415
888.395	19449
888.519	19297
888.643	19255
888.767	19247
888.891	18993
889.015	18920
889.139	19012
889.263	19050
889.387	18909
889.511	19046
889.635	18897
889.759	18806
889.883	18745
890.006	18791
890.13	18829
890.254	18612
890.377	18715
890.501	18467
890.624	18414
890.748	18323
890.871	18285
890.995	18163
891.118	18114
891.241	18174
891.364	18068
891.488	18159
891.611	18041
891.734	18091
891.857	18163
891.98	17950
892.103	18049
892.226	18011
892.349	17923
892.471	17843
892.594	17885
892.717	17798
892.839	17847
892.962	17752
893.085	17851
893.207	17764
893.33	17535
893.452	17558
893.575	17790
893.697	17665
893.819	17695
893.941	17722
894.064	17646
894.186	17581
894.308	17391
894.43	17570
894.552	17722
894.674	17573
894.796	17486
894.918	17391
895.04	17421
895.161	17539
895.283	17425
895.405	17406
895.526	17463
895.648	17288
895.769	17391
895.891	17543
896.012	17573
896.134	17455
896.255	17326
896.376	17341
896.498	17341
896.619	17406
896.74	17292
896.861	17337
896.982	17615
897.103	17684
897.224	17619
897.345	17452
897.466	17501
897.587	17478
897.708	17547
897.828	17558
897.949	17497
898.07	17440
898.19	17490
898.311	17539
898.431	17611
898.552	17592
898.672	17581
898.792	17676
898.913	17672
899.033	17490
899.153	17410
899.273	17227
899.393	17334
899.513	17429
899.633	17410
899.753	17376
899.873	17231
899.993	17341
900.113	17330
900.232	17376
900.352	17349
900.472	17178
900.591	17159
900.711	17200
900.83	17079
900.95	17170
901.069	17311
901.189	17117
901.308	16786
901.427	16881
901.546	16805
901.665	16767
901.784	16839
901.904	16596
902.023	16546
902.141	16284
902.26	16200
902.379	16367
902.498	16226
902.617	16177
902.735	16337
902.854	16090
902.973	16139
903.091	15854
903.21	15911
903.328	15876
903.446	15816
903.565	15686
903.683	15663
903.801	15534
903.919	15641
904.038	15648
904.156	15443
904.274	15511
904.392	15439
904.51	15431
904.627	15412
904.745	15481
904.863	15481
904.981	15233
905.098	15116
905.216	15089
905.334	15028
905.451	15184
905.569	15100
905.686	15150
905.803	15085
905.921	14941
906.038	14948
906.155	14864
906.272	14785
906.389	14720
906.506	14587
906.623	14590
906.74	14621
906.857	14552
906.974	14583
907.091	14674
907.208	14697
907.324	14632
907.441	14507
907.557	14339
907.674	14332
907.79	14343
907.907	14286
908.023	14244
908.139	14396
908.256	14237
908.372	14275
908.488	14161
908.604	14039
908.72	13928
908.836	14046
908.952	14012
909.068	14069
909.184	14145
909.3	14058
909.415	14119
909.531	14031
909.647	13845
909.762	13814
909.878	13723
909.993	13811
910.108	13700
910.224	13772
910.339	13791
910.454	13624
910.57	13651
910.685	13567
910.8	13849
910.915	13708
911.03	13620
911.145	13518
911.259	13381
911.374	13491
911.489	13278
911.604	13343
911.718	13114
911.833	13118
911.947	13126
912.062	13012
912.176	13190
912.291	13122
912.405	13126
912.519	13289
912.633	13388
912.748	13187
912.862	13228
912.976	12943
913.09	12920
913.204	13008
913.318	12996
913.431	13095
913.545	13053
913.659	13141
913.772	13046
913.886	12954
914	12951
914.113	12954
914.226	12947
914.34	12977
914.453	12783
914.566	12932
914.68	12859
914.793	12821
914.906	12559
915.019	12544
915.132	12536
915.245	12585
915.358	12700
915.47	12601
915.583	12635
915.696	12642
915.809	12730
915.921	12749
916.034	12570
916.146	12471
916.259	12464
916.371	12646
916.483	12528
916.595	12422
916.708	12433
916.82	12574
916.932	12551
917.044	12502
917.156	12475
917.268	12346
917.38	12388
917.491	12338
917.603	12338
917.715	12483
917.826	12494
917.938	12361
918.049	12209
918.161	12254
918.272	12418
918.384	12429
918.495	12277
918.606	12114
918.717	12129
918.828	12171
918.939	12277
919.05	11988
919.161	12064
919.272	11912
919.383	11939
919.494	12117
919.604	12342
919.715	12133
919.826	12015
919.936	12064
920.047	12175
920.157	12167
920.267	12327
920.378	12163
920.488	12049
920.598	12323
920.708	12452
920.818	12258
920.928	12292
921.038	12448
921.148	12361
921.258	12079
921.368	12007
921.477	11889
921.587	11851
921.697	11741
921.806	11836
921.916	11733
922.025	11562
922.134	11486
922.244	11585
922.353	11543
922.462	11414
922.571	11440
922.68	11223
922.789	11235
922.898	11231
923.007	11170
923.116	11227
923.224	11288
923.333	11197
923.442	11159
923.55	11014
923.659	11117
923.767	11250
923.876	11094
923.984	11109
924.092	10972
924.201	11071
924.309	11010
924.417	11037
924.525	10919
924.633	10927
924.741	11969
924.849	10820
924.956	10934
925.064	10771
925.172	10698
925.279	10805
925.387	10835
925.494	10786
925.602	10816
925.709	10828
925.816	10744
925.924	10801
926.031	10790
926.138	10763
926.245	10782
926.352	10656
926.459	10786
926.566	10790
926.673	10744
926.779	10580
926.886	10500
926.993	10367
927.099	10367
927.206	10295
927.312	10390
927.419	10470
927.525	10363
927.631	10417
927.737	10344
927.843	10318
927.95	10177
928.056	10299
928.162	10215
928.267	10360
928.373	10991
928.479	10352
928.585	10139
928.69	10246
928.796	10272
928.901	10162
929.007	10017
929.112	10246
929.218	10169
929.323	10116
929.428	10071
929.533	10177
929.638	10055
929.743	10006
929.848	10101
929.953	10055
930.058	9949
930.163	9823
930.267	9854
930.372	9911
930.477	9774
930.581	10036
930.685	9838
930.79	9660
930.894	9789
930.998	9747
931.103	9793
931.207	9523
931.311	9424
931.415	9370
931.519	9195
931.623	9142
