Data from test_V78500241_2458.txt Node
Date: Fri Mar 25 14:50:49 CST 2022
User: usil
Spectrometer: V785-0024
Trigger mode: 0
Integration Time (sec): 4.000000E-1
Scans to average: 1
Nonlinearity correction enabled: false
Boxcar width: 0
Storing dark spectrum: false
XAxis mode: Wavelengths
Number of Pixels in Spectrum: 1024
>>>>>Begin Spectral Data<<<<<
801.071	22105
801.214	21953
801.356	21793
801.499	21660
801.641	21507
801.783	21450
801.926	21515
802.068	21363
802.211	21283
802.353	21245
802.496	21017
802.638	20929
802.78	20937
802.923	20883
803.065	20686
803.208	20834
803.35	20765
803.492	20941
803.635	20956
803.777	20773
803.919	20880
804.061	21085
804.204	20971
804.346	20720
804.488	20606
804.63	20705
804.773	20617
804.915	20720
805.057	20807
805.199	20674
805.341	20724
805.483	20845
805.626	20861
805.768	20697
805.91	20720
806.052	20758
806.194	20503
806.336	20811
806.478	20636
806.62	20495
806.762	20743
806.904	20937
807.046	21077
807.188	21013
807.33	21058
807.472	21138
807.614	20952
807.756	20948
807.898	20876
808.04	20693
808.182	20731
808.324	20838
808.465	20838
808.607	20975
808.749	21146
808.891	21169
809.033	21355
809.174	21112
809.316	21043
809.458	21024
809.6	21077
809.741	21161
809.883	21119
810.025	21230
810.166	21218
810.308	21272
810.45	21245
810.591	21150
810.733	20952
810.875	20937
811.016	20754
811.158	20754
811.299	20960
811.441	20902
811.582	20925
811.724	20883
811.865	20834
812.007	20773
812.148	20804
812.29	20823
812.431	20994
812.573	21074
812.714	21325
812.855	21283
812.997	21226
813.138	21523
813.279	21496
813.421	21359
813.562	21329
813.703	21184
813.845	20982
813.986	20590
814.127	20583
814.268	20366
814.41	20514
814.551	20370
814.692	20396
814.833	20434
814.974	20381
815.115	20351
815.256	20248
815.397	20237
815.539	20191
815.68	20065
815.821	20031
815.962	20164
816.103	20077
816.244	19997
816.385	19856
816.526	19822
816.666	19647
816.807	19468
816.948	19582
817.089	19616
817.23	19571
817.371	19537
817.512	19567
817.653	19548
817.793	19457
817.934	19559
818.075	19575
818.216	19651
818.356	19434
818.497	19312
818.638	19259
818.778	19129
818.919	19244
819.06	19240
819.2	19308
819.341	19506
819.481	19480
819.622	19544
819.762	19738
819.903	19738
820.043	19658
820.184	19407
820.324	19575
820.465	19582
820.605	19483
820.746	19480
820.886	19388
821.026	19434
821.167	19434
821.307	19449
821.447	19324
821.588	19358
821.728	19221
821.868	19065
822.008	18928
822.149	18840
822.289	18951
822.429	18726
822.569	18650
822.709	18646
822.849	18414
822.99	18353
823.13	18346
823.27	18319
823.41	18220
823.55	18194
823.69	18296
823.83	18243
823.97	18163
824.11	17969
824.25	17908
824.389	17942
824.529	17961
824.669	18034
824.809	18133
824.949	18041
825.089	18019
825.228	18076
825.368	17733
825.508	17748
825.648	17764
825.787	17745
825.927	17821
826.067	17718
826.206	17722
826.346	17748
826.485	17863
826.625	17756
826.765	17874
826.904	17828
827.044	17524
827.183	17505
827.323	17478
827.462	17474
827.601	17448
827.741	17436
827.88	17486
828.02	17265
828.159	17414
828.298	17467
828.437	17490
828.577	17463
828.716	17604
828.855	17402
828.994	17143
829.134	17223
829.273	17197
829.412	17174
829.551	17121
829.69	17311
829.829	17200
829.968	17254
830.107	17227
830.246	17094
830.385	17064
830.524	17105
830.663	17094
830.802	16831
830.941	16854
831.08	16881
831.219	16942
831.357	16782
831.496	17121
831.635	16782
831.774	16812
831.913	16660
832.051	16611
832.19	16607
832.329	16577
832.467	16402
832.606	16443
832.744	16417
832.883	16527
833.022	16363
833.16	16535
833.299	16542
833.437	16546
833.576	16679
833.714	16577
833.852	16561
833.991	16592
834.129	16538
834.267	16592
834.406	16630
834.544	16596
834.682	16550
834.821	16607
834.959	16618
835.097	16493
835.235	16607
835.373	16550
835.511	16508
835.65	16455
835.788	16421
835.926	16341
836.064	16230
836.202	16238
836.34	16504
836.478	16535
836.615	16409
836.753	16455
836.891	16546
837.029	16672
837.167	16402
837.305	16386
837.443	16375
837.58	16322
837.718	16314
837.856	16318
837.993	16246
838.131	16181
838.269	16204
838.406	16204
838.544	16177
838.681	16025
838.819	16044
838.956	15812
839.094	16002
839.231	15892
839.369	15953
839.506	16329
839.643	16112
839.781	15873
839.918	15922
840.055	15918
840.193	15831
840.33	15823
840.467	15892
840.604	15842
840.742	16173
840.879	15762
841.016	15629
841.153	15762
841.29	15922
841.427	15918
841.564	15884
841.701	15869
841.838	15835
841.975	15785
842.112	15736
842.249	15682
842.385	15622
842.522	15873
842.659	15679
842.796	15599
842.933	15694
843.069	15553
843.206	15599
843.343	15667
843.479	15637
843.616	15698
843.752	15428
843.889	15496
844.025	15584
844.162	15348
844.298	15610
844.435	15450
844.571	15367
844.708	15500
844.844	15564
844.98	15614
845.117	15603
845.253	15431
845.389	15329
845.525	15420
845.661	15416
845.798	15306
845.934	15275
846.07	15241
846.206	15294
846.342	15382
846.478	15256
846.614	15081
846.75	15009
846.886	15020
847.022	15157
847.158	15081
847.294	15028
847.429	15051
847.565	14902
847.701	15283
847.837	14758
847.972	14762
848.108	14834
848.244	14880
848.379	14693
848.515	14606
848.65	14545
848.786	14541
848.921	14667
849.057	14758
849.192	14872
849.328	14636
849.463	14632
849.598	14705
849.734	14499
849.869	14526
850.004	14309
850.14	14358
850.275	14419
850.41	14278
850.545	14351
850.68	14301
850.815	14396
850.95	14484
851.085	14442
851.22	14499
851.355	14408
851.49	14347
851.625	14374
851.76	14332
851.895	14301
852.03	14221
852.165	14396
852.299	14431
852.434	14438
852.569	14328
852.703	14412
852.838	14442
852.973	14537
853.107	14568
853.242	14343
853.376	14309
853.511	14130
853.645	14149
853.78	14374
853.914	14275
854.048	14225
854.183	14092
854.317	14244
854.451	14415
854.585	14237
854.72	14259
854.854	14355
854.988	14187
855.122	14271
855.256	14065
855.39	14244
855.524	14328
855.658	14252
855.792	14252
855.926	14309
856.06	14320
856.194	14294
856.327	14275
856.461	14187
856.595	14187
856.729	14256
856.862	14301
856.996	14229
857.13	14328
857.263	14286
857.397	14324
857.53	14180
857.664	14233
857.797	14244
857.931	14301
858.064	14256
858.197	14381
858.331	14347
858.464	14206
858.597	14115
858.731	14237
858.864	14221
858.997	14229
859.13	14195
859.263	14199
859.396	14328
859.529	14202
859.662	14138
859.795	14187
859.928	14191
860.061	14415
860.194	14396
860.327	14415
860.46	14298
860.592	14396
860.725	14366
860.858	14366
860.99	14187
861.123	14119
861.256	14126
861.388	14172
861.521	14735
861.653	14183
861.786	14008
861.918	14157
862.05	14176
862.183	14191
862.315	14267
862.447	14248
862.58	14180
862.712	14073
862.844	13925
862.976	14103
863.108	14123
863.24	14358
863.372	13963
863.504	13925
863.636	13989
863.768	14039
863.9	14016
864.032	14035
864.164	13959
864.296	14081
864.428	14214
864.559	14168
864.691	14145
864.823	14081
864.954	14092
865.086	14016
865.217	14058
865.349	13986
865.48	13917
865.612	14031
865.743	14138
865.875	14077
866.006	13970
866.137	14031
866.269	14088
866.4	14024
866.531	13963
866.662	13928
866.793	13993
866.924	13982
867.055	13970
867.186	13993
867.317	13906
867.448	13860
867.579	14050
867.71	13925
867.841	13986
867.972	14084
868.103	14012
868.233	14008
868.364	14084
868.495	14035
868.625	14153
868.756	14214
868.886	14119
869.017	14145
869.147	14351
869.278	14442
869.408	14278
869.539	14229
869.669	14328
869.799	14294
869.929	14412
870.06	14385
870.19	14590
870.32	14545
870.45	14693
870.58	14727
870.71	14800
870.84	14731
870.97	14606
871.1	14651
871.23	14880
871.36	14876
871.489	14773
871.619	14785
871.749	14826
871.879	14925
872.008	14899
872.138	14868
872.267	14838
872.397	14750
872.526	14587
872.656	14716
872.785	14667
872.915	14960
873.044	14929
873.173	14994
873.303	14963
873.432	14948
873.561	14971
873.69	14963
873.819	14914
873.948	14979
874.077	14910
874.206	14853
874.335	15020
874.464	15066
874.593	15230
874.722	15051
874.851	15214
874.979	15222
875.108	15294
875.237	15188
875.365	15173
875.494	15180
875.623	15233
875.751	15192
875.88	15268
876.008	15283
876.136	15492
876.265	15542
876.393	15793
876.521	15637
876.65	15800
876.778	15580
876.906	15667
877.034	15564
877.162	15595
877.29	15488
877.418	15576
877.546	15603
877.674	15686
877.802	15591
877.93	15747
878.058	15679
878.185	15580
878.313	15534
878.441	15656
878.568	15500
878.696	15523
878.824	15553
878.951	15686
879.079	15838
879.206	16059
879.333	15838
879.461	15720
879.588	15762
879.715	15892
879.842	16025
879.97	15568
880.097	15443
880.224	15443
880.351	15542
880.478	15428
880.605	15466
880.732	15519
880.859	15717
880.986	15530
881.112	15496
881.239	15416
881.366	15268
881.493	15108
881.619	15039
881.746	15138
881.872	15081
881.999	15142
882.125	15207
882.252	15222
882.378	15211
882.505	15310
882.631	15142
882.757	14956
882.883	15032
883.01	14925
883.136	14925
883.262	14807
883.388	14731
883.514	14979
883.64	14910
883.766	14914
883.892	14773
884.018	14902
884.143	14918
884.269	14998
884.395	14773
884.52	14777
884.646	14682
884.772	14560
884.897	14602
885.023	14602
885.148	14739
885.274	14792
885.399	14872
885.524	14708
885.65	14640
885.775	14644
885.9	14640
886.025	14765
886.15	14727
886.275	14640
886.4	14507
886.525	14689
886.65	14663
886.775	14537
886.9	14785
887.025	14849
887.149	14659
887.274	14530
887.399	14347
887.523	14450
887.648	14415
887.773	14419
887.897	14522
888.021	14629
888.146	14511
888.27	14564
888.395	14583
888.519	14575
888.643	14610
888.767	14602
888.891	14385
889.015	14336
889.139	14446
889.263	14355
889.387	14431
889.511	14560
889.635	14473
889.759	14389
889.883	14271
890.006	14355
890.13	14457
890.254	14282
890.377	14317
890.501	14210
890.624	14134
890.748	14248
890.871	14145
890.995	14012
891.118	14012
891.241	14016
891.364	14149
891.488	14164
891.611	13982
891.734	14031
891.857	14153
891.98	14119
892.103	14024
892.226	14100
892.349	14062
892.471	13913
892.594	14100
892.717	14027
892.839	14001
892.962	14035
893.085	14088
893.207	14081
893.33	14001
893.452	14020
893.575	14130
893.697	14008
893.819	14149
893.941	14256
894.064	14248
894.186	14027
894.308	13982
894.43	14240
894.552	14267
894.674	14259
894.796	13989
894.918	14164
895.04	14199
895.161	14191
895.283	14240
895.405	14183
895.526	14172
895.648	14161
895.769	14214
895.891	14267
896.012	14278
896.134	14324
896.255	14233
896.376	14183
896.498	14252
896.619	14214
896.74	14221
896.861	14358
896.982	14610
897.103	14735
897.224	14488
897.345	14446
897.466	14434
897.587	14450
897.708	14530
897.828	14492
897.949	14442
898.07	14294
898.19	14484
898.311	14617
898.431	14473
898.552	14602
898.672	14762
898.792	14655
898.913	14590
899.033	14587
899.153	14476
899.273	14275
899.393	14408
899.513	14461
899.633	14503
899.753	14442
899.873	14396
899.993	14431
900.113	14454
900.232	14469
900.352	14484
900.472	14358
900.591	14298
900.711	14351
900.83	14221
900.95	14465
901.069	14408
901.189	14290
901.308	14050
901.427	13917
901.546	14008
901.665	13963
901.784	14065
901.904	13890
902.023	13723
902.141	13582
902.26	13525
902.379	13677
902.498	13643
902.617	13563
902.735	13620
902.854	13552
902.973	13540
903.091	13263
903.21	13251
903.328	13343
903.446	13152
903.565	13129
903.683	13225
903.801	13088
903.919	13164
904.038	13129
904.156	12935
904.274	12947
904.392	12905
904.51	12920
904.627	12943
904.745	13069
904.863	13019
904.981	12650
905.098	12650
905.216	12669
905.334	12642
905.451	12665
905.569	12559
905.686	12741
905.803	12719
905.921	12479
906.038	12467
906.155	12456
906.272	12315
906.389	12407
906.506	12258
906.623	12167
906.74	12216
906.857	12095
906.974	12159
907.091	12273
907.208	12323
907.324	12239
907.441	12125
907.557	11927
907.674	11980
907.79	11904
907.907	11908
908.023	11939
908.139	11954
908.256	11908
908.372	11802
908.488	11870
908.604	11684
908.72	11798
908.836	11699
908.952	11707
909.068	11798
909.184	11737
909.3	11665
909.415	11840
909.531	11710
909.647	11482
909.762	11436
909.878	11459
909.993	11474
910.108	11589
910.224	11410
910.339	11509
910.454	11383
910.57	11353
910.685	11303
910.8	11573
910.915	11455
911.03	11406
911.145	11261
911.259	11208
911.374	11197
911.489	11140
911.604	11079
911.718	10949
911.833	11014
911.947	10850
912.062	10729
912.176	10889
912.291	11003
912.405	10953
912.519	11132
912.633	11193
912.748	11075
912.862	11014
912.976	10843
913.09	10744
913.204	10698
913.318	10869
913.431	10866
913.545	10965
913.659	10961
913.772	10881
913.886	10702
914	10702
914.113	10801
914.226	10881
914.34	10835
914.453	10672
914.566	10782
914.68	10698
914.793	10596
914.906	10550
915.019	10424
915.132	10504
915.245	10447
915.358	10466
915.47	10474
915.583	10554
915.696	10558
915.809	10580
915.921	10622
916.034	10440
916.146	10409
916.259	10295
916.371	10527
916.483	10493
916.595	10356
916.708	10402
916.82	10394
916.932	10390
917.044	10390
917.156	10329
917.268	10211
917.38	10299
917.491	10230
917.603	10329
917.715	10417
917.826	10360
917.938	10280
918.049	10143
918.161	10306
918.272	10459
918.384	10424
918.495	10413
918.606	10333
918.717	10071
918.828	10211
918.939	10268
919.05	10032
919.161	10105
919.272	9991
919.383	10036
919.494	10215
919.604	10413
919.715	10200
919.826	10124
919.936	10154
920.047	10230
920.157	10166
920.267	10443
920.378	10291
920.488	10188
920.598	10398
920.708	10599
920.818	10409
920.928	10375
921.038	10558
921.148	10531
921.258	10234
921.368	10097
921.477	10048
921.587	10017
921.697	9960
921.806	10055
921.916	9972
922.025	9781
922.134	9854
922.244	9728
922.353	9774
922.462	9622
922.571	9515
922.68	9447
922.789	9416
922.898	9424
923.007	9367
923.116	9496
923.224	9435
923.333	9401
923.442	9382
923.55	9313
923.659	9344
923.767	9412
923.876	9287
923.984	9469
924.092	9203
924.201	9397
924.309	9355
924.417	9329
924.525	9260
924.633	9291
924.741	10055
924.849	9001
924.956	9245
925.064	9123
925.172	9051
925.279	9058
925.387	9039
925.494	9055
925.602	9245
925.709	9169
925.816	9024
925.924	9146
926.031	9142
926.138	9058
926.245	9241
926.352	8990
926.459	9112
926.566	9214
926.673	9017
926.779	8998
926.886	8967
926.993	8792
927.099	8842
927.206	8746
927.312	8701
927.419	8883
927.525	8815
927.631	8887
927.737	8762
927.843	8731
927.95	8625
928.056	8682
928.162	8807
928.267	8792
928.373	9370
928.479	8823
928.585	8564
928.69	8731
928.796	8667
928.901	8674
929.007	8560
929.112	8632
929.218	8560
929.323	8568
929.428	8473
929.533	8670
929.638	8495
929.743	8518
929.848	8564
929.953	8552
930.058	8507
930.163	8282
930.267	8408
930.372	8434
930.477	8320
930.581	8530
930.685	8389
930.79	8233
930.894	8294
930.998	8206
931.103	8374
931.207	8100
931.311	7963
931.415	7936
931.519	7742
931.623	7761
