Data from test_V78500241_2250.txt Node
Date: Fri Mar 25 14:49:22 CST 2022
User: usil
Spectrometer: V785-0024
Trigger mode: 0
Integration Time (sec): 4.000000E-1
Scans to average: 1
Nonlinearity correction enabled: false
Boxcar width: 0
Storing dark spectrum: false
XAxis mode: Wavelengths
Number of Pixels in Spectrum: 1024
>>>>>Begin Spectral Data<<<<<
801.071	22173
801.214	22029
801.356	21873
801.499	21831
801.641	21679
801.783	21557
801.926	21660
802.068	21530
802.211	21431
802.353	21412
802.496	21096
802.638	21009
802.78	21028
802.923	20979
803.065	20872
803.208	20811
803.35	20876
803.492	21013
803.635	20998
803.777	20880
803.919	20994
804.061	21138
804.204	21039
804.346	20944
804.488	20792
804.63	20883
804.773	20617
804.915	20948
805.057	20914
805.199	20727
805.341	20952
805.483	20895
805.626	20868
805.768	20769
805.91	20777
806.052	20823
806.194	20686
806.336	20918
806.478	20739
806.62	20754
806.762	20800
806.904	20994
807.046	21207
807.188	21165
807.33	21222
807.472	21195
807.614	21032
807.756	21032
807.898	20864
808.04	20891
808.182	20921
808.324	20849
808.465	20963
808.607	21089
808.749	21123
808.891	21218
809.033	21408
809.174	21298
809.316	21108
809.458	21180
809.6	21138
809.741	21313
809.883	21355
810.025	21260
810.166	21405
810.308	21389
810.45	21351
810.591	21127
810.733	20963
810.875	21081
811.016	20891
811.158	20845
811.299	20944
811.441	21123
811.582	20994
811.724	20910
811.865	20933
812.007	21013
812.148	20941
812.29	20941
812.431	21176
812.573	21325
812.714	21329
812.855	21481
812.997	21614
813.138	21656
813.279	21618
813.421	21553
813.562	21492
813.703	21241
813.845	21123
813.986	20982
814.127	20716
814.268	20625
814.41	20518
814.551	20594
814.692	20560
814.833	20526
814.974	20377
815.115	20419
815.256	20419
815.397	20351
815.539	20366
815.68	20233
815.821	20191
815.962	20271
816.103	20157
816.244	20092
816.385	19997
816.526	19955
816.666	19811
816.807	19734
816.948	19784
817.089	19719
817.23	19647
817.371	19670
817.512	19597
817.653	19590
817.793	19586
817.934	19731
818.075	19643
818.216	19556
818.356	19605
818.497	19468
818.638	19324
818.778	19392
818.919	19426
819.06	19312
819.2	19521
819.341	19567
819.481	19472
819.622	19613
819.762	19799
819.903	19849
820.043	19750
820.184	19544
820.324	19578
820.465	19639
820.605	19597
820.746	19464
820.886	19552
821.026	19548
821.167	19552
821.307	19605
821.447	19521
821.588	19521
821.728	19293
821.868	19076
822.008	19027
822.149	19031
822.289	19137
822.429	18844
822.569	18688
822.709	18779
822.849	18528
822.99	18525
823.13	18418
823.27	18479
823.41	18407
823.55	18277
823.69	18323
823.83	18334
823.97	18266
824.11	18079
824.25	18102
824.389	18125
824.529	18220
824.669	18102
824.809	18190
824.949	18270
825.089	18163
825.228	18152
825.368	17988
825.508	18019
825.648	18022
825.787	18026
825.927	17950
826.067	17859
826.206	17893
826.346	17912
826.485	17916
826.625	17855
826.765	18053
826.904	17961
827.044	17611
827.183	17699
827.323	17482
827.462	17710
827.601	17634
827.741	17581
827.88	17627
828.02	17455
828.159	17524
828.298	17608
828.437	17668
828.577	17551
828.716	17638
828.855	17562
828.994	17337
829.134	17303
829.273	17318
829.412	17280
829.551	17208
829.69	17250
829.829	17353
829.968	17429
830.107	17379
830.246	17387
830.385	17185
830.524	17250
830.663	17128
830.802	16968
830.941	16927
831.08	16942
831.219	17010
831.357	16987
831.496	17223
831.635	16968
831.774	16850
831.913	16862
832.051	16710
832.19	16664
832.329	16755
832.467	16710
832.606	16668
832.744	16531
832.883	16618
833.022	16596
833.16	16558
833.299	16607
833.437	16675
833.576	16793
833.714	16637
833.852	16763
833.991	16793
834.129	16725
834.267	16611
834.406	16584
834.544	16710
834.682	16649
834.821	16615
834.959	16755
835.097	16588
835.235	16687
835.373	16740
835.511	16725
835.65	16653
835.788	16519
835.926	16493
836.064	16356
836.202	16500
836.34	16618
836.478	16565
836.615	16645
836.753	16607
836.891	16611
837.029	16668
837.167	16603
837.305	16417
837.443	16459
837.58	16421
837.718	16455
837.856	16405
837.993	16318
838.131	16470
838.269	16341
838.406	16329
838.544	16295
838.681	16139
838.819	16101
838.956	15922
839.094	15979
839.231	16078
839.369	16135
839.506	16466
839.643	16207
839.781	15937
839.918	15945
840.055	15949
840.193	15979
840.33	15895
840.467	15907
840.604	15911
840.742	16310
840.879	15865
841.016	15827
841.153	15941
841.29	16101
841.427	15884
841.564	15975
841.701	15911
841.838	15941
841.975	15819
842.112	15854
842.249	15781
842.385	15739
842.522	15892
842.659	15804
842.796	15675
842.933	15751
843.069	15728
843.206	15720
843.343	15835
843.479	15800
843.616	15808
843.752	15564
843.889	15496
844.025	15648
844.162	15515
844.298	15637
844.435	15523
844.571	15519
844.708	15587
844.844	15686
844.98	15625
845.117	15587
845.253	15447
845.389	15393
845.525	15416
845.661	15367
845.798	15195
845.934	15359
846.07	15298
846.206	15348
846.342	15477
846.478	15374
846.614	15131
846.75	15036
846.886	14979
847.022	15226
847.158	14990
847.294	15180
847.429	15222
847.565	15070
847.701	15348
847.837	14891
847.972	14670
848.108	14952
848.244	15005
848.379	14811
848.515	14697
848.65	14659
848.786	14648
848.921	14697
849.057	14781
849.192	14819
849.328	14663
849.463	14712
849.598	14701
849.734	14663
849.869	14533
850.004	14461
850.14	14640
850.275	14438
850.41	14438
850.545	14476
850.68	14450
850.815	14473
850.95	14442
851.085	14678
851.22	14541
851.355	14587
851.49	14457
851.625	14408
851.76	14450
851.895	14427
852.03	14278
852.165	14385
852.299	14488
852.434	14613
852.569	14632
852.703	14568
852.838	14575
852.973	14590
853.107	14625
853.242	14362
853.376	14332
853.511	14164
853.645	14237
853.78	14415
853.914	14339
854.048	14298
854.183	14290
854.317	14358
854.451	14549
854.585	14218
854.72	14370
854.854	14377
854.988	14237
855.122	14301
855.256	14119
855.39	14301
855.524	14347
855.658	14358
855.792	14332
855.926	14320
856.06	14396
856.194	14446
856.327	14275
856.461	14290
856.595	14324
856.729	14343
856.862	14454
856.996	14263
857.13	14427
857.263	14450
857.397	14461
857.53	14252
857.664	14313
857.797	14377
857.931	14393
858.064	14381
858.197	14423
858.331	14343
858.464	14176
858.597	14161
858.731	14278
858.864	14393
858.997	14339
859.13	14275
859.263	14374
859.396	14415
859.529	14301
859.662	14339
859.795	14305
859.928	14324
860.061	14495
860.194	14484
860.327	14324
860.46	14400
860.592	14457
860.725	14339
860.858	14385
860.99	14355
861.123	14309
861.256	14324
861.388	14290
861.521	14967
861.653	14092
861.786	14191
861.918	14191
862.05	14248
862.183	14320
862.315	14294
862.447	14381
862.58	14278
862.712	14107
862.844	14035
862.976	14172
863.108	14092
863.24	14438
863.372	14054
863.504	14103
863.636	14134
863.768	14016
863.9	14142
864.032	14084
864.164	14065
864.296	14100
864.428	14248
864.559	14161
864.691	14290
864.823	14263
864.954	14111
865.086	14100
865.217	14123
865.349	13974
865.48	14065
865.612	14088
865.743	14244
865.875	14111
866.006	14107
866.137	14012
866.269	14077
866.4	14168
866.531	14027
866.662	13997
866.793	14043
866.924	14001
867.055	14073
867.186	14153
867.317	14035
867.448	13921
867.579	14043
867.71	13913
867.841	14020
867.972	14024
868.103	14008
868.233	14180
868.364	14218
868.495	14195
868.625	14370
868.756	14412
868.886	14275
869.017	14263
869.147	14454
869.278	14476
869.408	14336
869.539	14400
869.669	14370
869.799	14317
869.929	14438
870.06	14442
870.19	14674
870.32	14640
870.45	14632
870.58	14686
870.71	14826
870.84	14815
870.97	14739
871.1	14724
871.23	14857
871.36	14929
871.489	14788
871.619	14826
871.749	14952
871.879	14971
872.008	14982
872.138	14834
872.267	14994
872.397	14811
872.526	14746
872.656	14731
872.785	14815
872.915	14921
873.044	15036
873.173	14971
873.303	15077
873.432	14899
873.561	15157
873.69	14937
873.819	15009
873.948	15142
874.077	15062
874.206	14960
874.335	15032
874.464	15195
874.593	15279
874.722	15218
874.851	15336
874.979	15336
875.108	15321
875.237	15275
875.365	15154
875.494	15302
875.623	15317
875.751	15249
875.88	15317
876.008	15321
876.136	15526
876.265	15690
876.393	15781
876.521	15930
876.65	15709
876.778	15625
876.906	15595
877.034	15633
877.162	15724
877.29	15599
877.418	15709
877.546	15656
877.674	15603
877.802	15747
877.93	15747
878.058	15564
878.185	15549
878.313	15625
878.441	15679
878.568	15519
878.696	15648
878.824	15682
878.951	15800
879.079	15926
879.206	16029
879.333	15850
879.461	15789
879.588	15736
879.715	15850
879.842	16006
879.97	15747
880.097	15545
880.224	15584
880.351	15530
880.478	15614
880.605	15462
880.732	15488
880.859	15884
880.986	15648
881.112	15519
881.239	15485
881.366	15287
881.493	15237
881.619	15203
881.746	15199
881.872	15214
881.999	15154
882.125	15157
882.252	15279
882.378	15359
882.505	15363
882.631	15237
882.757	15020
882.883	15097
883.01	15017
883.136	14990
883.262	14925
883.388	14872
883.514	15032
883.64	15074
883.766	14929
883.892	14838
884.018	14849
884.143	15043
884.269	15055
884.395	14773
884.52	14686
884.646	14788
884.772	14590
884.897	14575
885.023	14765
885.148	14857
885.274	14853
885.399	14807
885.524	14769
885.65	14731
885.775	14724
885.9	14674
886.025	14807
886.15	14781
886.275	14667
886.4	14613
886.525	14686
886.65	14750
886.775	14552
886.9	14804
887.025	14971
887.149	14686
887.274	14533
887.399	14594
887.523	14655
887.648	14427
887.773	14446
887.897	14686
888.021	14682
888.146	14564
888.27	14579
888.395	14674
888.519	14587
888.643	14533
888.767	14560
888.891	14415
889.015	14404
889.139	14526
889.263	14377
889.387	14606
889.511	14583
889.635	14613
889.759	14366
889.883	14301
890.006	14419
890.13	14473
890.254	14294
890.377	14290
890.501	14229
890.624	14172
890.748	14278
890.871	14142
890.995	14065
891.118	13955
891.241	14202
891.364	14199
891.488	14282
891.611	14138
891.734	14119
891.857	14298
891.98	14107
892.103	14301
892.226	14210
892.349	14054
892.471	13974
892.594	14050
892.717	14054
892.839	14020
892.962	14123
893.085	14172
893.207	14134
893.33	14005
893.452	13974
893.575	14161
893.697	14100
893.819	14324
893.941	14431
894.064	14324
894.186	14123
894.308	14134
894.43	14195
894.552	14301
894.674	14275
894.796	14039
894.918	14145
895.04	14119
895.161	14320
895.283	14187
895.405	14240
895.526	14168
895.648	14195
895.769	14199
895.891	14320
896.012	14267
896.134	14229
896.255	14210
896.376	14309
896.498	14240
896.619	14298
896.74	14362
896.861	14317
896.982	14598
897.103	14785
897.224	14594
897.345	14541
897.466	14415
897.587	14560
897.708	14735
897.828	14636
897.949	14560
898.07	14423
898.19	14587
898.311	14632
898.431	14705
898.552	14602
898.672	14731
898.792	14739
898.913	14667
899.033	14514
899.153	14541
899.273	14442
899.393	14476
899.513	14533
899.633	14537
899.753	14541
899.873	14526
899.993	14495
900.113	14507
900.232	14602
900.352	14488
900.472	14362
900.591	14305
900.711	14320
900.83	14339
900.95	14404
901.069	14476
901.189	14332
901.308	14107
901.427	14027
901.546	14126
901.665	14153
901.784	14031
901.904	13944
902.023	13841
902.141	13685
902.26	13601
902.379	13704
902.498	13662
902.617	13537
902.735	13605
902.854	13624
902.973	13540
903.091	13339
903.21	13339
903.328	13335
903.446	13304
903.565	13194
903.683	13236
903.801	13057
903.919	13088
904.038	13149
904.156	13038
904.274	13129
904.392	12924
904.51	12970
904.627	12977
904.745	12951
904.863	13008
904.981	12814
905.098	12707
905.216	12620
905.334	12776
905.451	12700
905.569	12677
905.686	12646
905.803	12715
905.921	12570
906.038	12521
906.155	12471
906.272	12452
906.389	12357
906.506	12323
906.623	12323
906.74	12270
906.857	12155
906.974	12175
907.091	12323
907.208	12426
907.324	12194
907.441	12144
907.557	12026
907.674	12064
907.79	11912
907.907	12049
908.023	12038
908.139	11992
908.256	11980
908.372	11912
908.488	11904
908.604	11836
908.72	11722
908.836	11851
908.952	11737
909.068	11824
909.184	11942
909.3	11771
909.415	11843
909.531	11729
909.647	11547
909.762	11581
909.878	11528
909.993	11600
910.108	11551
910.224	11585
910.339	11577
910.454	11448
910.57	11410
910.685	11296
910.8	11592
910.915	11573
911.03	11383
911.145	11277
911.259	11178
911.374	11220
911.489	11151
911.604	11170
911.718	10972
911.833	11033
911.947	10866
912.062	10831
912.176	10991
912.291	11060
912.405	10946
912.519	11147
912.633	11136
912.748	11105
912.862	10987
912.976	10778
913.09	10771
913.204	10733
913.318	10835
913.431	10976
913.545	10965
913.659	10938
913.772	10934
913.886	10755
914	10809
914.113	10877
914.226	10809
914.34	10850
914.453	10637
914.566	10828
914.68	10771
914.793	10729
914.906	10447
915.019	10455
915.132	10432
915.245	10489
915.358	10546
915.47	10523
915.583	10542
915.696	10592
915.809	10668
915.921	10588
916.034	10424
916.146	10432
916.259	10371
916.371	10588
916.483	10542
916.595	10424
916.708	10443
916.82	10455
916.932	10382
917.044	10402
917.156	10402
917.268	10310
917.38	10314
917.491	10371
917.603	10356
917.715	10367
917.826	10474
917.938	10318
918.049	10227
918.161	10291
918.272	10493
918.384	10504
918.495	10310
918.606	10268
918.717	10173
918.828	10181
918.939	10238
919.05	10158
919.161	10200
919.272	9956
919.383	10086
919.494	10310
919.604	10402
919.715	10166
919.826	10120
919.936	10150
920.047	10310
920.157	10291
920.267	10409
920.378	10284
920.488	10211
920.598	10432
920.708	10607
920.818	10402
920.928	10436
921.038	10500
921.148	10531
921.258	10192
921.368	10192
921.477	10143
921.587	10090
921.697	9968
921.806	10173
921.916	10013
922.025	9808
922.134	9778
922.244	9781
922.353	9793
922.462	9652
922.571	9637
922.68	9515
922.789	9431
922.898	9572
923.007	9454
923.116	9530
923.224	9492
923.333	9447
923.442	9332
923.55	9386
923.659	9416
923.767	9412
923.876	9386
923.984	9374
924.092	9241
924.201	9325
924.309	9294
924.417	9378
924.525	9298
924.633	9329
924.741	10246
924.849	9146
924.956	9287
925.064	9089
925.172	9039
925.279	9100
925.387	9131
925.494	9070
925.602	9302
925.709	9203
925.816	9081
925.924	9146
926.031	9264
926.138	9116
926.245	9211
926.352	9119
926.459	9214
926.566	9275
926.673	9100
926.779	8906
926.886	9005
926.993	8960
927.099	8811
927.206	8807
927.312	8769
927.419	8960
927.525	8868
927.631	8864
927.737	8777
927.843	8762
927.95	8689
928.056	8689
928.162	8727
928.267	8868
928.373	9447
928.479	8861
928.585	8621
928.69	8750
928.796	8785
928.901	8655
929.007	8549
929.112	8705
929.218	8625
929.323	8522
929.428	8583
929.533	8678
929.638	8541
929.743	8579
929.848	8610
929.953	8575
930.058	8507
930.163	8339
930.267	8370
930.372	8438
930.477	8275
930.581	8560
930.685	8370
930.79	8252
930.894	8259
930.998	8267
931.103	8313
931.207	8130
931.311	7978
931.415	7963
931.519	7719
931.623	7731
