Data from test_V78500241_2004.txt Node
Date: Fri Mar 25 14:47:40 CST 2022
User: usil
Spectrometer: V785-0024
Trigger mode: 0
Integration Time (sec): 4.000000E-1
Scans to average: 1
Nonlinearity correction enabled: false
Boxcar width: 0
Storing dark spectrum: false
XAxis mode: Wavelengths
Number of Pixels in Spectrum: 1024
>>>>>Begin Spectral Data<<<<<
801.071	22128
801.214	22010
801.356	21709
801.499	21709
801.641	21610
801.783	21557
801.926	21557
802.068	21424
802.211	21401
802.353	21237
802.496	20994
802.638	21070
802.78	20929
802.923	20785
803.065	20796
803.208	20750
803.35	20735
803.492	20914
803.635	20910
803.777	20895
803.919	20910
804.061	21135
804.204	20781
804.346	20712
804.488	20632
804.63	20819
804.773	20632
804.915	20777
805.057	20792
805.199	20765
805.341	20659
805.483	20887
805.626	20804
805.768	20754
805.91	20697
806.052	20735
806.194	20640
806.336	20819
806.478	20777
806.62	20651
806.762	20834
806.904	20960
807.046	21165
807.188	20994
807.33	21062
807.472	21036
807.614	20948
807.756	21043
807.898	20921
808.04	20693
808.182	20902
808.324	20830
808.465	20937
808.607	21043
808.749	21112
808.891	21279
809.033	21378
809.174	21203
809.316	21039
809.458	21146
809.6	21039
809.741	21154
809.883	21211
810.025	21386
810.166	21260
810.308	21279
810.45	21218
810.591	21146
810.733	21001
810.875	20914
811.016	20880
811.158	20739
811.299	20960
811.441	21127
811.582	21051
811.724	20838
811.865	20777
812.007	20925
812.148	20887
812.29	20826
812.431	21051
812.573	21195
812.714	21173
812.855	21420
812.997	21443
813.138	21595
813.279	21530
813.421	21374
813.562	21336
813.703	21142
813.845	21096
813.986	20636
814.127	20644
814.268	20537
814.41	20427
814.551	20480
814.692	20434
814.833	20343
814.974	20324
815.115	20412
815.256	20191
815.397	20362
815.539	20172
815.68	20138
815.821	20100
815.962	20233
816.103	20058
816.244	20069
816.385	19932
816.526	19784
816.666	19681
816.807	19578
816.948	19689
817.089	19616
817.23	19544
817.371	19556
817.512	19548
817.653	19578
817.793	19571
817.934	19521
818.075	19525
818.216	19616
818.356	19518
818.497	19430
818.638	19259
818.778	19358
818.919	19274
819.06	19164
819.2	19358
819.341	19430
819.481	19438
819.622	19613
819.762	19803
819.903	19715
820.043	19628
820.184	19548
820.324	19419
820.465	19601
820.605	19514
820.746	19548
820.886	19354
821.026	19552
821.167	19487
821.307	19708
821.447	19491
821.588	19415
821.728	19148
821.868	19129
822.008	18916
822.149	18947
822.289	18947
822.429	18665
822.569	18559
822.709	18582
822.849	18563
822.99	18441
823.13	18498
823.27	18422
823.41	18369
823.55	18254
823.69	18228
823.83	18296
823.97	18148
824.11	18045
824.25	17984
824.389	18117
824.529	18171
824.669	18045
824.809	18053
824.949	18136
825.089	18030
825.228	18079
825.368	17908
825.508	17931
825.648	17885
825.787	17916
825.927	17843
826.067	17851
826.206	17828
826.346	17889
826.485	17779
826.625	17798
826.765	17847
826.904	17908
827.044	17623
827.183	17668
827.323	17471
827.462	17577
827.601	17486
827.741	17486
827.88	17444
828.02	17395
828.159	17410
828.298	17524
828.437	17562
828.577	17349
828.716	17653
828.855	17307
828.994	17326
829.134	17159
829.273	17273
829.412	17193
829.551	17242
829.69	17277
829.829	17261
829.968	17376
830.107	17334
830.246	17277
830.385	17193
830.524	17075
830.663	16976
830.802	16927
830.941	16968
831.08	16881
831.219	17052
831.357	16965
831.496	17056
831.635	16767
831.774	16759
831.913	16694
832.051	16641
832.19	16592
832.329	16607
832.467	16573
832.606	16519
832.744	16561
832.883	16512
833.022	16497
833.16	16550
833.299	16573
833.437	16584
833.576	16554
833.714	16672
833.852	16687
833.991	16611
834.129	16656
834.267	16656
834.406	16580
834.544	16607
834.682	16634
834.821	16561
834.959	16797
835.097	16580
835.235	16694
835.373	16634
835.511	16710
835.65	16519
835.788	16531
835.926	16394
836.064	16363
836.202	16398
836.34	16508
836.478	16634
836.615	16538
836.753	16653
836.891	16649
837.029	16497
837.167	16447
837.305	16447
837.443	16394
837.58	16394
837.718	16485
837.856	16516
837.993	16459
838.131	16447
838.269	16188
838.406	16386
838.544	16348
838.681	16211
838.819	16101
838.956	15892
839.094	15975
839.231	16059
839.369	16105
839.506	16299
839.643	16082
839.781	15987
839.918	15964
840.055	15953
840.193	15964
840.33	15945
840.467	15983
840.604	16044
840.742	16196
840.879	15835
841.016	15842
841.153	15819
841.29	16272
841.427	15987
841.564	16044
841.701	16013
841.838	15972
841.975	15968
842.112	16002
842.249	15755
842.385	15709
842.522	15968
842.659	15800
842.796	15804
842.933	15812
843.069	15618
843.206	15705
843.343	15751
843.479	15736
843.616	15751
843.752	15473
843.889	15576
844.025	15679
844.162	15408
844.298	15667
844.435	15401
844.571	15458
844.708	15622
844.844	15698
844.98	15629
845.117	15622
845.253	15424
845.389	15393
845.525	15500
845.661	15504
845.798	15310
845.934	15389
846.07	15332
846.206	15329
846.342	15477
846.478	15291
846.614	15165
846.75	15165
846.886	15150
847.022	15161
847.158	15051
847.294	15097
847.429	15138
847.565	15055
847.701	15233
847.837	14876
847.972	14804
848.108	14872
848.244	14914
848.379	14796
848.515	14697
848.65	14697
848.786	14720
848.921	14670
849.057	14834
849.192	14895
849.328	14735
849.463	14648
849.598	14678
849.734	14556
849.869	14552
850.004	14499
850.14	14469
850.275	14457
850.41	14374
850.545	14495
850.68	14518
850.815	14415
850.95	14427
851.085	14583
851.22	14541
851.355	14492
851.49	14351
851.625	14423
851.76	14438
851.895	14400
852.03	14347
852.165	14423
852.299	14434
852.434	14507
852.569	14423
852.703	14461
852.838	14465
852.973	14644
853.107	14503
853.242	14457
853.376	14381
853.511	14263
853.645	14339
853.78	14476
853.914	14381
854.048	14332
854.183	14229
854.317	14389
854.451	14446
854.585	14324
854.72	14305
854.854	14347
854.988	14244
855.122	14381
855.256	14263
855.39	14366
855.524	14454
855.658	14294
855.792	14514
855.926	14358
856.06	14339
856.194	14457
856.327	14343
856.461	14218
856.595	14267
856.729	14305
856.862	14404
856.996	14267
857.13	14385
857.263	14434
857.397	14427
857.53	14305
857.664	14454
857.797	14400
857.931	14537
858.064	14267
858.197	14514
858.331	14355
858.464	14218
858.597	14240
858.731	14298
858.864	14317
858.997	14320
859.13	14355
859.263	14412
859.396	14465
859.529	14313
859.662	14324
859.795	14248
859.928	14393
860.061	14533
860.194	14469
860.327	14313
860.46	14244
860.592	14473
860.725	14465
860.858	14438
860.99	14328
861.123	14324
861.256	14328
861.388	14442
861.521	14960
861.653	14240
861.786	14218
861.918	14218
862.05	14240
862.183	14267
862.315	14351
862.447	14358
862.58	14339
862.712	14069
862.844	14050
862.976	14092
863.108	14107
863.24	14476
863.372	14088
863.504	14100
863.636	14134
863.768	14259
863.9	14069
864.032	14001
864.164	13951
864.296	14096
864.428	14256
864.559	14221
864.691	14180
864.823	14115
864.954	14142
865.086	14153
865.217	14123
865.349	14020
865.48	14024
865.612	14065
865.743	14278
865.875	14100
866.006	14126
866.137	14031
866.269	14065
866.4	14142
866.531	14096
866.662	14027
866.793	14005
866.924	14062
867.055	14069
867.186	14107
867.317	14046
867.448	14005
867.579	14069
867.71	13936
867.841	14065
867.972	13986
868.103	14088
868.233	14069
868.364	14168
868.495	14157
868.625	14221
868.756	14423
868.886	14244
869.017	14332
869.147	14434
869.278	14404
869.408	14282
869.539	14301
869.669	14366
869.799	14328
869.929	14480
870.06	14530
870.19	14625
870.32	14530
870.45	14659
870.58	14705
870.71	14834
870.84	14933
870.97	14735
871.1	14686
871.23	14918
871.36	14906
871.489	14720
871.619	14804
871.749	14929
871.879	14933
872.008	14990
872.138	14921
872.267	14963
872.397	14887
872.526	14823
872.656	14861
872.785	14796
872.915	14944
873.044	14990
873.173	15009
873.303	15066
873.432	14994
873.561	15055
873.69	15043
873.819	15001
873.948	15146
874.077	15036
874.206	14982
874.335	15036
874.464	15089
874.593	15203
874.722	15268
874.851	15416
874.979	15310
875.108	15332
875.237	15340
875.365	15150
875.494	15252
875.623	15310
875.751	15287
875.88	15367
876.008	15435
876.136	15469
876.265	15766
876.393	15880
876.521	15949
876.65	15778
876.778	15686
876.906	15690
877.034	15652
877.162	15774
877.29	15618
877.418	15739
877.546	15732
877.674	15682
877.802	15637
877.93	15789
878.058	15656
878.185	15622
878.313	15599
878.441	15804
878.568	15553
878.696	15637
878.824	15831
878.951	15831
879.079	15816
879.206	16013
879.333	15759
879.461	15781
879.588	15823
879.715	15937
879.842	15998
879.97	15766
880.097	15618
880.224	15496
880.351	15530
880.478	15622
880.605	15496
880.732	15568
880.859	15739
880.986	15564
881.112	15614
881.239	15412
881.366	15488
881.493	15313
881.619	15165
881.746	15184
881.872	15260
881.999	15268
882.125	15199
882.252	15180
882.378	15226
882.505	15401
882.631	15211
882.757	14986
882.883	15085
883.01	15047
883.136	14975
883.262	14929
883.388	15005
883.514	15119
883.64	15138
883.766	14899
883.892	14868
884.018	14823
884.143	15047
884.269	15135
884.395	14705
884.52	14686
884.646	14731
884.772	14598
884.897	14708
885.023	14743
885.148	14804
885.274	14910
885.399	14792
885.524	14739
885.65	14716
885.775	14682
885.9	14800
886.025	14845
886.15	14781
886.275	14663
886.4	14579
886.525	14575
886.65	14697
886.775	14594
886.9	14902
887.025	14967
887.149	14765
887.274	14632
887.399	14590
887.523	14625
887.648	14541
887.773	14473
887.897	14655
888.021	14613
888.146	14545
888.27	14648
888.395	14739
888.519	14564
888.643	14579
888.767	14606
888.891	14400
889.015	14415
889.139	14545
889.263	14343
889.387	14492
889.511	14636
889.635	14537
889.759	14374
889.883	14419
890.006	14492
890.13	14408
890.254	14400
890.377	14351
890.501	14278
890.624	14233
890.748	14362
890.871	14142
890.995	14161
891.118	14027
891.241	14084
891.364	14164
891.488	14252
891.611	14115
891.734	14145
891.857	14221
891.98	14210
892.103	14172
892.226	14153
892.349	14119
892.471	14031
892.594	14157
892.717	14195
892.839	14164
892.962	14088
893.085	14275
893.207	14126
893.33	14050
893.452	14081
893.575	14138
893.697	14115
893.819	14377
893.941	14278
894.064	14240
894.186	14164
894.308	14008
894.43	14275
894.552	14362
894.674	14343
894.796	14191
894.918	14176
895.04	14278
895.161	14237
895.283	14282
895.405	14138
895.526	14229
895.648	14298
895.769	14278
895.891	14275
896.012	14320
896.134	14404
896.255	14256
896.376	14233
896.498	14275
896.619	14324
896.74	14381
896.861	14377
896.982	14587
897.103	14826
897.224	14632
897.345	14518
897.466	14518
897.587	14549
897.708	14800
897.828	14560
897.949	14533
898.07	14438
898.19	14545
898.311	14724
898.431	14583
898.552	14590
898.672	14792
898.792	14670
898.913	14720
899.033	14552
899.153	14446
899.273	14385
899.393	14514
899.513	14480
899.633	14526
899.753	14545
899.873	14530
899.993	14473
900.113	14503
900.232	14568
900.352	14457
900.472	14385
900.591	14343
900.711	14385
900.83	14305
900.95	14469
901.069	14579
901.189	14309
901.308	14191
901.427	13951
901.546	14008
901.665	14069
901.784	14077
901.904	13940
902.023	13807
902.141	13674
902.26	13651
902.379	13662
902.498	13643
902.617	13559
902.735	13693
902.854	13537
902.973	13544
903.091	13255
903.21	13263
903.328	13396
903.446	13263
903.565	13190
903.683	13247
903.801	13137
903.919	13118
904.038	13065
904.156	13004
904.274	13107
904.392	13019
904.51	12966
904.627	12973
904.745	13061
904.863	12966
904.981	12795
905.098	12764
905.216	12612
905.334	12741
905.451	12703
905.569	12612
905.686	12810
905.803	12783
905.921	12479
906.038	12593
906.155	12574
906.272	12361
906.389	12418
906.506	12296
906.623	12232
906.74	12209
906.857	12095
906.974	12216
907.091	12304
907.208	12467
907.324	12403
907.441	12209
907.557	12060
907.674	11988
907.79	11980
907.907	11965
908.023	12068
908.139	11988
908.256	11969
908.372	12007
908.488	11950
908.604	11813
908.72	11707
908.836	11733
908.952	11836
909.068	11775
909.184	11878
909.3	11843
909.415	11847
909.531	11859
909.647	11592
909.762	11516
909.878	11440
909.993	11619
910.108	11512
910.224	11493
910.339	11646
910.454	11509
910.57	11421
910.685	11341
910.8	11665
910.915	11547
911.03	11410
911.145	11315
911.259	11159
911.374	11197
911.489	11181
911.604	11140
911.718	11006
911.833	11022
911.947	10927
912.062	10797
912.176	10995
912.291	11052
912.405	11018
912.519	11261
912.633	11155
912.748	11117
912.862	11056
912.976	10908
913.09	10797
913.204	10866
913.318	10904
913.431	10965
913.545	10968
913.659	11052
913.772	10896
913.886	10801
914	10748
914.113	10866
914.226	10892
914.34	10847
914.453	10729
914.566	10763
914.68	10691
914.793	10702
914.906	10516
915.019	10436
915.132	10398
915.245	10527
915.358	10558
915.47	10554
915.583	10519
915.696	10561
915.809	10694
915.921	10687
916.034	10531
916.146	10489
916.259	10485
916.371	10596
916.483	10535
916.595	10428
916.708	10432
916.82	10489
916.932	10398
917.044	10402
917.156	10344
917.268	10329
917.38	10348
917.491	10322
917.603	10382
917.715	10481
917.826	10436
917.938	10356
918.049	10211
918.161	10314
918.272	10455
918.384	10481
918.495	10405
918.606	10234
918.717	10158
918.828	10253
918.939	10242
919.05	10135
919.161	10272
919.272	9979
919.383	10040
919.494	10287
919.604	10451
919.715	10276
919.826	10154
919.936	10215
920.047	10284
920.157	10227
920.267	10421
920.378	10341
920.488	10200
920.598	10462
920.708	10573
920.818	10466
920.928	10504
921.038	10656
921.148	10596
921.258	10322
921.368	10169
921.477	10074
921.587	10112
921.697	10013
921.806	10188
921.916	10029
922.025	9831
922.134	9793
922.244	9720
922.353	9850
922.462	9660
922.571	9599
922.68	9519
922.789	9397
922.898	9485
923.007	9450
923.116	9526
923.224	9428
923.333	9488
923.442	9439
923.55	9374
923.659	9458
923.767	9492
923.876	9272
923.984	9462
924.092	9256
924.201	9283
924.309	9386
924.417	9317
924.525	9294
924.633	9325
924.741	10223
924.849	9184
924.956	9207
925.064	9077
925.172	9028
925.279	8990
925.387	9180
925.494	9123
925.602	9237
925.709	9226
925.816	9097
925.924	9142
926.031	9188
926.138	9116
926.245	9211
926.352	9055
926.459	9233
926.566	9199
926.673	9055
926.779	8979
926.886	8971
926.993	8914
927.099	8807
927.206	8834
927.312	8796
927.419	8925
927.525	8823
927.631	8948
927.737	8796
927.843	8785
927.95	8644
928.056	8777
928.162	8758
928.267	8804
928.373	9450
928.479	8864
928.585	8613
928.69	8727
928.796	8750
928.901	8705
929.007	8488
929.112	8705
929.218	8621
929.323	8560
929.428	8514
929.533	8678
929.638	8480
929.743	8590
929.848	8564
929.953	8530
930.058	8484
930.163	8358
930.267	8343
930.372	8499
930.477	8271
930.581	8556
930.685	8374
930.79	8339
930.894	8259
930.998	8298
931.103	8442
931.207	8084
931.311	8005
931.415	7967
931.519	7799
931.623	7769
