Data from test_V78500241_1240.txt Node
Date: Fri Mar 25 14:42:20 CST 2022
User: usil
Spectrometer: V785-0024
Trigger mode: 0
Integration Time (sec): 4.000000E-1
Scans to average: 1
Nonlinearity correction enabled: false
Boxcar width: 0
Storing dark spectrum: false
XAxis mode: Wavelengths
Number of Pixels in Spectrum: 1024
>>>>>Begin Spectral Data<<<<<
801.071	22287
801.214	22284
801.356	22082
801.499	21903
801.641	21743
801.783	21652
801.926	21793
802.068	21690
802.211	21492
802.353	21606
802.496	21348
802.638	21264
802.78	21203
802.923	21207
803.065	21047
803.208	21096
803.35	21165
803.492	21093
803.635	21104
803.777	21051
803.919	21131
804.061	21416
804.204	21100
804.346	20971
804.488	20899
804.63	21062
804.773	20887
804.915	21051
805.057	21096
805.199	21043
805.341	21024
805.483	21112
805.626	21062
805.768	20895
805.91	21066
806.052	20910
806.194	20956
806.336	21116
806.478	20948
806.62	21047
806.762	21104
806.904	21188
807.046	21378
807.188	21397
807.33	21310
807.472	21370
807.614	21233
807.756	21287
807.898	21180
808.04	21123
808.182	21096
808.324	21135
808.465	21218
808.607	21370
808.749	21294
808.891	21580
809.033	21606
809.174	21629
809.316	21439
809.458	21439
809.6	21237
809.741	21488
809.883	21507
810.025	21572
810.166	21466
810.308	21625
810.45	21583
810.591	21386
810.733	21306
810.875	21283
811.016	21081
811.158	21116
811.299	21272
811.441	21481
811.582	21317
811.724	21214
811.865	21131
812.007	21184
812.148	21096
812.29	21173
812.431	21435
812.573	21477
812.714	21469
812.855	21713
812.997	21842
813.138	21895
813.279	21755
813.421	21637
813.562	21644
813.703	21454
813.845	21321
813.986	21116
814.127	20849
814.268	20811
814.41	20800
814.551	20625
814.692	20769
814.833	20640
814.974	20674
815.115	20762
815.256	20571
815.397	20571
815.539	20590
815.68	20556
815.821	20355
815.962	20473
816.103	20419
816.244	20328
816.385	20263
816.526	20240
816.666	19986
816.807	20005
816.948	19986
817.089	19967
817.23	19875
817.371	19875
817.512	19845
817.653	19780
817.793	19837
817.934	19803
818.075	19940
818.216	19807
818.356	19898
818.497	19795
818.638	19480
818.778	19590
818.919	19757
819.06	19525
819.2	19731
819.341	19655
819.481	19784
819.622	19887
819.762	20126
819.903	19997
820.043	19932
820.184	19860
820.324	19837
820.465	20024
820.605	19814
820.746	19761
820.886	19647
821.026	19807
821.167	19757
821.307	19803
821.447	19753
821.588	19628
821.728	19563
821.868	19381
822.008	19225
822.149	19282
822.289	19343
822.429	18993
822.569	18977
822.709	18993
822.849	18776
822.99	18867
823.13	18730
823.27	18791
823.41	18509
823.55	18623
823.69	18563
823.83	18658
823.97	18395
824.11	18418
824.25	18403
824.389	18311
824.529	18429
824.669	18433
824.809	18403
824.949	18483
825.089	18437
825.228	18258
825.368	18243
825.508	18174
825.648	18201
825.787	18205
825.927	18273
826.067	18079
826.206	18038
826.346	18213
826.485	18159
826.625	18038
826.765	18171
826.904	18159
827.044	17889
827.183	17783
827.323	17843
827.462	17840
827.601	17904
827.741	17817
827.88	17863
828.02	17726
828.159	17695
828.298	17809
828.437	17893
828.577	17741
828.716	17920
828.855	17729
828.994	17490
829.134	17558
829.273	17687
829.412	17573
829.551	17547
829.69	17471
829.829	17577
829.968	17676
830.107	17604
830.246	17619
830.385	17505
830.524	17490
830.663	17444
830.802	17265
830.941	17159
831.08	17193
831.219	17307
831.357	17318
831.496	17360
831.635	17181
831.774	17178
831.913	17025
832.051	17010
832.19	17022
832.329	17022
832.467	16946
832.606	16850
832.744	16915
832.883	16854
833.022	16854
833.16	17010
833.299	16930
833.437	16915
833.576	17037
833.714	16995
833.852	16934
833.991	16942
834.129	16961
834.267	17071
834.406	16885
834.544	16995
834.682	17029
834.821	16835
834.959	17025
835.097	16862
835.235	17006
835.373	16934
835.511	16972
835.65	16850
835.788	16919
835.926	16698
836.064	16599
836.202	16656
836.34	16839
836.478	16953
836.615	16763
836.753	16965
836.891	16854
837.029	16942
837.167	16752
837.305	16778
837.443	16805
837.58	16706
837.718	16816
837.856	16835
837.993	16744
838.131	16691
838.269	16649
838.406	16740
838.544	16523
838.681	16329
838.819	16402
838.956	16253
839.094	16238
839.231	16284
839.369	16436
839.506	16664
839.643	16542
839.781	16226
839.918	16211
840.055	16371
840.193	16306
840.33	16265
840.467	16207
840.604	16295
840.742	16573
840.879	16177
841.016	16215
841.153	16246
841.29	16402
841.427	16310
841.564	16299
841.701	16200
841.838	16360
841.975	16215
842.112	16181
842.249	16112
842.385	16112
842.522	16185
842.659	16135
842.796	15983
842.933	16032
843.069	16135
843.206	16029
843.343	16162
843.479	16029
843.616	16063
843.752	15831
843.889	15808
844.025	15907
844.162	15865
844.298	16021
844.435	15831
844.571	15918
844.708	15766
844.844	15975
844.98	16177
845.117	15994
845.253	15762
845.389	15656
845.525	15937
845.661	15850
845.798	15656
845.934	15713
846.07	15694
846.206	15835
846.342	15800
846.478	15656
846.614	15618
846.75	15405
846.886	15348
847.022	15542
847.158	15416
847.294	15447
847.429	15351
847.565	15420
847.701	15644
847.837	15230
847.972	15230
848.108	15218
848.244	15279
848.379	15077
848.515	15020
848.65	15047
848.786	15036
848.921	14971
849.057	15142
849.192	15108
849.328	15161
849.463	15043
849.598	15051
849.734	14979
849.869	14941
850.004	14887
850.14	14792
850.275	14815
850.41	14651
850.545	14705
850.68	14758
850.815	14807
850.95	14796
851.085	14921
851.22	14914
851.355	14758
851.49	14804
851.625	14762
851.76	14762
851.895	14667
852.03	14769
852.165	14800
852.299	14849
852.434	14830
852.569	14864
852.703	14773
852.838	14891
852.973	14864
853.107	14902
853.242	14804
853.376	14610
853.511	14541
853.645	14522
853.78	14769
853.914	14750
854.048	14644
854.183	14682
854.317	14777
854.451	14887
854.585	14598
854.72	14743
854.854	14701
854.988	14499
855.122	14621
855.256	14476
855.39	14701
855.524	14708
855.658	14697
855.792	14659
855.926	14655
856.06	14731
856.194	14777
856.327	14640
856.461	14590
856.595	14522
856.729	14632
856.862	14705
856.996	14625
857.13	14853
857.263	14686
857.397	14739
857.53	14651
857.664	14762
857.797	14682
857.931	14857
858.064	14610
858.197	14758
858.331	14682
858.464	14579
858.597	14495
858.731	14693
858.864	14746
858.997	14568
859.13	14651
859.263	14674
859.396	14796
859.529	14659
859.662	14568
859.795	14667
859.928	14651
860.061	14785
860.194	14849
860.327	14632
860.46	14659
860.592	14663
860.725	14712
860.858	14727
860.99	14655
861.123	14442
861.256	14583
861.388	14735
861.521	15325
861.653	14511
861.786	14625
861.918	14594
862.05	14518
862.183	14587
862.315	14579
862.447	14651
862.58	14629
862.712	14427
862.844	14389
862.976	14465
863.108	14469
863.24	14849
863.372	14324
863.504	14457
863.636	14385
863.768	14480
863.9	14454
864.032	14355
864.164	14450
864.296	14404
864.428	14518
864.559	14511
864.691	14484
864.823	14564
864.954	14522
865.086	14404
865.217	14309
865.349	14355
865.48	14347
865.612	14404
865.743	14461
865.875	14480
866.006	14366
866.137	14423
866.269	14385
866.4	14431
866.531	14343
866.662	14294
866.793	14313
866.924	14332
867.055	14366
867.186	14328
867.317	14366
867.448	14267
867.579	14385
867.71	14286
867.841	14298
867.972	14469
868.103	14419
868.233	14381
868.364	14381
868.495	14351
868.625	14594
868.756	14754
868.886	14511
869.017	14629
869.147	14773
869.278	14826
869.408	14617
869.539	14727
869.669	14811
869.799	14674
869.929	14800
870.06	14720
870.19	14963
870.32	14990
870.45	14883
870.58	15058
870.71	15150
870.84	15131
870.97	15013
871.1	15062
871.23	15226
871.36	15154
871.489	15207
871.619	15131
871.749	15249
871.879	15294
872.008	15374
872.138	15344
872.267	15207
872.397	14982
872.526	15108
872.656	14998
872.785	15058
872.915	15279
873.044	15401
873.173	15256
873.303	15222
873.432	15332
873.561	15439
873.69	15275
873.819	15268
873.948	15428
874.077	15283
874.206	15283
874.335	15264
874.464	15511
874.593	15614
874.722	15519
874.851	15637
874.979	15682
875.108	15648
875.237	15530
875.365	15481
875.494	15572
875.623	15606
875.751	15584
875.88	15663
876.008	15774
876.136	15781
876.265	16010
876.393	16169
876.521	16154
876.65	16177
876.778	16074
876.906	15987
877.034	15964
877.162	15915
877.29	16044
877.418	16032
877.546	15983
877.674	16055
877.802	16032
877.93	16082
878.058	15934
878.185	15857
878.313	16002
878.441	15998
878.568	15960
878.696	15994
878.824	16150
878.951	16135
879.079	16135
879.206	16402
879.333	16207
879.461	16086
879.588	16242
879.715	16325
879.842	16382
879.97	16196
880.097	15983
880.224	15892
880.351	15983
880.478	15892
880.605	15956
880.732	15857
880.859	16131
880.986	15949
881.112	15945
881.239	15804
881.366	15694
881.493	15709
881.619	15542
881.746	15599
881.872	15568
881.999	15504
882.125	15542
882.252	15466
882.378	15671
882.505	15728
882.631	15534
882.757	15302
882.883	15462
883.01	15469
883.136	15367
883.262	15298
883.388	15226
883.514	15340
883.64	15450
883.766	15260
883.892	15138
884.018	15214
884.143	15405
884.269	15401
884.395	15066
884.52	15051
884.646	15036
884.772	14925
884.897	14963
885.023	15108
885.148	15154
885.274	15203
885.399	15108
885.524	15116
885.65	15047
885.775	15150
885.9	15074
886.025	15233
886.15	15138
886.275	15131
886.4	14960
886.525	15058
886.65	14960
886.775	14979
886.9	15241
887.025	15298
887.149	15070
887.274	15001
887.399	14853
887.523	14838
887.648	14830
887.773	14819
887.897	14967
888.021	15005
888.146	14880
888.27	14979
888.395	14979
888.519	14925
888.643	14960
888.767	14963
888.891	14724
889.015	14686
889.139	14826
889.263	14777
889.387	14880
889.511	14853
889.635	14895
889.759	14819
889.883	14773
890.006	14807
890.13	14872
890.254	14613
890.377	14640
890.501	14495
890.624	14522
890.748	14583
890.871	14564
890.995	14347
891.118	14317
891.241	14488
891.364	14454
891.488	14575
891.611	14454
891.734	14408
891.857	14549
891.98	14396
892.103	14434
892.226	14476
892.349	14492
892.471	14286
892.594	14427
892.717	14408
892.839	14511
892.962	14396
893.085	14533
893.207	14442
893.33	14320
893.452	14423
893.575	14499
893.697	14404
893.819	14632
893.941	14773
894.064	14579
894.186	14438
894.308	14427
894.43	14590
894.552	14697
894.674	14610
894.796	14446
894.918	14545
895.04	14457
895.161	14495
895.283	14526
895.405	14514
895.526	14533
895.648	14518
895.769	14587
895.891	14541
896.012	14640
896.134	14644
896.255	14590
896.376	14526
896.498	14541
896.619	14769
896.74	14610
896.861	14674
896.982	14971
897.103	14990
897.224	14857
897.345	14804
897.466	14727
897.587	14895
897.708	15036
897.828	14948
897.949	14861
898.07	14792
898.19	14811
898.311	14979
898.431	14830
898.552	14956
898.672	15036
898.792	15036
898.913	14941
899.033	14861
899.153	14792
899.273	14731
899.393	14788
899.513	14800
899.633	14788
899.753	14830
899.873	14823
899.993	14800
900.113	14731
900.232	14773
900.352	14823
900.472	14701
900.591	14617
900.711	14674
900.83	14640
900.95	14804
901.069	14712
901.189	14541
901.308	14526
901.427	14393
901.546	14419
901.665	14366
901.784	14450
901.904	14168
902.023	14134
902.141	13982
902.26	13868
902.379	13963
902.498	13849
902.617	13932
902.735	13898
902.854	13890
902.973	13830
903.091	13613
903.21	13571
903.328	13658
903.446	13495
903.565	13346
903.683	13415
903.801	13362
903.919	13430
904.038	13384
904.156	13206
904.274	13377
904.392	13202
904.51	13209
904.627	13270
904.745	13369
904.863	13320
904.981	13031
905.098	12916
905.216	12951
905.334	13008
905.451	12962
905.569	12859
905.686	13008
905.803	12920
905.921	12810
906.038	12886
906.155	12848
906.272	12764
906.389	12715
906.506	12585
906.623	12509
906.74	12395
906.857	12441
906.974	12467
907.091	12665
907.208	12650
907.324	12616
907.441	12456
907.557	12319
907.674	12292
907.79	12232
907.907	12239
908.023	12338
908.139	12372
908.256	12273
908.372	12220
908.488	12106
908.604	11988
908.72	12019
908.836	12087
908.952	11977
909.068	12038
909.184	12167
909.3	12117
909.415	11984
909.531	12110
909.647	11821
909.762	11855
909.878	11786
909.993	11866
910.108	11843
910.224	11805
910.339	11832
910.454	11764
910.57	11623
910.685	11737
910.8	11885
910.915	11832
911.03	11714
911.145	11558
911.259	11501
911.374	11539
911.489	11474
911.604	11436
911.718	11231
911.833	11318
911.947	11189
912.062	11071
912.176	11159
912.291	11258
912.405	11162
912.519	11509
912.633	11402
912.748	11337
912.862	11322
912.976	11128
913.09	11006
913.204	11086
913.318	11143
913.431	11235
913.545	11223
913.659	11159
913.772	11140
913.886	10984
914	10961
914.113	11079
914.226	11128
914.34	11014
914.453	10991
914.566	11048
914.68	10957
914.793	10911
914.906	10736
915.019	10835
915.132	10702
915.245	10778
915.358	10790
915.47	10771
915.583	10771
915.696	10782
915.809	10881
915.921	10889
916.034	10721
916.146	10725
916.259	10729
916.371	10839
916.483	10782
916.595	10622
916.708	10725
916.82	10649
916.932	10675
917.044	10664
917.156	10687
917.268	10599
917.38	10523
917.491	10565
917.603	10527
917.715	10717
917.826	10626
917.938	10523
918.049	10409
918.161	10577
918.272	10771
918.384	10748
918.495	10569
918.606	10516
918.717	10341
918.828	10489
918.939	10402
919.05	10318
919.161	10432
919.272	10242
919.383	10352
919.494	10504
919.604	10694
919.715	10489
919.826	10386
919.936	10451
920.047	10462
920.157	10466
920.267	10653
920.378	10428
920.488	10436
920.598	10611
920.708	10828
920.818	10645
920.928	10611
921.038	10835
921.148	10847
921.258	10474
921.368	10443
921.477	10310
921.587	10310
921.697	10204
921.806	10352
921.916	10181
922.025	10025
922.134	10010
922.244	9941
922.353	10135
922.462	9934
922.571	9823
922.68	9698
922.789	9686
922.898	9717
923.007	9728
923.116	9698
923.224	9622
923.333	9701
923.442	9625
923.55	9545
923.659	9568
923.767	9667
923.876	9614
923.984	9641
924.092	9485
924.201	9591
924.309	9519
924.417	9564
924.525	9507
924.633	9599
924.741	10219
924.849	9359
924.956	9473
925.064	9306
925.172	9253
925.279	9268
925.387	9397
925.494	9363
925.602	9500
925.709	9473
925.816	9287
925.924	9363
926.031	9408
926.138	9348
926.245	9302
926.352	9272
926.459	9401
926.566	9355
926.673	9298
926.779	9199
926.886	9127
926.993	9077
927.099	9043
927.206	8990
927.312	8998
927.419	9112
927.525	9058
927.631	9077
927.737	8921
927.843	8941
927.95	8777
928.056	8883
928.162	8918
928.267	8994
928.373	9644
928.479	9051
928.585	8845
928.69	8861
928.796	8994
928.901	8883
929.007	8708
929.112	8887
929.218	8823
929.323	8766
929.428	8800
929.533	8880
929.638	8651
929.743	8750
929.848	8731
929.953	8758
930.058	8594
930.163	8469
930.267	8564
930.372	8655
930.477	8476
930.581	8735
930.685	8613
930.79	8461
930.894	8503
930.998	8450
931.103	8549
931.207	8252
931.311	8191
931.415	8081
931.519	8012
931.623	7871
