Data from test_V78500241_1681.txt Node
Date: Fri Mar 25 14:45:25 CST 2022
User: usil
Spectrometer: V785-0024
Trigger mode: 0
Integration Time (sec): 4.000000E-1
Scans to average: 1
Nonlinearity correction enabled: false
Boxcar width: 0
Storing dark spectrum: false
XAxis mode: Wavelengths
Number of Pixels in Spectrum: 1024
>>>>>Begin Spectral Data<<<<<
801.071	22147
801.214	22131
801.356	21857
801.499	21895
801.641	21743
801.783	21675
801.926	21686
802.068	21568
802.211	21515
802.353	21389
802.496	21272
802.638	21192
802.78	21173
802.923	21062
803.065	20963
803.208	20998
803.35	20963
803.492	21127
803.635	21161
803.777	21005
803.919	21066
804.061	21351
804.204	20986
804.346	20921
804.488	20921
804.63	21039
804.773	20815
804.915	20998
805.057	21070
805.199	20921
805.341	20925
805.483	21077
805.626	20967
805.768	20979
805.91	20864
806.052	20921
806.194	20785
806.336	21001
806.478	20899
806.62	20811
806.762	20842
806.904	21138
807.046	21370
807.188	21367
807.33	21310
807.472	21351
807.614	21146
807.756	21287
807.898	21028
808.04	21173
808.182	21112
808.324	21032
808.465	21074
808.607	21150
808.749	21294
808.891	21435
809.033	21507
809.174	21477
809.316	21317
809.458	21340
809.6	21336
809.741	21317
809.883	21530
810.025	21397
810.166	21515
810.308	21473
810.45	21462
810.591	21268
810.733	21211
810.875	21093
811.016	21020
811.158	21032
811.299	21157
811.441	21226
811.582	21264
811.724	21154
811.865	21089
812.007	21214
812.148	21123
812.29	21131
812.431	21298
812.573	21374
812.714	21443
812.855	21618
812.997	21652
813.138	21755
813.279	21724
813.421	21553
813.562	21644
813.703	21344
813.845	21131
813.986	20891
814.127	20773
814.268	20765
814.41	20659
814.551	20701
814.692	20727
814.833	20537
814.974	20587
815.115	20625
815.256	20465
815.397	20518
815.539	20450
815.68	20290
815.821	20362
815.962	20294
816.103	20355
816.244	20161
816.385	20069
816.526	20145
816.666	19936
816.807	19658
816.948	19784
817.089	19944
817.23	19856
817.371	19772
817.512	19830
817.653	19788
817.793	19852
817.934	19734
818.075	19757
818.216	19909
818.356	19719
818.497	19540
818.638	19457
818.778	19537
818.919	19533
819.06	19495
819.2	19544
819.341	19624
819.481	19681
819.622	19738
819.762	19993
819.903	19902
820.043	19906
820.184	19658
820.324	19830
820.465	19864
820.605	19818
820.746	19746
820.886	19582
821.026	19769
821.167	19655
821.307	19742
821.447	19651
821.588	19548
821.728	19438
821.868	19335
822.008	19164
822.149	19023
822.289	19061
822.429	18890
822.569	18821
822.709	18886
822.849	18646
822.99	18700
823.13	18673
823.27	18673
823.41	18414
823.55	18410
823.69	18498
823.83	18498
823.97	18372
824.11	18213
824.25	18133
824.389	18148
824.529	18361
824.669	18232
824.809	18327
824.949	18254
825.089	18201
825.228	18197
825.368	18049
825.508	18064
825.648	18045
825.787	17999
825.927	18076
826.067	18045
826.206	17855
826.346	18106
826.485	17992
826.625	17923
826.765	18022
826.904	18030
827.044	17798
827.183	17726
827.323	17687
827.462	17745
827.601	17562
827.741	17752
827.88	17733
828.02	17589
828.159	17630
828.298	17737
828.437	17745
828.577	17672
828.716	17805
828.855	17600
828.994	17429
829.134	17471
829.273	17566
829.412	17383
829.551	17318
829.69	17391
829.829	17459
829.968	17558
830.107	17490
830.246	17391
830.385	17410
830.524	17353
830.663	17235
830.802	17109
830.941	17064
831.08	17064
831.219	17166
831.357	17060
831.496	17277
831.635	17045
831.774	16968
831.913	16953
832.051	16889
832.19	16866
832.329	16774
832.467	16786
832.606	16729
832.744	16641
832.883	16824
833.022	16641
833.16	16763
833.299	16774
833.437	16717
833.576	16812
833.714	16805
833.852	16755
833.991	16759
834.129	16843
834.267	16831
834.406	16641
834.544	16927
834.682	16828
834.821	16725
834.959	16869
835.097	16706
835.235	16771
835.373	16748
835.511	16786
835.65	16721
835.788	16653
835.926	16512
836.064	16504
836.202	16538
836.34	16630
836.478	16763
836.615	16771
836.753	16717
836.891	16706
837.029	16733
837.167	16683
837.305	16569
837.443	16466
837.58	16413
837.718	16573
837.856	16588
837.993	16512
838.131	16504
838.269	16417
838.406	16531
838.544	16432
838.681	16242
838.819	16287
838.956	16105
839.094	16124
839.231	16173
839.369	16276
839.506	16577
839.643	16310
839.781	16128
839.918	16109
840.055	16051
840.193	16044
840.33	16040
840.467	16025
840.604	16074
840.742	16268
840.879	15998
841.016	15949
841.153	15972
841.29	16211
841.427	16169
841.564	16097
841.701	16131
841.838	16032
841.975	15964
842.112	15987
842.249	15880
842.385	15861
842.522	16150
842.659	15797
842.796	15835
842.933	15937
843.069	15857
843.206	15759
843.343	15850
843.479	15873
843.616	15857
843.752	15728
843.889	15599
844.025	15793
844.162	15713
844.298	15835
844.435	15576
844.571	15595
844.708	15682
844.844	15690
844.98	15770
845.117	15857
845.253	15610
845.389	15511
845.525	15648
845.661	15633
845.798	15477
845.934	15519
846.07	15572
846.206	15504
846.342	15610
846.478	15515
846.614	15283
846.75	15188
846.886	15150
847.022	15222
847.158	15211
847.294	15226
847.429	15313
847.565	15154
847.701	15454
847.837	14963
847.972	14967
848.108	15028
848.244	15001
848.379	14838
848.515	14750
848.65	14845
848.786	14876
848.921	14925
849.057	14918
849.192	14918
849.328	14864
849.463	14868
849.598	14796
849.734	14781
849.869	14682
850.004	14587
850.14	14689
850.275	14686
850.41	14579
850.545	14514
850.68	14537
850.815	14625
850.95	14644
851.085	14785
851.22	14746
851.355	14541
851.49	14526
851.625	14522
851.76	14632
851.895	14404
852.03	14347
852.165	14511
852.299	14552
852.434	14765
852.569	14598
852.703	14602
852.838	14724
852.973	14830
853.107	14727
853.242	14549
853.376	14419
853.511	14336
853.645	14412
853.78	14571
853.914	14590
854.048	14362
854.183	14408
854.317	14507
854.451	14556
854.585	14400
854.72	14393
854.854	14511
854.988	14339
855.122	14454
855.256	14244
855.39	14400
855.524	14434
855.658	14473
855.792	14457
855.926	14507
856.06	14446
856.194	14518
856.327	14446
856.461	14442
856.595	14374
856.729	14393
856.862	14568
856.996	14465
857.13	14522
857.263	14530
857.397	14583
857.53	14434
857.664	14499
857.797	14522
857.931	14552
858.064	14526
858.197	14560
858.331	14514
858.464	14469
858.597	14385
858.731	14488
858.864	14454
858.997	14377
859.13	14499
859.263	14499
859.396	14533
859.529	14415
859.662	14370
859.795	14358
859.928	14545
860.061	14583
860.194	14587
860.327	14503
860.46	14442
860.592	14564
860.725	14575
860.858	14526
860.99	14461
861.123	14278
861.256	14454
861.388	14476
861.521	15013
861.653	14305
861.786	14161
861.918	14381
862.05	14412
862.183	14412
862.315	14408
862.447	14499
862.58	14393
862.712	14339
862.844	14164
862.976	14317
863.108	14271
863.24	14613
863.372	14191
863.504	14259
863.636	14183
863.768	14317
863.9	14218
864.032	14145
864.164	14218
864.296	14278
864.428	14248
864.559	14305
864.691	14404
864.823	14263
864.954	14218
865.086	14290
865.217	14240
865.349	14172
865.48	14176
865.612	14221
865.743	14339
865.875	14221
866.006	14218
866.137	14248
866.269	14191
866.4	14187
866.531	14202
866.662	14111
866.793	14126
866.924	14176
867.055	14218
867.186	14218
867.317	14168
867.448	14039
867.579	14115
867.71	14252
867.841	14065
867.972	14252
868.103	14149
868.233	14252
868.364	14202
868.495	14282
868.625	14419
868.756	14568
868.886	14442
869.017	14385
869.147	14476
869.278	14541
869.408	14488
869.539	14511
869.669	14518
869.799	14587
869.929	14571
870.06	14530
870.19	14823
870.32	14686
870.45	14754
870.58	14845
870.71	14864
870.84	14925
870.97	14842
871.1	14815
871.23	15032
871.36	15093
871.489	14963
871.619	15154
871.749	15074
871.879	15104
872.008	15176
872.138	15070
872.267	15108
872.397	14971
872.526	14857
872.656	14830
872.785	14842
872.915	15001
873.044	15165
873.173	15055
873.303	15226
873.432	15104
873.561	15214
873.69	15123
873.819	15108
873.948	15165
874.077	15150
874.206	15074
874.335	15112
874.464	15188
874.593	15412
874.722	15268
874.851	15473
874.979	15405
875.108	15462
875.237	15283
875.365	15325
875.494	15370
875.623	15526
875.751	15332
875.88	15511
876.008	15538
876.136	15633
876.265	15846
876.393	15972
876.521	15911
876.65	15930
876.778	15907
876.906	15850
877.034	15850
877.162	15819
877.29	15736
877.418	15755
877.546	15854
877.674	15907
877.802	15812
877.93	15804
878.058	15770
878.185	15736
878.313	15720
878.441	15827
878.568	15656
878.696	15728
878.824	15975
878.951	15953
879.079	16017
879.206	16219
879.333	16048
879.461	15922
879.588	16025
879.715	16017
879.842	16063
879.97	16021
880.097	15785
880.224	15724
880.351	15705
880.478	15739
880.605	15713
880.732	15610
880.859	16013
880.986	15778
881.112	15652
881.239	15595
881.366	15507
881.493	15382
881.619	15336
881.746	15325
881.872	15306
881.999	15355
882.125	15275
882.252	15401
882.378	15325
882.505	15538
882.631	15268
882.757	15142
882.883	15112
883.01	15165
883.136	15116
883.262	15017
883.388	14994
883.514	15165
883.64	15233
883.766	15180
883.892	15009
884.018	15058
884.143	15161
884.269	15287
884.395	14899
884.52	14861
884.646	14830
884.772	14834
884.897	14708
885.023	14880
885.148	14925
885.274	15028
885.399	14918
885.524	14853
885.65	14800
885.775	14952
885.9	14804
886.025	15005
886.15	14925
886.275	14925
886.4	14785
886.525	14868
886.65	14857
886.775	14663
886.9	14956
887.025	15135
887.149	14819
887.274	14686
887.399	14629
887.523	14674
887.648	14552
887.773	14648
887.897	14739
888.021	14712
888.146	14552
888.27	14693
888.395	14792
888.519	14727
888.643	14708
888.767	14773
888.891	14648
889.015	14484
889.139	14590
889.263	14431
889.387	14568
889.511	14739
889.635	14610
889.759	14526
889.883	14533
890.006	14636
890.13	14739
890.254	14450
890.377	14507
890.501	14408
890.624	14328
890.748	14507
890.871	14282
890.995	14145
891.118	14130
891.241	14221
891.364	14324
891.488	14396
891.611	14248
891.734	14282
891.857	14290
891.98	14164
892.103	14385
892.226	14351
892.349	14172
892.471	14123
892.594	14263
892.717	14214
892.839	14183
892.962	14301
893.085	14305
893.207	14259
893.33	14123
893.452	14161
893.575	14248
893.697	14248
893.819	14404
893.941	14450
894.064	14347
894.186	14332
894.308	14149
894.43	14389
894.552	14404
894.674	14396
894.796	14191
894.918	14313
895.04	14267
895.161	14320
895.283	14271
895.405	14218
895.526	14336
895.648	14362
895.769	14358
895.891	14385
896.012	14438
896.134	14404
896.255	14347
896.376	14450
896.498	14438
896.619	14442
896.74	14469
896.861	14431
896.982	14743
897.103	14899
897.224	14655
897.345	14678
897.466	14575
897.587	14731
897.708	14765
897.828	14678
897.949	14587
898.07	14587
898.19	14632
898.311	14750
898.431	14686
898.552	14705
898.672	14876
898.792	14823
898.913	14838
899.033	14697
899.153	14587
899.273	14495
899.393	14617
899.513	14667
899.633	14689
899.753	14606
899.873	14693
899.993	14746
900.113	14583
900.232	14689
900.352	14575
900.472	14522
900.591	14351
900.711	14488
900.83	14480
900.95	14575
901.069	14629
901.189	14404
901.308	14065
901.427	14123
901.546	14153
901.665	14195
901.784	14161
901.904	14024
902.023	13936
902.141	13772
902.26	13704
902.379	13818
902.498	13696
902.617	13662
902.735	13761
902.854	13734
902.973	13613
903.091	13544
903.21	13491
903.328	13506
903.446	13373
903.565	13331
903.683	13255
903.801	13198
903.919	13221
904.038	13278
904.156	13057
904.274	13110
904.392	13080
904.51	13050
904.627	13122
904.745	13137
904.863	13080
904.981	12810
905.098	12779
905.216	12814
905.334	12852
905.451	12734
905.569	12700
905.686	12817
905.803	12745
905.921	12696
906.038	12787
906.155	12604
906.272	12551
906.389	12570
906.506	12429
906.623	12376
906.74	12384
906.857	12285
906.974	12213
907.091	12502
907.208	12479
907.324	12372
907.441	12270
907.557	12057
907.674	12117
907.79	12095
907.907	12117
908.023	12106
908.139	12114
908.256	11996
908.372	12049
908.488	12045
908.604	11843
908.72	11828
908.836	11817
908.952	11832
909.068	11912
909.184	11901
909.3	11790
909.415	11965
909.531	11904
909.647	11680
909.762	11657
909.878	11634
909.993	11688
910.108	11615
910.224	11562
910.339	11661
910.454	11535
910.57	11516
910.685	11429
910.8	11661
910.915	11729
911.03	11467
911.145	11417
911.259	11345
911.374	11299
911.489	11334
911.604	11261
911.718	11079
911.833	11136
911.947	11010
912.062	10923
912.176	11124
912.291	11147
912.405	11113
912.519	11322
912.633	11345
912.748	11231
912.862	11048
912.976	10934
913.09	10831
913.204	10965
913.318	10946
913.431	11124
913.545	11083
913.659	11151
913.772	10953
913.886	10866
914	10911
914.113	10930
914.226	11060
914.34	10942
914.453	10778
914.566	10816
914.68	10736
914.793	10828
914.906	10580
915.019	10565
915.132	10474
915.245	10584
915.358	10664
915.47	10592
915.583	10580
915.696	10645
915.809	10786
915.921	10714
916.034	10523
916.146	10516
916.259	10554
916.371	10584
916.483	10592
916.595	10462
916.708	10573
916.82	10523
916.932	10428
917.044	10508
917.156	10561
917.268	10405
917.38	10436
917.491	10432
917.603	10428
917.715	10611
917.826	10493
917.938	10310
918.049	10360
918.161	10523
918.272	10554
918.384	10558
918.495	10390
918.606	10291
918.717	10188
918.828	10314
918.939	10287
919.05	10257
919.161	10303
919.272	10093
919.383	10181
919.494	10318
919.604	10596
919.715	10356
919.826	10249
919.936	10257
920.047	10348
920.157	10314
920.267	10512
920.378	10379
920.488	10318
920.598	10535
920.708	10641
920.818	10478
920.928	10481
921.038	10675
921.148	10675
921.258	10367
921.368	10341
921.477	10215
921.587	10223
921.697	10063
921.806	10162
921.916	10071
922.025	9983
922.134	9888
922.244	9857
922.353	9907
922.462	9667
922.571	9743
922.68	9542
922.789	9580
922.898	9542
923.007	9458
923.116	9587
923.224	9568
923.333	9606
923.442	9462
923.55	9401
923.659	9454
923.767	9519
923.876	9450
923.984	9488
924.092	9382
924.201	9378
924.309	9367
924.417	9393
924.525	9313
924.633	9378
924.741	10314
924.849	9226
924.956	9367
925.064	9127
925.172	9180
925.279	9249
925.387	9203
925.494	9184
925.602	9363
925.709	9340
925.816	9127
925.924	9176
926.031	9313
926.138	9226
926.245	9275
926.352	9135
926.459	9272
926.566	9359
926.673	9169
926.779	9028
926.886	9055
926.993	8956
927.099	8963
927.206	8868
927.312	8925
927.419	8986
927.525	8902
927.631	8975
927.737	8872
927.843	8754
927.95	8724
928.056	8689
928.162	8864
928.267	8826
928.373	9386
928.479	8857
928.585	8670
928.69	8781
928.796	8804
928.901	8743
929.007	8598
929.112	8693
929.218	8682
929.323	8651
929.428	8689
929.533	8750
929.638	8629
929.743	8545
929.848	8632
929.953	8602
930.058	8495
930.163	8366
930.267	8393
930.372	8564
930.477	8347
930.581	8644
930.685	8457
930.79	8336
930.894	8374
930.998	8271
931.103	8480
931.207	8195
931.311	8058
931.415	8001
931.519	7837
931.623	7868
