Data from test_V78500241_1997.txt Node
Date: Fri Mar 25 14:47:37 CST 2022
User: usil
Spectrometer: V785-0024
Trigger mode: 0
Integration Time (sec): 4.000000E-1
Scans to average: 1
Nonlinearity correction enabled: false
Boxcar width: 0
Storing dark spectrum: false
XAxis mode: Wavelengths
Number of Pixels in Spectrum: 1024
>>>>>Begin Spectral Data<<<<<
801.071	21953
801.214	22109
801.356	21724
801.499	21637
801.641	21534
801.783	21431
801.926	21545
802.068	21443
802.211	21260
802.353	21348
802.496	21070
802.638	20948
802.78	21036
802.923	20921
803.065	20804
803.208	20880
803.35	20933
803.492	20868
803.635	20933
803.777	20845
803.919	20781
804.061	21188
804.204	20883
804.346	20769
804.488	20648
804.63	20872
804.773	20689
804.915	20686
805.057	20845
805.199	20796
805.341	20861
805.483	20876
805.626	20834
805.768	20701
805.91	20720
806.052	20788
806.194	20678
806.336	20899
806.478	20689
806.62	20735
806.762	20762
806.904	20956
807.046	21055
807.188	21028
807.33	21070
807.472	21096
807.614	20906
807.756	21005
807.898	20750
808.04	20712
808.182	20743
808.324	20811
808.465	20804
808.607	20986
808.749	21116
808.891	21165
809.033	21207
809.174	21287
809.316	21222
809.458	21180
809.6	20994
809.741	21138
809.883	21329
810.025	21344
810.166	21268
810.308	21321
810.45	21169
810.591	21085
810.733	20880
810.875	20967
811.016	20731
811.158	20750
811.299	20796
811.441	21032
811.582	21081
811.724	20819
811.865	20811
812.007	20705
812.148	20933
812.29	20883
812.431	20990
812.573	21135
812.714	21291
812.855	21336
812.997	21412
813.138	21625
813.279	21473
813.421	21363
813.562	21291
813.703	21123
813.845	21028
813.986	20800
814.127	20651
814.268	20408
814.41	20541
814.551	20408
814.692	20385
814.833	20442
814.974	20301
815.115	20431
815.256	20328
815.397	20309
815.539	20180
815.68	20233
815.821	20130
815.962	20298
816.103	20054
816.244	19997
816.385	19997
816.526	19864
816.666	19696
816.807	19597
816.948	19601
817.089	19769
817.23	19666
817.371	19419
817.512	19533
817.653	19510
817.793	19384
817.934	19441
818.075	19605
818.216	19502
818.356	19533
818.497	19457
818.638	19301
818.778	19266
818.919	19156
819.06	19270
819.2	19221
819.341	19453
819.481	19483
819.622	19620
819.762	19742
819.903	19666
820.043	19597
820.184	19639
820.324	19441
820.465	19586
820.605	19563
820.746	19590
820.886	19335
821.026	19537
821.167	19430
821.307	19529
821.447	19483
821.588	19419
821.728	19217
821.868	19099
822.008	19012
822.149	19023
822.289	18913
822.429	18726
822.569	18570
822.709	18692
822.849	18475
822.99	18357
823.13	18273
823.27	18319
823.41	18300
823.55	18186
823.69	18330
823.83	18186
823.97	18140
824.11	18030
824.25	18038
824.389	17961
824.529	18079
824.669	17984
824.809	18216
824.949	18159
825.089	18083
825.228	18019
825.368	17893
825.508	17851
825.648	17794
825.787	17805
825.927	17874
826.067	17767
826.206	17794
826.346	17828
826.485	17870
826.625	17916
826.765	17965
826.904	17824
827.044	17551
827.183	17592
827.323	17429
827.462	17611
827.601	17512
827.741	17493
827.88	17486
828.02	17520
828.159	17421
828.298	17615
828.437	17566
828.577	17448
828.716	17657
828.855	17490
828.994	17368
829.134	17239
829.273	17284
829.412	17311
829.551	17174
829.69	17288
829.829	17254
829.968	17398
830.107	17311
830.246	17250
830.385	17200
830.524	17246
830.663	17094
830.802	17117
830.941	16824
831.08	16946
831.219	16957
831.357	16957
831.496	17086
831.635	16854
831.774	16752
831.913	16752
832.051	16755
832.19	16622
832.329	16679
832.467	16675
832.606	16535
832.744	16618
832.883	16573
833.022	16504
833.16	16474
833.299	16653
833.437	16679
833.576	16550
833.714	16710
833.852	16656
833.991	16702
834.129	16843
834.267	16607
834.406	16653
834.544	16687
834.682	16679
834.821	16554
834.959	16752
835.097	16519
835.235	16725
835.373	16687
835.511	16675
835.65	16596
835.788	16618
835.926	16493
836.064	16344
836.202	16344
836.34	16542
836.478	16660
836.615	16481
836.753	16565
836.891	16656
837.029	16554
837.167	16493
837.305	16485
837.443	16451
837.58	16394
837.718	16481
837.856	16360
837.993	16333
838.131	16478
838.269	16390
838.406	16375
838.544	16341
838.681	16139
838.819	16097
838.956	15991
839.094	15922
839.231	16044
839.369	16173
839.506	16363
839.643	16234
839.781	15922
839.918	15956
840.055	15918
840.193	16002
840.33	15926
840.467	15884
840.604	16006
840.742	16200
840.879	15911
841.016	15873
841.153	15880
841.29	16177
841.427	15972
841.564	15987
841.701	15994
841.838	15991
841.975	15804
842.112	15918
842.249	15789
842.385	15785
842.522	15884
842.659	15781
842.796	15789
842.933	15694
843.069	15705
843.206	15720
843.343	15876
843.479	15800
843.616	15812
843.752	15667
843.889	15473
844.025	15637
844.162	15526
844.298	15568
844.435	15496
844.571	15504
844.708	15515
844.844	15698
844.98	15686
845.117	15705
845.253	15580
845.389	15428
845.525	15492
845.661	15511
845.798	15348
845.934	15412
846.07	15275
846.206	15367
846.342	15431
846.478	15313
846.614	15176
846.75	15089
846.886	15089
847.022	15188
847.158	15131
847.294	15066
847.429	15119
847.565	15154
847.701	15348
847.837	14967
847.972	14815
848.108	15070
848.244	14937
848.379	14777
848.515	14716
848.65	14678
848.786	14743
848.921	14750
849.057	14819
849.192	14804
849.328	14754
849.463	14743
849.598	14621
849.734	14598
849.869	14541
850.004	14499
850.14	14568
850.275	14492
850.41	14454
850.545	14366
850.68	14511
850.815	14503
850.95	14442
851.085	14617
851.22	14514
851.355	14450
851.49	14389
851.625	14377
851.76	14541
851.895	14362
852.03	14286
852.165	14495
852.299	14549
852.434	14526
852.569	14602
852.703	14526
852.838	14530
852.973	14636
853.107	14545
853.242	14457
853.376	14385
853.511	14206
853.645	14320
853.78	14465
853.914	14358
854.048	14324
854.183	14336
854.317	14374
854.451	14556
854.585	14324
854.72	14271
854.854	14385
854.988	14351
855.122	14351
855.256	14145
855.39	14271
855.524	14484
855.658	14305
855.792	14404
855.926	14434
856.06	14362
856.194	14495
856.327	14362
856.461	14294
856.595	14267
856.729	14355
856.862	14427
856.996	14400
857.13	14412
857.263	14408
857.397	14514
857.53	14438
857.664	14393
857.797	14408
857.931	14427
858.064	14419
858.197	14492
858.331	14454
858.464	14290
858.597	14244
858.731	14290
858.864	14339
858.997	14225
859.13	14339
859.263	14385
859.396	14480
859.529	14294
859.662	14343
859.795	14305
859.928	14442
860.061	14511
860.194	14507
860.327	14442
860.46	14328
860.592	14442
860.725	14537
860.858	14480
860.99	14366
861.123	14298
861.256	14271
861.388	14355
861.521	14948
861.653	14164
861.786	14084
861.918	14221
862.05	14202
862.183	14370
862.315	14305
862.447	14324
862.58	14214
862.712	14153
862.844	14054
862.976	14176
863.108	14221
863.24	14526
863.372	14134
863.504	14206
863.636	14180
863.768	14172
863.9	14092
864.032	14035
864.164	14062
864.296	14161
864.428	14259
864.559	14328
864.691	14157
864.823	14252
864.954	14195
865.086	14081
865.217	14138
865.349	14020
865.48	14164
865.612	14092
865.743	14278
865.875	14187
866.006	14107
866.137	14031
866.269	14081
866.4	14115
866.531	14005
866.662	14062
866.793	14054
866.924	14100
867.055	14134
867.186	14020
867.317	14084
867.448	14046
867.579	14096
867.71	13993
867.841	13963
867.972	14031
868.103	14134
868.233	14145
868.364	14084
868.495	14225
868.625	14347
868.756	14427
868.886	14271
869.017	14320
869.147	14431
869.278	14518
869.408	14381
869.539	14503
869.669	14434
869.799	14492
869.929	14499
870.06	14476
870.19	14625
870.32	14636
870.45	14697
870.58	14777
870.71	14811
870.84	14838
870.97	14701
871.1	14743
871.23	14963
871.36	14986
871.489	14815
871.619	14830
871.749	14941
871.879	15013
872.008	15058
872.138	14914
872.267	14944
872.397	14830
872.526	14777
872.656	14819
872.785	14762
872.915	14910
873.044	15047
873.173	15017
873.303	14967
873.432	14998
873.561	15097
873.69	15032
873.819	15058
873.948	15161
874.077	15051
874.206	14937
874.335	15157
874.464	15241
874.593	15287
874.722	15226
874.851	15325
874.979	15294
875.108	15393
875.237	15180
875.365	15199
875.494	15245
875.623	15416
875.751	15188
875.88	15313
876.008	15511
876.136	15492
876.265	15720
876.393	15895
876.521	15797
876.65	15827
876.778	15709
876.906	15823
877.034	15698
877.162	15762
877.29	15701
877.418	15675
877.546	15701
877.674	15759
877.802	15682
877.93	15724
878.058	15644
878.185	15667
878.313	15717
878.441	15698
878.568	15534
878.696	15580
878.824	15701
878.951	15671
879.079	15949
879.206	15998
879.333	15823
879.461	15816
879.588	15736
879.715	15876
879.842	15975
879.97	15850
880.097	15523
880.224	15629
880.351	15614
880.478	15618
880.605	15545
880.732	15603
880.859	15892
880.986	15561
881.112	15637
881.239	15462
881.366	15359
881.493	15336
881.619	15268
881.746	15287
881.872	15188
881.999	15192
882.125	15199
882.252	15260
882.378	15214
882.505	15344
882.631	15150
882.757	15131
882.883	15157
883.01	15039
883.136	14910
883.262	14925
883.388	14876
883.514	15074
883.64	15051
883.766	14925
883.892	14811
884.018	14921
884.143	15123
884.269	15142
884.395	14872
884.52	14712
884.646	14777
884.772	14746
884.897	14568
885.023	14804
885.148	14868
885.274	14921
885.399	14857
885.524	14727
885.65	14731
885.775	14750
885.9	14838
886.025	14861
886.15	14815
886.275	14769
886.4	14629
886.525	14746
886.65	14625
886.775	14754
886.9	14979
887.025	14937
887.149	14758
887.274	14731
887.399	14560
887.523	14560
887.648	14568
887.773	14339
887.897	14697
888.021	14655
888.146	14511
888.27	14674
888.395	14674
888.519	14625
888.643	14720
888.767	14663
888.891	14442
889.015	14465
889.139	14503
889.263	14362
889.387	14533
889.511	14606
889.635	14587
889.759	14408
889.883	14473
890.006	14320
890.13	14530
890.254	14317
890.377	14408
890.501	14328
890.624	14282
890.748	14298
890.871	14290
890.995	14069
891.118	14035
891.241	14191
891.364	14248
891.488	14324
891.611	14115
891.734	14084
891.857	14202
891.98	14221
892.103	14153
892.226	14103
892.349	14077
892.471	14084
892.594	14119
892.717	14164
892.839	14081
892.962	14103
893.085	14187
893.207	14069
893.33	14073
893.452	14084
893.575	14149
893.697	14142
893.819	14332
893.941	14267
894.064	14366
894.186	14153
894.308	14005
894.43	14256
894.552	14423
894.674	14221
894.796	14031
894.918	14210
895.04	14172
895.161	14324
895.283	14282
895.405	14183
895.526	14290
895.648	14298
895.769	14233
895.891	14370
896.012	14408
896.134	14385
896.255	14366
896.376	14259
896.498	14343
896.619	14377
896.74	14355
896.861	14294
896.982	14590
897.103	14819
897.224	14705
897.345	14606
897.466	14518
897.587	14579
897.708	14693
897.828	14648
897.949	14545
898.07	14396
898.19	14583
898.311	14636
898.431	14610
898.552	14655
898.672	14689
898.792	14686
898.913	14667
899.033	14568
899.153	14541
899.273	14358
899.393	14457
899.513	14473
899.633	14473
899.753	14560
899.873	14545
899.993	14526
900.113	14530
900.232	14549
900.352	14484
900.472	14419
900.591	14221
900.711	14362
900.83	14339
900.95	14492
901.069	14473
901.189	14290
901.308	14161
901.427	14031
901.546	13997
901.665	14024
901.784	14092
901.904	13967
902.023	13811
902.141	13670
902.26	13658
902.379	13689
902.498	13616
902.617	13575
902.735	13685
902.854	13487
902.973	13540
903.091	13354
903.21	13350
903.328	13274
903.446	13274
903.565	13183
903.683	13171
903.801	13107
903.919	13168
904.038	13160
904.156	13034
904.274	13019
904.392	12993
904.51	13027
904.627	13061
904.745	12973
904.863	13019
904.981	12760
905.098	12635
905.216	12654
905.334	12677
905.451	12688
905.569	12646
905.686	12772
905.803	12635
905.921	12536
906.038	12715
906.155	12601
906.272	12369
906.389	12448
906.506	12296
906.623	12243
906.74	12289
906.857	12148
906.974	12216
907.091	12334
907.208	12422
907.324	12304
907.441	12213
907.557	12117
907.674	12019
907.79	11969
907.907	11980
908.023	12015
908.139	12072
908.256	11958
908.372	11980
908.488	11965
908.604	11794
908.72	11832
908.836	11748
908.952	11783
909.068	11794
909.184	11973
909.3	11855
909.415	11847
909.531	11805
909.647	11505
909.762	11611
909.878	11554
909.993	11619
910.108	11516
910.224	11459
910.339	11478
910.454	11478
910.57	11364
910.685	11376
910.8	11596
910.915	11589
911.03	11440
911.145	11315
911.259	11151
911.374	11216
911.489	11155
911.604	11151
911.718	11071
911.833	10961
911.947	10919
912.062	10820
912.176	11018
912.291	10987
912.405	11117
912.519	11235
912.633	11254
912.748	11143
912.862	10991
912.976	10862
913.09	10869
913.204	10854
913.318	10911
913.431	10987
913.545	10980
913.659	11056
913.772	10896
913.886	10759
914	10771
914.113	10873
914.226	10831
914.34	10824
914.453	10660
914.566	10908
914.68	10675
914.793	10668
914.906	10554
915.019	10489
915.132	10447
915.245	10535
915.358	10569
915.47	10573
915.583	10527
915.696	10519
915.809	10710
915.921	10679
916.034	10466
916.146	10500
916.259	10554
916.371	10504
916.483	10558
916.595	10394
916.708	10451
916.82	10535
916.932	10390
917.044	10478
917.156	10474
917.268	10386
917.38	10356
917.491	10314
917.603	10371
917.715	10470
917.826	10481
917.938	10417
918.049	10242
918.161	10318
918.272	10527
918.384	10481
918.495	10333
918.606	10261
918.717	10249
918.828	10234
918.939	10253
919.05	10204
919.161	10234
919.272	10071
919.383	10105
919.494	10272
919.604	10527
919.715	10325
919.826	10200
919.936	10162
920.047	10257
920.157	10234
920.267	10432
920.378	10310
920.488	10249
920.598	10462
920.708	10588
920.818	10470
920.928	10470
921.038	10618
921.148	10550
921.258	10325
921.368	10177
921.477	10112
921.587	10071
921.697	9998
921.806	10074
921.916	9964
922.025	9857
922.134	9762
922.244	9812
922.353	9816
922.462	9720
922.571	9637
922.68	9488
922.789	9462
922.898	9469
923.007	9420
923.116	9557
923.224	9507
923.333	9466
923.442	9485
923.55	9344
923.659	9428
923.767	9393
923.876	9359
923.984	9458
924.092	9294
924.201	9367
924.309	9332
924.417	9431
924.525	9279
924.633	9329
924.741	10242
924.849	9222
924.956	9249
925.064	9157
925.172	9123
925.279	9131
925.387	9195
925.494	9169
925.602	9329
925.709	9173
925.816	9070
925.924	9127
926.031	9272
926.138	9119
926.245	9199
926.352	9058
926.459	9192
926.566	9275
926.673	9180
926.779	8956
926.886	9036
926.993	8902
927.099	8918
927.206	8853
927.312	8758
927.419	8960
927.525	8906
927.631	8933
927.737	8777
927.843	8758
927.95	8670
928.056	8766
928.162	8720
928.267	8785
928.373	9416
928.479	8792
928.585	8629
928.69	8746
928.796	8739
928.901	8610
929.007	8526
929.112	8674
929.218	8682
929.323	8610
929.428	8617
929.533	8750
929.638	8568
929.743	8533
929.848	8533
929.953	8632
930.058	8541
930.163	8267
930.267	8389
930.372	8480
930.477	8320
930.581	8522
930.685	8393
930.79	8290
930.894	8320
930.998	8233
931.103	8374
931.207	8100
931.311	8008
931.415	7982
931.519	7830
931.623	7868
