Data from test_V78500241_2825.txt Node
Date: Fri Mar 25 14:53:23 CST 2022
User: usil
Spectrometer: V785-0024
Trigger mode: 0
Integration Time (sec): 4.000000E-1
Scans to average: 1
Nonlinearity correction enabled: false
Boxcar width: 0
Storing dark spectrum: false
XAxis mode: Wavelengths
Number of Pixels in Spectrum: 1024
>>>>>Begin Spectral Data<<<<<
801.071	22150
801.214	22021
801.356	21903
801.499	21629
801.641	21519
801.783	21370
801.926	21511
802.068	21386
802.211	21374
802.353	21203
802.496	20963
802.638	20857
802.78	20941
802.923	20773
803.065	20883
803.208	20651
803.35	20811
803.492	20769
803.635	20853
803.777	20750
803.919	20842
804.061	21142
804.204	20712
804.346	20590
804.488	20632
804.63	20697
804.773	20693
804.915	20689
805.057	20796
805.199	20693
805.341	20762
805.483	20720
805.626	20697
805.768	20678
805.91	20682
806.052	20716
806.194	20518
806.336	20735
806.478	20708
806.62	20530
806.762	20750
806.904	20857
807.046	21017
807.188	21104
807.33	20979
807.472	21058
807.614	20849
807.756	20963
807.898	20800
808.04	20792
808.182	20754
808.324	20826
808.465	20811
808.607	20895
808.749	21093
808.891	21104
809.033	21108
809.174	21150
809.316	21119
809.458	21051
809.6	20963
809.741	21058
809.883	21146
810.025	21222
810.166	21207
810.308	21127
810.45	21154
810.591	21089
810.733	20883
810.875	20826
811.016	20754
811.158	20769
811.299	20876
811.441	20929
811.582	20975
811.724	20838
811.865	20731
812.007	20739
812.148	20746
812.29	20880
812.431	21058
812.573	21074
812.714	21199
812.855	21340
812.997	21389
813.138	21507
813.279	21439
813.421	21283
813.562	21367
813.703	21070
813.845	21058
813.986	20678
814.127	20526
814.268	20309
814.41	20533
814.551	20457
814.692	20404
814.833	20355
814.974	20214
815.115	20374
815.256	20229
815.397	20252
815.539	20286
815.68	20081
815.821	20050
815.962	20130
816.103	20119
816.244	19974
816.385	19841
816.526	19784
816.666	19700
816.807	19540
816.948	19590
817.089	19639
817.23	19578
817.371	19556
817.512	19487
817.653	19518
817.793	19411
817.934	19453
818.075	19635
818.216	19441
818.356	19312
818.497	19316
818.638	19179
818.778	19164
818.919	19110
819.06	19198
819.2	19312
819.341	19369
819.481	19304
819.622	19548
819.762	19746
819.903	19578
820.043	19594
820.184	19480
820.324	19434
820.465	19453
820.605	19476
820.746	19362
820.886	19324
821.026	19460
821.167	19400
821.307	19472
821.447	19422
821.588	19304
821.728	19118
821.868	19027
822.008	18863
822.149	18859
822.289	18863
822.429	18642
822.569	18506
822.709	18616
822.849	18384
822.99	18380
823.13	18388
823.27	18414
823.41	18220
823.55	18152
823.69	18163
823.83	18163
823.97	18076
824.11	17893
824.25	17973
824.389	17908
824.529	18110
824.669	17946
824.809	18057
824.949	18019
825.089	18026
825.228	17965
825.368	17726
825.508	17710
825.648	17733
825.787	17821
825.927	17691
826.067	17638
826.206	17668
826.346	17802
826.485	17817
826.625	17676
826.765	17798
826.904	17779
827.044	17581
827.183	17463
827.323	17356
827.462	17547
827.601	17459
827.741	17398
827.88	17303
828.02	17246
828.159	17395
828.298	17421
828.437	17490
828.577	17334
828.716	17463
828.855	17322
828.994	17265
829.134	17140
829.273	17212
829.412	17143
829.551	17003
829.69	17132
829.829	17121
829.968	17280
830.107	17288
830.246	17124
830.385	17071
830.524	17121
830.663	17056
830.802	16942
830.941	16790
831.08	16790
831.219	16904
831.357	16755
831.496	17064
831.635	16759
831.774	16835
831.913	16607
832.051	16592
832.19	16379
832.329	16626
832.467	16478
832.606	16382
832.744	16451
832.883	16470
833.022	16409
833.16	16474
833.299	16424
833.437	16554
833.576	16519
833.714	16588
833.852	16516
833.991	16508
834.129	16500
834.267	16577
834.406	16527
834.544	16565
834.682	16538
834.821	16519
834.959	16717
835.097	16436
835.235	16622
835.373	16573
835.511	16542
835.65	16497
835.788	16569
835.926	16360
836.064	16200
836.202	16211
836.34	16512
836.478	16565
836.615	16390
836.753	16348
836.891	16519
837.029	16455
837.167	16421
837.305	16363
837.443	16352
837.58	16337
837.718	16348
837.856	16379
837.993	16219
838.131	16341
838.269	16303
838.406	16181
838.544	16169
838.681	16021
838.819	16025
838.956	15876
839.094	15774
839.231	15945
839.369	15945
839.506	16295
839.643	16059
839.781	15880
839.918	15759
840.055	15865
840.193	15827
840.33	15838
840.467	15945
840.604	15892
840.742	16036
840.879	15755
841.016	15812
841.153	15762
841.29	15983
841.427	15854
841.564	15884
841.701	16013
841.838	15857
841.975	15759
842.112	15705
842.249	15652
842.385	15610
842.522	15766
842.659	15614
842.796	15530
842.933	15622
843.069	15568
843.206	15587
843.343	15663
843.479	15625
843.616	15584
843.752	15386
843.889	15329
844.025	15644
844.162	15374
844.298	15355
844.435	15466
844.571	15481
844.708	15435
844.844	15549
844.98	15584
845.117	15488
845.253	15382
845.389	15306
845.525	15431
845.661	15241
845.798	15214
845.934	15222
846.07	15104
846.206	15348
846.342	15321
846.478	15188
846.614	14986
846.75	14960
846.886	14967
847.022	15039
847.158	14880
847.294	15032
847.429	15005
847.565	15001
847.701	15237
847.837	14750
847.972	14746
848.108	14845
848.244	14804
848.379	14663
848.515	14590
848.65	14552
848.786	14590
848.921	14621
849.057	14750
849.192	14648
849.328	14644
849.463	14610
849.598	14537
849.734	14545
849.869	14473
850.004	14320
850.14	14446
850.275	14381
850.41	14218
850.545	14252
850.68	14328
850.815	14324
850.95	14347
851.085	14594
851.22	14499
851.355	14298
851.49	14298
851.625	14393
851.76	14278
851.895	14187
852.03	14214
852.165	14301
852.299	14332
852.434	14545
852.569	14362
852.703	14282
852.838	14286
852.973	14431
853.107	14499
853.242	14313
853.376	14317
853.511	14168
853.645	14176
853.78	14263
853.914	14317
854.048	14172
854.183	14145
854.317	14218
854.451	14434
854.585	14199
854.72	14240
854.854	14172
854.988	14168
855.122	14271
855.256	14088
855.39	14252
855.524	14286
855.658	14263
855.792	14221
855.926	14183
856.06	14210
856.194	14347
856.327	14145
856.461	14153
856.595	14195
856.729	14309
856.862	14275
856.996	14221
857.13	14374
857.263	14256
857.397	14351
857.53	14199
857.664	14309
857.797	14248
857.931	14237
858.064	14298
858.197	14317
858.331	14244
858.464	14153
858.597	14043
858.731	14214
858.864	14221
858.997	14164
859.13	14298
859.263	14145
859.396	14347
859.529	14100
859.662	14172
859.795	14103
859.928	14256
860.061	14290
860.194	14324
860.327	14221
860.46	14134
860.592	14347
860.725	14362
860.858	14275
860.99	14172
861.123	14180
861.256	14191
861.388	14172
861.521	14883
861.653	14153
861.786	14012
861.918	14100
862.05	14153
862.183	14172
862.315	14168
862.447	14199
862.58	14164
862.712	13921
862.844	13849
862.976	14134
863.108	14062
863.24	14343
863.372	13928
863.504	13970
863.636	14005
863.768	14062
863.9	13997
864.032	14024
864.164	13921
864.296	13967
864.428	14058
864.559	14077
864.691	14115
864.823	14043
864.954	14084
865.086	14020
865.217	13986
865.349	13970
865.48	13997
865.612	13951
865.743	14043
865.875	14012
866.006	13967
866.137	13932
866.269	14035
866.4	13974
866.531	13898
866.662	13890
866.793	14001
866.924	13902
867.055	14020
867.186	13852
867.317	13890
867.448	13814
867.579	13951
867.71	13852
867.841	13940
867.972	13963
868.103	13959
868.233	13963
868.364	14092
868.495	14103
868.625	14183
868.756	14221
868.886	14183
869.017	14183
869.147	14454
869.278	14313
869.408	14252
869.539	14191
869.669	14282
869.799	14256
869.929	14408
870.06	14332
870.19	14610
870.32	14427
870.45	14613
870.58	14594
870.71	14758
870.84	14705
870.97	14583
871.1	14655
871.23	14800
871.36	14720
871.489	14743
871.619	14724
871.749	14800
871.879	14952
872.008	14887
872.138	14902
872.267	14895
872.397	14625
872.526	14636
872.656	14636
872.785	14659
872.915	14838
873.044	14925
873.173	14880
873.303	14849
873.432	14925
873.561	14887
873.69	14887
873.819	14811
873.948	14956
874.077	14895
874.206	14804
874.335	14914
874.464	15066
874.593	15157
874.722	15135
874.851	15279
874.979	15252
875.108	15135
875.237	15230
875.365	15184
875.494	15237
875.623	15283
875.751	15127
875.88	15222
876.008	15351
876.136	15397
876.265	15637
876.393	15667
876.521	15751
876.65	15713
876.778	15656
876.906	15587
877.034	15542
877.162	15629
877.29	15507
877.418	15580
877.546	15591
877.674	15591
877.802	15641
877.93	15591
878.058	15614
878.185	15428
878.313	15515
878.441	15530
878.568	15431
878.696	15519
878.824	15641
878.951	15755
879.079	15808
879.206	15884
879.333	15774
879.461	15622
879.588	15747
879.715	15823
879.842	15888
879.97	15720
880.097	15530
880.224	15435
880.351	15485
880.478	15439
880.605	15473
880.732	15424
880.859	15694
880.986	15496
881.112	15488
881.239	15332
881.366	15226
881.493	15100
881.619	15150
881.746	15150
881.872	15154
881.999	15131
882.125	15077
882.252	15100
882.378	15188
882.505	15272
882.631	15070
882.757	14937
882.883	14998
883.01	15017
883.136	14990
883.262	14800
883.388	14861
883.514	14948
883.64	15009
883.766	14861
883.892	14758
884.018	14788
884.143	14861
884.269	15062
884.395	14697
884.52	14655
884.646	14655
884.772	14701
884.897	14564
885.023	14678
885.148	14788
885.274	14773
885.399	14743
885.524	14629
885.65	14579
885.775	14667
885.9	14648
886.025	14746
886.15	14705
886.275	14678
886.4	14518
886.525	14674
886.65	14530
886.775	14579
886.9	14796
887.025	14842
887.149	14632
887.274	14465
887.399	14480
887.523	14263
887.648	14507
887.773	14461
887.897	14579
888.021	14503
888.146	14408
888.27	14484
888.395	14575
888.519	14526
888.643	14587
888.767	14560
888.891	14355
889.015	14358
889.139	14434
889.263	14358
889.387	14457
889.511	14571
889.635	14374
889.759	14320
889.883	14336
890.006	14336
890.13	14427
890.254	14370
890.377	14263
890.501	14111
890.624	14282
890.748	14206
890.871	14088
890.995	14008
891.118	13925
891.241	14027
891.364	14031
891.488	14107
891.611	14039
891.734	14031
891.857	14100
891.98	14039
892.103	14111
892.226	14142
892.349	14054
892.471	13909
892.594	14008
892.717	13986
892.839	14058
892.962	14073
893.085	14119
893.207	14107
893.33	13860
893.452	13879
893.575	14077
893.697	14031
893.819	14275
893.941	14153
894.064	14191
894.186	14008
894.308	13978
894.43	14256
894.552	14214
894.674	14187
894.796	14016
894.918	14084
895.04	14134
895.161	14214
895.283	14172
895.405	14024
895.526	14123
895.648	14202
895.769	14130
895.891	14240
896.012	14286
896.134	14275
896.255	14214
896.376	14145
896.498	14252
896.619	14286
896.74	14221
896.861	14244
896.982	14495
897.103	14720
897.224	14518
897.345	14461
897.466	14415
897.587	14484
897.708	14708
897.828	14598
897.949	14465
898.07	14396
898.19	14499
898.311	14610
898.431	14495
898.552	14564
898.672	14625
898.792	14716
898.913	14594
899.033	14484
899.153	14461
899.273	14362
899.393	14374
899.513	14385
899.633	14492
899.753	14511
899.873	14385
899.993	14541
900.113	14301
900.232	14492
900.352	14404
900.472	14328
900.591	14282
900.711	14423
900.83	14282
900.95	14389
901.069	14450
901.189	14218
901.308	14005
901.427	13978
901.546	13974
901.665	13982
901.784	14020
901.904	13830
902.023	13811
902.141	13609
902.26	13601
902.379	13601
902.498	13544
902.617	13441
902.735	13499
902.854	13582
902.973	13476
903.091	13282
903.21	13228
903.328	13213
903.446	13118
903.565	13110
903.683	13114
903.801	13042
903.919	13145
904.038	12958
904.156	12932
904.274	12897
904.392	12897
904.51	12924
904.627	12977
904.745	12966
904.863	12958
904.981	12753
905.098	12665
905.216	12623
905.334	12662
905.451	12597
905.569	12570
905.686	12677
905.803	12589
905.921	12372
906.038	12460
906.155	12410
906.272	12300
906.389	12334
906.506	12190
906.623	12224
906.74	12197
906.857	12095
906.974	12159
907.091	12247
907.208	12277
907.324	12205
907.441	12133
907.557	12095
907.674	11996
907.79	11874
907.907	11980
908.023	12068
908.139	11939
908.256	11908
908.372	11840
908.488	11889
908.604	11786
908.72	11771
908.836	11760
908.952	11691
909.068	11646
909.184	11821
909.3	11589
909.415	11756
909.531	11748
909.647	11558
909.762	11490
909.878	11448
909.993	11482
910.108	11532
910.224	11455
910.339	11486
910.454	11345
910.57	11326
910.685	11269
910.8	11566
910.915	11566
911.03	11421
911.145	11181
911.259	11193
911.374	11212
911.489	11086
911.604	11102
911.718	10908
911.833	10946
911.947	10824
912.062	10733
912.176	10934
912.291	10930
912.405	10999
912.519	11140
912.633	11185
912.748	10987
912.862	10942
912.976	10862
913.09	10733
913.204	10805
913.318	10797
913.431	10953
913.545	10919
913.659	10961
913.772	10790
913.886	10645
914	10649
914.113	10797
914.226	10809
914.34	10778
914.453	10653
914.566	10778
914.68	10664
914.793	10592
914.906	10535
915.019	10318
915.132	10344
915.245	10440
915.358	10443
915.47	10455
915.583	10451
915.696	10421
915.809	10542
915.921	10675
916.034	10417
916.146	10360
916.259	10375
916.371	10519
916.483	10436
916.595	10329
916.708	10367
916.82	10356
916.932	10363
917.044	10329
917.156	10303
917.268	10303
917.38	10238
917.491	10196
917.603	10306
917.715	10318
917.826	10363
917.938	10276
918.049	10204
918.161	10356
918.272	10489
918.384	10375
918.495	10341
918.606	10166
918.717	10162
918.828	10249
918.939	10200
919.05	10097
919.161	10124
919.272	9968
919.383	9983
919.494	10211
919.604	10447
919.715	10196
919.826	10143
919.936	10185
920.047	10223
920.157	10215
920.267	10405
920.378	10181
920.488	10188
920.598	10341
920.708	10561
920.818	10348
920.928	10386
921.038	10565
921.148	10432
921.258	10234
921.368	10185
921.477	10124
921.587	10025
921.697	9911
921.806	10025
921.916	9934
922.025	9835
922.134	9740
922.244	9690
922.353	9751
922.462	9648
922.571	9572
922.68	9542
922.789	9462
922.898	9519
923.007	9439
923.116	9382
923.224	9488
923.333	9443
923.442	9291
923.55	9367
923.659	9321
923.767	9477
923.876	9226
923.984	9302
924.092	9241
924.201	9336
924.309	9378
924.417	9298
924.525	9249
924.633	9203
924.741	10025
924.849	9112
924.956	9268
925.064	9104
925.172	9001
925.279	9036
925.387	9150
925.494	9097
925.602	9233
925.709	9150
925.816	9020
925.924	9165
926.031	9173
926.138	9089
926.245	9138
926.352	9013
926.459	9074
926.566	9207
926.673	9028
926.779	8944
926.886	8887
926.993	8792
927.099	8796
927.206	8766
927.312	8750
927.419	8845
927.525	8819
927.631	8830
927.737	8712
927.843	8716
927.95	8579
928.056	8678
928.162	8750
928.267	8766
928.373	9253
928.479	8876
928.585	8560
928.69	8716
928.796	8766
928.901	8697
929.007	8442
929.112	8648
929.218	8693
929.323	8590
929.428	8526
929.533	8552
929.638	8526
929.743	8499
929.848	8530
929.953	8560
930.058	8423
930.163	8294
930.267	8290
930.372	8450
930.477	8252
930.581	8545
930.685	8366
930.79	8275
930.894	8301
930.998	8187
931.103	8366
931.207	7989
931.311	7928
931.415	7947
931.519	7708
931.623	7757
