Data from test_V78500241_437.txt Node
Date: Fri Mar 25 14:36:45 CST 2022
User: usil
Spectrometer: V785-0024
Trigger mode: 0
Integration Time (sec): 4.000000E-1
Scans to average: 1
Nonlinearity correction enabled: false
Boxcar width: 0
Storing dark spectrum: false
XAxis mode: Wavelengths
Number of Pixels in Spectrum: 1024
>>>>>Begin Spectral Data<<<<<
801.071	26533
801.214	26511
801.356	26282
801.499	26138
801.641	26221
801.783	26069
801.926	25997
802.068	25989
802.211	25925
802.353	25864
802.496	25662
802.638	25628
802.78	25590
802.923	25506
803.065	25487
803.208	25590
803.35	25445
803.492	25548
803.635	25567
803.777	25499
803.919	25529
804.061	25868
804.204	25651
804.346	25411
804.488	25308
804.63	25438
804.773	25365
804.915	25476
805.057	25674
805.199	25411
805.341	25582
805.483	25502
805.626	25571
805.768	25438
805.91	25559
806.052	25559
806.194	25453
806.336	25635
806.478	25635
806.62	25506
806.762	25559
806.904	25776
807.046	25982
807.188	26058
807.33	25860
807.472	25959
807.614	25753
807.756	25734
807.898	25856
808.04	25620
808.182	25529
808.324	25677
808.465	25712
808.607	25955
808.749	25993
808.891	26096
809.033	26221
809.174	26134
809.316	25966
809.458	25963
809.6	25864
809.741	26122
809.883	25993
810.025	26221
810.166	26237
810.308	26039
810.45	26271
810.591	26149
810.733	25898
810.875	25833
811.016	25852
811.158	25670
811.299	25879
811.441	26081
811.582	25989
811.724	26024
811.865	25761
812.007	25940
812.148	25902
812.29	25906
812.431	26005
812.573	26107
812.714	26122
812.855	26374
812.997	26396
813.138	26511
813.279	26461
813.421	26290
813.562	26278
813.703	26084
813.845	25970
813.986	25807
814.127	25540
814.268	25358
814.41	25487
814.551	25419
814.692	25438
814.833	25339
814.974	25331
815.115	25434
815.256	25244
815.397	25171
815.539	25217
815.68	25247
815.821	25190
815.962	25072
816.103	25095
816.244	25023
816.385	24939
816.526	24821
816.666	24688
816.807	24570
816.948	24540
817.089	24711
817.23	24479
817.371	24532
817.512	24597
817.653	24498
817.793	24319
817.934	24445
818.075	24433
818.216	24502
818.356	24494
818.497	24346
818.638	24106
818.778	24334
818.919	24247
819.06	24266
819.2	24407
819.341	24437
819.481	24456
819.622	24612
819.762	24703
819.903	24764
820.043	24517
820.184	24635
820.324	24467
820.465	24513
820.605	24471
820.746	24410
820.886	24262
821.026	24540
821.167	24391
821.307	24528
821.447	24380
821.588	24319
821.728	24144
821.868	24106
822.008	23904
822.149	23775
822.289	23927
822.429	23581
822.569	23600
822.709	23429
822.849	23421
822.99	23315
823.13	23261
823.27	23318
823.41	23140
823.55	23029
823.69	23128
823.83	23067
823.97	23044
824.11	22850
824.25	22809
824.389	22877
824.529	23010
824.669	22900
824.809	22923
824.949	22991
825.089	22953
825.228	22805
825.368	22664
825.508	22637
825.648	22668
825.787	22687
825.927	22755
826.067	22656
826.206	22519
826.346	22847
826.485	22679
826.625	22679
826.765	22694
826.904	22767
827.044	22451
827.183	22409
827.323	22314
827.462	22432
827.601	22382
827.741	22238
827.88	22421
828.02	22287
828.159	22265
828.298	22375
828.437	22265
828.577	22242
828.716	22413
828.855	22344
828.994	22139
829.134	21964
829.273	22166
829.412	21964
829.551	22021
829.69	21991
829.829	22093
829.968	22185
830.107	22029
830.246	22124
830.385	21994
830.524	21895
830.663	21903
830.802	21774
830.941	21690
831.08	21629
831.219	21747
831.357	21701
831.496	21774
831.635	21618
831.774	21526
831.913	21408
832.051	21458
832.19	21416
832.329	21401
832.467	21294
832.606	21298
832.744	21351
832.883	21317
833.022	21214
833.16	21249
833.299	21287
833.437	21207
833.576	21272
833.714	21249
833.852	21294
833.991	21363
834.129	21408
834.267	21405
834.406	21154
834.544	21260
834.682	21329
834.821	21287
834.959	21370
835.097	21161
835.235	21192
835.373	21348
835.511	21287
835.65	21150
835.788	21108
835.926	20986
836.064	20857
836.202	21123
836.34	21112
836.478	21256
836.615	21108
836.753	21116
836.891	21062
837.029	21150
837.167	21123
837.305	21047
837.443	21028
837.58	21032
837.718	21199
837.856	21009
837.993	21001
838.131	20948
838.269	20929
838.406	20868
838.544	20830
838.681	20667
838.819	20670
838.956	20484
839.094	20431
839.231	20476
839.369	20621
839.506	20720
839.643	20686
839.781	20461
839.918	20408
840.055	20434
840.193	20377
840.33	20377
840.467	20317
840.604	20336
840.742	20701
840.879	20191
841.016	20355
841.153	20339
841.29	20415
841.427	20271
841.564	20396
841.701	20298
841.838	20229
841.975	20229
842.112	20244
842.249	20210
842.385	20103
842.522	20298
842.659	20081
842.796	19959
842.933	20138
843.069	20012
843.206	20027
843.343	20149
843.479	20130
843.616	19989
843.752	19845
843.889	19970
844.025	20069
844.162	19662
844.298	19852
844.435	19830
844.571	19772
844.708	19947
844.844	19890
844.98	19871
845.117	19902
845.253	19712
845.389	19632
845.525	19719
845.661	19670
845.798	19620
845.934	19605
846.07	19708
846.206	19708
846.342	19708
846.478	19590
846.614	19365
846.75	19263
846.886	19373
847.022	19251
847.158	19263
847.294	19282
847.429	19232
847.565	19160
847.701	19575
847.837	19004
847.972	18905
848.108	19160
848.244	19110
848.379	19004
848.515	18856
848.65	18856
848.786	18859
848.921	18951
849.057	18894
849.192	18848
849.328	18913
849.463	18867
849.598	18844
849.734	18783
849.869	18726
850.004	18635
850.14	18604
850.275	18589
850.41	18528
850.545	18494
850.68	18604
850.815	18570
850.95	18525
851.085	18707
851.22	18585
851.355	18551
851.49	18608
851.625	18593
851.76	18608
851.895	18521
852.03	18410
852.165	18540
852.299	18658
852.434	18623
852.569	18642
852.703	18669
852.838	18642
852.973	18677
853.107	18616
853.242	18464
853.376	18483
853.511	18323
853.645	18327
853.78	18544
853.914	18399
854.048	18311
854.183	18441
854.317	18498
854.451	18525
854.585	18369
854.72	18460
854.854	18433
854.988	18380
855.122	18380
855.256	18277
855.39	18292
855.524	18479
855.658	18418
855.792	18388
855.926	18365
856.06	18490
856.194	18426
856.327	18475
856.461	18254
856.595	18247
856.729	18369
856.862	18509
856.996	18410
857.13	18506
857.263	18471
857.397	18532
857.53	18391
857.664	18479
857.797	18448
857.931	18483
858.064	18410
858.197	18464
858.331	18410
858.464	18330
858.597	18213
858.731	18277
858.864	18296
858.997	18338
859.13	18361
859.263	18296
859.396	18498
859.529	18330
859.662	18315
859.795	18258
859.928	18380
860.061	18471
860.194	18460
860.327	18380
860.46	18327
860.592	18517
860.725	18395
860.858	18395
860.99	18285
861.123	18270
861.256	18311
861.388	18399
861.521	19103
861.653	18178
861.786	18144
861.918	18213
862.05	18270
862.183	18304
862.315	18448
862.447	18418
862.58	18327
862.712	18190
862.844	18068
862.976	18220
863.108	17977
863.24	18342
863.372	17969
863.504	18068
863.636	18079
863.768	17977
863.9	18076
864.032	17999
864.164	18019
864.296	18102
864.428	18053
864.559	18133
864.691	18095
864.823	18030
864.954	18030
865.086	18072
865.217	18091
865.349	17927
865.48	18019
865.612	18015
865.743	18152
865.875	18194
866.006	17923
866.137	17973
866.269	17973
866.4	17882
866.531	17969
866.662	17893
866.793	17984
866.924	17942
867.055	17923
867.186	17996
867.317	17897
867.448	17802
867.579	17901
867.71	17760
867.841	17908
867.972	18003
868.103	17980
868.233	17954
868.364	18030
868.495	18087
868.625	18121
868.756	18239
868.886	18114
869.017	18186
869.147	18216
869.278	18414
869.408	18087
869.539	18167
869.669	18228
869.799	18205
869.929	18262
870.06	18296
870.19	18658
870.32	18433
870.45	18555
870.58	18639
870.71	18597
870.84	18658
870.97	18486
871.1	18604
871.23	18707
871.36	18863
871.489	18620
871.619	18696
871.749	18833
871.879	18692
872.008	18821
872.138	18741
872.267	18642
872.397	18528
872.526	18696
872.656	18566
872.785	18574
872.915	18791
873.044	18840
873.173	18852
873.303	18791
873.432	18840
873.561	18856
873.69	18757
873.819	18821
873.948	18856
874.077	18798
874.206	18852
874.335	18719
874.464	18924
874.593	19042
874.722	19027
874.851	18985
874.979	19008
875.108	19053
875.237	19080
875.365	18973
875.494	19110
875.623	19133
875.751	19046
875.88	19107
876.008	19236
876.136	19213
876.265	19460
876.393	19578
876.521	19575
876.65	19495
876.778	19521
876.906	19487
877.034	19476
877.162	19335
877.29	19426
877.418	19430
877.546	19301
877.674	19552
877.802	19434
877.93	19411
878.058	19419
878.185	19388
878.313	19483
878.441	19350
878.568	19312
878.696	19468
878.824	19499
878.951	19624
879.079	19613
879.206	19643
879.333	19685
879.461	19540
879.588	19666
879.715	19712
879.842	19814
879.97	19495
880.097	19362
880.224	19316
880.351	19346
880.478	19247
880.605	19255
880.732	19301
880.859	19575
880.986	19293
881.112	19346
881.239	19209
881.366	19076
881.493	18909
881.619	18962
881.746	18886
881.872	18840
881.999	18875
882.125	18951
882.252	18962
882.378	18920
882.505	19095
882.631	18787
882.757	18779
882.883	18673
883.01	18768
883.136	18551
883.262	18509
883.388	18483
883.514	18741
883.64	18711
883.766	18601
883.892	18486
884.018	18528
884.143	18574
884.269	18806
884.395	18513
884.52	18311
884.646	18304
884.772	18300
884.897	18315
885.023	18338
885.148	18429
885.274	18502
885.399	18475
885.524	18350
885.65	18357
885.775	18395
885.9	18372
886.025	18437
886.15	18376
886.275	18342
886.4	18167
886.525	18315
886.65	18174
886.775	18205
886.9	18350
887.025	18509
887.149	18308
887.274	18216
887.399	18152
887.523	18163
887.648	18064
887.773	17973
887.897	18228
888.021	18155
888.146	18011
888.27	18281
888.395	18224
888.519	18186
888.643	18106
888.767	18087
888.891	18026
889.015	18019
889.139	17980
889.263	17984
889.387	18041
889.511	18125
889.635	18079
889.759	17958
889.883	17942
890.006	18049
890.13	18030
890.254	17878
890.377	17863
890.501	17668
890.624	17592
890.748	17794
890.871	17695
890.995	17520
891.118	17524
891.241	17600
891.364	17665
891.488	17695
891.611	17516
891.734	17608
891.857	17592
891.98	17577
892.103	17756
892.226	17543
892.349	17440
892.471	17364
892.594	17634
892.717	17528
892.839	17440
892.962	17562
893.085	17551
893.207	17459
893.33	17299
893.452	17417
893.575	17581
893.697	17376
893.819	17615
893.941	17676
894.064	17676
894.186	17448
894.308	17421
894.43	17570
894.552	17699
894.674	17501
894.796	17433
894.918	17516
895.04	17433
895.161	17600
895.283	17520
895.405	17444
895.526	17501
895.648	17436
895.769	17581
895.891	17615
896.012	17589
896.134	17714
896.255	17619
896.376	17566
896.498	17657
896.619	17589
896.74	17604
896.861	17642
896.982	17904
897.103	18049
897.224	17969
897.345	17843
897.466	17752
897.587	17882
897.708	17836
897.828	17859
897.949	17764
898.07	17596
898.19	17714
898.311	17946
898.431	17741
898.552	17794
898.672	17920
898.792	17840
898.913	17805
899.033	17691
899.153	17699
899.273	17532
899.393	17524
899.513	17570
899.633	17627
899.753	17657
899.873	17524
899.993	17722
900.113	17509
900.232	17516
900.352	17532
900.472	17547
900.591	17509
900.711	17455
900.83	17448
900.95	17551
901.069	17486
901.189	17315
901.308	17105
901.427	17033
901.546	17041
901.665	17162
901.784	17071
901.904	16873
902.023	16904
902.141	16599
902.26	16599
902.379	16618
902.498	16626
902.617	16531
902.735	16580
902.854	16596
902.973	16424
903.091	16314
903.21	16268
903.328	16215
903.446	16215
903.565	16105
903.683	16112
903.801	15930
903.919	16139
904.038	16021
904.156	15846
904.274	15968
904.392	15793
904.51	15781
904.627	15918
904.745	15861
904.863	15915
904.981	15625
905.098	15568
905.216	15526
905.334	15553
905.451	15447
905.569	15652
905.686	15599
905.803	15496
905.921	15370
906.038	15447
906.155	15382
906.272	15211
906.389	15272
906.506	15157
906.623	15203
906.74	15108
906.857	14975
906.974	15028
907.091	15142
907.208	15097
907.324	15131
907.441	15036
907.557	14842
907.674	14765
907.79	14758
907.907	14735
908.023	14868
908.139	14731
908.256	14777
908.372	14716
908.488	14705
908.604	14438
908.72	14473
908.836	14560
908.952	14488
909.068	14484
909.184	14545
909.3	14442
909.415	14571
909.531	14446
909.647	14244
909.762	14313
909.878	14263
909.993	14221
910.108	14237
910.224	14172
910.339	14244
910.454	14092
910.57	14092
910.685	14065
910.8	14218
910.915	14164
911.03	14073
911.145	13887
911.259	13898
911.374	13814
911.489	13791
911.604	13795
911.718	13525
911.833	13715
911.947	13556
912.062	13445
912.176	13571
912.291	13525
912.405	13537
912.519	13765
912.633	13708
912.748	13639
912.862	13559
912.976	13441
913.09	13312
913.204	13377
913.318	13476
913.431	13514
913.545	13468
913.659	13544
913.772	13495
913.886	13339
914	13282
914.113	13365
914.226	13381
914.34	13320
914.453	13175
914.566	13419
914.68	13213
914.793	13217
914.906	13057
915.019	12901
915.132	12909
915.245	12951
915.358	12985
915.47	13004
915.583	12962
915.696	13019
915.809	13065
915.921	13107
916.034	12905
916.146	12882
916.259	12810
916.371	13012
916.483	12844
916.595	12787
916.708	12776
916.82	12817
916.932	12825
917.044	12711
917.156	12772
917.268	12703
917.38	12722
917.491	12719
917.603	12715
917.715	12707
917.826	12829
917.938	12559
918.049	12547
918.161	12696
918.272	12776
918.384	12741
918.495	12707
918.606	12448
918.717	12429
918.828	12574
918.939	12604
919.05	12448
919.161	12547
919.272	12247
919.383	12315
919.494	12525
919.604	12608
919.715	12456
919.826	12380
919.936	12475
920.047	12407
920.157	12422
920.267	12570
920.378	12422
920.488	12460
920.598	12696
920.708	12802
920.818	12585
920.928	12551
921.038	12757
921.148	12658
921.258	12475
921.368	12365
921.477	12239
921.587	12186
921.697	12041
921.806	12311
921.916	12140
922.025	11893
922.134	11874
922.244	11923
922.353	11821
922.462	11794
922.571	11771
922.68	11661
922.789	11596
922.898	11592
923.007	11532
923.116	11596
923.224	11581
923.333	11528
923.442	11471
923.55	11436
923.659	11398
923.767	11497
923.876	11337
923.984	11467
924.092	11360
924.201	11337
924.309	11360
924.417	11372
924.525	11307
924.633	11341
924.741	12220
924.849	11083
924.956	11197
925.064	11056
925.172	11102
925.279	11105
925.387	11052
925.494	11117
925.602	11220
925.709	11128
925.816	10995
925.924	11143
926.031	11197
926.138	11075
926.245	11216
926.352	10980
926.459	11067
926.566	11060
926.673	11033
926.779	10984
926.886	10816
926.993	10778
927.099	10698
927.206	10672
927.312	10774
927.419	10790
927.525	10714
927.631	10710
927.737	10694
927.843	10615
927.95	10462
928.056	10596
928.162	10611
928.267	10733
928.373	11242
928.479	10710
928.585	10310
928.69	10580
928.796	10569
928.901	10386
929.007	10284
929.112	10432
929.218	10371
929.323	10322
929.428	10344
929.533	10474
929.638	10306
929.743	10295
929.848	10382
929.953	10318
930.058	10166
930.163	10040
930.267	10101
930.372	10249
930.477	10051
930.581	10200
930.685	10048
930.79	9979
930.894	10040
930.998	9998
931.103	10082
931.207	9793
931.311	9717
931.415	9553
931.519	9420
931.623	9389
