Data from test_V78500241_1244.txt Node
Date: Fri Mar 25 14:42:22 CST 2022
User: usil
Spectrometer: V785-0024
Trigger mode: 0
Integration Time (sec): 4.000000E-1
Scans to average: 1
Nonlinearity correction enabled: false
Boxcar width: 0
Storing dark spectrum: false
XAxis mode: Wavelengths
Number of Pixels in Spectrum: 1024
>>>>>Begin Spectral Data<<<<<
801.071	22417
801.214	22322
801.356	21907
801.499	21911
801.641	21717
801.783	21743
801.926	21857
802.068	21679
802.211	21568
802.353	21542
802.496	21249
802.638	21222
802.78	21154
802.923	21100
803.065	21051
803.208	21131
803.35	21096
803.492	21112
803.635	21180
803.777	21074
803.919	21146
804.061	21355
804.204	21062
804.346	21047
804.488	20887
804.63	21077
804.773	20998
804.915	21096
805.057	21169
805.199	21039
805.341	21032
805.483	21100
805.626	21104
805.768	20842
805.91	21017
806.052	20933
806.194	20986
806.336	21165
806.478	20990
806.62	20971
806.762	21009
806.904	21165
807.046	21412
807.188	21443
807.33	21283
807.472	21378
807.614	21325
807.756	21199
807.898	21283
808.04	21062
808.182	21081
808.324	21154
808.465	21138
808.607	21435
808.749	21439
808.891	21523
809.033	21580
809.174	21526
809.316	21397
809.458	21435
809.6	21515
809.741	21485
809.883	21389
810.025	21530
810.166	21534
810.308	21443
810.45	21492
810.591	21542
810.733	21336
810.875	21256
811.016	21207
811.158	21043
811.299	21272
811.441	21416
811.582	21344
811.724	21169
811.865	21138
812.007	21043
812.148	21199
812.29	21203
812.431	21291
812.573	21549
812.714	21515
812.855	21595
812.997	21793
813.138	21857
813.279	21755
813.421	21663
813.562	21576
813.703	21496
813.845	21272
813.986	21070
814.127	20918
814.268	20902
814.41	20902
814.551	20655
814.692	20826
814.833	20670
814.974	20568
815.115	20689
815.256	20689
815.397	20590
815.539	20545
815.68	20484
815.821	20332
815.962	20446
816.103	20514
816.244	20259
816.385	20168
816.526	20195
816.666	20050
816.807	19795
816.948	19955
817.089	20005
817.23	19928
817.371	19864
817.512	19833
817.653	19849
817.793	19852
817.934	19887
818.075	19932
818.216	19993
818.356	19757
818.497	19685
818.638	19483
818.778	19434
818.919	19525
819.06	19670
819.2	19727
819.341	19822
819.481	19814
819.622	19868
819.762	20012
819.903	19928
820.043	19898
820.184	19875
820.324	19837
820.465	19887
820.605	19925
820.746	19822
820.886	19746
821.026	19624
821.167	19776
821.307	19879
821.447	19830
821.588	19533
821.728	19544
821.868	19392
822.008	19297
822.149	19289
822.289	19270
822.429	19057
822.569	19057
822.709	18996
822.849	18764
822.99	18753
823.13	18665
823.27	18772
823.41	18612
823.55	18525
823.69	18479
823.83	18578
823.97	18445
824.11	18304
824.25	18334
824.389	18319
824.529	18350
824.669	18353
824.809	18521
824.949	18384
825.089	18426
825.228	18350
825.368	18114
825.508	18163
825.648	18114
825.787	18292
825.927	18190
826.067	18102
826.206	18038
826.346	18235
826.485	18262
826.625	18110
826.765	18197
826.904	18106
827.044	17809
827.183	17843
827.323	17783
827.462	17828
827.601	17798
827.741	17866
827.88	17824
828.02	17771
828.159	17767
828.298	17866
828.437	17904
828.577	17638
828.716	17950
828.855	17843
828.994	17665
829.134	17547
829.273	17608
829.412	17467
829.551	17543
829.69	17585
829.829	17600
829.968	17680
830.107	17680
830.246	17581
830.385	17528
830.524	17429
830.663	17440
830.802	17356
830.941	17193
831.08	17200
831.219	17318
831.357	17181
831.496	17414
831.635	17326
831.774	17170
831.913	17109
832.051	16995
832.19	16987
832.329	17102
832.467	16854
832.606	16824
832.744	16877
832.883	16927
833.022	16797
833.16	16889
833.299	16889
833.437	16847
833.576	17003
833.714	16957
833.852	17025
833.991	16961
834.129	17037
834.267	16927
834.406	16904
834.544	17022
834.682	16946
834.821	16862
834.959	17090
835.097	16915
835.235	17086
835.373	17003
835.511	16946
835.65	16885
835.788	16862
835.926	16691
836.064	16535
836.202	16809
836.34	16885
836.478	16911
836.615	16873
836.753	16938
836.891	16919
837.029	16862
837.167	16843
837.305	16725
837.443	16828
837.58	16691
837.718	16672
837.856	16763
837.993	16717
838.131	16816
838.269	16626
838.406	16615
838.544	16637
838.681	16459
838.819	16405
838.956	16200
839.094	16215
839.231	16352
839.369	16341
839.506	16694
839.643	16421
839.781	16306
839.918	16230
840.055	16382
840.193	16276
840.33	16280
840.467	16379
840.604	16371
840.742	16485
840.879	16112
841.016	16131
841.153	16124
841.29	16428
841.427	16375
841.564	16329
841.701	16200
841.838	16280
841.975	16173
842.112	16169
842.249	16040
842.385	16071
842.522	16185
842.659	16082
842.796	16013
842.933	16135
843.069	16040
843.206	15941
843.343	16090
843.479	16071
843.616	16078
843.752	15884
843.889	15888
844.025	16002
844.162	15827
844.298	15934
844.435	15941
844.571	15759
844.708	15945
844.844	16029
844.98	15926
845.117	16021
845.253	15755
845.389	15747
845.525	15766
845.661	15789
845.798	15709
845.934	15789
846.07	15804
846.206	15800
846.342	15895
846.478	15660
846.614	15568
846.75	15344
846.886	15389
847.022	15477
847.158	15450
847.294	15420
847.429	15466
847.565	15359
847.701	15644
847.837	15070
847.972	15081
848.108	15195
848.244	15226
848.379	15013
848.515	14937
848.65	14883
848.786	15036
848.921	14979
849.057	15203
849.192	15097
849.328	15047
849.463	15097
849.598	14937
849.734	14880
849.869	14834
850.004	14830
850.14	14834
850.275	14777
850.41	14686
850.545	14735
850.68	14701
850.815	14914
850.95	14743
851.085	14963
851.22	14864
851.355	14769
851.49	14610
851.625	14762
851.76	14724
851.895	14640
852.03	14651
852.165	14781
852.299	14788
852.434	14800
852.569	14815
852.703	14762
852.838	14804
852.973	15036
853.107	14910
853.242	14731
853.376	14602
853.511	14473
853.645	14686
853.78	14777
853.914	14556
854.048	14632
854.183	14625
854.317	14655
854.451	14800
854.585	14667
854.72	14644
854.854	14693
854.988	14640
855.122	14617
855.256	14583
855.39	14644
855.524	14727
855.658	14644
855.792	14655
855.926	14602
856.06	14701
856.194	14819
856.327	14587
856.461	14560
856.595	14686
856.729	14636
856.862	14849
856.996	14663
857.13	14716
857.263	14792
857.397	14720
857.53	14617
857.664	14746
857.797	14720
857.931	14815
858.064	14602
858.197	14754
858.331	14636
858.464	14537
858.597	14495
858.731	14655
858.864	14640
858.997	14606
859.13	14686
859.263	14663
859.396	14682
859.529	14648
859.662	14670
859.795	14530
859.928	14629
860.061	14781
860.194	14857
860.327	14629
860.46	14556
860.592	14834
860.725	14708
860.858	14716
860.99	14579
861.123	14522
861.256	14621
861.388	14701
861.521	15332
861.653	14552
861.786	14568
861.918	14503
862.05	14564
862.183	14495
862.315	14564
862.447	14701
862.58	14632
862.712	14381
862.844	14355
862.976	14492
863.108	14488
863.24	15017
863.372	14347
863.504	14320
863.636	14339
863.768	14427
863.9	14442
864.032	14381
864.164	14473
864.296	14446
864.428	14522
864.559	14587
864.691	14431
864.823	14556
864.954	14454
865.086	14473
865.217	14530
865.349	14282
865.48	14454
865.612	14480
865.743	14537
865.875	14492
866.006	14389
866.137	14381
866.269	14469
866.4	14427
866.531	14362
866.662	14358
866.793	14396
866.924	14442
867.055	14419
867.186	14385
867.317	14294
867.448	14351
867.579	14385
867.71	14313
867.841	14381
867.972	14377
868.103	14377
868.233	14427
868.364	14549
868.495	14465
868.625	14621
868.756	14754
868.886	14670
869.017	14781
869.147	14746
869.278	14899
869.408	14682
869.539	14674
869.669	14720
869.799	14720
869.929	14788
870.06	14773
870.19	15005
870.32	14982
870.45	15020
870.58	15093
870.71	15195
870.84	15142
870.97	15066
871.1	15100
871.23	15272
871.36	15272
871.489	15199
871.619	15214
871.749	15230
871.879	15332
872.008	15401
872.138	15294
872.267	15272
872.397	15207
872.526	15123
872.656	15142
872.785	15127
872.915	15272
873.044	15488
873.173	15329
873.303	15351
873.432	15447
873.561	15378
873.69	15408
873.819	15332
873.948	15450
874.077	15386
874.206	15275
874.335	15313
874.464	15492
874.593	15599
874.722	15519
874.851	15713
874.979	15686
875.108	15671
875.237	15587
875.365	15606
875.494	15580
875.623	15660
875.751	15641
875.88	15606
876.008	15667
876.136	15884
876.265	16021
876.393	16116
876.521	16135
876.65	16158
876.778	16101
876.906	16059
877.034	16082
877.162	16040
877.29	15838
877.418	16143
877.546	16048
877.674	16192
877.802	15975
877.93	16067
878.058	16040
878.185	15953
878.313	16044
878.441	16002
878.568	15915
878.696	15937
878.824	16086
878.951	16090
879.079	16261
879.206	16409
879.333	16325
879.461	16185
879.588	16226
879.715	16276
879.842	16371
879.97	16097
880.097	15918
880.224	15880
880.351	15968
880.478	15861
880.605	15785
880.732	15960
880.859	16215
880.986	15934
881.112	15903
881.239	15823
881.366	15694
881.493	15530
881.619	15584
881.746	15625
881.872	15641
881.999	15557
882.125	15447
882.252	15625
882.378	15530
882.505	15656
882.631	15549
882.757	15443
882.883	15504
883.01	15405
883.136	15252
883.262	15256
883.388	15348
883.514	15428
883.64	15382
883.766	15313
883.892	15169
884.018	15199
884.143	15367
884.269	15462
884.395	15161
884.52	14906
884.646	15062
884.772	15051
884.897	14979
885.023	15100
885.148	15226
885.274	15199
885.399	15123
885.524	15043
885.65	15074
885.775	15005
885.9	15135
886.025	15154
886.15	15184
886.275	14979
886.4	14967
886.525	15009
886.65	15093
886.775	15005
886.9	15199
887.025	15344
887.149	14956
887.274	14807
887.399	14944
887.523	14929
887.648	14765
887.773	14796
887.897	15032
888.021	14883
888.146	14849
888.27	14937
888.395	15097
888.519	15005
888.643	14902
888.767	14918
888.891	14895
889.015	14792
889.139	14838
889.263	14765
889.387	14823
889.511	14982
889.635	14826
889.759	14739
889.883	14807
890.006	14727
890.13	14804
890.254	14682
890.377	14769
890.501	14583
890.624	14431
890.748	14648
890.871	14450
890.995	14431
891.118	14362
891.241	14434
891.364	14442
891.488	14667
891.611	14473
891.734	14400
891.857	14522
891.98	14476
892.103	14503
892.226	14556
892.349	14389
892.471	14256
892.594	14362
892.717	14396
892.839	14522
892.962	14457
893.085	14476
893.207	14473
893.33	14259
893.452	14301
893.575	14480
893.697	14431
893.819	14613
893.941	14712
894.064	14541
894.186	14442
894.308	14476
894.43	14598
894.552	14594
894.674	14590
894.796	14465
894.918	14457
895.04	14602
895.161	14495
895.283	14556
895.405	14503
895.526	14564
895.648	14488
895.769	14541
895.891	14632
896.012	14598
896.134	14667
896.255	14587
896.376	14522
896.498	14598
896.619	14568
896.74	14632
896.861	14693
896.982	14948
897.103	15081
897.224	14963
897.345	14956
897.466	14861
897.587	14853
897.708	15036
897.828	14925
897.949	14902
898.07	14731
898.19	14845
898.311	15032
898.431	14880
898.552	14929
898.672	15043
898.792	15039
898.913	14937
899.033	14823
899.153	14731
899.273	14640
899.393	14693
899.513	14864
899.633	14868
899.753	14842
899.873	14743
899.993	14849
900.113	14811
900.232	14727
900.352	14720
900.472	14682
900.591	14598
900.711	14617
900.83	14549
900.95	14720
901.069	14705
901.189	14590
901.308	14298
901.427	14271
901.546	14282
901.665	14328
901.784	14358
901.904	14153
902.023	14119
902.141	14005
902.26	13894
902.379	13822
902.498	13765
902.617	13852
902.735	13989
902.854	13879
902.973	13807
903.091	13643
903.21	13548
903.328	13655
903.446	13529
903.565	13445
903.683	13419
903.801	13335
903.919	13476
904.038	13400
904.156	13236
904.274	13350
904.392	13179
904.51	13228
904.627	13240
904.745	13259
904.863	13266
904.981	13042
905.098	12947
905.216	13042
905.334	13019
905.451	12890
905.569	12935
905.686	12905
905.803	12947
905.921	12821
906.038	12825
906.155	12806
906.272	12623
906.389	12669
906.506	12658
906.623	12616
906.74	12540
906.857	12407
906.974	12437
907.091	12582
907.208	12601
907.324	12597
907.441	12502
907.557	12384
907.674	12289
907.79	12247
907.907	12258
908.023	12281
908.139	12327
908.256	12197
908.372	12247
908.488	12167
908.604	12049
908.72	12049
908.836	12076
908.952	11973
909.068	12038
909.184	12114
909.3	12087
909.415	12144
909.531	12110
909.647	11851
909.762	11748
909.878	11760
909.993	11798
910.108	11821
910.224	11741
910.339	11798
910.454	11748
910.57	11722
910.685	11577
910.8	11851
910.915	11859
911.03	11726
911.145	11589
911.259	11532
911.374	11551
911.489	11402
911.604	11364
911.718	11258
911.833	11284
911.947	11174
912.062	11052
912.176	11280
912.291	11250
912.405	11246
912.519	11463
912.633	11425
912.748	11387
912.862	11208
912.976	11121
913.09	11132
913.204	11045
913.318	11178
913.431	11170
913.545	11216
913.659	11269
913.772	11124
913.886	11014
914	10984
914.113	11117
914.226	11159
914.34	11060
914.453	10923
914.566	11018
914.68	10995
914.793	10881
914.906	10763
915.019	10702
915.132	10683
915.245	10767
915.358	10740
915.47	10736
915.583	10748
915.696	10759
915.809	10927
915.921	10934
916.034	10778
916.146	10702
916.259	10664
916.371	10729
916.483	10740
916.595	10607
916.708	10599
916.82	10675
916.932	10683
917.044	10664
917.156	10584
917.268	10588
917.38	10497
917.491	10493
917.603	10527
917.715	10679
917.826	10683
917.938	10611
918.049	10535
918.161	10535
918.272	10668
918.384	10694
918.495	10569
918.606	10447
918.717	10413
918.828	10459
918.939	10474
919.05	10341
919.161	10375
919.272	10249
919.383	10310
919.494	10478
919.604	10656
919.715	10462
919.826	10390
919.936	10432
920.047	10489
920.157	10485
920.267	10656
920.378	10512
920.488	10382
920.598	10634
920.708	10771
920.818	10721
920.928	10580
921.038	10816
921.148	10717
921.258	10447
921.368	10367
921.477	10291
921.587	10257
921.697	10207
921.806	10382
921.916	10219
922.025	9956
922.134	10055
922.244	9994
922.353	10055
922.462	9850
922.571	9827
922.68	9698
922.789	9629
922.898	9606
923.007	9663
923.116	9686
923.224	9675
923.333	9717
923.442	9557
923.55	9629
923.659	9595
923.767	9610
923.876	9542
923.984	9671
924.092	9542
924.201	9485
924.309	9538
924.417	9606
924.525	9557
924.633	9515
924.741	10287
924.849	9302
924.956	9462
925.064	9382
925.172	9275
925.279	9279
925.387	9329
925.494	9382
925.602	9431
925.709	9466
925.816	9344
925.924	9367
926.031	9351
926.138	9363
926.245	9382
926.352	9218
926.459	9416
926.566	9447
926.673	9253
926.779	9165
926.886	9119
926.993	9085
927.099	9047
927.206	8925
927.312	8952
927.419	9138
927.525	9077
927.631	9058
927.737	8929
927.843	8868
927.95	8769
928.056	8876
928.162	8887
928.267	9017
928.373	9603
928.479	9055
928.585	8739
928.69	8937
928.796	9043
928.901	8899
929.007	8689
929.112	8807
929.218	8815
929.323	8735
929.428	8724
929.533	8880
929.638	8659
929.743	8766
929.848	8762
929.953	8644
930.058	8610
930.163	8434
930.267	8499
930.372	8636
930.477	8476
930.581	8724
930.685	8632
930.79	8454
930.894	8469
930.998	8404
931.103	8549
931.207	8221
931.311	8161
931.415	8206
931.519	7925
931.623	7986
