Data from test_V78500241_796.txt Node
Date: Fri Mar 25 14:39:15 CST 2022
User: usil
Spectrometer: V785-0024
Trigger mode: 0
Integration Time (sec): 4.000000E-1
Scans to average: 1
Nonlinearity correction enabled: false
Boxcar width: 0
Storing dark spectrum: false
XAxis mode: Wavelengths
Number of Pixels in Spectrum: 1024
>>>>>Begin Spectral Data<<<<<
801.071	26564
801.214	26347
801.356	26107
801.499	26096
801.641	26005
801.783	25913
801.926	25860
802.068	25849
802.211	25719
802.353	25639
802.496	25396
802.638	25377
802.78	25449
802.923	25259
803.065	25289
803.208	25301
803.35	25297
803.492	25457
803.635	25529
803.777	25426
803.919	25537
804.061	25772
804.204	25438
804.346	25434
804.488	25518
804.63	25460
804.773	25468
804.915	25643
805.057	25689
805.199	25731
805.341	26058
805.483	25856
805.626	26065
805.768	25966
805.91	26054
806.052	26130
806.194	26256
806.336	26560
806.478	26568
806.62	26705
806.762	26948
806.904	27313
807.046	27709
807.188	28055
807.33	28413
807.472	28957
807.614	29273
807.756	29965
807.898	31023
808.04	32377
808.182	33994
808.324	36155
808.465	38644
808.607	41364
808.749	43822
808.891	45317
809.033	45507
809.174	44035
809.316	41646
809.458	38773
809.6	35984
809.741	33599
809.883	31879
810.025	30688
810.166	29691
810.308	29189
810.45	28519
810.591	28120
810.733	27583
810.875	27332
811.016	26986
811.158	26948
811.299	26861
811.441	26815
811.582	26526
811.724	26533
811.865	26199
812.007	26149
812.148	26107
812.29	26039
812.431	26343
812.573	26438
812.714	26301
812.855	26214
812.997	26347
813.138	26537
813.279	26393
813.421	26278
813.562	26138
813.703	25860
813.845	25837
813.986	25647
814.127	25316
814.268	25156
814.41	25141
814.551	25076
814.692	25266
814.833	25057
814.974	25034
815.115	25088
815.256	24825
815.397	24757
815.539	24802
815.68	24715
815.821	24658
815.962	24601
816.103	24551
816.244	24505
816.385	24330
816.526	24403
816.666	24129
816.807	23988
816.948	24003
817.089	24155
817.23	23988
817.371	24003
817.512	23950
817.653	23927
817.793	23847
817.934	23874
818.075	24022
818.216	23931
818.356	23733
818.497	23748
818.638	23703
818.778	23661
818.919	23554
819.06	23566
819.2	23543
819.341	23878
819.481	23870
819.622	23977
819.762	24140
819.903	24034
820.043	23893
820.184	23760
820.324	23764
820.465	23969
820.605	23847
820.746	23760
820.886	23497
821.026	23661
821.167	23630
821.307	23699
821.447	23611
821.588	23368
821.728	23299
821.868	23162
822.008	23124
822.149	23083
822.289	22938
822.429	22748
822.569	22603
822.709	22656
822.849	22500
822.99	22527
823.13	22344
823.27	22390
823.41	22344
823.55	22215
823.69	22234
823.83	22295
823.97	22105
824.11	21994
824.25	21975
824.389	21987
824.529	22162
824.669	21998
824.809	22131
824.949	22074
825.089	22128
825.228	22025
825.368	21869
825.508	21835
825.648	21785
825.787	21785
825.927	21850
826.067	21720
826.206	21835
826.346	21793
826.485	21850
826.625	21838
826.765	21945
826.904	21701
827.044	21515
827.183	21576
827.323	21454
827.462	21496
827.601	21462
827.741	21405
827.88	21519
828.02	21359
828.159	21439
828.298	21507
828.437	21523
828.577	21393
828.716	21389
828.855	21454
828.994	21154
829.134	21188
829.273	21218
829.412	21230
829.551	21146
829.69	21154
829.829	21192
829.968	21138
830.107	21252
830.246	21116
830.385	21157
830.524	21070
830.663	20872
830.802	20929
830.941	20838
831.08	20769
831.219	20792
831.357	20830
831.496	21089
831.635	20811
831.774	20568
831.913	20651
832.051	20621
832.19	20590
832.329	20617
832.467	20663
832.606	20526
832.744	20530
832.883	20670
833.022	20648
833.16	20792
833.299	20762
833.437	20963
833.576	21070
833.714	21211
833.852	21382
833.991	21416
834.129	21526
834.267	21515
834.406	21405
834.544	21469
834.682	21211
834.821	21036
834.959	21283
835.097	20990
835.235	20971
835.373	20845
835.511	20720
835.65	20533
835.788	20499
835.926	20442
836.064	20317
836.202	20183
836.34	20324
836.478	20465
836.615	20309
836.753	20374
836.891	20271
837.029	20244
837.167	20229
837.305	20210
837.443	20134
837.58	20043
837.718	20172
837.856	20202
837.993	20024
838.131	20069
838.269	19936
838.406	19967
838.544	19909
838.681	19765
838.819	19723
838.956	19632
839.094	19571
839.231	19514
839.369	19651
839.506	19890
839.643	19753
839.781	19537
839.918	19537
840.055	19453
840.193	19556
840.33	19506
840.467	19548
840.604	19480
840.742	19864
840.879	19396
841.016	19400
841.153	19533
841.29	19643
841.427	19476
841.564	19628
841.701	19487
841.838	19419
841.975	19327
842.112	19491
842.249	19278
842.385	19217
842.522	19457
842.659	19331
842.796	19263
842.933	19282
843.069	19457
843.206	19400
843.343	19384
843.479	19460
843.616	19594
843.752	19293
843.889	19373
844.025	19438
844.162	19457
844.298	19594
844.435	19712
844.571	19776
844.708	20031
844.844	20377
844.98	20800
845.117	21241
845.253	21937
845.389	23482
845.525	26248
845.661	31015
845.798	36802
845.934	41181
846.07	42859
846.206	41783
846.342	37993
846.478	32214
846.614	27367
846.75	24083
846.886	22154
847.022	21085
847.158	20370
847.294	19742
847.429	19499
847.565	19324
847.701	19324
847.837	18658
847.972	18711
848.108	18707
848.244	18616
848.379	18410
848.515	18407
848.65	18384
848.786	18311
848.921	18270
849.057	18418
849.192	18315
849.328	18388
849.463	18357
849.598	18243
849.734	18178
849.869	18133
850.004	18030
850.14	18110
850.275	17984
850.41	17824
850.545	17999
850.68	17859
850.815	17920
850.95	17878
851.085	18114
851.22	18117
851.355	17984
851.49	17999
851.625	17878
851.76	17904
851.895	17843
852.03	17802
852.165	17935
852.299	17927
852.434	18068
852.569	17946
852.703	17973
852.838	18026
852.973	18106
853.107	18057
853.242	18076
853.376	18019
853.511	17836
853.645	17935
853.78	18194
853.914	18102
854.048	18072
854.183	18098
854.317	18182
854.451	18254
854.585	18019
854.72	18034
854.854	18133
854.988	18045
855.122	18022
855.256	17863
855.39	18064
855.524	17961
855.658	17847
855.792	17950
855.926	17859
856.06	17939
856.194	18003
856.327	17923
856.461	17767
856.595	17764
856.729	17824
856.862	17786
856.996	17908
857.13	17897
857.263	17798
857.397	17939
857.53	17722
857.664	17741
857.797	17680
857.931	17851
858.064	17805
858.197	17866
858.331	17752
858.464	17684
858.597	17573
858.731	17687
858.864	17707
858.997	17634
859.13	17668
859.263	17764
859.396	17657
859.529	17642
859.662	17676
859.795	17615
859.928	17608
860.061	17726
860.194	17802
860.327	17733
860.46	17695
860.592	17649
860.725	17798
860.858	17756
860.99	17687
861.123	17497
861.256	17547
861.388	17562
861.521	18205
861.653	17512
861.786	17581
861.918	17455
862.05	17501
862.183	17543
862.315	17562
862.447	17570
862.58	17554
862.712	17284
862.844	17296
862.976	17524
863.108	17356
863.24	17665
863.372	17159
863.504	17391
863.636	17334
863.768	17349
863.9	17265
864.032	17246
864.164	17239
864.296	17258
864.428	17520
864.559	17337
864.691	17532
864.823	17368
864.954	17474
865.086	17299
865.217	17280
865.349	17162
865.48	17299
865.612	17265
865.743	17299
865.875	17318
866.006	17197
866.137	17208
866.269	17277
866.4	17151
866.531	17261
866.662	17117
866.793	17235
866.924	17212
867.055	17193
867.186	17258
867.317	17159
867.448	17143
867.579	17151
867.71	17124
867.841	17094
867.972	17193
868.103	17189
868.233	17170
868.364	17208
868.495	17376
868.625	17455
868.756	17627
868.886	17353
869.017	17600
869.147	17596
869.278	17520
869.408	17486
869.539	17497
869.669	17638
869.799	17539
869.929	17589
870.06	17551
870.19	17805
870.32	17726
870.45	17840
870.58	17946
870.71	17965
870.84	18125
870.97	17977
871.1	17977
871.23	18106
871.36	18167
871.489	18038
871.619	18140
871.749	18163
871.879	18194
872.008	18384
872.138	18209
872.267	18235
872.397	18117
872.526	17980
872.656	17961
872.785	18129
872.915	18277
873.044	18418
873.173	18319
873.303	18319
873.432	18342
873.561	18521
873.69	18369
873.819	18376
873.948	18445
874.077	18509
874.206	18464
874.335	18448
874.464	18608
874.593	18783
874.722	18779
874.851	18852
874.979	18909
875.108	18947
875.237	18894
875.365	18878
875.494	18977
875.623	19095
875.751	18932
875.88	19187
876.008	19247
876.136	19491
876.265	19582
876.393	19761
876.521	19849
876.65	19913
876.778	19772
876.906	19791
877.034	19883
877.162	19799
877.29	19955
877.418	20142
877.546	20020
877.674	20225
877.802	20336
877.93	20434
878.058	20442
878.185	20708
878.313	20952
878.441	21249
878.568	21477
878.696	21899
878.824	22672
878.951	23615
879.079	25012
879.206	26663
879.333	28500
879.461	29703
879.588	30711
879.715	30764
879.842	30087
879.97	28348
880.097	26590
880.224	25057
880.351	24315
880.478	23486
880.605	22934
880.732	22596
880.859	22755
880.986	22379
881.112	22344
881.239	22128
881.366	21975
881.493	21797
881.619	21785
881.746	21892
881.872	21850
881.999	21819
882.125	21979
882.252	22032
882.378	21899
882.505	22200
882.631	21899
882.757	21899
882.883	21812
883.01	21846
883.136	21774
883.262	21724
883.388	21572
883.514	22002
883.64	21850
883.766	21641
883.892	21648
884.018	21641
884.143	21709
884.269	21857
884.395	21694
884.52	21492
884.646	21568
884.772	21466
884.897	21389
885.023	21557
885.148	21648
885.274	21591
885.399	21473
885.524	21344
885.65	21329
885.775	21127
885.9	21108
886.025	21047
886.15	20838
886.275	20590
886.4	20461
886.525	20469
886.65	20214
886.775	20062
886.9	20324
887.025	20282
887.149	19940
887.274	19700
887.399	19472
887.523	19499
887.648	19457
887.773	19384
887.897	19502
888.021	19377
888.146	19259
888.27	19228
888.395	19244
888.519	19209
888.643	19156
888.767	19008
888.891	18962
889.015	18848
889.139	18977
889.263	18772
889.387	19008
889.511	18894
889.635	18772
889.759	18639
889.883	18551
890.006	18616
890.13	18593
890.254	18452
890.377	18407
890.501	18384
890.624	18216
890.748	18292
890.871	18178
890.995	18072
891.118	18011
891.241	18045
891.364	17984
891.488	18106
891.611	17920
891.734	17863
891.857	17996
891.98	17965
892.103	17923
892.226	17828
892.349	17923
892.471	17611
892.594	17710
892.717	17794
892.839	17585
892.962	17707
893.085	17691
893.207	17646
893.33	17444
893.452	17452
893.575	17554
893.697	17512
893.819	17691
893.941	17752
894.064	17528
894.186	17436
894.308	17402
894.43	17497
894.552	17615
894.674	17516
894.796	17334
894.918	17364
895.04	17299
895.161	17330
895.283	17391
895.405	17284
895.526	17284
895.648	17296
895.769	17296
895.891	17322
896.012	17410
896.134	17391
896.255	17265
896.376	17265
896.498	17288
896.619	17318
896.74	17337
896.861	17284
896.982	17680
897.103	17653
897.224	17554
897.345	17471
897.466	17391
897.587	17364
897.708	17524
897.828	17478
897.949	17364
898.07	17326
898.19	17383
898.311	17516
898.431	17356
898.552	17543
898.672	17558
898.792	17558
898.913	17509
899.033	17341
899.153	17364
899.273	17189
899.393	17246
899.513	17254
899.633	17296
899.753	17410
899.873	17239
899.993	17376
900.113	17231
900.232	17288
900.352	17284
900.472	17231
900.591	17052
900.711	17052
900.83	16984
900.95	17067
901.069	17124
901.189	16972
901.308	16809
901.427	16706
901.546	16649
901.665	16755
901.784	16721
901.904	16607
902.023	16451
902.141	16268
902.26	16143
902.379	16219
902.498	16063
902.617	16048
902.735	16200
902.854	16059
902.973	16074
903.091	15759
903.21	15755
903.328	15861
903.446	15728
903.565	15728
903.683	15587
903.801	15519
903.919	15580
904.038	15504
904.156	15397
904.274	15424
904.392	15378
904.51	15405
904.627	15359
904.745	15420
904.863	15389
904.981	15108
905.098	15032
905.216	14963
905.334	15077
905.451	15157
905.569	14861
905.686	15081
905.803	14990
905.921	14815
906.038	14868
906.155	14876
906.272	14644
906.389	14678
906.506	14571
906.623	14511
906.74	14541
906.857	14476
906.974	14499
907.091	14621
907.208	14621
907.324	14549
907.441	14434
907.557	14343
907.674	14275
907.79	14134
907.907	14229
908.023	14282
908.139	14176
908.256	14199
908.372	14221
908.488	14172
908.604	14084
908.72	13928
908.836	14035
908.952	13970
909.068	14005
909.184	13997
909.3	13913
909.415	13978
909.531	14020
909.647	13757
909.762	13788
909.878	13674
909.993	13734
910.108	13609
910.224	13616
910.339	13727
910.454	13632
910.57	13521
910.685	13506
910.8	13723
910.915	13738
911.03	13632
911.145	13373
911.259	13263
911.374	13358
911.489	13228
911.604	13297
911.718	13118
911.833	13069
911.947	12966
912.062	12935
912.176	13038
912.291	13084
912.405	13110
912.519	13259
912.633	13301
912.748	13076
912.862	13053
912.976	12966
913.09	12878
913.204	12882
913.318	12924
913.431	13034
913.545	13008
913.659	13050
913.772	12932
913.886	12848
914	12817
914.113	12939
914.226	13004
914.34	12894
914.453	12654
914.566	12886
914.68	12787
914.793	12738
914.906	12593
915.019	12521
915.132	12547
915.245	12547
915.358	12509
915.47	12536
915.583	12536
915.696	12604
915.809	12627
915.921	12673
916.034	12513
916.146	12486
916.259	12429
916.371	12604
916.483	12578
916.595	12441
916.708	12517
916.82	12517
916.932	12475
917.044	12486
917.156	12403
917.268	12319
917.38	12445
917.491	12357
917.603	12277
917.715	12441
917.826	12342
917.938	12277
918.049	12175
918.161	12300
918.272	12327
918.384	12422
918.495	12300
918.606	12155
918.717	12102
918.828	12057
918.939	12133
919.05	11984
919.161	12106
919.272	11939
919.383	12083
919.494	12254
919.604	12384
919.715	12091
919.826	12026
919.936	12091
920.047	12098
920.157	12057
920.267	12251
920.378	12114
920.488	12057
920.598	12266
920.708	12403
920.818	12220
920.928	12216
921.038	12350
921.148	12399
921.258	12106
921.368	12026
921.477	11878
921.587	11866
921.697	11764
921.806	11866
921.916	11726
922.025	11596
922.134	11585
922.244	11501
922.353	11611
922.462	11493
922.571	11368
922.68	11212
922.789	11174
922.898	11261
923.007	11204
923.116	11220
923.224	11269
923.333	11204
923.442	11060
923.55	11109
923.659	11094
923.767	11113
923.876	10957
923.984	11079
924.092	11029
924.201	10995
924.309	10953
924.417	11094
924.525	10991
924.633	10984
924.741	11874
924.849	10736
924.956	10984
925.064	10847
925.172	10702
925.279	10782
925.387	10782
925.494	10759
925.602	10885
925.709	10877
925.816	10683
925.924	10767
926.031	10885
926.138	10668
926.245	10752
926.352	10672
926.459	10744
926.566	10793
926.673	10668
926.779	10573
926.886	10618
926.993	10424
927.099	10402
927.206	10421
927.312	10382
927.419	10504
927.525	10497
927.631	10436
927.737	10341
927.843	10284
927.95	10265
928.056	10272
928.162	10249
928.267	10295
928.373	10938
928.479	10276
928.585	10124
928.69	10207
928.796	10356
928.901	10257
929.007	10044
929.112	10181
929.218	10036
929.323	10093
929.428	10120
929.533	10230
929.638	9949
929.743	9937
929.848	10101
929.953	10025
930.058	9934
930.163	9770
930.267	9751
930.372	9998
930.477	9713
930.581	9991
930.685	9812
930.79	9759
930.894	9743
930.998	9694
931.103	9835
931.207	9496
931.311	9397
931.415	9382
931.519	9127
931.623	9123
