Data from test_V78500241_3687.txt Node
Date: Fri Mar 25 14:59:23 CST 2022
User: usil
Spectrometer: V785-0024
Trigger mode: 0
Integration Time (sec): 4.000000E-1
Scans to average: 1
Nonlinearity correction enabled: false
Boxcar width: 0
Storing dark spectrum: false
XAxis mode: Wavelengths
Number of Pixels in Spectrum: 1024
>>>>>Begin Spectral Data<<<<<
801.071	21930
801.214	21808
801.356	21603
801.499	21439
801.641	21359
801.783	21317
801.926	21313
802.068	21294
802.211	21146
802.353	21100
802.496	20941
802.638	20788
802.78	20731
802.923	20720
803.065	20613
803.208	20560
803.35	20609
803.492	20830
803.635	20823
803.777	20518
803.919	20777
804.061	20906
804.204	20750
804.346	20579
804.488	20442
804.63	20648
804.773	20507
804.915	20575
805.057	20701
805.199	20492
805.341	20663
805.483	20743
805.626	20560
805.768	20514
805.91	20648
806.052	20583
806.194	20446
806.336	20514
806.478	20579
806.62	20469
806.762	20632
806.904	20602
807.046	20895
807.188	20895
807.33	20845
807.472	20853
807.614	20735
807.756	20754
807.898	20811
808.04	20552
808.182	20598
808.324	20689
808.465	20541
808.607	20788
808.749	20906
808.891	20986
809.033	21051
809.174	21032
809.316	20929
809.458	20902
809.6	20758
809.741	21032
809.883	20887
810.025	20982
810.166	21096
810.308	21070
810.45	20914
810.591	20853
810.733	20781
810.875	20693
811.016	20560
811.158	20480
811.299	20693
811.441	20746
811.582	20826
811.724	20613
811.865	20613
812.007	20708
812.148	20579
812.29	20617
812.431	20857
812.573	20861
812.714	20994
812.855	21131
812.997	21188
813.138	21351
813.279	21165
813.421	21218
813.562	20967
813.703	20883
813.845	20731
813.986	20606
814.127	20351
814.268	20271
814.41	20320
814.551	20202
814.692	20199
814.833	20111
814.974	20119
815.115	20221
815.256	20050
815.397	19993
815.539	20115
815.68	19932
815.821	19837
815.962	19852
816.103	19868
816.244	19738
816.385	19643
816.526	19662
816.666	19453
816.807	19228
816.948	19438
817.089	19460
817.23	19388
817.371	19308
817.512	19274
817.653	19270
817.793	19209
817.934	19304
818.075	19335
818.216	19339
818.356	19198
818.497	19046
818.638	18989
818.778	18970
818.919	19019
819.06	18977
819.2	19099
819.341	19190
819.481	19171
819.622	19335
819.762	19472
819.903	19480
820.043	19434
820.184	19350
820.324	19365
820.465	19388
820.605	19354
820.746	19244
820.886	19088
821.026	19308
821.167	19190
821.307	19259
821.447	19126
821.588	19019
821.728	18996
821.868	18878
822.008	18806
822.149	18719
822.289	18601
822.429	18353
822.569	18323
822.709	18437
822.849	18163
822.99	18125
823.13	18235
823.27	18136
823.41	18030
823.55	18026
823.69	17984
823.83	17935
823.97	17840
824.11	17821
824.25	17802
824.389	17843
824.529	17786
824.669	17794
824.809	17859
824.949	17893
825.089	17798
825.228	17756
825.368	17642
825.508	17581
825.648	17619
825.787	17600
825.927	17600
826.067	17520
826.206	17467
826.346	17581
826.485	17520
826.625	17532
826.765	17665
826.904	17501
827.044	17280
827.183	17307
827.323	17292
827.462	17326
827.601	17250
827.741	17269
827.88	17235
828.02	17174
828.159	17250
828.298	17277
828.437	17318
828.577	17242
828.716	17387
828.855	17166
828.994	16980
829.134	17052
829.273	17185
829.412	16972
829.551	16987
829.69	17003
829.829	16965
829.968	17105
830.107	17140
830.246	17029
830.385	16999
830.524	16934
830.663	16831
830.802	16706
830.941	16679
831.08	16611
831.219	16702
831.357	16637
831.496	16828
831.635	16675
831.774	16561
831.913	16489
832.051	16443
832.19	16417
832.329	16466
832.467	16310
832.606	16238
832.744	16363
832.883	16303
833.022	16306
833.16	16238
833.299	16306
833.437	16337
833.576	16341
833.714	16493
833.852	16379
833.991	16413
834.129	16565
834.267	16367
834.406	16367
834.544	16352
834.682	16417
834.821	16451
834.959	16584
835.097	16344
835.235	16382
835.373	16367
835.511	16447
835.65	16299
835.788	16356
835.926	16268
836.064	16162
836.202	16139
836.34	16348
836.478	16200
836.615	16158
836.753	16318
836.891	16489
837.029	16310
837.167	16230
837.305	16162
837.443	16265
837.58	16173
837.718	16276
837.856	16196
837.993	16078
838.131	16139
838.269	16055
838.406	16177
838.544	16086
838.681	15953
838.819	15823
838.956	15698
839.094	15679
839.231	15755
839.369	15854
839.506	16154
839.643	16021
839.781	15774
839.918	15682
840.055	15675
840.193	15694
840.33	15774
840.467	15800
840.604	15705
840.742	15964
840.879	15641
841.016	15580
841.153	15610
841.29	15759
841.427	15747
841.564	15827
841.701	15747
841.838	15679
841.975	15694
842.112	15633
842.249	15599
842.385	15443
842.522	15720
842.659	15534
842.796	15595
842.933	15625
843.069	15412
843.206	15557
843.343	15564
843.479	15507
843.616	15599
843.752	15325
843.889	15294
844.025	15466
844.162	15275
844.298	15504
844.435	15325
844.571	15283
844.708	15344
844.844	15435
844.98	15447
845.117	15462
845.253	15355
845.389	15123
845.525	15275
845.661	15154
845.798	15108
845.934	15131
846.07	14986
846.206	15165
846.342	15344
846.478	15173
846.614	14914
846.75	14864
846.886	14845
847.022	14975
847.158	14906
847.294	14880
847.429	14842
847.565	14819
847.701	15062
847.837	14705
847.972	14617
848.108	14731
848.244	14594
848.379	14549
848.515	14473
848.65	14450
848.786	14412
848.921	14442
849.057	14552
849.192	14533
849.328	14389
849.463	14537
849.598	14434
849.734	14320
849.869	14374
850.004	14320
850.14	14206
850.275	14237
850.41	14164
850.545	14256
850.68	14248
850.815	14286
850.95	14248
851.085	14408
851.22	14328
851.355	14225
851.49	14134
851.625	14153
851.76	14210
851.895	14161
852.03	14233
852.165	14157
852.299	14233
852.434	14324
852.569	14294
852.703	14244
852.838	14339
852.973	14400
853.107	14431
853.242	14187
853.376	14073
853.511	14054
853.645	14035
853.78	14199
853.914	14161
854.048	14107
854.183	14054
854.317	14172
854.451	14309
854.585	14180
854.72	14134
854.854	14229
854.988	13963
855.122	14172
855.256	13993
855.39	14069
855.524	14305
855.658	14183
855.792	14084
855.926	14149
856.06	14218
856.194	14145
856.327	14164
856.461	14031
856.595	14043
856.729	14024
856.862	14111
856.996	14100
857.13	14164
857.263	14233
857.397	14218
857.53	14134
857.664	14168
857.797	14119
857.931	14168
858.064	14187
858.197	14115
858.331	14187
858.464	14123
858.597	13978
858.731	14077
858.864	14100
858.997	14084
859.13	14084
859.263	14168
859.396	14244
859.529	14103
859.662	14050
859.795	14081
859.928	14123
860.061	14240
860.194	14290
860.327	14168
860.46	14157
860.592	14187
860.725	14157
860.858	14206
860.99	14069
861.123	14126
861.256	14077
861.388	14187
861.521	14716
861.653	14001
861.786	13932
861.918	14016
862.05	13936
862.183	14065
862.315	14126
862.447	14168
862.58	14077
862.712	13917
862.844	13833
862.976	14012
863.108	13944
863.24	14370
863.372	13875
863.504	13902
863.636	13955
863.768	13913
863.9	13849
864.032	13917
864.164	13845
864.296	13906
864.428	14024
864.559	14130
864.691	13982
864.823	13940
864.954	13970
865.086	13947
865.217	13917
865.349	13780
865.48	13906
865.612	13780
865.743	14016
865.875	13947
866.006	13906
866.137	13852
866.269	13902
866.4	13811
866.531	13803
866.662	13807
866.793	13780
866.924	13814
867.055	13909
867.186	13902
867.317	13856
867.448	13731
867.579	13791
867.71	13791
867.841	13894
867.972	13883
868.103	13940
868.233	13959
868.364	13909
868.495	14012
868.625	14157
868.756	14256
868.886	14092
869.017	14145
869.147	14282
869.278	14237
869.408	14130
869.539	14229
869.669	14202
869.799	14130
869.929	14282
870.06	14218
870.19	14412
870.32	14358
870.45	14484
870.58	14476
870.71	14701
870.84	14697
870.97	14579
871.1	14526
871.23	14743
871.36	14769
871.489	14571
871.619	14640
871.749	14750
871.879	14792
872.008	14880
872.138	14754
872.267	14712
872.397	14701
872.526	14526
872.656	14495
872.785	14625
872.915	14826
873.044	14838
873.173	14727
873.303	14811
873.432	14849
873.561	14883
873.69	14788
873.819	14830
873.948	14807
874.077	14765
874.206	14758
874.335	14819
874.464	14952
874.593	15161
874.722	15013
874.851	15119
874.979	15100
875.108	15135
875.237	15024
875.365	15203
875.494	15036
875.623	15184
875.751	15112
875.88	15256
876.008	15386
876.136	15443
876.265	15481
876.393	15606
876.521	15667
876.65	15633
876.778	15515
876.906	15549
877.034	15466
877.162	15625
877.29	15477
877.418	15515
877.546	15610
877.674	15466
877.802	15545
877.93	15618
878.058	15507
878.185	15386
878.313	15504
878.441	15549
878.568	15454
878.696	15420
878.824	15606
878.951	15564
879.079	15625
879.206	15823
879.333	15610
879.461	15538
879.588	15553
879.715	15641
879.842	15785
879.97	15717
880.097	15462
880.224	15348
880.351	15405
880.478	15329
880.605	15310
880.732	15386
880.859	15576
880.986	15462
881.112	15473
881.239	15306
881.366	15142
881.493	15127
881.619	15032
881.746	15074
881.872	15077
881.999	15020
882.125	14933
882.252	15142
882.378	15066
882.505	15207
882.631	14979
882.757	14842
882.883	14887
883.01	14785
883.136	14781
883.262	14724
883.388	14667
883.514	14921
883.64	14876
883.766	14811
883.892	14651
884.018	14659
884.143	14853
884.269	14910
884.395	14579
884.52	14575
884.646	14511
884.772	14549
884.897	14431
885.023	14571
885.148	14613
885.274	14781
885.399	14720
885.524	14549
885.65	14522
885.775	14602
885.9	14564
886.025	14667
886.15	14545
886.275	14552
886.4	14461
886.525	14480
886.65	14434
886.775	14484
886.9	14697
887.025	14705
887.149	14511
887.274	14431
887.399	14248
887.523	14499
887.648	14290
887.773	14248
887.897	14495
888.021	14457
888.146	14431
888.27	14476
888.395	14431
888.519	14564
888.643	14465
888.767	14606
888.891	14240
889.015	14267
889.139	14275
889.263	14214
889.387	14301
889.511	14473
889.635	14339
889.759	14206
889.883	14210
890.006	14332
890.13	14438
890.254	14221
890.377	14123
890.501	14153
890.624	14008
890.748	14058
890.871	13951
890.995	14035
891.118	13841
891.241	13879
891.364	13925
891.488	14130
891.611	13913
891.734	13940
891.857	14031
891.98	13921
892.103	14046
892.226	13917
892.349	13986
892.471	13894
892.594	13940
892.717	13989
892.839	13967
892.962	14001
893.085	13970
893.207	13947
893.33	13913
893.452	13902
893.575	13993
893.697	13959
893.819	14077
893.941	14187
894.064	14134
894.186	13921
894.308	13928
894.43	14130
894.552	14153
894.674	14164
894.796	13970
894.918	14096
895.04	14062
895.161	14073
895.283	14073
895.405	13986
895.526	13967
895.648	14081
895.769	14096
895.891	14145
896.012	14058
896.134	14202
896.255	14092
896.376	14065
896.498	14142
896.619	14145
896.74	14073
896.861	14172
896.982	14450
897.103	14598
897.224	14396
897.345	14328
897.466	14294
897.587	14412
897.708	14530
897.828	14366
897.949	14351
898.07	14244
898.19	14339
898.311	14594
898.431	14434
898.552	14492
898.672	14461
898.792	14537
898.913	14492
899.033	14438
899.153	14320
899.273	14218
899.393	14309
899.513	14366
899.633	14313
899.753	14282
899.873	14328
899.993	14324
900.113	14355
900.232	14442
900.352	14355
900.472	14103
900.591	14233
900.711	14210
900.83	14043
900.95	14229
901.069	14210
901.189	14149
901.308	13989
901.427	13841
901.546	13970
901.665	13989
901.784	13913
901.904	13708
902.023	13708
902.141	13464
902.26	13457
902.379	13537
902.498	13422
902.617	13415
902.735	13403
902.854	13396
902.973	13373
903.091	13202
903.21	13164
903.328	13095
903.446	13072
903.565	12932
903.683	13015
903.801	13000
903.919	13008
904.038	12970
904.156	12810
904.274	12905
904.392	12852
904.51	12821
904.627	12791
904.745	12848
904.863	12985
904.981	12669
905.098	12525
905.216	12547
905.334	12574
905.451	12498
905.569	12483
905.686	12623
905.803	12525
905.921	12300
906.038	12361
906.155	12422
906.272	12178
906.389	12243
906.506	12182
906.623	12186
906.74	12057
906.857	11996
906.974	11973
907.091	12213
907.208	12296
907.324	12110
907.441	12098
907.557	11859
907.674	11931
907.79	11840
907.907	11942
908.023	11901
908.139	11897
908.256	11828
908.372	11847
908.488	11813
908.604	11653
908.72	11581
908.836	11623
908.952	11562
909.068	11729
909.184	11703
909.3	11577
909.415	11623
909.531	11680
909.647	11356
909.762	11364
909.878	11337
909.993	11429
910.108	11368
910.224	11379
910.339	11478
910.454	11326
910.57	11216
910.685	11189
910.8	11421
910.915	11391
911.03	11246
911.145	11143
911.259	11083
911.374	11147
911.489	10900
911.604	11048
911.718	10771
911.833	10934
911.947	10702
912.062	10702
912.176	10854
912.291	10854
912.405	10843
912.519	11075
912.633	11094
912.748	10980
912.862	10866
912.976	10710
913.09	10771
913.204	10675
913.318	10679
913.431	10877
913.545	10805
913.659	10885
913.772	10763
913.886	10637
914	10664
914.113	10744
914.226	10786
914.34	10694
914.453	10603
914.566	10691
914.68	10592
914.793	10535
914.906	10356
915.019	10348
915.132	10371
915.245	10382
915.358	10428
915.47	10386
915.583	10386
915.696	10405
915.809	10478
915.921	10569
916.034	10310
916.146	10356
916.259	10268
916.371	10424
916.483	10421
916.595	10314
916.708	10223
916.82	10280
916.932	10227
917.044	10253
917.156	10276
917.268	10223
917.38	10200
917.491	10215
917.603	10272
917.715	10333
917.826	10310
917.938	10230
918.049	10097
918.161	10268
918.272	10333
918.384	10341
918.495	10230
918.606	10120
918.717	10048
918.828	10116
918.939	10143
919.05	10021
919.161	10067
919.272	9865
919.383	9975
919.494	10147
919.604	10390
919.715	10158
919.826	10032
919.936	10059
920.047	10181
920.157	10162
920.267	10306
920.378	10192
920.488	10112
920.598	10394
920.708	10428
920.818	10268
920.928	10268
921.038	10508
921.148	10466
921.258	10185
921.368	10116
921.477	10044
921.587	9926
921.697	9915
921.806	9972
921.916	9846
922.025	9690
922.134	9705
922.244	9641
922.353	9717
922.462	9614
922.571	9515
922.68	9477
922.789	9329
922.898	9374
923.007	9344
923.116	9397
923.224	9363
923.333	9302
923.442	9275
923.55	9180
923.659	9294
923.767	9291
923.876	9154
923.984	9359
924.092	9173
924.201	9237
924.309	9203
924.417	9256
924.525	9245
924.633	9207
924.741	9998
924.849	9028
924.956	9146
925.064	9062
925.172	8952
925.279	9028
925.387	9058
925.494	9127
925.602	9154
925.709	9142
925.816	8986
925.924	8990
926.031	9135
926.138	9017
926.245	9032
926.352	8952
926.459	9131
926.566	9089
926.673	9055
926.779	8895
926.886	8944
926.993	8720
927.099	8766
927.206	8731
927.312	8724
927.419	8781
927.525	8804
927.631	8762
927.737	8678
927.843	8625
927.95	8495
928.056	8625
928.162	8621
928.267	8731
928.373	9199
928.479	8693
928.585	8499
928.69	8610
928.796	8693
928.901	8541
929.007	8434
929.112	8590
929.218	8514
929.323	8526
929.428	8476
929.533	8575
929.638	8484
929.743	8461
929.848	8461
929.953	8419
930.058	8400
930.163	8248
930.267	8263
930.372	8309
930.477	8168
930.581	8438
930.685	8351
930.79	8130
930.894	8202
930.998	8103
931.103	8366
931.207	7978
931.311	7932
931.415	7837
931.519	7651
931.623	7670
