Data from test_V78500241_1640.txt Node
Date: Fri Mar 25 14:45:08 CST 2022
User: usil
Spectrometer: V785-0024
Trigger mode: 0
Integration Time (sec): 4.000000E-1
Scans to average: 1
Nonlinearity correction enabled: false
Boxcar width: 0
Storing dark spectrum: false
XAxis mode: Wavelengths
Number of Pixels in Spectrum: 1024
>>>>>Begin Spectral Data<<<<<
801.071	22333
801.214	22192
801.356	21945
801.499	21907
801.641	21778
801.783	21720
801.926	21709
802.068	21637
802.211	21481
802.353	21477
802.496	21264
802.638	21157
802.78	21058
802.923	20960
803.065	21131
803.208	20960
803.35	21127
803.492	21173
803.635	21058
803.777	21081
803.919	21135
804.061	21355
804.204	21047
804.346	21024
804.488	20937
804.63	21001
804.773	20914
804.915	20982
805.057	21047
805.199	21039
805.341	20986
805.483	21055
805.626	21096
805.768	20918
805.91	20941
806.052	20979
806.194	20826
806.336	21207
806.478	21005
806.62	20876
806.762	21051
806.904	21184
807.046	21393
807.188	21252
807.33	21245
807.472	21359
807.614	21123
807.756	21245
807.898	21070
808.04	21020
808.182	21058
808.324	21146
808.465	21154
808.607	21317
808.749	21393
808.891	21545
809.033	21644
809.174	21564
809.316	21378
809.458	21530
809.6	21321
809.741	21401
809.883	21424
810.025	21614
810.166	21564
810.308	21488
810.45	21504
810.591	21401
810.733	21321
810.875	21096
811.016	21039
811.158	21100
811.299	21146
811.441	21218
811.582	21222
811.724	21108
811.865	21020
812.007	21096
812.148	21074
812.29	21218
812.431	21306
812.573	21576
812.714	21439
812.855	21572
812.997	21709
813.138	21812
813.279	21694
813.421	21641
813.562	21625
813.703	21397
813.845	21226
813.986	20998
814.127	20853
814.268	20693
814.41	20750
814.551	20693
814.692	20659
814.833	20670
814.974	20602
815.115	20819
815.256	20579
815.397	20503
815.539	20587
815.68	20366
815.821	20400
815.962	20480
816.103	20457
816.244	20355
816.385	20153
816.526	20081
816.666	20115
816.807	19982
816.948	19917
817.089	19902
817.23	19894
817.371	19814
817.512	19868
817.653	19830
817.793	19677
817.934	19723
818.075	19769
818.216	19830
818.356	19856
818.497	19632
818.638	19518
818.778	19472
818.919	19613
819.06	19594
819.2	19757
819.341	19632
819.481	19666
819.622	19826
819.762	20096
819.903	19921
820.043	19947
820.184	19833
820.324	19871
820.465	19894
820.605	19731
820.746	19769
820.886	19609
821.026	19715
821.167	19753
821.307	19780
821.447	19674
821.588	19590
821.728	19468
821.868	19324
822.008	19194
822.149	19168
822.289	19221
822.429	18878
822.569	18913
822.709	18825
822.849	18700
822.99	18791
823.13	18711
823.27	18597
823.41	18639
823.55	18456
823.69	18509
823.83	18536
823.97	18399
824.11	18395
824.25	18262
824.389	18228
824.529	18258
824.669	18197
824.809	18372
824.949	18296
825.089	18213
825.228	18323
825.368	18022
825.508	18102
825.648	18133
825.787	18060
825.927	18079
826.067	18026
826.206	17923
826.346	17961
826.485	18087
826.625	17969
826.765	18136
826.904	18011
827.044	17718
827.183	17798
827.323	17619
827.462	17752
827.601	17760
827.741	17779
827.88	17687
828.02	17547
828.159	17596
828.298	17733
828.437	17729
828.577	17657
828.716	17843
828.855	17585
828.994	17547
829.134	17395
829.273	17402
829.412	17505
829.551	17391
829.69	17356
829.829	17448
829.968	17539
830.107	17490
830.246	17471
830.385	17425
830.524	17372
830.663	17326
830.802	17227
830.941	17052
831.08	16999
831.219	17121
831.357	17174
831.496	17265
831.635	16995
831.774	16972
831.913	16900
832.051	16900
832.19	16919
832.329	16839
832.467	16812
832.606	16748
832.744	16694
832.883	16748
833.022	16767
833.16	16691
833.299	16850
833.437	16790
833.576	16869
833.714	16972
833.852	16858
833.991	16869
834.129	16797
834.267	16797
834.406	16774
834.544	16896
834.682	16763
834.821	16744
834.959	16976
835.097	16713
835.235	16976
835.373	16831
835.511	16850
835.65	16656
835.788	16717
835.926	16577
836.064	16538
836.202	16531
836.34	16797
836.478	16755
836.615	16691
836.753	16672
836.891	16713
837.029	16710
837.167	16653
837.305	16622
837.443	16599
837.58	16481
837.718	16599
837.856	16656
837.993	16508
838.131	16451
838.269	16500
838.406	16451
838.544	16405
838.681	16276
838.819	16219
838.956	16150
839.094	16158
839.231	16139
839.369	16253
839.506	16561
839.643	16268
839.781	16120
839.918	16055
840.055	16101
840.193	16139
840.33	16112
840.467	16166
840.604	16143
840.742	16344
840.879	15983
841.016	15964
841.153	15998
841.29	16234
841.427	16139
841.564	16166
841.701	16249
841.838	16017
841.975	16025
842.112	16128
842.249	16032
842.385	15797
842.522	16055
842.659	15964
842.796	15800
842.933	16017
843.069	15751
843.206	15842
843.343	16017
843.479	15895
843.616	15873
843.752	15663
843.889	15690
844.025	15861
844.162	15629
844.298	15717
844.435	15637
844.571	15595
844.708	15751
844.844	15736
844.98	15918
845.117	15800
845.253	15610
845.389	15504
845.525	15682
845.661	15606
845.798	15549
845.934	15603
846.07	15507
846.206	15549
846.342	15606
846.478	15580
846.614	15279
846.75	15252
846.886	15313
847.022	15348
847.158	15302
847.294	15275
847.429	15252
847.565	15279
847.701	15450
847.837	14807
847.972	14986
848.108	15127
848.244	15043
848.379	14807
848.515	14880
848.65	14815
848.786	14804
848.921	14864
849.057	15013
849.192	14883
849.328	14918
849.463	14918
849.598	14819
849.734	14849
849.869	14701
850.004	14575
850.14	14655
850.275	14549
850.41	14507
850.545	14602
850.68	14613
850.815	14598
850.95	14564
851.085	14750
851.22	14621
851.355	14571
851.49	14583
851.625	14705
851.76	14632
851.895	14575
852.03	14560
852.165	14606
852.299	14667
852.434	14655
852.569	14590
852.703	14648
852.838	14648
852.973	14705
853.107	14727
853.242	14575
853.376	14533
853.511	14404
853.645	14480
853.78	14556
853.914	14476
854.048	14522
854.183	14564
854.317	14393
854.451	14663
854.585	14511
854.72	14465
854.854	14560
854.988	14457
855.122	14465
855.256	14240
855.39	14560
855.524	14560
855.658	14484
855.792	14492
855.926	14556
856.06	14537
856.194	14530
856.327	14560
856.461	14347
856.595	14507
856.729	14465
856.862	14560
856.996	14545
857.13	14594
857.263	14583
857.397	14613
857.53	14492
857.664	14533
857.797	14655
857.931	14617
858.064	14518
858.197	14686
858.331	14552
858.464	14541
858.597	14381
858.731	14442
858.864	14438
858.997	14492
859.13	14514
859.263	14488
859.396	14583
859.529	14461
859.662	14454
859.795	14400
859.928	14545
860.061	14735
860.194	14621
860.327	14552
860.46	14480
860.592	14549
860.725	14636
860.858	14499
860.99	14438
861.123	14393
861.256	14450
861.388	14431
861.521	15275
861.653	14370
861.786	14233
861.918	14320
862.05	14446
862.183	14332
862.315	14499
862.447	14362
862.58	14381
862.712	14202
862.844	14195
862.976	14233
863.108	14263
863.24	14720
863.372	14202
863.504	14305
863.636	14221
863.768	14286
863.9	14298
864.032	14157
864.164	14206
864.296	14370
864.428	14282
864.559	14370
864.691	14298
864.823	14282
864.954	14305
865.086	14294
865.217	14332
865.349	14240
865.48	14229
865.612	14275
865.743	14438
865.875	14237
866.006	14161
866.137	14206
866.269	14286
866.4	14180
866.531	14202
866.662	14271
866.793	14145
866.924	14286
867.055	14149
867.186	14214
867.317	14187
867.448	14130
867.579	14123
867.71	14161
867.841	14164
867.972	14244
868.103	14210
868.233	14267
868.364	14259
868.495	14301
868.625	14541
868.756	14533
868.886	14450
869.017	14423
869.147	14552
869.278	14625
869.408	14495
869.539	14473
869.669	14571
869.799	14488
869.929	14579
870.06	14613
870.19	14762
870.32	14667
870.45	14823
870.58	14914
870.71	15017
870.84	14982
870.97	14895
871.1	14880
871.23	15043
871.36	15157
871.489	15001
871.619	15024
871.749	15047
871.879	15123
872.008	15108
872.138	15127
872.267	15093
872.397	14971
872.526	14998
872.656	14872
872.785	14834
872.915	15062
873.044	15104
873.173	15047
873.303	15161
873.432	15112
873.561	15275
873.69	15104
873.819	15066
873.948	15184
874.077	15043
874.206	15058
874.335	15062
874.464	15230
874.593	15473
874.722	15340
874.851	15428
874.979	15481
875.108	15462
875.237	15408
875.365	15370
875.494	15526
875.623	15504
875.751	15500
875.88	15447
876.008	15576
876.136	15728
876.265	15808
876.393	16051
876.521	15956
876.65	16036
876.778	15899
876.906	15835
877.034	15789
877.162	15827
877.29	15819
877.418	15789
877.546	15854
877.674	15831
877.802	15736
877.93	15759
878.058	15770
878.185	15679
878.313	15785
878.441	15895
878.568	15736
878.696	15781
878.824	15892
878.951	15861
879.079	16029
879.206	16143
879.333	16063
879.461	15953
879.588	16021
879.715	16044
879.842	16154
879.97	15941
880.097	15778
880.224	15663
880.351	15717
880.478	15747
880.605	15755
880.732	15713
880.859	15941
880.986	15709
881.112	15728
881.239	15587
881.366	15454
881.493	15469
881.619	15393
881.746	15401
881.872	15325
881.999	15367
882.125	15367
882.252	15443
882.378	15317
882.505	15519
882.631	15367
882.757	15199
882.883	15192
883.01	15165
883.136	15150
883.262	15077
883.388	14994
883.514	15249
883.64	15245
883.766	15032
883.892	14918
884.018	14941
884.143	15138
884.269	15233
884.395	14990
884.52	14883
884.646	14971
884.772	14773
884.897	14762
885.023	14864
885.148	14937
885.274	15001
885.399	15020
885.524	14986
885.65	14880
885.775	14933
885.9	14845
886.025	14979
886.15	14941
886.275	14842
886.4	14777
886.525	14876
886.65	14811
886.775	14891
886.9	14937
887.025	15195
887.149	14819
887.274	14743
887.399	14667
887.523	14644
887.648	14594
887.773	14571
887.897	14781
888.021	14765
888.146	14648
888.27	14705
888.395	14758
888.519	14804
888.643	14708
888.767	14815
888.891	14705
889.015	14514
889.139	14590
889.263	14465
889.387	14743
889.511	14830
889.635	14644
889.759	14492
889.883	14503
890.006	14613
890.13	14541
890.254	14587
890.377	14450
890.501	14442
890.624	14267
890.748	14545
890.871	14317
890.995	14244
891.118	14050
891.241	14191
891.364	14221
891.488	14381
891.611	14278
891.734	14298
891.857	14362
891.98	14332
892.103	14339
892.226	14290
892.349	14229
892.471	14138
892.594	14233
892.717	14309
892.839	14218
892.962	14282
893.085	14336
893.207	14221
893.33	14248
893.452	14248
893.575	14355
893.697	14195
893.819	14438
893.941	14377
894.064	14434
894.186	14263
894.308	14138
894.43	14415
894.552	14476
894.674	14366
894.796	14282
894.918	14305
895.04	14313
895.161	14434
895.283	14370
895.405	14259
895.526	14431
895.648	14381
895.769	14362
895.891	14328
896.012	14469
896.134	14484
896.255	14362
896.376	14377
896.498	14415
896.619	14381
896.74	14351
896.861	14583
896.982	14712
897.103	14876
897.224	14777
897.345	14682
897.466	14575
897.587	14610
897.708	14739
897.828	14754
897.949	14659
898.07	14590
898.19	14678
898.311	14815
898.431	14754
898.552	14769
898.672	14857
898.792	14868
898.913	14689
899.033	14705
899.153	14644
899.273	14480
899.393	14640
899.513	14621
899.633	14613
899.753	14610
899.873	14556
899.993	14712
900.113	14655
900.232	14693
900.352	14571
900.472	14473
900.591	14492
900.711	14492
900.83	14396
900.95	14495
901.069	14590
901.189	14473
901.308	14168
901.427	14130
901.546	14119
901.665	14168
901.784	14183
901.904	14065
902.023	13902
902.141	13811
902.26	13791
902.379	13753
902.498	13734
902.617	13719
902.735	13807
902.854	13757
902.973	13643
903.091	13419
903.21	13487
903.328	13453
903.446	13358
903.565	13225
903.683	13285
903.801	13175
903.919	13301
904.038	13232
904.156	13175
904.274	13156
904.392	13175
904.51	13057
904.627	13069
904.745	13149
904.863	13084
904.981	12935
905.098	12772
905.216	12757
905.334	12753
905.451	12779
905.569	12764
905.686	12859
905.803	12844
905.921	12601
906.038	12703
906.155	12639
906.272	12612
906.389	12536
906.506	12369
906.623	12452
906.74	12365
906.857	12251
906.974	12235
907.091	12486
907.208	12471
907.324	12441
907.441	12353
907.557	12201
907.674	12110
907.79	12068
907.907	12041
908.023	12045
908.139	12254
908.256	12083
908.372	11977
908.488	12072
908.604	11927
908.72	11908
908.836	11882
908.952	11809
909.068	11882
909.184	12003
909.3	11889
909.415	11965
909.531	11843
909.647	11684
909.762	11608
909.878	11657
909.993	11653
910.108	11627
910.224	11630
910.339	11695
910.454	11611
910.57	11592
910.685	11421
910.8	11684
910.915	11703
911.03	11505
911.145	11356
911.259	11322
911.374	11311
911.489	11303
911.604	11231
911.718	11090
911.833	11143
911.947	10980
912.062	10858
912.176	11094
912.291	11041
912.405	11151
912.519	11372
912.633	11364
912.748	11155
912.862	11109
912.976	10938
913.09	10900
913.204	10965
913.318	10968
913.431	11041
913.545	11121
913.659	11128
913.772	10995
913.886	10850
914	10835
914.113	10968
914.226	10965
914.34	10953
914.453	10702
914.566	10862
914.68	10767
914.793	10847
914.906	10603
915.019	10542
915.132	10531
915.245	10535
915.358	10580
915.47	10596
915.583	10687
915.696	10687
915.809	10767
915.921	10759
916.034	10550
916.146	10527
916.259	10527
916.371	10538
916.483	10577
916.595	10512
916.708	10546
916.82	10558
916.932	10592
917.044	10497
917.156	10523
917.268	10432
917.38	10470
917.491	10398
917.603	10451
917.715	10565
917.826	10607
917.938	10379
918.049	10314
918.161	10436
918.272	10546
918.384	10580
918.495	10424
918.606	10363
918.717	10253
918.828	10386
918.939	10402
919.05	10154
919.161	10261
919.272	10120
919.383	10246
919.494	10344
919.604	10493
919.715	10295
919.826	10280
919.936	10268
920.047	10360
920.157	10299
920.267	10527
920.378	10367
920.488	10379
920.598	10527
920.708	10675
920.818	10535
920.928	10443
921.038	10706
921.148	10694
921.258	10394
921.368	10284
921.477	10200
921.587	10143
921.697	10013
921.806	10150
921.916	10147
922.025	10063
922.134	9907
922.244	9823
922.353	9918
922.462	9827
922.571	9724
922.68	9633
922.789	9671
922.898	9595
923.007	9530
923.116	9584
923.224	9519
923.333	9534
923.442	9458
923.55	9428
923.659	9416
923.767	9549
923.876	9473
923.984	9534
924.092	9378
924.201	9473
924.309	9382
924.417	9439
924.525	9405
924.633	9428
924.741	10177
924.849	9272
924.956	9329
925.064	9199
925.172	9135
925.279	9195
925.387	9222
925.494	9184
925.602	9283
925.709	9287
925.816	9192
925.924	9195
926.031	9336
926.138	9226
926.245	9226
926.352	9169
926.459	9298
926.566	9237
926.673	9218
926.779	9093
926.886	9070
926.993	8952
927.099	8918
927.206	8880
927.312	9009
927.419	8960
927.525	8956
927.631	8948
927.737	8849
927.843	8766
927.95	8640
928.056	8758
928.162	8845
928.267	8845
928.373	9367
928.479	8864
928.585	8648
928.69	8777
928.796	8845
928.901	8785
929.007	8636
929.112	8781
929.218	8762
929.323	8708
929.428	8648
929.533	8766
929.638	8549
929.743	8701
929.848	8705
929.953	8621
930.058	8533
930.163	8415
930.267	8419
930.372	8488
930.477	8309
930.581	8610
930.685	8499
930.79	8366
930.894	8461
930.998	8286
931.103	8431
931.207	8119
931.311	8073
931.415	8035
931.519	7830
931.623	7845
