Data from test_V78500241_3017.txt Node
Date: Fri Mar 25 14:54:43 CST 2022
User: usil
Spectrometer: V785-0024
Trigger mode: 0
Integration Time (sec): 4.000000E-1
Scans to average: 1
Nonlinearity correction enabled: false
Boxcar width: 0
Storing dark spectrum: false
XAxis mode: Wavelengths
Number of Pixels in Spectrum: 1024
>>>>>Begin Spectral Data<<<<<
801.071	22074
801.214	22017
801.356	21800
801.499	21599
801.641	21580
801.783	21393
801.926	21473
802.068	21382
802.211	21359
802.353	21119
802.496	21085
802.638	21024
802.78	20910
802.923	20937
803.065	20731
803.208	20716
803.35	20750
803.492	20872
803.635	20902
803.777	20796
803.919	20834
804.061	21096
804.204	20815
804.346	20724
804.488	20579
804.63	20849
804.773	20727
804.915	20712
805.057	20807
805.199	20743
805.341	20796
805.483	20769
805.626	20785
805.768	20602
805.91	20754
806.052	20640
806.194	20590
806.336	20792
806.478	20644
806.62	20659
806.762	20849
806.904	20891
807.046	21150
807.188	21051
807.33	21051
807.472	21013
807.614	20956
807.756	20937
807.898	20845
808.04	20765
808.182	20819
808.324	20788
808.465	20807
808.607	20998
808.749	21081
808.891	21291
809.033	21203
809.174	21279
809.316	21085
809.458	21024
809.6	21036
809.741	21055
809.883	21104
810.025	21302
810.166	21165
810.308	21222
810.45	21157
810.591	21123
810.733	20982
810.875	20861
811.016	20674
811.158	20796
811.299	20880
811.441	21032
811.582	21020
811.724	20872
811.865	20720
812.007	20842
812.148	20853
812.29	20845
812.431	21032
812.573	21154
812.714	21287
812.855	21431
812.997	21534
813.138	21572
813.279	21538
813.421	21374
813.562	21306
813.703	21154
813.845	21017
813.986	20689
814.127	20701
814.268	20537
814.41	20438
814.551	20305
814.692	20438
814.833	20290
814.974	20286
815.115	20450
815.256	20343
815.397	20370
815.539	20237
815.68	20142
815.821	20161
815.962	20180
816.103	20126
816.244	20024
816.385	19890
816.526	19909
816.666	19700
816.807	19590
816.948	19708
817.089	19685
817.23	19643
817.371	19590
817.512	19643
817.653	19514
817.793	19548
817.934	19434
818.075	19616
818.216	19620
818.356	19571
818.497	19415
818.638	19160
818.778	19244
818.919	19278
819.06	19282
819.2	19324
819.341	19419
819.481	19480
819.622	19502
819.762	19681
819.903	19620
820.043	19563
820.184	19518
820.324	19499
820.465	19643
820.605	19590
820.746	19537
820.886	19384
821.026	19540
821.167	19578
821.307	19582
821.447	19392
821.588	19438
821.728	19206
821.868	19019
822.008	19015
822.149	18966
822.289	18886
822.429	18623
822.569	18555
822.709	18684
822.849	18483
822.99	18429
823.13	18391
823.27	18254
823.41	18216
823.55	18144
823.69	18308
823.83	18311
823.97	18106
824.11	18106
824.25	18019
824.389	18049
824.529	18098
824.669	17961
824.809	18015
824.949	18026
825.089	17969
825.228	17984
825.368	17802
825.508	17809
825.648	17783
825.787	17824
825.927	17775
826.067	17707
826.206	17813
826.346	17847
826.485	17714
826.625	17672
826.765	17832
826.904	17802
827.044	17501
827.183	17497
827.323	17436
827.462	17444
827.601	17497
827.741	17455
827.88	17452
828.02	17330
828.159	17402
828.298	17459
828.437	17467
828.577	17417
828.716	17520
828.855	17387
828.994	17273
829.134	17307
829.273	17242
829.412	17121
829.551	17102
829.69	17162
829.829	17155
829.968	17250
830.107	17254
830.246	17318
830.385	17132
830.524	17033
830.663	17029
830.802	16904
830.941	16858
831.08	16877
831.219	16801
831.357	16831
831.496	17071
831.635	16740
831.774	16877
831.913	16561
832.051	16713
832.19	16698
832.329	16702
832.467	16466
832.606	16523
832.744	16436
832.883	16554
833.022	16348
833.16	16531
833.299	16615
833.437	16565
833.576	16603
833.714	16489
833.852	16577
833.991	16554
834.129	16558
834.267	16660
834.406	16561
834.544	16584
834.682	16573
834.821	16455
834.959	16687
835.097	16512
835.235	16588
835.373	16481
835.511	16641
835.65	16466
835.788	16447
835.926	16398
836.064	16234
836.202	16318
836.34	16474
836.478	16542
836.615	16485
836.753	16523
836.891	16573
837.029	16489
837.167	16386
837.305	16333
837.443	16249
837.58	16272
837.718	16413
837.856	16234
837.993	16303
838.131	16287
838.269	16291
838.406	16215
838.544	16071
838.681	15983
838.819	15979
838.956	15888
839.094	15827
839.231	15903
839.369	15930
839.506	16261
839.643	16082
839.781	15892
839.918	15770
840.055	15823
840.193	15880
840.33	15778
840.467	15842
840.604	15880
840.742	16150
840.879	15781
841.016	15861
841.153	15720
841.29	15937
841.427	15937
841.564	15903
841.701	15793
841.838	15842
841.975	15804
842.112	15736
842.249	15599
842.385	15519
842.522	15766
842.659	15656
842.796	15580
842.933	15568
843.069	15530
843.206	15595
843.343	15599
843.479	15690
843.616	15698
843.752	15473
843.889	15393
844.025	15633
844.162	15397
844.298	15420
844.435	15405
844.571	15256
844.708	15515
844.844	15637
844.98	15500
845.117	15492
845.253	15336
845.389	15252
845.525	15389
845.661	15348
845.798	15211
845.934	15268
846.07	15123
846.206	15264
846.342	15188
846.478	15180
846.614	14971
846.75	14960
846.886	14971
847.022	15055
847.158	15039
847.294	14948
847.429	15013
847.565	14899
847.701	15252
847.837	14781
847.972	14602
848.108	14811
848.244	14785
848.379	14590
848.515	14602
848.65	14495
848.786	14564
848.921	14602
849.057	14720
849.192	14724
849.328	14678
849.463	14632
849.598	14640
849.734	14560
849.869	14400
850.004	14339
850.14	14412
850.275	14320
850.41	14282
850.545	14324
850.68	14332
850.815	14347
850.95	14385
851.085	14446
851.22	14415
851.355	14374
851.49	14294
851.625	14324
851.76	14355
851.895	14263
852.03	14149
852.165	14294
852.299	14336
852.434	14408
852.569	14294
852.703	14442
852.838	14385
852.973	14423
853.107	14404
853.242	14278
853.376	14248
853.511	14138
853.645	14210
853.78	14191
853.914	14206
854.048	14126
854.183	14195
854.317	14176
854.451	14263
854.585	14187
854.72	14164
854.854	14256
854.988	14100
855.122	14111
855.256	14138
855.39	14180
855.524	14305
855.658	14282
855.792	14305
855.926	14290
856.06	14301
856.194	14499
856.327	14218
856.461	14161
856.595	14142
856.729	14084
856.862	14355
856.996	14271
857.13	14267
857.263	14305
857.397	14332
857.53	14195
857.664	14195
857.797	14328
857.931	14298
858.064	14218
858.197	14271
858.331	14240
858.464	14103
858.597	14043
858.731	14301
858.864	14172
858.997	14214
859.13	14278
859.263	14240
859.396	14267
859.529	14111
859.662	14100
859.795	14214
859.928	14176
860.061	14396
860.194	14381
860.327	14248
860.46	14153
860.592	14343
860.725	14305
860.858	14313
860.99	14233
861.123	14168
861.256	14229
861.388	14180
861.521	14861
861.653	14111
861.786	13963
861.918	14084
862.05	14084
862.183	14195
862.315	14123
862.447	14218
862.58	14107
862.712	13974
862.844	13906
862.976	14088
863.108	13982
863.24	14484
863.372	13909
863.504	13894
863.636	13963
863.768	14027
863.9	14012
864.032	13963
864.164	13993
864.296	14012
864.428	14172
864.559	14119
864.691	14100
864.823	13974
864.954	14035
865.086	13993
865.217	13993
865.349	13932
865.48	14065
865.612	14001
865.743	14168
865.875	13974
866.006	13932
866.137	14050
866.269	13959
866.4	13978
866.531	13940
866.662	13955
866.793	13898
866.924	13963
867.055	13921
867.186	14001
867.317	13845
867.448	13875
867.579	13902
867.71	13925
867.841	13982
867.972	13974
868.103	13944
868.233	13986
868.364	13917
868.495	13989
868.625	14214
868.756	14256
868.886	14172
869.017	14168
869.147	14263
869.278	14351
869.408	14263
869.539	14221
869.669	14408
869.799	14282
869.929	14385
870.06	14381
870.19	14530
870.32	14549
870.45	14545
870.58	14716
870.71	14705
870.84	14629
870.97	14533
871.1	14648
871.23	14708
871.36	14819
871.489	14819
871.619	14670
871.749	14788
871.879	14861
872.008	14971
872.138	14914
872.267	14724
872.397	14663
872.526	14720
872.656	14602
872.785	14667
872.915	14876
873.044	14952
873.173	14891
873.303	14891
873.432	14952
873.561	14914
873.69	14853
873.819	14872
873.948	15005
874.077	14861
874.206	14807
874.335	14861
874.464	14979
874.593	15199
874.722	15051
874.851	15237
874.979	15195
875.108	15268
875.237	15146
875.365	15005
875.494	15123
875.623	15252
875.751	15150
875.88	15214
876.008	15294
876.136	15378
876.265	15591
876.393	15686
876.521	15728
876.65	15762
876.778	15675
876.906	15496
877.034	15511
877.162	15526
877.29	15485
877.418	15595
877.546	15584
877.674	15667
877.802	15656
877.93	15644
878.058	15481
878.185	15428
878.313	15637
878.441	15603
878.568	15466
878.696	15507
878.824	15622
878.951	15701
879.079	15770
879.206	15945
879.333	15736
879.461	15660
879.588	15690
879.715	15800
879.842	15880
879.97	15671
880.097	15412
880.224	15515
880.351	15477
880.478	15450
880.605	15511
880.732	15374
880.859	15679
880.986	15405
881.112	15523
881.239	15344
881.366	15230
881.493	15142
881.619	15020
881.746	15154
881.872	15104
881.999	15039
882.125	15066
882.252	15146
882.378	15066
882.505	15294
882.631	15074
882.757	14857
882.883	14891
883.01	14899
883.136	14838
883.262	14792
883.388	14739
883.514	14902
883.64	14975
883.766	14838
883.892	14670
884.018	14826
884.143	14895
884.269	15036
884.395	14667
884.52	14598
884.646	14644
884.772	14560
884.897	14526
885.023	14735
885.148	14819
885.274	14754
885.399	14689
885.524	14583
885.65	14602
885.775	14648
885.9	14625
886.025	14777
886.15	14727
886.275	14667
886.4	14530
886.525	14575
886.65	14492
886.775	14507
886.9	14765
887.025	14887
887.149	14640
887.274	14549
887.399	14362
887.523	14415
887.648	14366
887.773	14400
887.897	14541
888.021	14632
888.146	14347
888.27	14594
888.395	14594
888.519	14480
888.643	14530
888.767	14549
888.891	14332
889.015	14309
889.139	14339
889.263	14309
889.387	14419
889.511	14530
889.635	14408
889.759	14317
889.883	14229
890.006	14370
890.13	14488
890.254	14259
890.377	14317
890.501	14081
890.624	14130
890.748	14191
890.871	14039
890.995	14001
891.118	13898
891.241	14005
891.364	14031
891.488	14043
891.611	14084
891.734	13993
891.857	14035
891.98	14058
892.103	14107
892.226	14039
892.349	14005
892.471	13883
892.594	13967
892.717	14092
892.839	13982
892.962	14050
893.085	14027
893.207	14035
893.33	13906
893.452	13913
893.575	14081
893.697	14054
893.819	14134
893.941	14256
894.064	14092
894.186	13951
894.308	14005
894.43	14145
894.552	14324
894.674	14221
894.796	14005
894.918	13993
895.04	14065
895.161	14138
895.283	14111
895.405	14077
895.526	14092
895.648	14176
895.769	14111
895.891	14168
896.012	14157
896.134	14218
896.255	14119
896.376	14263
896.498	14149
896.619	14237
896.74	14271
896.861	14301
896.982	14492
897.103	14667
897.224	14518
897.345	14427
897.466	14381
897.587	14511
897.708	14663
897.828	14484
897.949	14549
898.07	14434
898.19	14355
898.311	14560
898.431	14419
898.552	14541
898.672	14625
898.792	14644
898.913	14575
899.033	14438
899.153	14389
899.273	14381
899.393	14442
899.513	14362
899.633	14385
899.753	14476
899.873	14396
899.993	14431
900.113	14427
900.232	14488
900.352	14324
900.472	14324
900.591	14187
900.711	14290
900.83	14221
900.95	14385
901.069	14343
901.189	14286
901.308	13986
901.427	13993
901.546	13879
901.665	14020
901.784	13925
901.904	13852
902.023	13803
902.141	13544
902.26	13559
902.379	13620
902.498	13453
902.617	13411
902.735	13506
902.854	13491
902.973	13457
903.091	13308
903.21	13240
903.328	13327
903.446	13171
903.565	13122
903.683	13091
903.801	13004
903.919	13114
904.038	13031
904.156	12875
904.274	12977
904.392	12871
904.51	12878
904.627	12920
904.745	12989
904.863	13027
904.981	12669
905.098	12551
905.216	12540
905.334	12646
905.451	12540
905.569	12578
905.686	12623
905.803	12578
905.921	12460
906.038	12521
906.155	12445
906.272	12315
906.389	12273
906.506	12159
906.623	12201
906.74	12049
906.857	12026
906.974	12167
907.091	12315
907.208	12369
907.324	12190
907.441	12098
907.557	11912
907.674	11950
907.79	11885
907.907	11999
908.023	12011
908.139	11912
908.256	11863
908.372	11843
908.488	11828
908.604	11691
908.72	11566
908.836	11589
908.952	11699
909.068	11695
909.184	11779
909.3	11657
909.415	11771
909.531	11779
909.647	11478
909.762	11448
909.878	11421
909.993	11467
910.108	11406
910.224	11543
910.339	11448
910.454	11326
910.57	11246
910.685	11254
910.8	11471
910.915	11406
911.03	11356
911.145	11079
911.259	11105
911.374	11242
911.489	11079
911.604	11060
911.718	10953
911.833	10972
911.947	10828
912.062	10725
912.176	10930
912.291	10908
912.405	10938
912.519	11162
912.633	11098
912.748	10946
912.862	10854
912.976	10816
913.09	10687
913.204	10843
913.318	10869
913.431	10835
913.545	10885
913.659	10869
913.772	10805
913.886	10637
914	10653
914.113	10782
914.226	10782
914.34	10771
914.453	10664
914.566	10672
914.68	10679
914.793	10660
914.906	10440
915.019	10394
915.132	10348
915.245	10405
915.358	10382
915.47	10417
915.583	10375
915.696	10485
915.809	10565
915.921	10527
916.034	10337
916.146	10424
916.259	10375
916.371	10436
916.483	10504
916.595	10291
916.708	10371
916.82	10356
916.932	10428
917.044	10344
917.156	10394
917.268	10238
917.38	10314
917.491	10246
917.603	10238
917.715	10306
917.826	10443
917.938	10363
918.049	10071
918.161	10325
918.272	10504
918.384	10394
918.495	10276
918.606	10093
918.717	10082
918.828	10131
918.939	10177
919.05	10029
919.161	10086
919.272	9968
919.383	10025
919.494	10207
919.604	10432
919.715	10200
919.826	10078
919.936	10124
920.047	10192
920.157	10207
920.267	10352
920.378	10112
920.488	10166
920.598	10314
920.708	10504
920.818	10363
920.928	10344
921.038	10531
921.148	10459
921.258	10196
921.368	10010
921.477	10048
921.587	9975
921.697	9895
921.806	10036
921.916	9930
922.025	9698
922.134	9660
922.244	9682
922.353	9827
922.462	9610
922.571	9599
922.68	9420
922.789	9389
922.898	9412
923.007	9420
923.116	9431
923.224	9454
923.333	9408
923.442	9329
923.55	9306
923.659	9264
923.767	9336
923.876	9279
923.984	9340
924.092	9298
924.201	9272
924.309	9268
924.417	9298
924.525	9203
924.633	9211
924.741	10143
924.849	8952
924.956	9214
925.064	9108
925.172	9032
925.279	9039
925.387	9039
925.494	9127
925.602	9253
925.709	9173
925.816	9001
925.924	9135
926.031	9173
926.138	9036
926.245	9062
926.352	9001
926.459	9173
926.566	9169
926.673	9093
926.779	8952
926.886	8952
926.993	8815
927.099	8762
927.206	8754
927.312	8739
927.419	8792
927.525	8804
927.631	8857
927.737	8781
927.843	8731
927.95	8495
928.056	8674
928.162	8705
928.267	8731
928.373	9211
928.479	8785
928.585	8579
928.69	8705
928.796	8689
928.901	8610
929.007	8503
929.112	8613
929.218	8545
929.323	8568
929.428	8507
929.533	8613
929.638	8473
929.743	8533
929.848	8552
929.953	8461
930.058	8476
930.163	8240
930.267	8366
930.372	8423
930.477	8210
930.581	8518
930.685	8389
930.79	8210
930.894	8294
930.998	8172
931.103	8324
931.207	8008
931.311	7940
931.415	7898
931.519	7830
931.623	7715
