Data from test_V78500241_449.txt Node
Date: Fri Mar 25 14:36:50 CST 2022
User: usil
Spectrometer: V785-0024
Trigger mode: 0
Integration Time (sec): 4.000000E-1
Scans to average: 1
Nonlinearity correction enabled: false
Boxcar width: 0
Storing dark spectrum: false
XAxis mode: Wavelengths
Number of Pixels in Spectrum: 1024
>>>>>Begin Spectral Data<<<<<
801.071	26469
801.214	26457
801.356	26263
801.499	26103
801.641	25986
801.783	26142
801.926	26100
802.068	25868
802.211	25849
802.353	25788
802.496	25639
802.638	25594
802.78	25601
802.923	25552
803.065	25487
803.208	25384
803.35	25476
803.492	25472
803.635	25594
803.777	25552
803.919	25594
804.061	25902
804.204	25483
804.346	25514
804.488	25354
804.63	25594
804.773	25339
804.915	25578
805.057	25559
805.199	25487
805.341	25540
805.483	25643
805.626	25537
805.768	25510
805.91	25495
806.052	25533
806.194	25346
806.336	25708
806.478	25571
806.62	25487
806.762	25594
806.904	25803
807.046	25936
807.188	25883
807.33	25894
807.472	26001
807.614	25951
807.756	25727
807.898	25674
808.04	25533
808.182	25685
808.324	25575
808.465	25651
808.607	25906
808.749	26069
808.891	26054
809.033	26267
809.174	26092
809.316	26020
809.458	25986
809.6	25978
809.741	26084
809.883	26035
810.025	26119
810.166	26191
810.308	26218
810.45	26069
810.591	26065
810.733	25917
810.875	25894
811.016	25791
811.158	25750
811.299	25871
811.441	25974
811.582	26020
811.724	25765
811.865	25925
812.007	25811
812.148	25887
812.29	25917
812.431	25978
812.573	26096
812.714	26282
812.855	26400
812.997	26442
813.138	26511
813.279	26431
813.421	26366
813.562	26290
813.703	26111
813.845	25993
813.986	25685
814.127	25464
814.268	25495
814.41	25354
814.551	25400
814.692	25723
814.833	25365
814.974	25350
815.115	25422
815.256	25270
815.397	25190
815.539	25339
815.68	25190
815.821	25107
815.962	25244
816.103	25027
816.244	24928
816.385	24871
816.526	24863
816.666	24722
816.807	24604
816.948	24681
817.089	24650
817.23	24578
817.371	24544
817.512	24498
817.653	24521
817.793	24528
817.934	24525
818.075	24521
818.216	24460
818.356	24490
818.497	24281
818.638	24136
818.778	24076
818.919	24133
819.06	24277
819.2	24338
819.341	24369
819.481	24521
819.622	24471
819.762	24703
819.903	24658
820.043	24623
820.184	24616
820.324	24513
820.465	24513
820.605	24681
820.746	24437
820.886	24277
821.026	24563
821.167	24582
821.307	24369
821.447	24426
821.588	24251
821.728	24194
821.868	24072
822.008	23836
822.149	23859
822.289	23824
822.429	23646
822.569	23562
822.709	23535
822.849	23383
822.99	23265
823.13	23216
823.27	23277
823.41	23102
823.55	23132
823.69	23079
823.83	23048
823.97	23060
824.11	23003
824.25	22915
824.389	22915
824.529	23018
824.669	22938
824.809	22930
824.949	22995
825.089	22889
825.228	22797
825.368	22713
825.508	22763
825.648	22774
825.787	22611
825.927	22790
826.067	22630
826.206	22565
826.346	22660
826.485	22679
826.625	22561
826.765	22660
826.904	22611
827.044	22417
827.183	22405
827.323	22280
827.462	22481
827.601	22390
827.741	22322
827.88	22462
828.02	22253
828.159	22249
828.298	22398
828.437	22382
828.577	22226
828.716	22382
828.855	22291
828.994	22150
829.134	22025
829.273	22090
829.412	22013
829.551	21934
829.69	21991
829.829	22124
829.968	22112
830.107	22112
830.246	21987
830.385	21960
830.524	22025
830.663	21808
830.802	21804
830.941	21606
831.08	21610
831.219	21671
831.357	21690
831.496	21827
831.635	21542
831.774	21526
831.913	21633
832.051	21389
832.19	21393
832.329	21435
832.467	21249
832.606	21279
832.744	21173
832.883	21287
833.022	21348
833.16	21233
833.299	21241
833.437	21325
833.576	21310
833.714	21329
833.852	21287
833.991	21370
834.129	21355
834.267	21321
834.406	21306
834.544	21294
834.682	21211
834.821	21226
834.959	21477
835.097	21268
835.235	21416
835.373	21313
835.511	21081
835.65	21146
835.788	21001
835.926	21028
836.064	20986
836.202	21062
836.34	20986
836.478	21195
836.615	21077
836.753	21119
836.891	21207
837.029	21252
837.167	20967
837.305	21237
837.443	20941
837.58	20941
837.718	21135
837.856	21001
837.993	20937
838.131	21032
838.269	20895
838.406	20933
838.544	20800
838.681	20697
838.819	20640
838.956	20389
839.094	20408
839.231	20545
839.369	20651
839.506	20762
839.643	20746
839.781	20362
839.918	20278
840.055	20469
840.193	20317
840.33	20298
840.467	20328
840.604	20469
840.742	20659
840.879	20100
841.016	20278
841.153	20320
841.29	20431
841.427	20210
841.564	20461
841.701	20282
841.838	20282
841.975	20191
842.112	20096
842.249	20096
842.385	20001
842.522	20313
842.659	20043
842.796	20012
842.933	20100
843.069	20100
843.206	20062
843.343	20122
843.479	20130
843.616	20145
843.752	19879
843.889	19887
844.025	19955
844.162	19845
844.298	19974
844.435	19795
844.571	19837
844.708	19974
844.844	19864
844.98	19963
845.117	19856
845.253	19727
845.389	19685
845.525	19674
845.661	19639
845.798	19548
845.934	19624
846.07	19544
846.206	19609
846.342	19765
846.478	19666
846.614	19381
846.75	19350
846.886	19278
847.022	19403
847.158	19198
847.294	19354
847.429	19392
847.565	19293
847.701	19533
847.837	19080
847.972	19038
848.108	19099
848.244	19008
848.379	18848
848.515	18909
848.65	18738
848.786	18802
848.921	18916
849.057	19015
849.192	18924
849.328	18840
849.463	18943
849.598	18768
849.734	18658
849.869	18745
850.004	18597
850.14	18631
850.275	18639
850.41	18593
850.545	18494
850.68	18585
850.815	18540
850.95	18570
851.085	18837
851.22	18654
851.355	18582
851.49	18589
851.625	18422
851.76	18509
851.895	18395
852.03	18509
852.165	18604
852.299	18528
852.434	18642
852.569	18650
852.703	18536
852.838	18547
852.973	18661
853.107	18681
853.242	18441
853.376	18490
853.511	18311
853.645	18426
853.78	18597
853.914	18506
854.048	18365
854.183	18311
854.317	18369
854.451	18517
854.585	18414
854.72	18292
854.854	18464
854.988	18418
855.122	18410
855.256	18182
855.39	18327
855.524	18483
855.658	18403
855.792	18445
855.926	18441
856.06	18437
856.194	18494
856.327	18388
856.461	18445
856.595	18445
856.729	18380
856.862	18464
856.996	18296
857.13	18357
857.263	18506
857.397	18391
857.53	18323
857.664	18441
857.797	18258
857.931	18372
858.064	18388
858.197	18399
858.331	18384
858.464	18190
858.597	18163
858.731	18273
858.864	18289
858.997	18327
859.13	18285
859.263	18395
859.396	18483
859.529	18277
859.662	18262
859.795	18228
859.928	18471
860.061	18517
860.194	18589
860.327	18456
860.46	18194
860.592	18426
860.725	18498
860.858	18490
860.99	18243
861.123	18224
861.256	18277
861.388	18323
861.521	19148
861.653	18277
861.786	18114
861.918	18140
862.05	18353
862.183	18395
862.315	18410
862.447	18460
862.58	18296
862.712	18053
862.844	18038
862.976	18285
863.108	18045
863.24	18388
863.372	18022
863.504	18045
863.636	18106
863.768	18038
863.9	18072
864.032	17999
864.164	17954
864.296	18079
864.428	18110
864.559	18159
864.691	18121
864.823	18079
864.954	18072
865.086	18068
865.217	17912
865.349	17824
865.48	17923
865.612	17965
865.743	18133
865.875	17992
866.006	17840
866.137	18041
866.269	17961
866.4	18007
866.531	17977
866.662	17992
866.793	17912
866.924	17912
867.055	17882
867.186	17908
867.317	17908
867.448	17897
867.579	17961
867.71	17783
867.841	17908
867.972	17897
868.103	17908
868.233	17965
868.364	17889
868.495	18106
868.625	18106
868.756	18277
868.886	17916
869.017	18190
869.147	18266
869.278	18239
869.408	18117
869.539	18167
869.669	18292
869.799	18140
869.929	18262
870.06	18254
870.19	18464
870.32	18456
870.45	18540
870.58	18551
870.71	18681
870.84	18521
870.97	18479
871.1	18490
871.23	18722
871.36	18757
871.489	18658
871.619	18749
871.749	18806
871.879	18867
872.008	18829
872.138	18783
872.267	18768
872.397	18646
872.526	18578
872.656	18585
872.785	18696
872.915	18757
873.044	18814
873.173	18795
873.303	18882
873.432	18928
873.561	18875
873.69	18772
873.819	18932
873.948	18901
874.077	18962
874.206	18745
874.335	18840
874.464	18939
874.593	19084
874.722	19076
874.851	19027
874.979	19148
875.108	19217
875.237	19118
875.365	19000
875.494	19084
875.623	19266
875.751	19084
875.88	19126
876.008	19301
876.136	19324
876.265	19491
876.393	19624
876.521	19552
876.65	19571
876.778	19518
876.906	19464
877.034	19415
877.162	19556
877.29	19506
877.418	19464
877.546	19510
877.674	19514
877.802	19430
877.93	19495
878.058	19445
878.185	19400
878.313	19460
878.441	19457
878.568	19324
878.696	19499
878.824	19495
878.951	19540
879.079	19677
879.206	19841
879.333	19693
879.461	19529
879.588	19651
879.715	19651
879.842	19780
879.97	19552
880.097	19419
880.224	19339
880.351	19350
880.478	19304
880.605	19312
880.732	19324
880.859	19430
880.986	19312
881.112	19392
881.239	19441
881.366	18951
881.493	19164
881.619	18951
881.746	19000
881.872	18932
881.999	18840
882.125	18882
882.252	19004
882.378	18973
882.505	19038
882.631	18966
882.757	18783
882.883	18760
883.01	18738
883.136	18574
883.262	18525
883.388	18612
883.514	18661
883.64	18806
883.766	18593
883.892	18532
884.018	18418
884.143	18669
884.269	18738
884.395	18502
884.52	18308
884.646	18456
884.772	18403
884.897	18262
885.023	18460
885.148	18456
885.274	18589
885.399	18502
885.524	18289
885.65	18407
885.775	18365
885.9	18342
886.025	18452
886.15	18403
886.275	18353
886.4	18247
886.525	18285
886.65	18391
886.775	18342
886.9	18475
887.025	18566
887.149	18388
887.274	18159
887.399	18049
887.523	18133
887.648	18003
887.773	18102
887.897	18239
888.021	18083
888.146	18152
888.27	18247
888.395	18076
888.519	18087
888.643	18064
888.767	18235
888.891	18110
889.015	17908
889.139	17920
889.263	17889
889.387	17988
889.511	18057
889.635	18072
889.759	17946
889.883	18011
890.006	18072
890.13	18049
890.254	17821
890.377	17836
890.501	17882
890.624	17707
890.748	17794
890.871	17752
890.995	17509
891.118	17547
891.241	17562
891.364	17592
891.488	17684
891.611	17592
891.734	17634
891.857	17691
891.98	17497
892.103	17623
892.226	17600
892.349	17535
892.471	17398
892.594	17478
892.717	17596
892.839	17558
892.962	17585
893.085	17490
893.207	17467
893.33	17410
893.452	17379
893.575	17581
893.697	17433
893.819	17638
893.941	17779
894.064	17638
894.186	17493
894.308	17433
894.43	17551
894.552	17600
894.674	17646
894.796	17535
894.918	17383
895.04	17482
895.161	17600
895.283	17551
895.405	17551
895.526	17589
895.648	17634
895.769	17600
895.891	17543
896.012	17547
896.134	17634
896.255	17615
896.376	17509
896.498	17539
896.619	17649
896.74	17642
896.861	17745
896.982	17916
897.103	18034
897.224	17939
897.345	17916
897.466	17935
897.587	17897
897.708	17939
897.828	17882
897.949	17756
898.07	17665
898.19	17870
898.311	17999
898.431	17767
898.552	17878
898.672	17942
898.792	17946
898.913	17775
899.033	17729
899.153	17703
899.273	17509
899.393	17672
899.513	17604
899.633	17619
899.753	17608
899.873	17551
899.993	17558
900.113	17592
900.232	17558
900.352	17608
900.472	17497
900.591	17417
900.711	17493
900.83	17440
900.95	17459
901.069	17596
901.189	17360
901.308	17254
901.427	17094
901.546	17128
901.665	17102
901.784	17041
901.904	16889
902.023	16793
902.141	16656
902.26	16645
902.379	16679
902.498	16668
902.617	16527
902.735	16622
902.854	16607
902.973	16489
903.091	16371
903.21	16238
903.328	16234
903.446	16131
903.565	16131
903.683	16071
903.801	15968
903.919	16105
904.038	16143
904.156	15888
904.274	15911
904.392	15869
904.51	15899
904.627	15831
904.745	15884
904.863	15846
904.981	15698
905.098	15504
905.216	15625
905.334	15523
905.451	15553
905.569	15561
905.686	15534
905.803	15504
905.921	15363
906.038	15443
906.155	15397
906.272	15268
906.389	15275
906.506	15176
906.623	15100
906.74	15173
906.857	15013
906.974	15005
907.091	15226
907.208	15207
907.324	15062
907.441	15062
907.557	14785
907.674	14792
907.79	14788
907.907	14773
908.023	14830
908.139	14864
908.256	14754
908.372	14697
908.488	14667
908.604	14598
908.72	14484
908.836	14602
908.952	14446
909.068	14640
909.184	14644
909.3	14552
909.415	14533
909.531	14488
909.647	14355
909.762	14271
909.878	14229
909.993	14229
910.108	14164
910.224	14145
910.339	14263
910.454	14153
910.57	14081
910.685	14001
910.8	14259
910.915	14180
911.03	14115
911.145	13947
911.259	13898
911.374	13883
911.489	13818
911.604	13757
911.718	13613
911.833	13548
911.947	13514
912.062	13373
912.176	13655
912.291	13670
912.405	13601
912.519	13845
912.633	13795
912.748	13605
912.862	13681
912.976	13457
913.09	13327
913.204	13392
913.318	13468
913.431	13502
913.545	13506
913.659	13578
913.772	13468
913.886	13369
914	13251
914.113	13407
914.226	13514
914.34	13365
914.453	13168
914.566	13274
914.68	13217
914.793	13190
914.906	12962
915.019	13000
915.132	12924
915.245	13015
915.358	12981
915.47	13023
915.583	12951
915.696	12935
915.809	13141
915.921	13080
916.034	13027
916.146	12817
916.259	12924
916.371	13034
916.483	12878
916.595	12890
916.708	12867
916.82	12882
916.932	12810
917.044	12875
917.156	12787
917.268	12700
917.38	12707
917.491	12688
917.603	12745
917.715	12768
917.826	12779
917.938	12623
918.049	12471
918.161	12741
918.272	12810
918.384	12726
918.495	12604
918.606	12536
918.717	12426
918.828	12528
918.939	12498
919.05	12414
919.161	12452
919.272	12254
919.383	12292
919.494	12513
919.604	12726
919.715	12513
919.826	12384
919.936	12525
920.047	12486
920.157	12544
920.267	12677
920.378	12498
920.488	12486
920.598	12711
920.708	12722
920.818	12574
920.928	12646
921.038	12764
921.148	12764
921.258	12414
921.368	12315
921.477	12292
921.587	12220
921.697	12114
921.806	12315
921.916	12232
922.025	11999
922.134	11912
922.244	11809
922.353	11958
922.462	11802
922.571	11783
922.68	11600
922.789	11474
922.898	11543
923.007	11501
923.116	11524
923.224	11596
923.333	11551
923.442	11459
923.55	11425
923.659	11391
923.767	11547
923.876	11364
923.984	11490
924.092	11353
924.201	11452
924.309	11330
924.417	11398
924.525	11364
924.633	11398
924.741	12285
924.849	11155
924.956	11337
925.064	11098
925.172	10991
925.279	11048
925.387	11147
925.494	11124
925.602	11220
925.709	11098
925.816	11029
925.924	11204
926.031	11170
926.138	11056
926.245	11083
926.352	11079
926.459	11098
926.566	11136
926.673	10976
926.779	10873
926.886	10831
926.993	10782
927.099	10767
927.206	10721
927.312	10721
927.419	10809
927.525	10679
927.631	10729
927.737	10622
927.843	10603
927.95	10554
928.056	10538
928.162	10592
928.267	10637
928.373	11174
928.479	10630
928.585	10432
928.69	10554
928.796	10645
928.901	10436
929.007	10268
929.112	10504
929.218	10493
929.323	10363
929.428	10276
929.533	10436
929.638	10287
929.743	10234
929.848	10352
929.953	10295
930.058	10196
930.163	10040
930.267	10059
930.372	10185
930.477	10078
930.581	10337
930.685	10150
930.79	10017
930.894	9979
930.998	9945
931.103	10086
931.207	9698
931.311	9679
931.415	9614
931.519	9477
931.623	9370
