Data from test_V78500241_1444.txt Node
Date: Fri Mar 25 14:43:46 CST 2022
User: usil
Spectrometer: V785-0024
Trigger mode: 0
Integration Time (sec): 4.000000E-1
Scans to average: 1
Nonlinearity correction enabled: false
Boxcar width: 0
Storing dark spectrum: false
XAxis mode: Wavelengths
Number of Pixels in Spectrum: 1024
>>>>>Begin Spectral Data<<<<<
801.071	22535
801.214	22413
801.356	22226
801.499	22093
801.641	21835
801.783	21808
801.926	21789
802.068	21816
802.211	21751
802.353	21641
802.496	21397
802.638	21313
802.78	21287
802.923	21173
803.065	21070
803.208	21214
803.35	21131
803.492	21233
803.635	21310
803.777	21116
803.919	21138
804.061	21534
804.204	21291
804.346	21203
804.488	21039
804.63	21058
804.773	21005
804.915	21154
805.057	21386
805.199	21116
805.341	21135
805.483	21214
805.626	21192
805.768	21009
805.91	20982
806.052	21104
806.194	20952
806.336	21310
806.478	21081
806.62	21085
806.762	21161
806.904	21214
807.046	21534
807.188	21507
807.33	21462
807.472	21359
807.614	21507
807.756	21340
807.898	21294
808.04	21169
808.182	21351
808.324	21294
808.465	21386
808.607	21622
808.749	21637
808.891	21793
809.033	21869
809.174	21778
809.316	21572
809.458	21736
809.6	21545
809.741	21599
809.883	21690
810.025	21599
810.166	21671
810.308	21682
810.45	21637
810.591	21492
810.733	21454
810.875	21374
811.016	21173
811.158	21169
811.299	21214
811.441	21382
811.582	21348
811.724	21150
811.865	21252
812.007	21287
812.148	21310
812.29	21313
812.431	21580
812.573	21561
812.714	21682
812.855	21781
812.997	21865
813.138	22112
813.279	21857
813.421	21808
813.562	21637
813.703	21496
813.845	21488
813.986	21077
814.127	20990
814.268	20853
814.41	20781
814.551	20769
814.692	20849
814.833	20651
814.974	20587
815.115	20788
815.256	20632
815.397	20602
815.539	20670
815.68	20693
815.821	20488
815.962	20552
816.103	20545
816.244	20290
816.385	20168
816.526	20267
816.666	20115
816.807	20001
816.948	20035
817.089	20187
817.23	20088
817.371	19970
817.512	19970
817.653	19959
817.793	19883
817.934	19989
818.075	19947
818.216	20046
818.356	19955
818.497	19700
818.638	19685
818.778	19693
818.919	19681
819.06	19662
819.2	19757
819.341	19890
819.481	19738
819.622	19841
819.762	20138
819.903	20065
820.043	20058
820.184	19944
820.324	19921
820.465	19925
820.605	19871
820.746	19868
820.886	19852
821.026	19906
821.167	19925
821.307	19822
821.447	19765
821.588	19799
821.728	19609
821.868	19392
822.008	19468
822.149	19339
822.289	19217
822.429	19179
822.569	19008
822.709	18985
822.849	18875
822.99	18821
823.13	18878
823.27	18719
823.41	18521
823.55	18574
823.69	18479
823.83	18631
823.97	18445
824.11	18399
824.25	18384
824.389	18395
824.529	18525
824.669	18479
824.809	18525
824.949	18528
825.089	18403
825.228	18380
825.368	18228
825.508	18178
825.648	18251
825.787	18228
825.927	18251
826.067	18167
826.206	18106
826.346	18197
826.485	18076
826.625	18209
826.765	18357
826.904	18186
827.044	17885
827.183	17946
827.323	17828
827.462	17889
827.601	17756
827.741	17828
827.88	17889
828.02	17767
828.159	17874
828.298	17942
828.437	17885
828.577	17901
828.716	17977
828.855	17813
828.994	17516
829.134	17623
829.273	17710
829.412	17570
829.551	17501
829.69	17661
829.829	17634
829.968	17733
830.107	17619
830.246	17566
830.385	17570
830.524	17482
830.663	17417
830.802	17376
830.941	17212
831.08	17277
831.219	17235
831.357	17284
831.496	17444
831.635	17299
831.774	17113
831.913	17193
832.051	17208
832.19	16965
832.329	17006
832.467	16949
832.606	16839
832.744	16828
832.883	17010
833.022	16820
833.16	16908
833.299	16991
833.437	17083
833.576	16911
833.714	17014
833.852	17014
833.991	17003
834.129	17041
834.267	16987
834.406	17022
834.544	16953
834.682	17006
834.821	16972
834.959	17086
835.097	16957
835.235	17200
835.373	16946
835.511	16999
835.65	16934
835.788	16850
835.926	16596
836.064	16675
836.202	16710
836.34	16923
836.478	17006
836.615	16839
836.753	16828
836.891	16915
837.029	16965
837.167	16843
837.305	16790
837.443	16778
837.58	16702
837.718	16793
837.856	16782
837.993	16611
838.131	16672
838.269	16599
838.406	16675
838.544	16607
838.681	16424
838.819	16417
838.956	16314
839.094	16249
839.231	16390
839.369	16432
839.506	16706
839.643	16489
839.781	16204
839.918	16131
840.055	16329
840.193	16287
840.33	16192
840.467	16276
840.604	16284
840.742	16538
840.879	16120
841.016	16131
841.153	16253
841.29	16325
841.427	16139
841.564	16348
841.701	16207
841.838	16215
841.975	16128
842.112	16162
842.249	15998
842.385	16010
842.522	16204
842.659	16086
842.796	16006
842.933	16040
843.069	16051
843.206	15983
843.343	16124
843.479	15972
843.616	16017
843.752	15842
843.889	15861
844.025	15968
844.162	15823
844.298	15922
844.435	15884
844.571	15827
844.708	15899
844.844	15991
844.98	16002
845.117	16010
845.253	15819
845.389	15751
845.525	15812
845.661	15838
845.798	15778
845.934	16017
846.07	15888
846.206	16010
846.342	16017
846.478	15766
846.614	15595
846.75	15405
846.886	15397
847.022	15545
847.158	15374
847.294	15428
847.429	15450
847.565	15306
847.701	15587
847.837	15135
847.972	15112
848.108	15294
848.244	15226
848.379	15104
848.515	14990
848.65	14967
848.786	15066
848.921	15066
849.057	15081
849.192	15055
849.328	14982
849.463	14956
849.598	14956
849.734	14876
849.869	14857
850.004	14800
850.14	14842
850.275	14830
850.41	14667
850.545	14712
850.68	14678
850.815	14811
850.95	14750
851.085	14994
851.22	14849
851.355	14678
851.49	14686
851.625	14724
851.76	14667
851.895	14739
852.03	14549
852.165	14712
852.299	14686
852.434	14857
852.569	14712
852.703	14773
852.838	14815
852.973	14777
853.107	14857
853.242	14674
853.376	14636
853.511	14549
853.645	14556
853.78	14712
853.914	14712
854.048	14552
854.183	14560
854.317	14651
854.451	14689
854.585	14693
854.72	14568
854.854	14659
854.988	14537
855.122	14560
855.256	14434
855.39	14590
855.524	14712
855.658	14663
855.792	14644
855.926	14606
856.06	14720
856.194	14697
856.327	14564
856.461	14610
856.595	14587
856.729	14587
856.862	14689
856.996	14667
857.13	14648
857.263	14746
857.397	14693
857.53	14667
857.664	14754
857.797	14731
857.931	14705
858.064	14575
858.197	14632
858.331	14571
858.464	14602
858.597	14575
858.731	14659
858.864	14644
858.997	14613
859.13	14674
859.263	14644
859.396	14705
859.529	14602
859.662	14533
859.795	14636
859.928	14701
860.061	14838
860.194	14819
860.327	14727
860.46	14598
860.592	14674
860.725	14769
860.858	14716
860.99	14644
861.123	14564
861.256	14552
861.388	14716
861.521	15370
861.653	14556
861.786	14423
861.918	14423
862.05	14560
862.183	14602
862.315	14610
862.447	14678
862.58	14564
862.712	14370
862.844	14358
862.976	14473
863.108	14503
863.24	14857
863.372	14328
863.504	14377
863.636	14412
863.768	14419
863.9	14343
864.032	14282
864.164	14320
864.296	14446
864.428	14492
864.559	14423
864.691	14507
864.823	14396
864.954	14259
865.086	14286
865.217	14412
865.349	14282
865.48	14313
865.612	14362
865.743	14446
865.875	14347
866.006	14370
866.137	14396
866.269	14336
866.4	14370
866.531	14332
866.662	14298
866.793	14282
866.924	14343
867.055	14381
867.186	14404
867.317	14355
867.448	14240
867.579	14309
867.71	14259
867.841	14240
867.972	14374
868.103	14320
868.233	14317
868.364	14309
868.495	14408
868.625	14708
868.756	14720
868.886	14549
869.017	14503
869.147	14693
869.278	14701
869.408	14648
869.539	14587
869.669	14705
869.799	14678
869.929	14739
870.06	14689
870.19	14918
870.32	14921
870.45	14895
870.58	15017
870.71	15077
870.84	15108
870.97	14994
871.1	15020
871.23	15184
871.36	15142
871.489	15131
871.619	15123
871.749	15218
871.879	15260
872.008	15325
872.138	15199
872.267	15131
872.397	15085
872.526	15066
872.656	14982
872.785	15089
872.915	15241
873.044	15389
873.173	15226
873.303	15302
873.432	15272
873.561	15355
873.69	15272
873.819	15252
873.948	15336
874.077	15268
874.206	15142
874.335	15230
874.464	15359
874.593	15538
874.722	15447
874.851	15553
874.979	15523
875.108	15713
875.237	15549
875.365	15416
875.494	15587
875.623	15545
875.751	15496
875.88	15477
876.008	15686
876.136	15766
876.265	15987
876.393	16143
876.521	16010
876.65	16082
876.778	15972
876.906	15861
877.034	15994
877.162	15907
877.29	15915
877.418	16002
877.546	16006
877.674	15926
877.802	15998
877.93	15964
878.058	15964
878.185	15918
878.313	15991
878.441	15991
878.568	15884
878.696	15991
878.824	16090
878.951	16040
879.079	16181
879.206	16493
879.333	16306
879.461	16044
879.588	16181
879.715	16299
879.842	16428
879.97	16192
880.097	15846
880.224	15804
880.351	15922
880.478	15895
880.605	15804
880.732	15835
880.859	16059
880.986	15907
881.112	15922
881.239	15774
881.366	15682
881.493	15549
881.619	15416
881.746	15488
881.872	15496
881.999	15500
882.125	15443
882.252	15694
882.378	15580
882.505	15576
882.631	15397
882.757	15321
882.883	15424
883.01	15321
883.136	15291
883.262	15173
883.388	15089
883.514	15264
883.64	15401
883.766	15302
883.892	15032
884.018	15233
884.143	15321
884.269	15363
884.395	15089
884.52	14998
884.646	14937
884.772	14944
884.897	14929
885.023	14963
885.148	15055
885.274	15184
885.399	15074
885.524	15077
885.65	15077
885.775	15074
885.9	14986
886.025	15138
886.15	15013
886.275	15043
886.4	14868
886.525	15058
886.65	14982
886.775	14979
886.9	15066
887.025	15249
887.149	15001
887.274	14921
887.399	14902
887.523	14788
887.648	14823
887.773	14727
887.897	14899
888.021	14876
888.146	14781
888.27	14842
888.395	14921
888.519	14899
888.643	14918
888.767	14849
888.891	14804
889.015	14651
889.139	14678
889.263	14568
889.387	14750
889.511	14861
889.635	14815
889.759	14575
889.883	14686
890.006	14636
890.13	14868
890.254	14629
890.377	14632
890.501	14484
890.624	14518
890.748	14518
890.871	14480
890.995	14263
891.118	14313
891.241	14377
891.364	14370
891.488	14419
891.611	14400
891.734	14404
891.857	14396
891.98	14454
892.103	14415
892.226	14423
892.349	14389
892.471	14210
892.594	14362
892.717	14393
892.839	14328
892.962	14343
893.085	14469
893.207	14423
893.33	14210
893.452	14366
893.575	14476
893.697	14400
893.819	14522
893.941	14583
894.064	14518
894.186	14271
894.308	14336
894.43	14393
894.552	14621
894.674	14499
894.796	14415
894.918	14488
895.04	14298
895.161	14492
895.283	14503
895.405	14389
895.526	14415
895.648	14423
895.769	14503
895.891	14575
896.012	14583
896.134	14484
896.255	14495
896.376	14408
896.498	14507
896.619	14606
896.74	14571
896.861	14617
896.982	14762
897.103	15097
897.224	14785
897.345	14857
897.466	14610
897.587	14727
897.708	14895
897.828	14849
897.949	14872
898.07	14708
898.19	14781
898.311	14975
898.431	14804
898.552	14910
898.672	14971
898.792	14982
898.913	14826
899.033	14807
899.153	14743
899.273	14682
899.393	14823
899.513	14720
899.633	14864
899.753	14754
899.873	14773
899.993	14762
900.113	14785
900.232	14788
900.352	14701
900.472	14712
900.591	14522
900.711	14670
900.83	14552
900.95	14651
901.069	14727
901.189	14522
901.308	14256
901.427	14244
901.546	14244
901.665	14339
901.784	14282
901.904	14138
902.023	14123
902.141	13890
902.26	13856
902.379	13925
902.498	13841
902.617	13784
902.735	13898
902.854	13826
902.973	13715
903.091	13506
903.21	13537
903.328	13506
903.446	13514
903.565	13350
903.683	13407
903.801	13301
903.919	13308
904.038	13407
904.156	13187
904.274	13304
904.392	13190
904.51	13145
904.627	13206
904.745	13346
904.863	13232
904.981	12977
905.098	12894
905.216	12909
905.334	13015
905.451	12947
905.569	12753
905.686	12894
905.803	12856
905.921	12776
906.038	12738
906.155	12795
906.272	12620
906.389	12620
906.506	12441
906.623	12426
906.74	12399
906.857	12277
906.974	12414
907.091	12509
907.208	12631
907.324	12490
907.441	12372
907.557	12258
907.674	12277
907.79	12110
907.907	12121
908.023	12213
908.139	12235
908.256	12213
908.372	12167
908.488	12152
908.604	12007
908.72	11904
908.836	12003
908.952	11977
909.068	11988
909.184	11977
909.3	12007
909.415	12015
909.531	12007
909.647	11752
909.762	11767
909.878	11676
909.993	11752
910.108	11756
910.224	11661
910.339	11714
910.454	11726
910.57	11558
910.685	11577
910.8	11722
910.915	11786
911.03	11592
911.145	11482
911.259	11391
911.374	11497
911.489	11311
911.604	11322
911.718	11242
911.833	11284
911.947	11136
912.062	11071
912.176	11216
912.291	11227
912.405	11250
912.519	11414
912.633	11440
912.748	11284
912.862	11231
912.976	11083
913.09	10965
913.204	11003
913.318	11124
913.431	11193
913.545	11147
913.659	11273
913.772	11010
913.886	10938
914	10839
914.113	11006
914.226	11048
914.34	11060
914.453	10831
914.566	11105
914.68	10900
914.793	10854
914.906	10729
915.019	10626
915.132	10675
915.245	10615
915.358	10702
915.47	10683
915.583	10725
915.696	10721
915.809	10824
915.921	10858
916.034	10634
916.146	10584
916.259	10592
916.371	10790
916.483	10774
916.595	10577
916.708	10698
916.82	10622
916.932	10569
917.044	10580
917.156	10607
917.268	10523
917.38	10523
917.491	10508
917.603	10550
917.715	10554
917.826	10630
917.938	10436
918.049	10402
918.161	10474
918.272	10672
918.384	10664
918.495	10519
918.606	10478
918.717	10280
918.828	10348
918.939	10466
919.05	10356
919.161	10344
919.272	10188
919.383	10219
919.494	10371
919.604	10596
919.715	10386
919.826	10287
919.936	10352
920.047	10470
920.157	10409
920.267	10573
920.378	10432
920.488	10413
920.598	10599
920.708	10725
920.818	10588
920.928	10577
921.038	10809
921.148	10767
921.258	10424
921.368	10337
921.477	10352
921.587	10322
921.697	10143
921.806	10265
921.916	10109
922.025	9972
922.134	9960
922.244	9899
922.353	9998
922.462	9892
922.571	9781
922.68	9698
922.789	9629
922.898	9629
923.007	9622
923.116	9660
923.224	9720
923.333	9641
923.442	9557
923.55	9622
923.659	9507
923.767	9564
923.876	9477
923.984	9496
924.092	9420
924.201	9526
924.309	9458
924.417	9500
924.525	9382
924.633	9443
924.741	10417
924.849	9313
924.956	9408
925.064	9241
925.172	9165
925.279	9199
925.387	9241
925.494	9222
925.602	9416
925.709	9306
925.816	9256
925.924	9306
926.031	9355
926.138	9306
926.245	9283
926.352	9214
926.459	9378
926.566	9439
926.673	9233
926.779	9116
926.886	9108
926.993	9013
927.099	8986
927.206	8921
927.312	8914
927.419	9013
927.525	8982
927.631	8994
927.737	8967
927.843	8929
927.95	8796
928.056	8819
928.162	8902
928.267	8937
928.373	9500
928.479	9062
928.585	8785
928.69	8880
928.796	8880
928.901	8804
929.007	8613
929.112	8826
929.218	8807
929.323	8636
929.428	8659
929.533	8769
929.638	8689
929.743	8663
929.848	8758
929.953	8689
930.058	8571
930.163	8461
930.267	8415
930.372	8636
930.477	8450
930.581	8693
930.685	8480
930.79	8381
930.894	8473
930.998	8396
931.103	8594
931.207	8172
931.311	8176
931.415	8054
931.519	7940
931.623	7890
