Data from test_V78500241_2853.txt Node
Date: Fri Mar 25 14:53:34 CST 2022
User: usil
Spectrometer: V785-0024
Trigger mode: 0
Integration Time (sec): 4.000000E-1
Scans to average: 1
Nonlinearity correction enabled: false
Boxcar width: 0
Storing dark spectrum: false
XAxis mode: Wavelengths
Number of Pixels in Spectrum: 1024
>>>>>Begin Spectral Data<<<<<
801.071	22086
801.214	22040
801.356	21728
801.499	21610
801.641	21553
801.783	21393
801.926	21431
802.068	21408
802.211	21420
802.353	21359
802.496	21055
802.638	20864
802.78	20861
802.923	20868
803.065	20678
803.208	20606
803.35	20735
803.492	20811
803.635	20956
803.777	20743
803.919	20842
804.061	21188
804.204	20819
804.346	20655
804.488	20621
804.63	20781
804.773	20655
804.915	20686
805.057	20754
805.199	20590
805.341	20674
805.483	20773
805.626	20849
805.768	20598
805.91	20659
806.052	20686
806.194	20507
806.336	20868
806.478	20590
806.62	20705
806.762	20735
806.904	20887
807.046	21077
807.188	21074
807.33	21043
807.472	21077
807.614	20960
807.756	20883
807.898	20830
808.04	20727
808.182	20788
808.324	20811
808.465	20701
808.607	20933
808.749	21036
808.891	21047
809.033	21169
809.174	21104
809.316	20990
809.458	21096
809.6	21009
809.741	21222
809.883	21058
810.025	21252
810.166	21218
810.308	21211
810.45	21165
810.591	21123
810.733	20872
810.875	20758
811.016	20739
811.158	20720
811.299	20868
811.441	20921
811.582	21036
811.724	20834
811.865	20701
812.007	20800
812.148	20849
812.29	21005
812.431	20929
812.573	21165
812.714	21176
812.855	21313
812.997	21477
813.138	21488
813.279	21416
813.421	21439
813.562	21313
813.703	21100
813.845	20971
813.986	20670
814.127	20499
814.268	20362
814.41	20408
814.551	20438
814.692	20412
814.833	20313
814.974	20282
815.115	20370
815.256	20096
815.397	20237
815.539	20195
815.68	20145
815.821	20008
815.962	20065
816.103	19955
816.244	19856
816.385	19890
816.526	19811
816.666	19670
816.807	19533
816.948	19601
817.089	19662
817.23	19521
817.371	19468
817.512	19480
817.653	19422
817.793	19449
817.934	19510
818.075	19559
818.216	19521
818.356	19472
818.497	19362
818.638	19206
818.778	19301
818.919	19126
819.06	19187
819.2	19339
819.341	19316
819.481	19438
819.622	19499
819.762	19620
819.903	19548
820.043	19529
820.184	19563
820.324	19464
820.465	19655
820.605	19499
820.746	19434
820.886	19285
821.026	19388
821.167	19411
821.307	19556
821.447	19415
821.588	19187
821.728	19209
821.868	18993
822.008	18913
822.149	18856
822.289	18795
822.429	18563
822.569	18471
822.709	18631
822.849	18391
822.99	18384
823.13	18277
823.27	18376
823.41	18224
823.55	18220
823.69	18182
823.83	18163
823.97	18102
824.11	17977
824.25	17893
824.389	17984
824.529	17984
824.669	17916
824.809	18167
824.949	18019
825.089	17996
825.228	17954
825.368	17653
825.508	17668
825.648	17889
825.787	17741
825.927	17756
826.067	17646
826.206	17535
826.346	17623
826.485	17707
826.625	17676
826.765	17786
826.904	17771
827.044	17543
827.183	17440
827.323	17444
827.462	17433
827.601	17353
827.741	17372
827.88	17478
828.02	17376
828.159	17288
828.298	17353
828.437	17490
828.577	17345
828.716	17482
828.855	17341
828.994	17212
829.134	17098
829.273	17189
829.412	17204
829.551	17117
829.69	17159
829.829	17193
829.968	17178
830.107	17132
830.246	17212
830.385	17098
830.524	17060
830.663	16965
830.802	16831
830.941	16805
831.08	16691
831.219	16801
831.357	16744
831.496	16957
831.635	16831
831.774	16733
831.913	16691
832.051	16645
832.19	16440
832.329	16717
832.467	16466
832.606	16428
832.744	16497
832.883	16428
833.022	16466
833.16	16546
833.299	16580
833.437	16554
833.576	16493
833.714	16493
833.852	16580
833.991	16478
834.129	16721
834.267	16634
834.406	16603
834.544	16546
834.682	16531
834.821	16531
834.959	16683
835.097	16493
835.235	16512
835.373	16622
835.511	16504
835.65	16344
835.788	16341
835.926	16310
836.064	16272
836.202	16303
836.34	16424
836.478	16538
836.615	16367
836.753	16478
836.891	16504
837.029	16371
837.167	16348
837.305	16280
837.443	16360
837.58	16272
837.718	16402
837.856	16268
837.993	16124
838.131	16306
838.269	16204
838.406	16204
838.544	16204
838.681	15964
838.819	16059
838.956	15759
839.094	15873
839.231	15838
839.369	16021
839.506	16223
839.643	16192
839.781	15816
839.918	15842
840.055	15876
840.193	15816
840.33	15751
840.467	15770
840.604	15869
840.742	16162
840.879	15705
841.016	15857
841.153	15842
841.29	15979
841.427	15903
841.564	15922
841.701	15770
841.838	15789
841.975	15675
842.112	15732
842.249	15610
842.385	15576
842.522	15755
842.659	15713
842.796	15595
842.933	15625
843.069	15561
843.206	15564
843.343	15644
843.479	15736
843.616	15629
843.752	15348
843.889	15294
844.025	15519
844.162	15310
844.298	15526
844.435	15416
844.571	15386
844.708	15481
844.844	15519
844.98	15568
845.117	15511
845.253	15401
845.389	15260
845.525	15325
845.661	15245
845.798	15214
845.934	15199
846.07	15199
846.206	15264
846.342	15382
846.478	15135
846.614	15028
846.75	14807
846.886	14918
847.022	15043
847.158	14956
847.294	14963
847.429	15047
847.565	14921
847.701	15252
847.837	14807
847.972	14678
848.108	14864
848.244	14826
848.379	14610
848.515	14537
848.65	14522
848.786	14632
848.921	14571
849.057	14644
849.192	14636
849.328	14598
849.463	14613
849.598	14438
849.734	14396
849.869	14488
850.004	14252
850.14	14385
850.275	14393
850.41	14164
850.545	14271
850.68	14351
850.815	14313
850.95	14366
851.085	14511
851.22	14396
851.355	14313
851.49	14244
851.625	14389
851.76	14233
851.895	14290
852.03	14221
852.165	14275
852.299	14347
852.434	14480
852.569	14298
852.703	14332
852.838	14309
852.973	14488
853.107	14499
853.242	14317
853.376	14218
853.511	14153
853.645	14157
853.78	14339
853.914	14202
854.048	14138
854.183	14210
854.317	14240
854.451	14393
854.585	14271
854.72	14134
854.854	14305
854.988	14164
855.122	14107
855.256	14111
855.39	14062
855.524	14252
855.658	14206
855.792	14199
855.926	14206
856.06	14252
856.194	14278
856.327	14176
856.461	14157
856.595	14168
856.729	14149
856.862	14366
856.996	14225
857.13	14248
857.263	14256
857.397	14294
857.53	14214
857.664	14252
857.797	14282
857.931	14328
858.064	14275
858.197	14358
858.331	14195
858.464	14252
858.597	14134
858.731	14191
858.864	14229
858.997	14084
859.13	14282
859.263	14278
859.396	14324
859.529	14301
859.662	14187
859.795	14252
859.928	14278
860.061	14309
860.194	14347
860.327	14221
860.46	14172
860.592	14271
860.725	14381
860.858	14298
860.99	14218
861.123	14050
861.256	14172
861.388	14183
861.521	14773
861.653	14043
861.786	14005
861.918	14111
862.05	14149
862.183	14149
862.315	14278
862.447	14294
862.58	14157
862.712	14039
862.844	13993
862.976	14142
863.108	14008
863.24	14415
863.372	13909
863.504	14012
863.636	14046
863.768	13993
863.9	13974
864.032	13868
864.164	13932
864.296	14054
864.428	14157
864.559	14130
864.691	14012
864.823	14138
864.954	14092
865.086	14096
865.217	13955
865.349	13947
865.48	13967
865.612	13947
865.743	14062
865.875	14058
866.006	13963
866.137	13982
866.269	13936
866.4	13913
866.531	14024
866.662	13932
866.793	13993
866.924	13887
867.055	13936
867.186	13940
867.317	13894
867.448	13932
867.579	13967
867.71	13921
867.841	13955
867.972	13932
868.103	13997
868.233	13963
868.364	14088
868.495	14103
868.625	14157
868.756	14381
868.886	14195
869.017	14221
869.147	14298
869.278	14339
869.408	14218
869.539	14168
869.669	14320
869.799	14271
869.929	14332
870.06	14336
870.19	14587
870.32	14545
870.45	14522
870.58	14541
870.71	14781
870.84	14621
870.97	14629
871.1	14564
871.23	14727
871.36	14826
871.489	14686
871.619	14773
871.749	14716
871.879	14921
872.008	14914
872.138	14895
872.267	14708
872.397	14781
872.526	14670
872.656	14617
872.785	14552
872.915	14849
873.044	14925
873.173	14830
873.303	14963
873.432	14857
873.561	15001
873.69	14883
873.819	14857
873.948	14971
874.077	14918
874.206	14838
874.335	14910
874.464	15001
874.593	15173
874.722	15074
874.851	15184
874.979	15165
875.108	15138
875.237	15070
875.365	15169
875.494	15097
875.623	15260
875.751	15192
875.88	15161
876.008	15329
876.136	15500
876.265	15610
876.393	15770
876.521	15686
876.65	15736
876.778	15576
876.906	15557
877.034	15447
877.162	15526
877.29	15466
877.418	15656
877.546	15698
877.674	15663
877.802	15553
877.93	15641
878.058	15698
878.185	15587
878.313	15549
878.441	15587
878.568	15374
878.696	15641
878.824	15618
878.951	15751
879.079	15854
879.206	15979
879.333	15793
879.461	15618
879.588	15736
879.715	15679
879.842	15850
879.97	15667
880.097	15466
880.224	15439
880.351	15389
880.478	15496
880.605	15435
880.732	15397
880.859	15675
880.986	15462
881.112	15393
881.239	15287
881.366	15207
881.493	15203
881.619	15093
881.746	15203
881.872	15142
881.999	15119
882.125	15039
882.252	15218
882.378	15100
882.505	15180
882.631	15097
882.757	14960
882.883	15043
883.01	14902
883.136	14918
883.262	14826
883.388	14746
883.514	14982
883.64	14948
883.766	14872
883.892	14777
884.018	14754
884.143	14864
884.269	14975
884.395	14678
884.52	14655
884.646	14640
884.772	14507
884.897	14541
885.023	14564
885.148	14720
885.274	14815
885.399	14697
885.524	14712
885.65	14655
885.775	14682
885.9	14644
886.025	14735
886.15	14708
886.275	14579
886.4	14480
886.525	14629
886.65	14587
886.775	14526
886.9	14693
887.025	14963
887.149	14674
887.274	14457
887.399	14465
887.523	14442
887.648	14492
887.773	14336
887.897	14541
888.021	14507
888.146	14488
888.27	14590
888.395	14583
888.519	14484
888.643	14537
888.767	14514
888.891	14427
889.015	14256
889.139	14343
889.263	14320
889.387	14434
889.511	14503
889.635	14537
889.759	14339
889.883	14267
890.006	14389
890.13	14450
890.254	14267
890.377	14267
890.501	14142
890.624	14172
890.748	14229
890.871	14119
890.995	13951
891.118	13967
891.241	14031
891.364	14073
891.488	14145
891.611	14012
891.734	14024
891.857	14024
891.98	14008
892.103	14138
892.226	14172
892.349	14084
892.471	13864
892.594	13909
892.717	14016
892.839	13925
892.962	13906
893.085	14065
893.207	13982
893.33	13852
893.452	14084
893.575	14100
893.697	13959
893.819	14130
893.941	14225
894.064	14218
894.186	13951
894.308	14039
894.43	14111
894.552	14271
894.674	14168
894.796	13978
894.918	14073
895.04	14088
895.161	14221
895.283	14126
895.405	14031
895.526	14084
895.648	14138
895.769	14111
895.891	14092
896.012	14168
896.134	14275
896.255	14225
896.376	14202
896.498	14172
896.619	14252
896.74	14111
896.861	14362
896.982	14556
897.103	14716
897.224	14590
897.345	14442
897.466	14473
897.587	14442
897.708	14644
897.828	14488
897.949	14423
898.07	14320
898.19	14381
898.311	14651
898.431	14549
898.552	14594
898.672	14545
898.792	14670
898.913	14617
899.033	14476
899.153	14389
899.273	14298
899.393	14419
899.513	14374
899.633	14408
899.753	14408
899.873	14434
899.993	14393
900.113	14393
900.232	14385
900.352	14431
900.472	14328
900.591	14275
900.711	14256
900.83	14256
900.95	14294
901.069	14400
901.189	14206
901.308	14069
901.427	13902
901.546	13845
901.665	13925
901.784	13955
901.904	13811
902.023	13681
902.141	13666
902.26	13556
902.379	13681
902.498	13590
902.617	13525
902.735	13525
902.854	13518
902.973	13430
903.091	13232
903.21	13236
903.328	13202
903.446	13137
903.565	13107
903.683	13141
903.801	13053
903.919	13202
904.038	13084
904.156	12882
904.274	12954
904.392	12897
904.51	12878
904.627	12943
904.745	12928
904.863	13031
904.981	12684
905.098	12662
905.216	12585
905.334	12654
905.451	12654
905.569	12566
905.686	12684
905.803	12612
905.921	12418
906.038	12528
906.155	12483
906.272	12304
906.389	12414
906.506	12197
906.623	12190
906.74	12114
906.857	12110
906.974	12114
907.091	12247
907.208	12285
907.324	12213
907.441	12011
907.557	11942
907.674	11920
907.79	11901
907.907	11950
908.023	12022
908.139	12060
908.256	11866
908.372	11870
908.488	11885
908.604	11745
908.72	11634
908.836	11691
908.952	11710
909.068	11649
909.184	11821
909.3	11771
909.415	11695
909.531	11688
909.647	11440
909.762	11482
909.878	11406
909.993	11486
910.108	11414
910.224	11402
910.339	11368
910.454	11334
910.57	11273
910.685	11315
910.8	11474
910.915	11520
911.03	11372
911.145	11246
911.259	11178
911.374	11170
911.489	11109
911.604	11079
911.718	10965
911.833	10980
911.947	10831
912.062	10725
912.176	10927
912.291	10953
912.405	10980
912.519	11052
912.633	11201
912.748	10908
912.862	10896
912.976	10805
913.09	10675
913.204	10706
913.318	10812
913.431	10949
913.545	10881
913.659	10847
913.772	10782
913.886	10599
914	10702
914.113	10816
914.226	10797
914.34	10725
914.453	10592
914.566	10714
914.68	10611
914.793	10630
914.906	10455
915.019	10421
915.132	10333
915.245	10466
915.358	10459
915.47	10447
915.583	10459
915.696	10500
915.809	10588
915.921	10546
916.034	10485
916.146	10382
916.259	10409
916.371	10500
916.483	10474
916.595	10306
916.708	10390
916.82	10341
916.932	10360
917.044	10337
917.156	10360
917.268	10207
917.38	10272
917.491	10253
917.603	10295
917.715	10405
917.826	10390
917.938	10257
918.049	10215
918.161	10272
918.272	10371
918.384	10432
918.495	10394
918.606	10185
918.717	10188
918.828	10128
918.939	10135
919.05	10013
919.161	10158
919.272	9979
919.383	9994
919.494	10223
919.604	10318
919.715	10192
919.826	10109
919.936	10097
920.047	10276
920.157	10192
920.267	10356
920.378	10265
920.488	10162
920.598	10405
920.708	10565
920.818	10394
920.928	10421
921.038	10516
921.148	10447
921.258	10230
921.368	10158
921.477	10101
921.587	10059
921.697	9873
921.806	10093
921.916	9972
922.025	9823
922.134	9789
922.244	9648
922.353	9789
922.462	9584
922.571	9561
922.68	9447
922.789	9321
922.898	9458
923.007	9389
923.116	9473
923.224	9428
923.333	9397
923.442	9313
923.55	9306
923.659	9389
923.767	9428
923.876	9268
923.984	9378
924.092	9214
924.201	9340
924.309	9321
924.417	9291
924.525	9241
924.633	9272
924.741	10211
924.849	9093
924.956	9226
925.064	9043
925.172	8975
925.279	9028
925.387	9135
925.494	9089
925.602	9222
925.709	9112
925.816	9047
925.924	9150
926.031	9138
926.138	9104
926.245	9146
926.352	8986
926.459	9146
926.566	9218
926.673	9081
926.779	9009
926.886	8963
926.993	8952
927.099	8811
927.206	8689
927.312	8758
927.419	8830
927.525	8883
927.631	8838
927.737	8724
927.843	8727
927.95	8587
928.056	8640
928.162	8701
928.267	8777
928.373	9275
928.479	8906
928.585	8552
928.69	8686
928.796	8731
928.901	8636
929.007	8537
929.112	8644
929.218	8541
929.323	8488
929.428	8446
929.533	8674
929.638	8473
929.743	8492
929.848	8541
929.953	8533
930.058	8454
930.163	8294
930.267	8279
930.372	8442
930.477	8218
930.581	8446
930.685	8381
930.79	8225
930.894	8320
930.998	8229
931.103	8336
931.207	8058
931.311	7932
931.415	7890
931.519	7746
931.623	7795
