Data from test_V78500241_1855.txt Node
Date: Fri Mar 25 14:46:37 CST 2022
User: usil
Spectrometer: V785-0024
Trigger mode: 0
Integration Time (sec): 4.000000E-1
Scans to average: 1
Nonlinearity correction enabled: false
Boxcar width: 0
Storing dark spectrum: false
XAxis mode: Wavelengths
Number of Pixels in Spectrum: 1024
>>>>>Begin Spectral Data<<<<<
801.071	22128
801.214	22029
801.356	21766
801.499	21644
801.641	21606
801.783	21408
801.926	21606
802.068	21538
802.211	21439
802.353	21237
802.496	21116
802.638	20967
802.78	21066
802.923	20853
803.065	20708
803.208	20697
803.35	20754
803.492	20853
803.635	21017
803.777	20807
803.919	20918
804.061	21127
804.204	20819
804.346	20754
804.488	20788
804.63	20819
804.773	20800
804.915	20880
805.057	20883
805.199	20701
805.341	20845
805.483	20941
805.626	20876
805.768	20727
805.91	20781
806.052	20746
806.194	20678
806.336	20868
806.478	20758
806.62	20590
806.762	20762
806.904	20872
807.046	21184
807.188	21036
807.33	21028
807.472	21093
807.614	20918
807.756	20960
807.898	20804
808.04	20762
808.182	20830
808.324	20834
808.465	20857
808.607	21032
808.749	21047
808.891	21119
809.033	21188
809.174	21173
809.316	21085
809.458	21104
809.6	21058
809.741	21127
809.883	21222
810.025	21226
810.166	21344
810.308	21374
810.45	21218
810.591	21081
810.733	21047
810.875	20895
811.016	20823
811.158	20727
811.299	20887
811.441	20956
811.582	20986
811.724	20880
811.865	20956
812.007	20800
812.148	20910
812.29	20956
812.431	21150
812.573	21233
812.714	21195
812.855	21340
812.997	21416
813.138	21580
813.279	21538
813.421	21397
813.562	21275
813.703	21237
813.845	21047
813.986	20815
814.127	20743
814.268	20465
814.41	20484
814.551	20381
814.692	20541
814.833	20221
814.974	20450
815.115	20419
815.256	20252
815.397	20210
815.539	20305
815.68	20267
815.821	20142
815.962	20134
816.103	20339
816.244	19967
816.385	19932
816.526	19883
816.666	19719
816.807	19597
816.948	19696
817.089	19674
817.23	19632
817.371	19647
817.512	19563
817.653	19655
817.793	19594
817.934	19422
818.075	19655
818.216	19518
818.356	19460
818.497	19377
818.638	19190
818.778	19392
818.919	19320
819.06	19259
819.2	19422
819.341	19457
819.481	19460
819.622	19540
819.762	19799
819.903	19700
820.043	19567
820.184	19624
820.324	19464
820.465	19502
820.605	19552
820.746	19510
820.886	19339
821.026	19548
821.167	19487
821.307	19616
821.447	19476
821.588	19308
821.728	19240
821.868	19118
822.008	18897
822.149	19012
822.289	18882
822.429	18654
822.569	18608
822.709	18582
822.849	18635
822.99	18528
823.13	18395
823.27	18445
823.41	18311
823.55	18159
823.69	18308
823.83	18308
823.97	18205
824.11	18003
824.25	17961
824.389	18125
824.529	18121
824.669	18144
824.809	18209
824.949	18098
825.089	18049
825.228	18003
825.368	17859
825.508	17798
825.648	17923
825.787	17885
825.927	17870
826.067	17756
826.206	17764
826.346	17824
826.485	17882
826.625	17855
826.765	17882
826.904	17802
827.044	17551
827.183	17570
827.323	17608
827.462	17627
827.601	17566
827.741	17516
827.88	17619
828.02	17406
828.159	17376
828.298	17501
828.437	17604
828.577	17421
828.716	17638
828.855	17524
828.994	17258
829.134	17216
829.273	17402
829.412	17189
829.551	17216
829.69	17208
829.829	17315
829.968	17334
830.107	17417
830.246	17181
830.385	17208
830.524	17117
830.663	17136
830.802	17003
830.941	16934
831.08	16949
831.219	16976
831.357	16869
831.496	17048
831.635	16824
831.774	16653
831.913	16771
832.051	16683
832.19	16721
832.329	16664
832.467	16668
832.606	16455
832.744	16599
832.883	16588
833.022	16459
833.16	16611
833.299	16565
833.437	16683
833.576	16725
833.714	16603
833.852	16592
833.991	16630
834.129	16649
834.267	16702
834.406	16637
834.544	16637
834.682	16637
834.821	16664
834.959	16763
835.097	16596
835.235	16672
835.373	16691
835.511	16626
835.65	16542
835.788	16561
835.926	16451
836.064	16329
836.202	16375
836.34	16694
836.478	16759
836.615	16516
836.753	16538
836.891	16626
837.029	16603
837.167	16584
837.305	16561
837.443	16455
837.58	16409
837.718	16485
837.856	16493
837.993	16447
838.131	16371
838.269	16344
838.406	16413
838.544	16306
838.681	16112
838.819	16177
838.956	16063
839.094	16036
839.231	15945
839.369	16162
839.506	16413
839.643	16223
839.781	16013
839.918	15960
840.055	16048
840.193	16013
840.33	15918
840.467	16040
840.604	16101
840.742	16219
840.879	15895
841.016	15937
841.153	15987
841.29	16154
841.427	16010
841.564	16147
841.701	16097
841.838	15907
841.975	15922
842.112	15987
842.249	15751
842.385	15766
842.522	15964
842.659	15778
842.796	15732
842.933	15781
843.069	15701
843.206	15785
843.343	15895
843.479	15816
843.616	15835
843.752	15595
843.889	15504
844.025	15743
844.162	15545
844.298	15762
844.435	15637
844.571	15428
844.708	15633
844.844	15732
844.98	15705
845.117	15720
845.253	15599
845.389	15370
845.525	15519
845.661	15447
845.798	15370
845.934	15500
846.07	15260
846.206	15389
846.342	15492
846.478	15370
846.614	15237
846.75	15085
846.886	15104
847.022	15222
847.158	15180
847.294	15146
847.429	15241
847.565	15207
847.701	15363
847.837	14872
847.972	14937
848.108	15009
848.244	14998
848.379	14826
848.515	14811
848.65	14727
848.786	14777
848.921	14716
849.057	14834
849.192	14830
849.328	14823
849.463	14872
849.598	14651
849.734	14655
849.869	14621
850.004	14625
850.14	14518
850.275	14537
850.41	14434
850.545	14415
850.68	14511
850.815	14499
850.95	14461
851.085	14697
851.22	14556
851.355	14454
851.49	14454
851.625	14309
851.76	14492
851.895	14358
852.03	14415
852.165	14571
852.299	14488
852.434	14602
852.569	14488
852.703	14568
852.838	14621
852.973	14579
853.107	14575
853.242	14427
853.376	14381
853.511	14248
853.645	14309
853.78	14457
853.914	14396
854.048	14290
854.183	14358
854.317	14454
854.451	14526
854.585	14374
854.72	14275
854.854	14484
854.988	14309
855.122	14351
855.256	14164
855.39	14366
855.524	14431
855.658	14465
855.792	14446
855.926	14431
856.06	14389
856.194	14476
856.327	14317
856.461	14248
856.595	14332
856.729	14309
856.862	14450
856.996	14446
857.13	14469
857.263	14545
857.397	14457
857.53	14404
857.664	14446
857.797	14469
857.931	14552
858.064	14408
858.197	14571
858.331	14362
858.464	14374
858.597	14309
858.731	14366
858.864	14355
858.997	14286
859.13	14412
859.263	14488
859.396	14427
859.529	14290
859.662	14366
859.795	14362
859.928	14427
860.061	14629
860.194	14514
860.327	14503
860.46	14400
860.592	14499
860.725	14610
860.858	14473
860.99	14377
861.123	14385
861.256	14374
861.388	14461
861.521	15066
861.653	14225
861.786	14210
861.918	14263
862.05	14309
862.183	14347
862.315	14286
862.447	14320
862.58	14317
862.712	14065
862.844	14069
862.976	14221
863.108	14161
863.24	14495
863.372	14084
863.504	14225
863.636	14119
863.768	14187
863.9	14164
864.032	14039
864.164	14225
864.296	14145
864.428	14248
864.559	14343
864.691	14210
864.823	14374
864.954	14138
865.086	14145
865.217	14172
865.349	14134
865.48	14119
865.612	14183
865.743	14324
865.875	14142
866.006	14149
866.137	14103
866.269	14256
866.4	14168
866.531	14195
866.662	14016
866.793	14126
866.924	14062
867.055	14115
867.186	14134
867.317	14058
867.448	14039
867.579	14081
867.71	14065
867.841	14027
867.972	14180
868.103	14142
868.233	14111
868.364	14077
868.495	14240
868.625	14256
868.756	14446
868.886	14362
869.017	14324
869.147	14476
869.278	14393
869.408	14431
869.539	14355
869.669	14412
869.799	14469
869.929	14564
870.06	14476
870.19	14693
870.32	14632
870.45	14731
870.58	14758
870.71	14895
870.84	14773
870.97	14777
871.1	14724
871.23	15005
871.36	15001
871.489	14963
871.619	14880
871.749	15024
871.879	15173
872.008	15108
872.138	14902
872.267	14956
872.397	14826
872.526	14804
872.656	14838
872.785	14807
872.915	14982
873.044	15176
873.173	15001
873.303	15097
873.432	15077
873.561	15066
873.69	15081
873.819	14967
873.948	15150
874.077	15104
874.206	15028
874.335	15032
874.464	15146
874.593	15348
874.722	15245
874.851	15325
874.979	15370
875.108	15344
875.237	15389
875.365	15207
875.494	15218
875.623	15389
875.751	15321
875.88	15405
876.008	15515
876.136	15572
876.265	15728
876.393	15968
876.521	15812
876.65	15880
876.778	15766
876.906	15648
877.034	15717
877.162	15686
877.29	15675
877.418	15861
877.546	15728
877.674	15675
877.802	15728
877.93	15728
878.058	15667
878.185	15648
878.313	15720
878.441	15778
878.568	15599
878.696	15728
878.824	15701
878.951	15816
879.079	15937
879.206	16071
879.333	16006
879.461	15895
879.588	15808
879.715	15937
879.842	16063
879.97	15869
880.097	15599
880.224	15557
880.351	15698
880.478	15644
880.605	15587
880.732	15572
880.859	15915
880.986	15610
881.112	15500
881.239	15515
881.366	15351
881.493	15386
881.619	15310
881.746	15264
881.872	15279
881.999	15203
882.125	15192
882.252	15302
882.378	15268
882.505	15359
882.631	15154
882.757	15161
882.883	15275
883.01	15116
883.136	15005
883.262	15085
883.388	14864
883.514	15138
883.64	15199
883.766	15077
883.892	14952
884.018	14960
884.143	15093
884.269	15169
884.395	14804
884.52	14743
884.646	14773
884.772	14781
884.897	14682
885.023	14849
885.148	14838
885.274	14960
885.399	14811
885.524	14861
885.65	14781
885.775	14842
885.9	14750
886.025	14906
886.15	14815
886.275	14735
886.4	14792
886.525	14804
886.65	14712
886.775	14678
886.9	14830
887.025	14990
887.149	14678
887.274	14686
887.399	14678
887.523	14571
887.648	14575
887.773	14457
887.897	14686
888.021	14640
888.146	14556
888.27	14739
888.395	14815
888.519	14701
888.643	14670
888.767	14689
888.891	14571
889.015	14488
889.139	14488
889.263	14362
889.387	14465
889.511	14705
889.635	14594
889.759	14476
889.883	14412
890.006	14434
890.13	14514
890.254	14400
890.377	14495
890.501	14355
890.624	14271
890.748	14305
890.871	14328
890.995	14111
891.118	14077
891.241	14153
891.364	14157
891.488	14183
891.611	14161
891.734	14195
891.857	14206
891.98	14191
892.103	14256
892.226	14229
892.349	14168
892.471	13982
892.594	14225
892.717	14168
892.839	14153
892.962	14145
893.085	14229
893.207	14195
893.33	13928
893.452	14092
893.575	14252
893.697	14180
893.819	14332
893.941	14374
894.064	14412
894.186	14172
894.308	14153
894.43	14259
894.552	14450
894.674	14263
894.796	14149
894.918	14191
895.04	14199
895.161	14271
895.283	14328
895.405	14195
895.526	14286
895.648	14187
895.769	14229
895.891	14290
896.012	14454
896.134	14290
896.255	14259
896.376	14240
896.498	14358
896.619	14355
896.74	14317
896.861	14381
896.982	14678
897.103	14910
897.224	14743
897.345	14610
897.466	14526
897.587	14594
897.708	14708
897.828	14526
897.949	14575
898.07	14488
898.19	14571
898.311	14785
898.431	14606
898.552	14682
898.672	14727
898.792	14777
898.913	14754
899.033	14613
899.153	14507
899.273	14465
899.393	14556
899.513	14651
899.633	14530
899.753	14655
899.873	14575
899.993	14590
900.113	14587
900.232	14632
900.352	14488
900.472	14415
900.591	14484
900.711	14454
900.83	14362
900.95	14568
901.069	14514
901.189	14351
901.308	14172
901.427	14092
901.546	14050
901.665	14058
901.784	14111
901.904	14005
902.023	13947
902.141	13772
902.26	13613
902.379	13715
902.498	13651
902.617	13620
902.735	13727
902.854	13689
902.973	13616
903.091	13407
903.21	13274
903.328	13331
903.446	13312
903.565	13232
903.683	13297
903.801	13160
903.919	13232
904.038	13152
904.156	13061
904.274	13145
904.392	12909
904.51	12939
904.627	12966
904.745	13053
904.863	13080
904.981	12886
905.098	12711
905.216	12738
905.334	12802
905.451	12646
905.569	12662
905.686	12821
905.803	12753
905.921	12471
906.038	12631
906.155	12574
906.272	12388
906.389	12521
906.506	12323
906.623	12239
906.74	12319
906.857	12197
906.974	12159
907.091	12376
907.208	12509
907.324	12346
907.441	12224
907.557	12098
907.674	12053
907.79	12076
907.907	12041
908.023	12091
908.139	12098
908.256	12019
908.372	11901
908.488	11942
908.604	11764
908.72	11828
908.836	11813
908.952	11722
909.068	11874
909.184	11969
909.3	11859
909.415	11729
909.531	11836
909.647	11600
909.762	11623
909.878	11554
909.993	11604
910.108	11573
910.224	11543
910.339	11573
910.454	11455
910.57	11452
910.685	11383
910.8	11676
910.915	11581
911.03	11520
911.145	11341
911.259	11280
911.374	11250
911.489	11212
911.604	11220
911.718	11086
911.833	11029
911.947	11022
912.062	10850
912.176	11022
912.291	10980
912.405	11006
912.519	11201
912.633	11307
912.748	11166
912.862	11090
912.976	10866
913.09	10908
913.204	10824
913.318	10923
913.431	10995
913.545	11048
913.659	11056
913.772	10915
913.886	10850
914	10702
914.113	10896
914.226	10934
914.34	10873
914.453	10736
914.566	10854
914.68	10725
914.793	10634
914.906	10550
915.019	10550
915.132	10508
915.245	10531
915.358	10550
915.47	10611
915.583	10546
915.696	10607
915.809	10702
915.921	10717
916.034	10558
916.146	10474
916.259	10466
916.371	10637
916.483	10527
916.595	10436
916.708	10413
916.82	10413
916.932	10432
917.044	10497
917.156	10379
917.268	10402
917.38	10375
917.491	10375
917.603	10379
917.715	10421
917.826	10443
917.938	10379
918.049	10261
918.161	10333
918.272	10504
918.384	10485
918.495	10394
918.606	10268
918.717	10223
918.828	10246
918.939	10360
919.05	10173
919.161	10211
919.272	10021
919.383	10162
919.494	10341
919.604	10478
919.715	10272
919.826	10143
919.936	10204
920.047	10329
920.157	10325
920.267	10459
920.378	10280
920.488	10284
920.598	10394
920.708	10618
920.818	10432
920.928	10474
921.038	10592
921.148	10500
921.258	10306
921.368	10227
921.477	10105
921.587	10074
921.697	10013
921.806	10029
921.916	9987
922.025	9876
922.134	9869
922.244	9732
922.353	9835
922.462	9648
922.571	9675
922.68	9545
922.789	9469
922.898	9526
923.007	9363
923.116	9526
923.224	9523
923.333	9507
923.442	9443
923.55	9412
923.659	9424
923.767	9511
923.876	9393
923.984	9519
924.092	9370
924.201	9397
924.309	9367
924.417	9340
924.525	9283
924.633	9268
924.741	10261
924.849	9104
924.956	9329
925.064	9188
925.172	9077
925.279	9032
925.387	9176
925.494	9237
925.602	9367
925.709	9268
925.816	9081
925.924	9180
926.031	9233
926.138	9135
926.245	9222
926.352	9104
926.459	9233
926.566	9279
926.673	9150
926.779	9036
926.886	9047
926.993	8952
927.099	8853
927.206	8788
927.312	8845
927.419	8979
927.525	8925
927.631	8933
927.737	8830
927.843	8811
927.95	8625
928.056	8800
928.162	8815
928.267	8796
928.373	9351
928.479	8929
928.585	8667
928.69	8766
928.796	8815
928.901	8655
929.007	8530
929.112	8716
929.218	8617
929.323	8659
929.428	8610
929.533	8712
929.638	8575
929.743	8537
929.848	8533
929.953	8579
930.058	8518
930.163	8282
930.267	8377
930.372	8571
930.477	8370
930.581	8613
930.685	8404
930.79	8275
930.894	8343
930.998	8256
931.103	8381
931.207	8111
931.311	8077
931.415	8001
931.519	7799
931.623	7795
