Data from test_V78500241_2308.txt Node
Date: Fri Mar 25 14:49:46 CST 2022
User: usil
Spectrometer: V785-0024
Trigger mode: 0
Integration Time (sec): 4.000000E-1
Scans to average: 1
Nonlinearity correction enabled: false
Boxcar width: 0
Storing dark spectrum: false
XAxis mode: Wavelengths
Number of Pixels in Spectrum: 1024
>>>>>Begin Spectral Data<<<<<
801.071	22337
801.214	22093
801.356	21854
801.499	21778
801.641	21572
801.783	21629
801.926	21557
802.068	21469
802.211	21469
802.353	21279
802.496	21245
802.638	21074
802.78	21024
802.923	21020
803.065	20830
803.208	20815
803.35	20887
803.492	21013
803.635	20906
803.777	20944
803.919	20967
804.061	21100
804.204	20876
804.346	20708
804.488	20807
804.63	20941
804.773	20788
804.915	20750
805.057	20921
805.199	20739
805.341	20857
805.483	21001
805.626	20872
805.768	20807
805.91	20830
806.052	20902
806.194	20663
806.336	20979
806.478	20834
806.62	20826
806.762	20800
806.904	21043
807.046	21260
807.188	21089
807.33	21150
807.472	21256
807.614	21169
807.756	20998
807.898	20971
808.04	20830
808.182	20979
808.324	20899
808.465	20963
808.607	21150
808.749	21237
808.891	21336
809.033	21386
809.174	21329
809.316	21154
809.458	21268
809.6	21188
809.741	21260
809.883	21252
810.025	21485
810.166	21485
810.308	21469
810.45	21313
810.591	21233
810.733	21108
810.875	20914
811.016	20937
811.158	20906
811.299	21009
811.441	21093
811.582	21207
811.724	21047
811.865	21005
812.007	21055
812.148	21081
812.29	21123
812.431	21093
812.573	21355
812.714	21412
812.855	21538
812.997	21530
813.138	21652
813.279	21519
813.421	21477
813.562	21336
813.703	21180
813.845	21199
813.986	20773
814.127	20701
814.268	20651
814.41	20629
814.551	20522
814.692	20606
814.833	20267
814.974	20480
815.115	20530
815.256	20343
815.397	20275
815.539	20415
815.68	20324
815.821	20256
815.962	20191
816.103	20225
816.244	20176
816.385	20050
816.526	20065
816.666	19909
816.807	19670
816.948	19639
817.089	19811
817.23	19578
817.371	19715
817.512	19548
817.653	19624
817.793	19518
817.934	19575
818.075	19674
818.216	19643
818.356	19670
818.497	19445
818.638	19304
818.778	19422
818.919	19407
819.06	19441
819.2	19529
819.341	19556
819.481	19601
819.622	19666
819.762	19864
819.903	19833
820.043	19685
820.184	19639
820.324	19624
820.465	19700
820.605	19575
820.746	19544
820.886	19377
821.026	19556
821.167	19552
821.307	19693
821.447	19613
821.588	19540
821.728	19403
821.868	19259
822.008	19061
822.149	19038
822.289	18993
822.429	18776
822.569	18726
822.709	18734
822.849	18532
822.99	18544
823.13	18509
823.27	18475
823.41	18388
823.55	18224
823.69	18304
823.83	18296
823.97	18258
824.11	18102
824.25	18045
824.389	18152
824.529	18110
824.669	18194
824.809	18228
824.949	18140
825.089	18171
825.228	18091
825.368	17958
825.508	17904
825.648	17920
825.787	17889
825.927	17882
826.067	17847
826.206	17878
826.346	17969
826.485	17931
826.625	17870
826.765	17969
826.904	17866
827.044	17585
827.183	17600
827.323	17551
827.462	17611
827.601	17490
827.741	17589
827.88	17562
828.02	17436
828.159	17592
828.298	17589
828.437	17592
828.577	17463
828.716	17646
828.855	17577
828.994	17341
829.134	17315
829.273	17288
829.412	17261
829.551	17239
829.69	17334
829.829	17398
829.968	17345
830.107	17345
830.246	17330
830.385	17220
830.524	17223
830.663	17147
830.802	17083
830.941	16953
831.08	16850
831.219	17029
831.357	16999
831.496	17086
831.635	16904
831.774	16881
831.913	16850
832.051	16622
832.19	16675
832.329	16729
832.467	16607
832.606	16508
832.744	16733
832.883	16546
833.022	16512
833.16	16596
833.299	16656
833.437	16672
833.576	16622
833.714	16607
833.852	16645
833.991	16668
834.129	16748
834.267	16664
834.406	16607
834.544	16710
834.682	16584
834.821	16561
834.959	16774
835.097	16580
835.235	16611
835.373	16729
835.511	16660
835.65	16527
835.788	16558
835.926	16523
836.064	16356
836.202	16344
836.34	16577
836.478	16554
836.615	16516
836.753	16611
836.891	16592
837.029	16630
837.167	16516
837.305	16409
837.443	16409
837.58	16341
837.718	16413
837.856	16341
837.993	16303
838.131	16352
838.269	16348
838.406	16402
838.544	16280
838.681	16097
838.819	16101
838.956	15991
839.094	15941
839.231	16010
839.369	15998
839.506	16306
839.643	16166
839.781	16032
839.918	15865
840.055	15934
840.193	15972
840.33	15983
840.467	15857
840.604	15953
840.742	16044
840.879	15739
841.016	15827
841.153	15888
841.29	16143
841.427	15953
841.564	15998
841.701	15994
841.838	15823
841.975	15899
842.112	15941
842.249	15709
842.385	15679
842.522	15895
842.659	15724
842.796	15709
842.933	15709
843.069	15717
843.206	15660
843.343	15903
843.479	15781
843.616	15629
843.752	15587
843.889	15538
844.025	15648
844.162	15542
844.298	15568
844.435	15443
844.571	15526
844.708	15496
844.844	15709
844.98	15580
845.117	15648
845.253	15481
845.389	15393
845.525	15450
845.661	15405
845.798	15291
845.934	15264
846.07	15283
846.206	15389
846.342	15500
846.478	15313
846.614	15108
846.75	15039
846.886	14914
847.022	15207
847.158	15093
847.294	15119
847.429	15154
847.565	15081
847.701	15252
847.837	14773
847.972	14796
848.108	14910
848.244	14937
848.379	14701
848.515	14682
848.65	14655
848.786	14693
848.921	14678
849.057	14758
849.192	14781
849.328	14735
849.463	14648
849.598	14556
849.734	14632
849.869	14507
850.004	14419
850.14	14465
850.275	14423
850.41	14366
850.545	14419
850.68	14423
850.815	14434
850.95	14332
851.085	14708
851.22	14522
851.355	14396
851.49	14282
851.625	14389
851.76	14412
851.895	14347
852.03	14358
852.165	14442
852.299	14400
852.434	14488
852.569	14469
852.703	14377
852.838	14446
852.973	14514
853.107	14590
853.242	14301
853.376	14362
853.511	14183
853.645	14275
853.78	14408
853.914	14317
854.048	14248
854.183	14286
854.317	14229
854.451	14457
854.585	14324
854.72	14377
854.854	14423
854.988	14218
855.122	14339
855.256	14157
855.39	14271
855.524	14313
855.658	14313
855.792	14301
855.926	14294
856.06	14404
856.194	14423
856.327	14317
856.461	14282
856.595	14370
856.729	14195
856.862	14419
856.996	14408
857.13	14423
857.263	14404
857.397	14324
857.53	14298
857.664	14450
857.797	14366
857.931	14389
858.064	14412
858.197	14408
858.331	14343
858.464	14229
858.597	14130
858.731	14328
858.864	14298
858.997	14225
859.13	14286
859.263	14328
859.396	14385
859.529	14290
859.662	14267
859.795	14313
859.928	14328
860.061	14480
860.194	14499
860.327	14210
860.46	14275
860.592	14431
860.725	14400
860.858	14442
860.99	14362
861.123	14244
861.256	14164
861.388	14294
861.521	14883
861.653	14218
861.786	14134
861.918	14183
862.05	14206
862.183	14275
862.315	14347
862.447	14381
862.58	14286
862.712	14096
862.844	13959
862.976	14168
863.108	14142
863.24	14549
863.372	14035
863.504	14058
863.636	14039
863.768	14096
863.9	14092
864.032	14016
864.164	14081
864.296	13989
864.428	14206
864.559	14168
864.691	14180
864.823	14145
864.954	14123
865.086	14206
865.217	14065
865.349	14016
865.48	14005
865.612	14065
865.743	14225
865.875	14012
866.006	14088
866.137	14005
866.269	14065
866.4	14031
866.531	14123
866.662	13951
866.793	14084
866.924	14050
867.055	14046
867.186	13974
867.317	14008
867.448	13955
867.579	14065
867.71	14103
867.841	13921
867.972	14062
868.103	14069
868.233	14020
868.364	14123
868.495	14088
868.625	14244
868.756	14427
868.886	14115
869.017	14233
869.147	14438
869.278	14465
869.408	14290
869.539	14271
869.669	14442
869.799	14362
869.929	14446
870.06	14385
870.19	14636
870.32	14571
870.45	14598
870.58	14651
870.71	14758
870.84	14838
870.97	14754
871.1	14720
871.23	14845
871.36	14880
871.489	14796
871.619	14838
871.749	14914
871.879	14929
872.008	14975
872.138	14921
872.267	14883
872.397	14735
872.526	14804
872.656	14629
872.785	14720
872.915	14925
873.044	15009
873.173	14960
873.303	15047
873.432	15020
873.561	15074
873.69	15017
873.819	14921
873.948	15005
874.077	15013
874.206	14834
874.335	14944
874.464	15089
874.593	15306
874.722	15245
874.851	15302
874.979	15405
875.108	15317
875.237	15214
875.365	15180
875.494	15370
875.623	15386
875.751	15283
875.88	15287
876.008	15408
876.136	15405
876.265	15587
876.393	15797
876.521	15755
876.65	15743
876.778	15728
876.906	15500
877.034	15606
877.162	15629
877.29	15720
877.418	15644
877.546	15720
877.674	15660
877.802	15648
877.93	15675
878.058	15656
878.185	15603
878.313	15618
878.441	15770
878.568	15428
878.696	15545
878.824	15690
878.951	15736
879.079	15842
879.206	15998
879.333	15778
879.461	15705
879.588	15751
879.715	15865
879.842	15762
879.97	15759
880.097	15523
880.224	15557
880.351	15538
880.478	15492
880.605	15458
880.732	15523
880.859	15747
880.986	15545
881.112	15572
881.239	15485
881.366	15351
881.493	15302
881.619	15169
881.746	15146
881.872	15127
881.999	15100
882.125	15100
882.252	15237
882.378	15154
882.505	15382
882.631	15138
882.757	15070
882.883	15051
883.01	14937
883.136	14906
883.262	14971
883.388	14845
883.514	14990
883.64	15001
883.766	15024
883.892	14750
884.018	14750
884.143	15051
884.269	15055
884.395	14758
884.52	14682
884.646	14739
884.772	14648
884.897	14598
885.023	14701
885.148	14811
885.274	14849
885.399	14750
885.524	14781
885.65	14739
885.775	14705
885.9	14712
886.025	14819
886.15	14811
886.275	14655
886.4	14579
886.525	14629
886.65	14571
886.775	14648
886.9	14849
887.025	14853
887.149	14674
887.274	14454
887.399	14438
887.523	14507
887.648	14495
887.773	14469
887.897	14568
888.021	14621
888.146	14503
888.27	14583
888.395	14686
888.519	14549
888.643	14499
888.767	14530
888.891	14488
889.015	14366
889.139	14415
889.263	14442
889.387	14446
889.511	14602
889.635	14503
889.759	14320
889.883	14324
890.006	14438
890.13	14537
890.254	14305
890.377	14339
890.501	14164
890.624	14084
890.748	14271
890.871	14145
890.995	14020
891.118	14012
891.241	14088
891.364	14119
891.488	14157
891.611	14069
891.734	14088
891.857	14149
891.98	14039
892.103	14180
892.226	14161
892.349	14005
892.471	13951
892.594	14046
892.717	14134
892.839	14065
892.962	14096
893.085	14130
893.207	14119
893.33	13986
893.452	14031
893.575	14142
893.697	14115
893.819	14263
893.941	14358
894.064	14225
894.186	14027
894.308	14027
894.43	14210
894.552	14252
894.674	14180
894.796	14077
894.918	14024
895.04	14149
895.161	14248
895.283	14256
895.405	14176
895.526	14195
895.648	14240
895.769	14259
895.891	14237
896.012	14317
896.134	14309
896.255	14237
896.376	14172
896.498	14225
896.619	14237
896.74	14355
896.861	14271
896.982	14621
897.103	14796
897.224	14503
897.345	14446
897.466	14408
897.587	14545
897.708	14621
897.828	14545
897.949	14526
898.07	14415
898.19	14549
898.311	14750
898.431	14530
898.552	14617
898.672	14579
898.792	14613
898.913	14648
899.033	14644
899.153	14412
899.273	14305
899.393	14400
899.513	14541
899.633	14492
899.753	14488
899.873	14404
899.993	14499
900.113	14438
900.232	14530
900.352	14549
900.472	14419
900.591	14248
900.711	14366
900.83	14248
900.95	14469
901.069	14446
901.189	14252
901.308	14088
901.427	14008
901.546	14054
901.665	14058
901.784	14031
901.904	13970
902.023	13822
902.141	13666
902.26	13586
902.379	13613
902.498	13540
902.617	13533
902.735	13601
902.854	13655
902.973	13533
903.091	13282
903.21	13274
903.328	13324
903.446	13247
903.565	13164
903.683	13145
903.801	13012
903.919	13225
904.038	13091
904.156	13023
904.274	13023
904.392	12981
904.51	12935
904.627	12966
904.745	12958
904.863	12993
904.981	12741
905.098	12665
905.216	12692
905.334	12654
905.451	12627
905.569	12760
905.686	12719
905.803	12783
905.921	12452
906.038	12673
906.155	12380
906.272	12319
906.389	12361
906.506	12289
906.623	12308
906.74	12224
906.857	12148
906.974	12121
907.091	12304
907.208	12289
907.324	12205
907.441	12114
907.557	12045
907.674	11980
907.79	11927
907.907	11965
908.023	12034
908.139	12011
908.256	11904
908.372	11942
908.488	11958
908.604	11741
908.72	11627
908.836	11684
908.952	11722
909.068	11722
909.184	11813
909.3	11745
909.415	11764
909.531	11786
909.647	11516
909.762	11482
909.878	11467
909.993	11596
910.108	11524
910.224	11463
910.339	11615
910.454	11414
910.57	11429
910.685	11254
910.8	11646
910.915	11551
911.03	11433
911.145	11299
911.259	11246
911.374	11326
911.489	11132
911.604	11071
911.718	10995
911.833	11098
911.947	10869
912.062	10809
912.176	10953
912.291	10976
912.405	10961
912.519	11155
912.633	11242
912.748	11041
912.862	10904
912.976	10885
913.09	10805
913.204	10801
913.318	10889
913.431	11022
913.545	10976
913.659	11022
913.772	10816
913.886	10786
914	10740
914.113	10877
914.226	10866
914.34	10786
914.453	10687
914.566	10809
914.68	10584
914.793	10714
914.906	10451
915.019	10527
915.132	10447
915.245	10478
915.358	10459
915.47	10489
915.583	10519
915.696	10531
915.809	10656
915.921	10675
916.034	10451
916.146	10493
916.259	10379
916.371	10565
916.483	10535
916.595	10386
916.708	10398
916.82	10367
916.932	10363
917.044	10474
917.156	10417
917.268	10333
917.38	10284
917.491	10265
917.603	10337
917.715	10379
917.826	10421
917.938	10291
918.049	10238
918.161	10329
918.272	10405
918.384	10443
918.495	10363
918.606	10204
918.717	10109
918.828	10246
918.939	10272
919.05	10086
919.161	10249
919.272	9945
919.383	9998
919.494	10257
919.604	10413
919.715	10261
919.826	10215
919.936	10162
920.047	10306
920.157	10249
920.267	10379
920.378	10284
920.488	10128
920.598	10493
920.708	10538
920.818	10417
920.928	10371
921.038	10497
921.148	10554
921.258	10303
921.368	10223
921.477	10169
921.587	10040
921.697	9968
921.806	10131
921.916	9941
922.025	9747
922.134	9797
922.244	9671
922.353	9770
922.462	9713
922.571	9625
922.68	9492
922.789	9462
922.898	9458
923.007	9458
923.116	9542
923.224	9401
923.333	9370
923.442	9363
923.55	9370
923.659	9374
923.767	9397
923.876	9336
923.984	9344
924.092	9268
924.201	9317
924.309	9313
924.417	9359
924.525	9249
924.633	9306
924.741	10173
924.849	9070
924.956	9253
925.064	9108
925.172	9093
925.279	9036
925.387	9165
925.494	9138
925.602	9230
925.709	9199
925.816	9032
925.924	9077
926.031	9176
926.138	9093
926.245	9199
926.352	9055
926.459	9173
926.566	9150
926.673	9032
926.779	8963
926.886	8990
926.993	8876
927.099	8845
927.206	8845
927.312	8781
927.419	8845
927.525	8834
927.631	8963
927.737	8796
927.843	8686
927.95	8579
928.056	8674
928.162	8735
928.267	8830
928.373	9405
928.479	8819
928.585	8594
928.69	8746
928.796	8766
928.901	8678
929.007	8594
929.112	8705
929.218	8610
929.323	8579
929.428	8522
929.533	8632
929.638	8552
929.743	8575
929.848	8590
929.953	8518
930.058	8473
930.163	8396
930.267	8358
930.372	8454
930.477	8279
930.581	8621
930.685	8396
930.79	8225
930.894	8305
930.998	8256
931.103	8461
931.207	8088
931.311	7970
931.415	7944
931.519	7715
931.623	7780
