Data from test_V78500241_2530.txt Node
Date: Fri Mar 25 14:51:19 CST 2022
User: usil
Spectrometer: V785-0024
Trigger mode: 0
Integration Time (sec): 4.000000E-1
Scans to average: 1
Nonlinearity correction enabled: false
Boxcar width: 0
Storing dark spectrum: false
XAxis mode: Wavelengths
Number of Pixels in Spectrum: 1024
>>>>>Begin Spectral Data<<<<<
801.071	21975
801.214	21972
801.356	21709
801.499	21614
801.641	21511
801.783	21534
801.926	21511
802.068	21351
802.211	21237
802.353	21233
802.496	20956
802.638	20880
802.78	20845
802.923	20765
803.065	20712
803.208	20773
803.35	20727
803.492	20819
803.635	20982
803.777	20663
803.919	20773
804.061	21116
804.204	20861
804.346	20659
804.488	20636
804.63	20872
804.773	20590
804.915	20590
805.057	20773
805.199	20739
805.341	20746
805.483	20693
805.626	20868
805.768	20629
805.91	20792
806.052	20640
806.194	20670
806.336	20781
806.478	20579
806.62	20575
806.762	20743
806.904	20880
807.046	21017
807.188	21077
807.33	20902
807.472	21074
807.614	20868
807.756	20864
807.898	20735
808.04	20667
808.182	20716
808.324	20815
808.465	20659
808.607	20956
808.749	20929
808.891	21241
809.033	21192
809.174	21058
809.316	20986
809.458	20982
809.6	21119
809.741	21051
809.883	21055
810.025	21157
810.166	21173
810.308	21169
810.45	21104
810.591	21051
810.733	20929
810.875	20861
811.016	20762
811.158	20617
811.299	20785
811.441	20925
811.582	20880
811.724	20693
811.865	20727
812.007	20800
812.148	20765
812.29	20777
812.431	21024
812.573	21051
812.714	21237
812.855	21272
812.997	21367
813.138	21572
813.279	21458
813.421	21249
813.562	21093
813.703	21062
813.845	20925
813.986	20659
814.127	20549
814.268	20438
814.41	20225
814.551	20358
814.692	20480
814.833	20343
814.974	20233
815.115	20358
815.256	20210
815.397	20206
815.539	20187
815.68	20138
815.821	19967
815.962	20096
816.103	20008
816.244	19940
816.385	19818
816.526	19784
816.666	19609
816.807	19422
816.948	19533
817.089	19677
817.23	19518
817.371	19537
817.512	19529
817.653	19499
817.793	19373
817.934	19381
818.075	19464
818.216	19521
818.356	19438
818.497	19301
818.638	19107
818.778	19065
818.919	19194
819.06	19145
819.2	19304
819.341	19365
819.481	19339
819.622	19544
819.762	19556
819.903	19662
820.043	19540
820.184	19403
820.324	19441
820.465	19468
820.605	19537
820.746	19339
820.886	19320
821.026	19396
821.167	19483
821.307	19460
821.447	19422
821.588	19358
821.728	19209
821.868	19031
822.008	18890
822.149	18871
822.289	18848
822.429	18509
822.569	18547
822.709	18570
822.849	18433
822.99	18388
823.13	18277
823.27	18315
823.41	18197
823.55	18053
823.69	18106
823.83	18171
823.97	18110
824.11	18011
824.25	17885
824.389	17908
824.529	18083
824.669	17950
824.809	18072
824.949	18026
825.089	17992
825.228	17973
825.368	17786
825.508	17741
825.648	17707
825.787	17737
825.927	17809
826.067	17589
826.206	17642
826.346	17756
826.485	17726
826.625	17699
826.765	17767
826.904	17775
827.044	17417
827.183	17417
827.323	17417
827.462	17455
827.601	17444
827.741	17368
827.88	17452
828.02	17406
828.159	17349
828.298	17467
828.437	17482
828.577	17433
828.716	17577
828.855	17376
828.994	17212
829.134	17200
829.273	17227
829.412	17151
829.551	17079
829.69	17113
829.829	17193
829.968	17250
830.107	17181
830.246	17235
830.385	17113
830.524	17006
830.663	17003
830.802	16881
830.941	16812
831.08	16759
831.219	16972
831.357	16721
831.496	17018
831.635	16793
831.774	16675
831.913	16740
832.051	16432
832.19	16637
832.329	16626
832.467	16500
832.606	16363
832.744	16565
832.883	16500
833.022	16363
833.16	16440
833.299	16546
833.437	16413
833.576	16398
833.714	16497
833.852	16470
833.991	16535
834.129	16603
834.267	16500
834.406	16523
834.544	16455
834.682	16455
834.821	16424
834.959	16786
835.097	16478
835.235	16588
835.373	16504
835.511	16500
835.65	16424
835.788	16421
835.926	16295
836.064	16257
836.202	16280
836.34	16451
836.478	16641
836.615	16421
836.753	16546
836.891	16451
837.029	16481
837.167	16299
837.305	16341
837.443	16344
837.58	16272
837.718	16481
837.856	16246
837.993	16219
838.131	16310
838.269	16238
838.406	16261
838.544	16223
838.681	15979
838.819	16063
838.956	15823
839.094	15873
839.231	15903
839.369	16029
839.506	16341
839.643	16055
839.781	15888
839.918	15838
840.055	15888
840.193	15873
840.33	15755
840.467	15873
840.604	15956
840.742	16044
840.879	15648
841.016	15827
841.153	15717
841.29	16006
841.427	15903
841.564	15812
841.701	15869
841.838	15778
841.975	15812
842.112	15854
842.249	15519
842.385	15652
842.522	15812
842.659	15679
842.796	15603
842.933	15564
843.069	15629
843.206	15694
843.343	15675
843.479	15671
843.616	15686
843.752	15477
843.889	15401
844.025	15656
844.162	15401
844.298	15564
844.435	15370
844.571	15351
844.708	15462
844.844	15603
844.98	15576
845.117	15534
845.253	15329
845.389	15313
845.525	15348
845.661	15310
845.798	15157
845.934	15272
846.07	15135
846.206	15336
846.342	15325
846.478	15180
846.614	15032
846.75	14960
846.886	14963
847.022	15089
847.158	15085
847.294	15024
847.429	15047
847.565	14941
847.701	15249
847.837	14686
847.972	14636
848.108	14735
848.244	14819
848.379	14693
848.515	14644
848.65	14560
848.786	14530
848.921	14629
849.057	14651
849.192	14651
849.328	14590
849.463	14613
849.598	14579
849.734	14503
849.869	14507
850.004	14473
850.14	14400
850.275	14465
850.41	14336
850.545	14305
850.68	14396
850.815	14301
850.95	14336
851.085	14438
851.22	14511
851.355	14385
851.49	14328
851.625	14385
851.76	14317
851.895	14332
852.03	14214
852.165	14427
852.299	14313
852.434	14461
852.569	14347
852.703	14381
852.838	14511
852.973	14503
853.107	14575
853.242	14377
853.376	14271
853.511	14161
853.645	14206
853.78	14355
853.914	14195
854.048	14221
854.183	14244
854.317	14290
854.451	14503
854.585	14225
854.72	14225
854.854	14263
854.988	14142
855.122	14157
855.256	14084
855.39	14202
855.524	14351
855.658	14267
855.792	14275
855.926	14199
856.06	14275
856.194	14301
856.327	14229
856.461	14271
856.595	14054
856.729	14248
856.862	14332
856.996	14206
857.13	14248
857.263	14336
857.397	14275
857.53	14275
857.664	14317
857.797	14408
857.931	14442
858.064	14286
858.197	14408
858.331	14199
858.464	14218
858.597	14092
858.731	14187
858.864	14286
858.997	14176
859.13	14172
859.263	14244
859.396	14320
859.529	14233
859.662	14199
859.795	14199
859.928	14278
860.061	14434
860.194	14457
860.327	14214
860.46	14248
860.592	14317
860.725	14328
860.858	14313
860.99	14142
861.123	14111
861.256	14168
861.388	14221
861.521	14804
861.653	13967
861.786	14111
861.918	14145
862.05	14176
862.183	14199
862.315	14263
862.447	14282
862.58	14103
862.712	13997
862.844	14043
862.976	14035
863.108	14043
863.24	14298
863.372	14027
863.504	14008
863.636	13993
863.768	14145
863.9	14005
864.032	13917
864.164	14107
864.296	14069
864.428	14092
864.559	14111
864.691	14035
864.823	14031
864.954	14073
865.086	14043
865.217	14039
865.349	13925
865.48	14043
865.612	14020
865.743	14263
865.875	14016
866.006	13944
866.137	13989
866.269	13940
866.4	13898
866.531	13879
866.662	13902
866.793	13982
866.924	14005
867.055	14084
867.186	13997
867.317	13978
867.448	13898
867.579	13955
867.71	13852
867.841	13894
867.972	14024
868.103	13940
868.233	13963
868.364	13940
868.495	14100
868.625	14240
868.756	14374
868.886	14020
869.017	14256
869.147	14438
869.278	14275
869.408	14377
869.539	14298
869.669	14374
869.799	14313
869.929	14343
870.06	14336
870.19	14552
870.32	14450
870.45	14549
870.58	14731
870.71	14689
870.84	14796
870.97	14598
871.1	14625
871.23	14811
871.36	14765
871.489	14689
871.619	14796
871.749	14857
871.879	14861
872.008	14914
872.138	14891
872.267	14792
872.397	14659
872.526	14686
872.656	14655
872.785	14762
872.915	14975
873.044	14918
873.173	14914
873.303	14921
873.432	14944
873.561	15066
873.69	14956
873.819	14834
873.948	14998
874.077	14990
874.206	14925
874.335	14952
874.464	14944
874.593	15252
874.722	15104
874.851	15207
874.979	15264
875.108	15256
875.237	15135
875.365	15184
875.494	15123
875.623	15310
875.751	15058
875.88	15226
876.008	15283
876.136	15458
876.265	15663
876.393	15759
876.521	15682
876.65	15663
876.778	15641
876.906	15686
877.034	15629
877.162	15572
877.29	15656
877.418	15644
877.546	15603
877.674	15652
877.802	15595
877.93	15572
878.058	15530
878.185	15564
878.313	15622
878.441	15648
878.568	15500
878.696	15576
878.824	15610
878.951	15736
879.079	15770
879.206	15960
879.333	15778
879.461	15743
879.588	15739
879.715	15835
879.842	15911
879.97	15709
880.097	15492
880.224	15454
880.351	15507
880.478	15492
880.605	15488
880.732	15538
880.859	15682
880.986	15473
881.112	15553
881.239	15481
881.366	15306
881.493	15180
881.619	15093
881.746	15138
881.872	15085
881.999	15051
882.125	15066
882.252	15169
882.378	15112
882.505	15367
882.631	15066
882.757	14967
882.883	15028
883.01	14998
883.136	14880
883.262	14815
883.388	14754
883.514	14967
883.64	15043
883.766	14929
883.892	14746
884.018	14781
884.143	14979
884.269	15074
884.395	14670
884.52	14606
884.646	14594
884.772	14568
884.897	14575
885.023	14636
885.148	14800
885.274	14872
885.399	14819
885.524	14598
885.65	14644
885.775	14731
885.9	14682
886.025	14819
886.15	14746
886.275	14693
886.4	14579
886.525	14625
886.65	14495
886.775	14598
886.9	14792
887.025	14933
887.149	14632
887.274	14503
887.399	14469
887.523	14473
887.648	14412
887.773	14423
887.897	14613
888.021	14613
888.146	14454
888.27	14564
888.395	14590
888.519	14537
888.643	14511
888.767	14522
888.891	14438
889.015	14320
889.139	14389
889.263	14427
889.387	14469
889.511	14499
889.635	14537
889.759	14252
889.883	14286
890.006	14358
890.13	14514
890.254	14256
890.377	14206
890.501	14202
890.624	14199
890.748	14237
890.871	14092
890.995	14092
891.118	14012
891.241	14058
891.364	14016
891.488	14233
891.611	14081
891.734	14024
891.857	14123
891.98	14024
892.103	14149
892.226	14077
892.349	14065
892.471	13845
892.594	14069
892.717	14058
892.839	14046
892.962	14115
893.085	14157
893.207	13970
893.33	13860
893.452	13955
893.575	14157
893.697	14107
893.819	14237
893.941	14286
894.064	14168
894.186	14043
894.308	14069
894.43	14172
894.552	14343
894.674	14290
894.796	14016
894.918	14077
895.04	14111
895.161	14248
895.283	14161
895.405	14054
895.526	14145
895.648	14107
895.769	14187
895.891	14282
896.012	14294
896.134	14225
896.255	14176
896.376	14199
896.498	14214
896.619	14377
896.74	14183
896.861	14275
896.982	14518
897.103	14629
897.224	14549
897.345	14560
897.466	14427
897.587	14492
897.708	14564
897.828	14613
897.949	14412
898.07	14381
898.19	14549
898.311	14727
898.431	14541
898.552	14598
898.672	14670
898.792	14598
898.913	14545
899.033	14469
899.153	14533
899.273	14332
899.393	14412
899.513	14488
899.633	14499
899.753	14450
899.873	14389
899.993	14526
900.113	14442
900.232	14492
900.352	14358
900.472	14336
900.591	14248
900.711	14309
900.83	14233
900.95	14423
901.069	14442
901.189	14286
901.308	14069
901.427	13898
901.546	14001
901.665	13951
901.784	13989
901.904	13780
902.023	13811
902.141	13616
902.26	13567
902.379	13639
902.498	13521
902.617	13480
902.735	13537
902.854	13567
902.973	13464
903.091	13247
903.21	13343
903.328	13259
903.446	13137
903.565	13149
903.683	13099
903.801	13072
903.919	13152
904.038	13107
904.156	12962
904.274	12886
904.392	12894
904.51	12894
904.627	12878
904.745	12951
904.863	12954
904.981	12783
905.098	12692
905.216	12654
905.334	12703
905.451	12589
905.569	12589
905.686	12627
905.803	12646
905.921	12544
906.038	12570
906.155	12445
906.272	12361
906.389	12323
906.506	12273
906.623	12251
906.74	12152
906.857	12133
906.974	12186
907.091	12258
907.208	12403
907.324	12213
907.441	12175
907.557	12019
907.674	11958
907.79	11912
907.907	11920
908.023	11977
908.139	12045
908.256	11927
908.372	11851
908.488	11832
908.604	11794
908.72	11570
908.836	11676
908.952	11691
909.068	11790
909.184	11847
909.3	11661
909.415	11798
909.531	11733
909.647	11490
909.762	11490
909.878	11490
909.993	11474
910.108	11474
910.224	11414
910.339	11459
910.454	11440
910.57	11250
910.685	11322
910.8	11573
910.915	11501
911.03	11360
911.145	11208
911.259	11235
911.374	11273
911.489	11117
911.604	11109
911.718	11022
911.833	10972
911.947	10869
912.062	10786
912.176	10908
912.291	10869
912.405	10923
912.519	11128
912.633	11140
912.748	11048
912.862	10942
912.976	10835
913.09	10736
913.204	10835
913.318	10835
913.431	10957
913.545	10847
913.659	11029
913.772	10835
913.886	10691
914	10626
914.113	10797
914.226	10889
914.34	10816
914.453	10641
914.566	10729
914.68	10668
914.793	10645
914.906	10424
915.019	10485
915.132	10432
915.245	10432
915.358	10519
915.47	10375
915.583	10474
915.696	10508
915.809	10546
915.921	10607
916.034	10531
916.146	10440
916.259	10390
916.371	10565
916.483	10470
916.595	10333
916.708	10402
916.82	10352
916.932	10318
917.044	10382
917.156	10337
917.268	10234
917.38	10337
917.491	10227
917.603	10272
917.715	10344
917.826	10348
917.938	10227
918.049	10207
918.161	10310
918.272	10443
918.384	10371
918.495	10280
918.606	10230
918.717	10078
918.828	10185
918.939	10215
919.05	10059
919.161	10109
919.272	10013
919.383	10006
919.494	10211
919.604	10390
919.715	10162
919.826	10196
919.936	10116
920.047	10295
920.157	10196
920.267	10421
920.378	10257
920.488	10150
920.598	10451
920.708	10542
920.818	10371
920.928	10432
921.038	10569
921.148	10573
921.258	10169
921.368	10154
921.477	10032
921.587	10063
921.697	9884
921.806	10048
921.916	9869
922.025	9755
922.134	9701
922.244	9675
922.353	9831
922.462	9599
922.571	9580
922.68	9488
922.789	9462
922.898	9462
923.007	9420
923.116	9519
923.224	9439
923.333	9443
923.442	9363
923.55	9378
923.659	9367
923.767	9420
923.876	9249
923.984	9351
924.092	9298
924.201	9359
924.309	9306
924.417	9370
924.525	9306
924.633	9294
924.741	10200
924.849	9138
924.956	9287
925.064	9112
925.172	9077
925.279	9150
925.387	9154
925.494	9150
925.602	9260
925.709	9169
925.816	9165
925.924	9100
926.031	9237
926.138	9127
926.245	9226
926.352	9062
926.459	9211
926.566	9264
926.673	9066
926.779	9028
926.886	8994
926.993	8914
927.099	8891
927.206	8769
927.312	8785
927.419	8830
927.525	8902
927.631	8899
927.737	8766
927.843	8777
927.95	8674
928.056	8731
928.162	8743
928.267	8750
928.373	9454
928.479	8838
928.585	8644
928.69	8724
928.796	8777
928.901	8727
929.007	8499
929.112	8697
929.218	8541
929.323	8564
929.428	8503
929.533	8750
929.638	8526
929.743	8533
929.848	8537
929.953	8621
930.058	8545
930.163	8351
930.267	8343
930.372	8503
930.477	8343
930.581	8602
930.685	8408
930.79	8210
930.894	8244
930.998	8206
931.103	8454
931.207	8123
931.311	8058
931.415	7921
931.519	7769
931.623	7822
