Data from test_V78500241_3554.txt Node
Date: Fri Mar 25 14:58:27 CST 2022
User: usil
Spectrometer: V785-0024
Trigger mode: 0
Integration Time (sec): 4.000000E-1
Scans to average: 1
Nonlinearity correction enabled: false
Boxcar width: 0
Storing dark spectrum: false
XAxis mode: Wavelengths
Number of Pixels in Spectrum: 1024
>>>>>Begin Spectral Data<<<<<
801.071	21979
801.214	21800
801.356	21603
801.499	21424
801.641	21332
801.783	21279
801.926	21344
802.068	21173
802.211	21199
802.353	21127
802.496	20933
802.638	20708
802.78	20781
802.923	20823
803.065	20655
803.208	20636
803.35	20636
803.492	20686
803.635	20693
803.777	20587
803.919	20667
804.061	20902
804.204	20697
804.346	20579
804.488	20499
804.63	20606
804.773	20511
804.915	20438
805.057	20678
805.199	20442
805.341	20617
805.483	20712
805.626	20454
805.768	20492
805.91	20514
806.052	20587
806.194	20355
806.336	20602
806.478	20442
806.62	20492
806.762	20590
806.904	20724
807.046	20807
807.188	20796
807.33	20842
807.472	20807
807.614	20724
807.756	20842
807.898	20564
808.04	20503
808.182	20568
808.324	20560
808.465	20689
808.607	20807
808.749	20796
808.891	20960
809.033	21028
809.174	20895
809.316	20838
809.458	20918
809.6	20823
809.741	20876
809.883	20944
810.025	20891
810.166	21024
810.308	21077
810.45	20925
810.591	20891
810.733	20788
810.875	20857
811.016	20503
811.158	20560
811.299	20674
811.441	20769
811.582	20743
811.724	20674
811.865	20549
812.007	20598
812.148	20564
812.29	20724
812.431	20823
812.573	21013
812.714	21032
812.855	21161
812.997	21218
813.138	21412
813.279	21222
813.421	21096
813.562	21169
813.703	20948
813.845	20739
813.986	20461
814.127	20320
814.268	20221
814.41	20256
814.551	20233
814.692	20130
814.833	20149
814.974	20130
815.115	20267
815.256	20005
815.397	20031
815.539	20020
815.68	19989
815.821	19822
815.962	19894
816.103	19997
816.244	19791
816.385	19674
816.526	19655
816.666	19483
816.807	19327
816.948	19457
817.089	19430
817.23	19377
817.371	19392
817.512	19445
817.653	19308
817.793	19168
817.934	19365
818.075	19346
818.216	19350
818.356	19282
818.497	19038
818.638	18977
818.778	18947
818.919	18856
819.06	19061
819.2	19107
819.341	19141
819.481	19244
819.622	19324
819.762	19575
819.903	19403
820.043	19282
820.184	19232
820.324	19388
820.465	19240
820.605	19312
820.746	19225
820.886	18943
821.026	19312
821.167	19274
821.307	19206
821.447	19171
821.588	19084
821.728	18844
821.868	18795
822.008	18673
822.149	18661
822.289	18661
822.429	18410
822.569	18357
822.709	18384
822.849	18285
822.99	18079
823.13	18117
823.27	18171
823.41	18049
823.55	18030
823.69	18140
823.83	17958
823.97	17893
824.11	17729
824.25	17798
824.389	17745
824.529	17794
824.669	17699
824.809	17870
824.949	17722
825.089	17977
825.228	17714
825.368	17608
825.508	17562
825.648	17486
825.787	17570
825.927	17547
826.067	17528
826.206	17539
826.346	17687
826.485	17627
826.625	17532
826.765	17684
826.904	17615
827.044	17284
827.183	17353
827.323	17273
827.462	17341
827.601	17208
827.741	17239
827.88	17185
828.02	17174
828.159	17155
828.298	17307
828.437	17284
828.577	17147
828.716	17303
828.855	17242
828.994	17025
829.134	17071
829.273	17041
829.412	16961
829.551	17014
829.69	17033
829.829	17086
829.968	17128
830.107	17083
830.246	16987
830.385	16949
830.524	16968
830.663	16892
830.802	16778
830.941	16603
831.08	16706
831.219	16744
831.357	16717
831.496	16786
831.635	16713
831.774	16656
831.913	16588
832.051	16367
832.19	16409
832.329	16489
832.467	16348
832.606	16337
832.744	16314
832.883	16394
833.022	16356
833.16	16375
833.299	16375
833.437	16325
833.576	16382
833.714	16363
833.852	16390
833.991	16325
834.129	16500
834.267	16462
834.406	16478
834.544	16413
834.682	16519
834.821	16489
834.959	16542
835.097	16367
835.235	16512
835.373	16573
835.511	16447
835.65	16428
835.788	16386
835.926	16158
836.064	16192
836.202	16120
836.34	16314
836.478	16440
836.615	16268
836.753	16344
836.891	16382
837.029	16329
837.167	16379
837.305	16226
837.443	16333
837.58	16249
837.718	16173
837.856	16242
837.993	16169
838.131	16284
838.269	16093
838.406	16090
838.544	16139
838.681	15960
838.819	15884
838.956	15755
839.094	15812
839.231	15884
839.369	16010
839.506	16166
839.643	16002
839.781	15838
839.918	15648
840.055	15850
840.193	15713
840.33	15720
840.467	15751
840.604	15755
840.742	16173
840.879	15652
841.016	15633
841.153	15671
841.29	15934
841.427	15781
841.564	15728
841.701	15762
841.838	15747
841.975	15679
842.112	15778
842.249	15576
842.385	15488
842.522	15606
842.659	15507
842.796	15504
842.933	15496
843.069	15587
843.206	15523
843.343	15584
843.479	15580
843.616	15599
843.752	15416
843.889	15332
844.025	15428
844.162	15211
844.298	15389
844.435	15386
844.571	15317
844.708	15370
844.844	15485
844.98	15439
845.117	15481
845.253	15321
845.389	15135
845.525	15237
845.661	15241
845.798	15150
845.934	15207
846.07	15142
846.206	15157
846.342	15329
846.478	15184
846.614	14834
846.75	14845
846.886	14792
847.022	15074
847.158	14914
847.294	14944
847.429	14929
847.565	14883
847.701	15005
847.837	14754
847.972	14602
848.108	14762
848.244	14587
848.379	14636
848.515	14511
848.65	14438
848.786	14552
848.921	14503
849.057	14659
849.192	14571
849.328	14602
849.463	14480
849.598	14412
849.734	14438
849.869	14419
850.004	14244
850.14	14347
850.275	14305
850.41	14218
850.545	14271
850.68	14221
850.815	14248
850.95	14244
851.085	14461
851.22	14381
851.355	14275
851.49	14240
851.625	14210
851.76	14191
851.895	14161
852.03	14199
852.165	14301
852.299	14286
852.434	14347
852.569	14309
852.703	14328
852.838	14389
852.973	14419
853.107	14370
853.242	14191
853.376	14134
853.511	14092
853.645	14077
853.78	14301
853.914	14081
854.048	14081
854.183	14039
854.317	14248
854.451	14339
854.585	14183
854.72	14088
854.854	14183
854.988	14016
855.122	14115
855.256	14001
855.39	14119
855.524	14275
855.658	14168
855.792	14164
855.926	14149
856.06	14240
856.194	14263
856.327	14084
856.461	14100
856.595	14180
856.729	14161
856.862	14233
856.996	14183
857.13	14347
857.263	14271
857.397	14351
857.53	14206
857.664	14176
857.797	14286
857.931	14240
858.064	14168
858.197	14256
858.331	14149
858.464	14130
858.597	13993
858.731	14153
858.864	14126
858.997	14142
859.13	14123
859.263	14229
859.396	14275
859.529	14123
859.662	14153
859.795	14069
859.928	14195
860.061	14339
860.194	14332
860.327	14168
860.46	14107
860.592	14275
860.725	14377
860.858	14218
860.99	14142
861.123	14058
861.256	14050
861.388	14123
861.521	14918
861.653	14119
861.786	13909
861.918	14031
862.05	14035
862.183	14126
862.315	14195
862.447	14218
862.58	14050
862.712	13951
862.844	13871
862.976	14020
863.108	14016
863.24	14332
863.372	13803
863.504	13986
863.636	13909
863.768	13837
863.9	14039
864.032	13784
864.164	13909
864.296	13951
864.428	14084
864.559	13978
864.691	14016
864.823	13947
864.954	14012
865.086	13959
865.217	13894
865.349	13826
865.48	13970
865.612	13917
865.743	14039
865.875	13902
866.006	13947
866.137	13879
866.269	13868
866.4	14005
866.531	13849
866.662	13799
866.793	13898
866.924	13776
867.055	13936
867.186	13906
867.317	13833
867.448	13769
867.579	13860
867.71	13807
867.841	13845
867.972	13868
868.103	14001
868.233	13917
868.364	14024
868.495	13955
868.625	14077
868.756	14271
868.886	14084
869.017	14153
869.147	14324
869.278	14290
869.408	14202
869.539	14123
869.669	14248
869.799	14229
869.929	14385
870.06	14282
870.19	14476
870.32	14332
870.45	14526
870.58	14552
870.71	14708
870.84	14606
870.97	14598
871.1	14575
871.23	14720
871.36	14807
871.489	14583
871.619	14739
871.749	14693
871.879	14849
872.008	14823
872.138	14781
872.267	14765
872.397	14606
872.526	14686
872.656	14549
872.785	14579
872.915	14819
873.044	15001
873.173	14819
873.303	14804
873.432	14762
873.561	14937
873.69	14933
873.819	14845
873.948	14941
874.077	14883
874.206	14765
874.335	14727
874.464	14979
874.593	15119
874.722	15127
874.851	15169
874.979	15176
875.108	15203
875.237	15009
875.365	15100
875.494	15161
875.623	15291
875.751	15093
875.88	15233
876.008	15264
876.136	15416
876.265	15637
876.393	15667
876.521	15705
876.65	15656
876.778	15610
876.906	15542
877.034	15488
877.162	15526
877.29	15473
877.418	15534
877.546	15488
877.674	15534
877.802	15545
877.93	15580
878.058	15462
878.185	15412
878.313	15511
878.441	15500
878.568	15370
878.696	15488
878.824	15633
878.951	15644
879.079	15743
879.206	15907
879.333	15728
879.461	15595
879.588	15747
879.715	15759
879.842	15739
879.97	15534
880.097	15382
880.224	15264
880.351	15428
880.478	15523
880.605	15355
880.732	15329
880.859	15595
880.986	15477
881.112	15408
881.239	15245
881.366	15211
881.493	14929
881.619	15039
881.746	15108
881.872	14960
881.999	15097
882.125	15077
882.252	15058
882.378	15100
882.505	15218
882.631	15085
882.757	14906
882.883	14914
883.01	14777
883.136	14880
883.262	14773
883.388	14648
883.514	14921
883.64	14861
883.766	14849
883.892	14750
884.018	14648
884.143	14842
884.269	14982
884.395	14697
884.52	14598
884.646	14583
884.772	14495
884.897	14541
885.023	14640
885.148	14674
885.274	14731
885.399	14796
885.524	14590
885.65	14621
885.775	14617
885.9	14610
886.025	14693
886.15	14701
886.275	14571
886.4	14461
886.525	14488
886.65	14499
886.775	14488
886.9	14636
887.025	14838
887.149	14602
887.274	14480
887.399	14511
887.523	14393
887.648	14385
887.773	14374
887.897	14488
888.021	14503
888.146	14389
888.27	14438
888.395	14648
888.519	14507
888.643	14450
888.767	14492
888.891	14339
889.015	14320
889.139	14263
889.263	14320
889.387	14317
889.511	14560
889.635	14461
889.759	14267
889.883	14313
890.006	14259
890.13	14400
890.254	14218
890.377	14202
890.501	14050
890.624	14069
890.748	14115
890.871	14043
890.995	13856
891.118	13780
891.241	13932
891.364	14065
891.488	14153
891.611	14001
891.734	14157
891.857	14001
891.98	14001
892.103	14092
892.226	13993
892.349	13909
892.471	13890
892.594	13951
892.717	13936
892.839	14008
892.962	13978
893.085	14096
893.207	13955
893.33	13852
893.452	13970
893.575	13951
893.697	13936
893.819	14100
893.941	14157
894.064	14115
894.186	13974
894.308	13982
894.43	14145
894.552	14199
894.674	14138
894.796	13959
894.918	14020
895.04	13997
895.161	14084
895.283	14081
895.405	13986
895.526	14161
895.648	14103
895.769	14058
895.891	14221
896.012	14214
896.134	14138
896.255	14123
896.376	14229
896.498	14142
896.619	14275
896.74	14183
896.861	14214
896.982	14522
897.103	14625
897.224	14480
897.345	14381
897.466	14374
897.587	14328
897.708	14533
897.828	14374
897.949	14358
898.07	14221
898.19	14427
898.311	14556
898.431	14377
898.552	14480
898.672	14545
898.792	14587
898.913	14507
899.033	14415
899.153	14370
899.273	14278
899.393	14290
899.513	14362
899.633	14252
899.753	14339
899.873	14419
899.993	14404
900.113	14351
900.232	14431
900.352	14275
900.472	14259
900.591	14309
900.711	14263
900.83	14157
900.95	14366
901.069	14358
901.189	14103
901.308	13967
901.427	13776
901.546	13818
901.665	13898
901.784	13860
901.904	13746
902.023	13776
902.141	13468
902.26	13426
902.379	13441
902.498	13365
902.617	13419
902.735	13525
902.854	13521
902.973	13369
903.091	13141
903.21	13118
903.328	13232
903.446	13088
903.565	13034
903.683	13084
903.801	12970
903.919	12939
904.038	13069
904.156	12886
904.274	12996
904.392	12829
904.51	12905
904.627	12871
904.745	12886
904.863	12966
904.981	12662
905.098	12574
905.216	12551
905.334	12593
905.451	12547
905.569	12544
905.686	12547
905.803	12547
905.921	12357
906.038	12525
906.155	12460
906.272	12262
906.389	12292
906.506	12163
906.623	12102
906.74	12133
906.857	11999
906.974	11977
907.091	12232
907.208	12330
907.324	12247
907.441	12178
907.557	11920
907.674	11958
907.79	11775
907.907	11901
908.023	11828
908.139	11866
908.256	11840
908.372	11878
908.488	11840
908.604	11688
908.72	11688
908.836	11691
908.952	11642
909.068	11592
909.184	11786
909.3	11608
909.415	11726
909.531	11661
909.647	11463
909.762	11455
909.878	11395
909.993	11368
910.108	11505
910.224	11311
910.339	11455
910.454	11337
910.57	11307
910.685	11193
910.8	11520
910.915	11448
911.03	11356
911.145	11204
911.259	11136
911.374	11170
911.489	11083
911.604	11041
911.718	10938
911.833	10930
911.947	10805
912.062	10649
912.176	10831
912.291	10797
912.405	10885
912.519	11060
912.633	11128
912.748	10919
912.862	10885
912.976	10889
913.09	10771
913.204	10736
913.318	10820
913.431	10866
913.545	10797
913.659	10904
913.772	10767
913.886	10626
914	10580
914.113	10706
914.226	10782
914.34	10725
914.453	10558
914.566	10687
914.68	10664
914.793	10641
914.906	10447
915.019	10379
915.132	10348
915.245	10417
915.358	10394
915.47	10390
915.583	10497
915.696	10489
915.809	10569
915.921	10538
916.034	10348
916.146	10318
916.259	10394
916.371	10443
916.483	10413
916.595	10306
916.708	10367
916.82	10310
916.932	10272
917.044	10299
917.156	10261
917.268	10219
917.38	10207
917.491	10158
917.603	10329
917.715	10337
917.826	10402
917.938	10173
918.049	10166
918.161	10211
918.272	10367
918.384	10356
918.495	10287
918.606	10154
918.717	10082
918.828	10154
918.939	10105
919.05	10032
919.161	10013
919.272	9895
919.383	9975
919.494	10177
919.604	10356
919.715	10097
919.826	10059
919.936	10131
920.047	10215
920.157	10139
920.267	10375
920.378	10143
920.488	10128
920.598	10352
920.708	10443
920.818	10352
920.928	10363
921.038	10462
921.148	10436
921.258	10246
921.368	10105
921.477	9983
921.587	10021
921.697	9827
921.806	10071
921.916	9945
922.025	9709
922.134	9800
922.244	9709
922.353	9679
922.462	9557
922.571	9553
922.68	9336
922.789	9382
922.898	9428
923.007	9321
923.116	9420
923.224	9351
923.333	9325
923.442	9287
923.55	9176
923.659	9260
923.767	9329
923.876	9306
923.984	9340
924.092	9199
924.201	9218
924.309	9230
924.417	9283
924.525	9188
924.633	9211
924.741	9979
924.849	8975
924.956	9249
925.064	9062
925.172	8994
925.279	8971
925.387	9131
925.494	9089
925.602	9150
925.709	9127
925.816	8914
925.924	9005
926.031	9157
926.138	9009
926.245	9081
926.352	9032
926.459	9135
926.566	9127
926.673	8979
926.779	8956
926.886	8921
926.993	8731
927.099	8720
927.206	8781
927.312	8686
927.419	8746
927.525	8678
927.631	8796
927.737	8746
927.843	8693
927.95	8492
928.056	8697
928.162	8708
928.267	8739
928.373	9374
928.479	8796
928.585	8579
928.69	8636
928.796	8621
928.901	8530
929.007	8450
929.112	8606
929.218	8522
929.323	8492
929.428	8434
929.533	8629
929.638	8396
929.743	8454
929.848	8511
929.953	8469
930.058	8347
930.163	8282
930.267	8263
930.372	8374
930.477	8168
930.581	8434
930.685	8370
930.79	8176
930.894	8298
930.998	8149
931.103	8389
931.207	7906
931.311	7898
931.415	7822
931.519	7738
931.623	7704
