Data from test_V78500241_3152.txt Node
Date: Fri Mar 25 14:55:39 CST 2022
User: usil
Spectrometer: V785-0024
Trigger mode: 0
Integration Time (sec): 4.000000E-1
Scans to average: 1
Nonlinearity correction enabled: false
Boxcar width: 0
Storing dark spectrum: false
XAxis mode: Wavelengths
Number of Pixels in Spectrum: 1024
>>>>>Begin Spectral Data<<<<<
801.071	21975
801.214	21953
801.356	21728
801.499	21511
801.641	21500
801.783	21450
801.926	21439
802.068	21431
802.211	21310
802.353	21184
802.496	21123
802.638	20804
802.78	20891
802.923	20739
803.065	20720
803.208	20765
803.35	20758
803.492	20933
803.635	20872
803.777	20716
803.919	20921
804.061	21207
804.204	20823
804.346	20743
804.488	20629
804.63	20823
804.773	20644
804.915	20712
805.057	20659
805.199	20602
805.341	20727
805.483	20811
805.626	20682
805.768	20708
805.91	20758
806.052	20720
806.194	20590
806.336	20762
806.478	20678
806.62	20583
806.762	20792
806.904	20971
807.046	21085
807.188	21146
807.33	21017
807.472	21074
807.614	20849
807.756	20963
807.898	20921
808.04	20674
808.182	20689
808.324	20659
808.465	20845
808.607	20895
808.749	21127
808.891	21165
809.033	21397
809.174	21070
809.316	20925
809.458	21036
809.6	21001
809.741	21055
809.883	21020
810.025	21245
810.166	21161
810.308	21150
810.45	21135
810.591	20990
810.733	20910
810.875	20876
811.016	20617
811.158	20750
811.299	20838
811.441	20956
811.582	20838
811.724	20773
811.865	20720
812.007	20731
812.148	20826
812.29	20769
812.431	20933
812.573	21180
812.714	21222
812.855	21207
812.997	21386
813.138	21534
813.279	21458
813.421	21310
813.562	21222
813.703	21081
813.845	20937
813.986	20579
814.127	20492
814.268	20385
814.41	20495
814.551	20400
814.692	20457
814.833	20199
814.974	20248
815.115	20393
815.256	20229
815.397	20176
815.539	20130
815.68	19909
815.821	19993
815.962	20058
816.103	20062
816.244	19879
816.385	19997
816.526	19803
816.666	19544
816.807	19487
816.948	19605
817.089	19571
817.23	19533
817.371	19491
817.512	19407
817.653	19487
817.793	19388
817.934	19567
818.075	19468
818.216	19354
818.356	19449
818.497	19320
818.638	19061
818.778	19110
818.919	19103
819.06	19031
819.2	19430
819.341	19365
819.481	19335
819.622	19480
819.762	19662
819.903	19616
820.043	19548
820.184	19388
820.324	19411
820.465	19563
820.605	19483
820.746	19343
820.886	19304
821.026	19373
821.167	19251
821.307	19537
821.447	19331
821.588	19221
821.728	19061
821.868	19008
822.008	18913
822.149	18760
822.289	18833
822.429	18574
822.569	18513
822.709	18597
822.849	18418
822.99	18407
823.13	18346
823.27	18334
823.41	18144
823.55	18152
823.69	18213
823.83	18152
823.97	18178
824.11	17878
824.25	17954
824.389	17935
824.529	17992
824.669	17863
824.809	18068
824.949	17992
825.089	18064
825.228	17954
825.368	17931
825.508	17695
825.648	17824
825.787	17767
825.927	17882
826.067	17585
826.206	17665
826.346	17783
826.485	17752
826.625	17695
826.765	17836
826.904	17726
827.044	17459
827.183	17474
827.323	17383
827.462	17410
827.601	17353
827.741	17337
827.88	17387
828.02	17337
828.159	17463
828.298	17459
828.437	17452
828.577	17379
828.716	17528
828.855	17353
828.994	17197
829.134	17147
829.273	17159
829.412	17155
829.551	17025
829.69	17174
829.829	17258
829.968	17349
830.107	17136
830.246	17193
830.385	17170
830.524	17159
830.663	16995
830.802	16835
830.941	16854
831.08	16759
831.219	16877
831.357	16904
831.496	17048
831.635	16672
831.774	16645
831.913	16721
832.051	16645
832.19	16584
832.329	16538
832.467	16531
832.606	16417
832.744	16363
832.883	16394
833.022	16421
833.16	16481
833.299	16500
833.437	16512
833.576	16531
833.714	16462
833.852	16485
833.991	16626
834.129	16542
834.267	16485
834.406	16512
834.544	16538
834.682	16584
834.821	16519
834.959	16580
835.097	16466
835.235	16508
835.373	16519
835.511	16375
835.65	16405
835.788	16356
835.926	16246
836.064	16192
836.202	16181
836.34	16516
836.478	16436
836.615	16413
836.753	16436
836.891	16508
837.029	16409
837.167	16379
837.305	16284
837.443	16268
837.58	16253
837.718	16329
837.856	16299
837.993	16230
838.131	16253
838.269	16188
838.406	16185
838.544	16238
838.681	16006
838.819	15968
838.956	15751
839.094	15838
839.231	15873
839.369	15899
839.506	16253
839.643	16128
839.781	15888
839.918	15812
840.055	15934
840.193	15892
840.33	15785
840.467	15857
840.604	15774
840.742	16040
840.879	15690
841.016	15778
841.153	15728
841.29	15911
841.427	15892
841.564	15797
841.701	15915
841.838	15739
841.975	15728
842.112	15770
842.249	15701
842.385	15519
842.522	15781
842.659	15633
842.796	15511
842.933	15652
843.069	15614
843.206	15519
843.343	15652
843.479	15618
843.616	15591
843.752	15397
843.889	15428
844.025	15511
844.162	15325
844.298	15443
844.435	15355
844.571	15329
844.708	15428
844.844	15538
844.98	15572
845.117	15408
845.253	15363
845.389	15237
845.525	15321
845.661	15272
845.798	15165
845.934	15230
846.07	15123
846.206	15298
846.342	15226
846.478	15184
846.614	15009
846.75	14925
846.886	14899
847.022	14948
847.158	14975
847.294	14979
847.429	15017
847.565	15001
847.701	15161
847.837	14769
847.972	14739
848.108	14815
848.244	14815
848.379	14610
848.515	14590
848.65	14518
848.786	14522
848.921	14511
849.057	14689
849.192	14708
849.328	14632
849.463	14541
849.598	14560
849.734	14461
849.869	14450
850.004	14317
850.14	14339
850.275	14278
850.41	14278
850.545	14294
850.68	14298
850.815	14320
850.95	14347
851.085	14537
851.22	14461
851.355	14320
851.49	14237
851.625	14286
851.76	14275
851.895	14134
852.03	14218
852.165	14339
852.299	14393
852.434	14389
852.569	14339
852.703	14351
852.838	14431
852.973	14450
853.107	14454
853.242	14229
853.376	14187
853.511	14092
853.645	14191
853.78	14313
853.914	14210
854.048	14100
854.183	14210
854.317	14180
854.451	14328
854.585	14161
854.72	14191
854.854	14256
854.988	14134
855.122	14081
855.256	14012
855.39	14183
855.524	14195
855.658	14248
855.792	14199
855.926	14275
856.06	14221
856.194	14336
856.327	14081
856.461	14111
856.595	14176
856.729	14161
856.862	14233
856.996	14221
857.13	14218
857.263	14362
857.397	14328
857.53	14183
857.664	14229
857.797	14305
857.931	14229
858.064	14233
858.197	14275
858.331	14298
858.464	14298
858.597	14134
858.731	14138
858.864	14142
858.997	14153
859.13	14199
859.263	14180
859.396	14351
859.529	14092
859.662	14229
859.795	14149
859.928	14271
860.061	14328
860.194	14343
860.327	14271
860.46	14176
860.592	14305
860.725	14301
860.858	14233
860.99	14130
861.123	14054
861.256	14176
861.388	14180
861.521	14872
861.653	14229
861.786	14046
861.918	14001
862.05	14138
862.183	14103
862.315	14244
862.447	14206
862.58	14278
862.712	13909
862.844	13951
862.976	14103
863.108	14027
863.24	14313
863.372	13959
863.504	14001
863.636	14020
863.768	13989
863.9	14077
864.032	13830
864.164	13944
864.296	14008
864.428	14069
864.559	14096
864.691	14073
864.823	14077
864.954	14069
865.086	14050
865.217	13913
865.349	13890
865.48	13921
865.612	13970
865.743	14145
865.875	13944
866.006	13963
866.137	13955
866.269	13997
866.4	13997
866.531	13906
866.662	13932
866.793	13845
866.924	14020
867.055	13921
867.186	13909
867.317	13833
867.448	13852
867.579	13890
867.71	13799
867.841	14005
867.972	13993
868.103	13928
868.233	13932
868.364	14001
868.495	14103
868.625	14115
868.756	14408
868.886	14077
869.017	14107
869.147	14328
869.278	14305
869.408	14237
869.539	14267
869.669	14259
869.799	14252
869.929	14328
870.06	14294
870.19	14587
870.32	14499
870.45	14476
870.58	14689
870.71	14712
870.84	14708
870.97	14594
871.1	14625
871.23	14804
871.36	14701
871.489	14621
871.619	14746
871.749	14823
871.879	14876
872.008	14952
872.138	14811
872.267	14819
872.397	14754
872.526	14632
872.656	14541
872.785	14659
872.915	14876
873.044	14891
873.173	14826
873.303	14944
873.432	14823
873.561	14910
873.69	14792
873.819	14804
873.948	14830
874.077	14838
874.206	14902
874.335	14811
874.464	14975
874.593	15047
874.722	15100
874.851	15211
874.979	15142
875.108	15241
875.237	15112
875.365	15070
875.494	15211
875.623	15203
875.751	15192
875.88	15214
876.008	15477
876.136	15408
876.265	15629
876.393	15709
876.521	15720
876.65	15606
876.778	15561
876.906	15439
877.034	15500
877.162	15576
877.29	15447
877.418	15561
877.546	15568
877.674	15610
877.802	15622
877.93	15545
878.058	15496
878.185	15443
878.313	15515
878.441	15633
878.568	15515
878.696	15564
878.824	15698
878.951	15584
879.079	15667
879.206	15884
879.333	15648
879.461	15671
879.588	15618
879.715	15842
879.842	15907
879.97	15603
880.097	15530
880.224	15340
880.351	15496
880.478	15443
880.605	15443
880.732	15447
880.859	15629
880.986	15515
881.112	15447
881.239	15351
881.366	15241
881.493	15112
881.619	15066
881.746	15184
881.872	15039
881.999	15070
882.125	15001
882.252	15211
882.378	15154
882.505	15207
882.631	15017
882.757	14853
882.883	14986
883.01	14960
883.136	14781
883.262	14796
883.388	14838
883.514	14975
883.64	14971
883.766	14918
883.892	14693
884.018	14769
884.143	14861
884.269	15043
884.395	14655
884.52	14663
884.646	14625
884.772	14583
884.897	14507
885.023	14708
885.148	14731
885.274	14716
885.399	14682
885.524	14533
885.65	14667
885.775	14636
885.9	14602
886.025	14731
886.15	14674
886.275	14602
886.4	14632
886.525	14503
886.65	14545
886.775	14556
886.9	14842
887.025	14868
887.149	14705
887.274	14503
887.399	14362
887.523	14412
887.648	14339
887.773	14434
887.897	14594
888.021	14583
888.146	14454
888.27	14530
888.395	14556
888.519	14507
888.643	14575
888.767	14442
888.891	14374
889.015	14309
889.139	14313
889.263	14313
889.387	14450
889.511	14564
889.635	14480
889.759	14339
889.883	14282
890.006	14339
890.13	14370
890.254	14290
890.377	14252
890.501	14149
890.624	14062
890.748	14267
890.871	14046
890.995	13959
891.118	13890
891.241	14073
891.364	14005
891.488	14157
891.611	13986
891.734	14065
891.857	14043
891.98	14027
892.103	14050
892.226	14100
892.349	14123
892.471	13830
892.594	13951
892.717	14024
892.839	13936
892.962	14092
893.085	14081
893.207	14043
893.33	13940
893.452	14054
893.575	14153
893.697	13982
893.819	14168
893.941	14191
894.064	14111
894.186	13978
894.308	13890
894.43	14081
894.552	14320
894.674	14153
894.796	13959
894.918	14008
895.04	14073
895.161	14092
895.283	14153
895.405	14065
895.526	14168
895.648	14123
895.769	14214
895.891	14172
896.012	14157
896.134	14225
896.255	14199
896.376	14126
896.498	14096
896.619	14218
896.74	14267
896.861	14237
896.982	14492
897.103	14674
897.224	14461
897.345	14427
897.466	14347
897.587	14526
897.708	14537
897.828	14495
897.949	14427
898.07	14396
898.19	14347
898.311	14583
898.431	14385
898.552	14465
898.672	14571
898.792	14640
898.913	14560
899.033	14393
899.153	14423
899.273	14271
899.393	14404
899.513	14377
899.633	14427
899.753	14461
899.873	14366
899.993	14423
900.113	14343
900.232	14358
900.352	14381
900.472	14366
900.591	14187
900.711	14301
900.83	14176
900.95	14336
901.069	14404
901.189	14183
901.308	13993
901.427	13879
901.546	13974
901.665	13951
901.784	14012
901.904	13818
902.023	13803
902.141	13582
902.26	13552
902.379	13605
902.498	13533
902.617	13422
902.735	13586
902.854	13445
902.973	13358
903.091	13152
903.21	13240
903.328	13312
903.446	13221
903.565	13103
903.683	13107
903.801	13053
903.919	13046
904.038	13004
904.156	12958
904.274	12958
904.392	12829
904.51	12837
904.627	12932
904.745	13038
904.863	12970
904.981	12745
905.098	12566
905.216	12627
905.334	12692
905.451	12483
905.569	12669
905.686	12635
905.803	12658
905.921	12266
906.038	12494
906.155	12414
906.272	12384
906.389	12338
906.506	12216
906.623	12167
906.74	12121
906.857	12079
906.974	12019
907.091	12224
907.208	12292
907.324	12258
907.441	12064
907.557	11939
907.674	11931
907.79	11901
907.907	11916
908.023	11961
908.139	11969
908.256	11878
908.372	11870
908.488	11843
908.604	11748
908.72	11619
908.836	11699
908.952	11684
909.068	11707
909.184	11798
909.3	11638
909.415	11680
909.531	11668
909.647	11532
909.762	11372
909.878	11414
909.993	11433
910.108	11474
910.224	11337
910.339	11417
910.454	11463
910.57	11364
910.685	11254
910.8	11505
910.915	11505
911.03	11330
911.145	11128
911.259	11140
911.374	11140
911.489	11102
911.604	10987
911.718	10946
911.833	10908
911.947	10755
912.062	10687
912.176	10889
912.291	10881
912.405	10908
912.519	11102
912.633	11060
912.748	11086
912.862	10987
912.976	10858
913.09	10675
913.204	10801
913.318	10820
913.431	10930
913.545	10873
913.659	10949
913.772	10740
913.886	10729
914	10675
914.113	10755
914.226	10820
914.34	10835
914.453	10615
914.566	10710
914.68	10641
914.793	10561
914.906	10394
915.019	10379
915.132	10344
915.245	10447
915.358	10462
915.47	10474
915.583	10394
915.696	10478
915.809	10698
915.921	10588
916.034	10337
916.146	10375
916.259	10337
916.371	10497
916.483	10413
916.595	10329
916.708	10459
916.82	10402
916.932	10348
917.044	10440
917.156	10268
917.268	10249
917.38	10162
917.491	10303
917.603	10284
917.715	10405
917.826	10344
917.938	10348
918.049	10162
918.161	10318
918.272	10398
918.384	10402
918.495	10276
918.606	10177
918.717	10173
918.828	10185
918.939	10223
919.05	10055
919.161	10131
919.272	9895
919.383	10021
919.494	10253
919.604	10398
919.715	10124
919.826	10048
919.936	10124
920.047	10188
920.157	10150
920.267	10257
920.378	10166
920.488	10143
920.598	10348
920.708	10474
920.818	10352
920.928	10371
921.038	10500
921.148	10523
921.258	10200
921.368	10109
921.477	9964
921.587	9956
921.697	9907
921.806	10040
921.916	9907
922.025	9789
922.134	9759
922.244	9705
922.353	9732
922.462	9682
922.571	9507
922.68	9408
922.789	9408
922.898	9458
923.007	9382
923.116	9420
923.224	9408
923.333	9348
923.442	9313
923.55	9313
923.659	9249
923.767	9367
923.876	9275
923.984	9378
924.092	9207
924.201	9313
924.309	9291
924.417	9192
924.525	9192
924.633	9253
924.741	10147
924.849	9055
924.956	9207
925.064	9024
925.172	8990
925.279	9020
925.387	9055
925.494	9074
925.602	9306
925.709	9123
925.816	9009
925.924	9039
926.031	9161
926.138	9070
926.245	9184
926.352	8956
926.459	9123
926.566	9195
926.673	9085
926.779	8895
926.886	8933
926.993	8819
927.099	8743
927.206	8800
927.312	8819
927.419	8804
927.525	8773
927.631	8804
927.737	8724
927.843	8682
927.95	8522
928.056	8636
928.162	8689
928.267	8720
928.373	9287
928.479	8735
928.585	8575
928.69	8701
928.796	8697
928.901	8564
929.007	8423
929.112	8613
929.218	8587
929.323	8461
929.428	8434
929.533	8651
929.638	8423
929.743	8461
929.848	8473
929.953	8412
930.058	8431
930.163	8240
930.267	8320
930.372	8446
930.477	8237
930.581	8511
930.685	8336
930.79	8138
930.894	8229
930.998	8210
931.103	8393
931.207	7970
931.311	7955
931.415	7921
931.519	7761
931.623	7780
