Data from test_V78500241_3301.txt Node
Date: Fri Mar 25 14:56:41 CST 2022
User: usil
Spectrometer: V785-0024
Trigger mode: 0
Integration Time (sec): 4.000000E-1
Scans to average: 1
Nonlinearity correction enabled: false
Boxcar width: 0
Storing dark spectrum: false
XAxis mode: Wavelengths
Number of Pixels in Spectrum: 1024
>>>>>Begin Spectral Data<<<<<
801.071	21884
801.214	21804
801.356	21580
801.499	21542
801.641	21340
801.783	21291
801.926	21306
802.068	21302
802.211	21275
802.353	21199
802.496	20921
802.638	20918
802.78	20785
802.923	20792
803.065	20754
803.208	20522
803.35	20537
803.492	20762
803.635	20750
803.777	20621
803.919	20800
804.061	21070
804.204	20590
804.346	20598
804.488	20560
804.63	20587
804.773	20438
804.915	20518
805.057	20644
805.199	20541
805.341	20625
805.483	20651
805.626	20632
805.768	20514
805.91	20621
806.052	20526
806.194	20514
806.336	20659
806.478	20442
806.62	20473
806.762	20617
806.904	20708
807.046	21024
807.188	20960
807.33	20781
807.472	20902
807.614	20807
807.756	20781
807.898	20613
808.04	20537
808.182	20495
808.324	20598
808.465	20621
808.607	20918
808.749	20861
808.891	21062
809.033	21161
809.174	21047
809.316	20857
809.458	20872
809.6	20823
809.741	20891
809.883	20929
810.025	21017
810.166	21138
810.308	21043
810.45	21005
810.591	20887
810.733	20853
810.875	20746
811.016	20651
811.158	20427
811.299	20716
811.441	20887
811.582	20716
811.724	20621
811.865	20625
812.007	20678
812.148	20674
812.29	20667
812.431	20830
812.573	20944
812.714	21009
812.855	21180
812.997	21363
813.138	21450
813.279	21340
813.421	21264
813.562	21085
813.703	20925
813.845	20800
813.986	20549
814.127	20317
814.268	20259
814.41	20221
814.551	20271
814.692	20332
814.833	20180
814.974	20195
815.115	20225
815.256	20027
815.397	19963
815.539	20062
815.68	20024
815.821	19784
815.962	20111
816.103	19742
816.244	19852
816.385	19712
816.526	19738
816.666	19434
816.807	19430
816.948	19445
817.089	19449
817.23	19537
817.371	19362
817.512	19297
817.653	19358
817.793	19217
817.934	19354
818.075	19441
818.216	19354
818.356	19350
818.497	19164
818.638	18985
818.778	19053
818.919	19042
819.06	19031
819.2	19244
819.341	19118
819.481	19232
819.622	19411
819.762	19624
819.903	19510
820.043	19468
820.184	19278
820.324	19362
820.465	19358
820.605	19350
820.746	19331
820.886	19282
821.026	19259
821.167	19274
821.307	19369
821.447	19244
821.588	19110
821.728	18882
821.868	18882
822.008	18795
822.149	18821
822.289	18719
822.429	18448
822.569	18433
822.709	18243
822.849	18243
822.99	18330
823.13	18308
823.27	18232
823.41	18197
823.55	18038
823.69	18064
823.83	18045
823.97	18003
824.11	17821
824.25	17840
824.389	17817
824.529	17939
824.669	17783
824.809	17908
824.949	17840
825.089	17885
825.228	17935
825.368	17585
825.508	17695
825.648	17581
825.787	17615
825.927	17539
826.067	17539
826.206	17623
826.346	17665
826.485	17543
826.625	17482
826.765	17657
826.904	17619
827.044	17414
827.183	17265
827.323	17307
827.462	17322
827.601	17360
827.741	17193
827.88	17277
828.02	17098
828.159	17318
828.298	17303
828.437	17311
828.577	17254
828.716	17246
828.855	17193
828.994	17029
829.134	16987
829.273	17029
829.412	16980
829.551	17014
829.69	17033
829.829	16984
829.968	17143
830.107	17147
830.246	17041
830.385	16968
830.524	16976
830.663	16850
830.802	16835
830.941	16615
831.08	16656
831.219	16713
831.357	16668
831.496	16824
831.635	16717
831.774	16542
831.913	16519
832.051	16519
832.19	16516
832.329	16474
832.467	16413
832.606	16344
832.744	16360
832.883	16390
833.022	16280
833.16	16382
833.299	16238
833.437	16284
833.576	16478
833.714	16390
833.852	16466
833.991	16382
834.129	16436
834.267	16424
834.406	16443
834.544	16554
834.682	16409
834.821	16390
834.959	16653
835.097	16405
835.235	16405
835.373	16409
835.511	16436
835.65	16375
835.788	16280
835.926	16242
836.064	16082
836.202	16173
836.34	16341
836.478	16428
836.615	16363
836.753	16303
836.891	16371
837.029	16341
837.167	16238
837.305	16348
837.443	16303
837.58	16211
837.718	16238
837.856	16276
837.993	16101
838.131	16211
838.269	16101
838.406	16158
838.544	16048
838.681	15960
838.819	15911
838.956	15705
839.094	15751
839.231	15922
839.369	15915
839.506	16310
839.643	15983
839.781	15690
839.918	15793
840.055	15785
840.193	15854
840.33	15724
840.467	15682
840.604	15880
840.742	16090
840.879	15549
841.016	15572
841.153	15648
841.29	15804
841.427	15800
841.564	15861
841.701	15671
841.838	15686
841.975	15819
842.112	15797
842.249	15587
842.385	15447
842.522	15720
842.659	15618
842.796	15599
842.933	15587
843.069	15405
843.206	15584
843.343	15561
843.479	15439
843.616	15500
843.752	15332
843.889	15188
844.025	15447
844.162	15256
844.298	15397
844.435	15283
844.571	15298
844.708	15344
844.844	15515
844.98	15462
845.117	15405
845.253	15351
845.389	15241
845.525	15256
845.661	15192
845.798	15150
845.934	15203
846.07	15032
846.206	15173
846.342	15157
846.478	15173
846.614	14899
846.75	14963
846.886	14838
847.022	14990
847.158	14906
847.294	14979
847.429	15039
847.565	14861
847.701	15176
847.837	14625
847.972	14629
848.108	14724
848.244	14701
848.379	14564
848.515	14454
848.65	14454
848.786	14522
848.921	14495
849.057	14560
849.192	14670
849.328	14579
849.463	14488
849.598	14393
849.734	14370
849.869	14385
850.004	14259
850.14	14358
850.275	14286
850.41	14229
850.545	14183
850.68	14221
850.815	14313
850.95	14438
851.085	14438
851.22	14343
851.355	14336
851.49	14282
851.625	14252
851.76	14206
851.895	14107
852.03	14142
852.165	14298
852.299	14172
852.434	14404
852.569	14278
852.703	14259
852.838	14355
852.973	14442
853.107	14366
853.242	14271
853.376	14050
853.511	14020
853.645	14039
853.78	14187
853.914	14187
854.048	14062
854.183	14149
854.317	14149
854.451	14233
854.585	14084
854.72	14103
854.854	14233
854.988	14077
855.122	14123
855.256	14073
855.39	14164
855.524	14180
855.658	14153
855.792	14187
855.926	14126
856.06	14202
856.194	14237
856.327	14191
856.461	14126
856.595	14115
856.729	14161
856.862	14256
856.996	14123
857.13	14187
857.263	14237
857.397	14252
857.53	14172
857.664	14157
857.797	14286
857.931	14256
858.064	14142
858.197	14263
858.331	14191
858.464	14214
858.597	14035
858.731	14123
858.864	14191
858.997	14043
859.13	14157
859.263	14134
859.396	14237
859.529	14088
859.662	14164
859.795	14119
859.928	14157
860.061	14305
860.194	14351
860.327	14161
860.46	14119
860.592	14202
860.725	14347
860.858	14168
860.99	14138
861.123	14123
861.256	14111
861.388	14187
861.521	14861
861.653	14035
861.786	14008
861.918	14107
862.05	14031
862.183	14100
862.315	14161
862.447	14176
862.58	13982
862.712	13925
862.844	13837
862.976	14054
863.108	13906
863.24	14259
863.372	13913
863.504	13940
863.636	13875
863.768	13974
863.9	13849
864.032	13875
864.164	13826
864.296	13940
864.428	14001
864.559	14012
864.691	14024
864.823	13944
864.954	13947
865.086	13967
865.217	13902
865.349	13940
865.48	13913
865.612	13879
865.743	13989
865.875	13997
866.006	13936
866.137	14043
866.269	13913
866.4	13955
866.531	13841
866.662	13841
866.793	13887
866.924	13917
867.055	13814
867.186	13906
867.317	13837
867.448	13731
867.579	13906
867.71	13860
867.841	13780
867.972	13883
868.103	13898
868.233	13902
868.364	13970
868.495	13978
868.625	14027
868.756	14252
868.886	14069
869.017	14164
869.147	14202
869.278	14301
869.408	14214
869.539	14187
869.669	14248
869.799	14164
869.929	14343
870.06	14267
870.19	14454
870.32	14526
870.45	14503
870.58	14476
870.71	14629
870.84	14659
870.97	14659
871.1	14533
871.23	14746
871.36	14754
871.489	14571
871.619	14629
871.749	14705
871.879	14880
872.008	14929
872.138	14765
872.267	14674
872.397	14678
872.526	14610
872.656	14587
872.785	14689
872.915	14785
873.044	14899
873.173	14765
873.303	14796
873.432	14864
873.561	14868
873.69	14811
873.819	14842
873.948	14899
874.077	14781
874.206	14792
874.335	14788
874.464	14929
874.593	14998
874.722	14998
874.851	15173
874.979	15142
875.108	15093
875.237	15119
875.365	15085
875.494	15116
875.623	15226
875.751	15123
875.88	15127
876.008	15302
876.136	15336
876.265	15542
876.393	15717
876.521	15686
876.65	15641
876.778	15507
876.906	15500
877.034	15386
877.162	15557
877.29	15386
877.418	15542
877.546	15549
877.674	15507
877.802	15488
877.93	15572
878.058	15431
878.185	15428
878.313	15511
878.441	15530
878.568	15485
878.696	15523
878.824	15591
878.951	15603
879.079	15816
879.206	15816
879.333	15599
879.461	15663
879.588	15705
879.715	15800
879.842	15747
879.97	15564
880.097	15363
880.224	15370
880.351	15466
880.478	15302
880.605	15389
880.732	15317
880.859	15648
880.986	15473
881.112	15408
881.239	15264
881.366	15150
881.493	15108
881.619	14967
881.746	15100
881.872	15039
881.999	15066
882.125	14994
882.252	14998
882.378	15150
882.505	15192
882.631	15097
882.757	14838
882.883	14914
883.01	14872
883.136	14834
883.262	14735
883.388	14705
883.514	14868
883.64	14883
883.766	14902
883.892	14697
884.018	14769
884.143	14895
884.269	14941
884.395	14632
884.52	14625
884.646	14552
884.772	14450
884.897	14511
885.023	14575
885.148	14651
885.274	14731
885.399	14571
885.524	14587
885.65	14651
885.775	14629
885.9	14610
886.025	14838
886.15	14689
886.275	14541
886.4	14564
886.525	14469
886.65	14499
886.775	14457
886.9	14655
887.025	14720
887.149	14514
887.274	14450
887.399	14294
887.523	14393
887.648	14244
887.773	14298
887.897	14514
888.021	14526
888.146	14381
888.27	14473
888.395	14514
888.519	14511
888.643	14469
888.767	14450
888.891	14286
889.015	14225
889.139	14294
889.263	14358
889.387	14355
889.511	14415
889.635	14469
889.759	14324
889.883	14218
890.006	14332
890.13	14400
890.254	14256
890.377	14218
890.501	14088
890.624	14092
890.748	14195
890.871	14050
890.995	13883
891.118	13856
891.241	14058
891.364	14043
891.488	14134
891.611	13997
891.734	13997
891.857	14012
891.98	14073
892.103	14016
892.226	13997
892.349	13875
892.471	13879
892.594	13932
892.717	13978
892.839	13997
892.962	14081
893.085	14046
893.207	13970
893.33	13822
893.452	13902
893.575	13993
893.697	13959
893.819	14191
893.941	14248
894.064	14115
894.186	13860
894.308	13947
894.43	14199
894.552	14225
894.674	14164
894.796	13917
894.918	14024
895.04	13986
895.161	14123
895.283	14081
895.405	14043
895.526	14145
895.648	14027
895.769	14199
895.891	14062
896.012	14214
896.134	14130
896.255	14138
896.376	14142
896.498	14115
896.619	14218
896.74	14134
896.861	14161
896.982	14473
897.103	14667
897.224	14484
897.345	14400
897.466	14374
897.587	14412
897.708	14579
897.828	14381
897.949	14393
898.07	14313
898.19	14396
898.311	14545
898.431	14488
898.552	14488
898.672	14526
898.792	14651
898.913	14533
899.033	14492
899.153	14324
899.273	14301
899.393	14290
899.513	14396
899.633	14423
899.753	14427
899.873	14377
899.993	14427
900.113	14366
900.232	14362
900.352	14313
900.472	14305
900.591	14172
900.711	14240
900.83	14187
900.95	14263
901.069	14263
901.189	14176
901.308	14020
901.427	13890
901.546	13837
901.665	13951
901.784	13959
901.904	13811
902.023	13658
902.141	13567
902.26	13415
902.379	13578
902.498	13438
902.617	13392
902.735	13476
902.854	13521
902.973	13422
903.091	13129
903.21	13194
903.328	13122
903.446	13065
903.565	13023
903.683	13050
903.801	12977
903.919	13019
904.038	13034
904.156	12871
904.274	12932
904.392	12894
904.51	12825
904.627	12814
904.745	12909
904.863	12947
904.981	12673
905.098	12540
905.216	12486
905.334	12574
905.451	12566
905.569	12521
905.686	12604
905.803	12502
905.921	12369
906.038	12448
906.155	12483
906.272	12247
906.389	12376
906.506	12102
906.623	12186
906.74	12091
906.857	11965
906.974	12095
907.091	12220
907.208	12251
907.324	12262
907.441	12076
907.557	11984
907.674	11923
907.79	11817
907.907	11783
908.023	11923
908.139	11931
908.256	11920
908.372	11779
908.488	11771
908.604	11752
908.72	11741
908.836	11684
908.952	11653
909.068	11695
909.184	11714
909.3	11710
909.415	11695
909.531	11646
909.647	11410
909.762	11455
909.878	11391
909.993	11467
910.108	11524
910.224	11421
910.339	11440
910.454	11337
910.57	11284
910.685	11227
910.8	11497
910.915	11512
911.03	11330
911.145	11280
911.259	11090
911.374	11212
911.489	11121
911.604	11079
911.718	10968
911.833	10965
911.947	10831
912.062	10831
912.176	10980
912.291	10949
912.405	10980
912.519	11147
912.633	11151
912.748	10942
912.862	10896
912.976	10812
913.09	10706
913.204	10759
913.318	10793
913.431	10850
913.545	10869
913.659	10896
913.772	10915
913.886	10714
914	10710
914.113	10778
914.226	10843
914.34	10831
914.453	10596
914.566	10748
914.68	10611
914.793	10683
914.906	10542
915.019	10390
915.132	10352
915.245	10421
915.358	10455
915.47	10432
915.583	10504
915.696	10500
915.809	10584
915.921	10656
916.034	10386
916.146	10478
916.259	10371
916.371	10459
916.483	10379
916.595	10405
916.708	10402
916.82	10379
916.932	10325
917.044	10337
917.156	10230
917.268	10272
917.38	10265
917.491	10249
917.603	10287
917.715	10341
917.826	10344
917.938	10280
918.049	10204
918.161	10306
918.272	10466
918.384	10341
918.495	10299
918.606	10143
918.717	10032
918.828	10169
918.939	10124
919.05	10006
919.161	10120
919.272	9953
919.383	9964
919.494	10219
919.604	10268
919.715	10204
919.826	10059
919.936	10135
920.047	10261
920.157	10192
920.267	10382
920.378	10143
920.488	10150
920.598	10394
920.708	10580
920.818	10432
920.928	10386
921.038	10485
921.148	10542
921.258	10188
921.368	10131
921.477	10040
921.587	10006
921.697	9937
921.806	10071
921.916	9895
922.025	9770
922.134	9751
922.244	9698
922.353	9785
922.462	9644
922.571	9564
922.68	9500
922.789	9420
922.898	9416
923.007	9393
923.116	9500
923.224	9363
923.333	9420
923.442	9268
923.55	9260
923.659	9332
923.767	9336
923.876	9325
923.984	9378
924.092	9256
924.201	9272
924.309	9283
924.417	9291
924.525	9211
924.633	9233
924.741	10211
924.849	9100
924.956	9226
925.064	9055
925.172	9047
925.279	8994
925.387	9188
925.494	9093
925.602	9157
925.709	9154
925.816	9074
925.924	9013
926.031	9157
926.138	9116
926.245	9119
926.352	9024
926.459	9119
926.566	9176
926.673	9100
926.779	8998
926.886	8952
926.993	8918
927.099	8857
927.206	8716
927.312	8689
927.419	8880
927.525	8830
927.631	8804
927.737	8708
927.843	8701
927.95	8552
928.056	8602
928.162	8670
928.267	8819
928.373	9340
928.479	8769
928.585	8617
928.69	8632
928.796	8712
928.901	8667
929.007	8484
929.112	8579
929.218	8602
929.323	8484
929.428	8511
929.533	8648
929.638	8484
929.743	8492
929.848	8522
929.953	8518
930.058	8400
930.163	8240
930.267	8320
930.372	8412
930.477	8206
930.581	8507
930.685	8358
930.79	8256
930.894	8248
930.998	8240
931.103	8396
931.207	8054
931.311	8027
931.415	7955
931.519	7784
931.623	7799
