Data from test_V78500241_919.txt Node
Date: Fri Mar 25 14:40:07 CST 2022
User: usil
Spectrometer: V785-0024
Trigger mode: 0
Integration Time (sec): 4.000000E-1
Scans to average: 1
Nonlinearity correction enabled: false
Boxcar width: 0
Storing dark spectrum: false
XAxis mode: Wavelengths
Number of Pixels in Spectrum: 1024
>>>>>Begin Spectral Data<<<<<
801.071	24916
801.214	24696
801.356	24414
801.499	24262
801.641	24292
801.783	24121
801.926	24201
802.068	23988
802.211	23996
802.353	23965
802.496	23729
802.638	23684
802.78	23581
802.923	23509
803.065	23562
803.208	23570
803.35	23395
803.492	23695
803.635	23604
803.777	23497
803.919	23509
804.061	23805
804.204	23611
804.346	23455
804.488	23410
804.63	23376
804.773	23356
804.915	23444
805.057	23623
805.199	23471
805.341	23539
805.483	23512
805.626	23455
805.768	23414
805.91	23554
806.052	23589
806.194	23589
806.336	23775
806.478	23668
806.62	23718
806.762	23832
806.904	23882
807.046	24292
807.188	24270
807.33	24209
807.472	24426
807.614	24574
807.756	24578
807.898	24738
808.04	24760
808.182	25228
808.324	25662
808.465	26248
808.607	26743
808.749	27363
808.891	27504
809.033	27606
809.174	27310
809.316	26708
809.458	26294
809.6	25662
809.741	25240
809.883	25012
810.025	24970
810.166	24875
810.308	24646
810.45	24589
810.591	24327
810.733	24057
810.875	24045
811.016	23912
811.158	23935
811.299	23992
811.441	24076
811.582	23920
811.724	23756
811.865	23767
812.007	23726
812.148	23863
812.29	23726
812.431	23958
812.573	24026
812.714	24091
812.855	24213
812.997	24262
813.138	24456
813.279	24315
813.421	24285
813.562	24194
813.703	23973
813.845	24003
813.986	23619
814.127	23353
814.268	23220
814.41	23254
814.551	23284
814.692	23220
814.833	23189
814.974	23079
815.115	23178
815.256	22930
815.397	23067
815.539	23029
815.68	22995
815.821	22820
815.962	23075
816.103	22839
816.244	22847
816.385	22656
816.526	22656
816.666	22588
816.807	22325
816.948	22561
817.089	22443
817.23	22329
817.371	22341
817.512	22333
817.653	22265
817.793	22360
817.934	22310
818.075	22295
818.216	22325
818.356	22211
818.497	22173
818.638	21956
818.778	21941
818.919	21998
819.06	21949
819.2	22196
819.341	22173
819.481	22211
819.622	22249
819.762	22421
819.903	22386
820.043	22299
820.184	22314
820.324	22230
820.465	22276
820.605	22204
820.746	22268
820.886	22154
821.026	22200
821.167	22181
821.307	22375
821.447	22139
821.588	22044
821.728	21793
821.868	21911
822.008	21534
822.149	21686
822.289	21679
822.429	21405
822.569	21233
822.709	21348
822.849	21020
822.99	21104
823.13	21161
823.27	21036
823.41	20864
823.55	20834
823.69	20929
823.83	20861
823.97	20697
824.11	20689
824.25	20632
824.389	20689
824.529	20842
824.669	20682
824.809	20861
824.949	20849
825.089	20819
825.228	20807
825.368	20511
825.508	20431
825.648	20552
825.787	20518
825.927	20461
826.067	20385
826.206	20423
826.346	20530
826.485	20385
826.625	20339
826.765	20522
826.904	20492
827.044	20149
827.183	20107
827.323	20077
827.462	20221
827.601	20084
827.741	20107
827.88	20130
828.02	19921
828.159	20149
828.298	20115
828.437	20115
828.577	20016
828.716	20157
828.855	20103
828.994	19940
829.134	19849
829.273	19871
829.412	19742
829.551	19750
829.69	19830
829.829	19902
829.968	19856
830.107	19986
830.246	19841
830.385	19712
830.524	19734
830.663	19643
830.802	19548
830.941	19499
831.08	19499
831.219	19643
831.357	19396
831.496	19658
831.635	19320
831.774	19396
831.913	19278
832.051	19213
832.19	19285
832.329	19225
832.467	19148
832.606	19046
832.744	19004
832.883	19183
833.022	19114
833.16	19065
833.299	19190
833.437	19213
833.576	19282
833.714	19339
833.852	19350
833.991	19354
834.129	19373
834.267	19308
834.406	19320
834.544	19251
834.682	19304
834.821	19301
834.959	19335
835.097	19110
835.235	19221
835.373	19107
835.511	19240
835.65	19072
835.788	18977
835.926	18871
836.064	18795
836.202	18928
836.34	18939
836.478	18989
836.615	18920
836.753	18966
836.891	19031
837.029	19023
837.167	18989
837.305	18783
837.443	18776
837.58	18844
837.718	18779
837.856	18814
837.993	18749
838.131	18776
838.269	18734
838.406	18768
838.544	18681
838.681	18490
838.819	18509
838.956	18369
839.094	18254
839.231	18399
839.369	18399
839.506	18669
839.643	18525
839.781	18350
839.918	18308
840.055	18247
840.193	18155
840.33	18281
840.467	18239
840.604	18372
840.742	18559
840.879	18110
841.016	18171
841.153	18186
841.29	18346
841.427	18083
841.564	18334
841.701	18342
841.838	18174
841.975	18171
842.112	18060
842.249	18064
842.385	17912
842.522	18121
842.659	18060
842.796	17939
842.933	18049
843.069	17931
843.206	17961
843.343	17988
843.479	17980
843.616	18022
843.752	17786
843.889	17726
844.025	17935
844.162	17760
844.298	17821
844.435	17843
844.571	17813
844.708	17996
844.844	18155
844.98	18167
845.117	18194
845.253	18235
845.389	18418
845.525	18894
845.661	19647
845.798	20765
845.934	21762
846.07	22036
846.206	21918
846.342	21359
846.478	20161
846.614	19091
846.75	18273
846.886	18106
847.022	17729
847.158	17573
847.294	17577
847.429	17471
847.565	17341
847.701	17581
847.837	17033
847.972	17064
848.108	17117
848.244	17060
848.379	16980
848.515	16854
848.65	16873
848.786	16881
848.921	16877
849.057	16987
849.192	17029
849.328	16961
849.463	16828
849.598	16797
849.734	16706
849.869	16698
850.004	16603
850.14	16588
850.275	16618
850.41	16569
850.545	16558
850.68	16577
850.815	16550
850.95	16592
851.085	16774
851.22	16694
851.355	16634
851.49	16531
851.625	16607
851.76	16611
851.895	16489
852.03	16474
852.165	16615
852.299	16672
852.434	16660
852.569	16774
852.703	16710
852.838	16801
852.973	16847
853.107	16748
853.242	16485
853.376	16413
853.511	16371
853.645	16443
853.78	16641
853.914	16554
854.048	16485
854.183	16436
854.317	16497
854.451	16603
854.585	16523
854.72	16394
854.854	16523
854.988	16337
855.122	16462
855.256	16348
855.39	16367
855.524	16588
855.658	16481
855.792	16474
855.926	16508
856.06	16451
856.194	16481
856.327	16478
856.461	16363
856.595	16360
856.729	16402
856.862	16462
856.996	16500
857.13	16432
857.263	16611
857.397	16649
857.53	16325
857.664	16421
857.797	16558
857.931	16523
858.064	16371
858.197	16504
858.331	16409
858.464	16455
858.597	16242
858.731	16363
858.864	16348
858.997	16367
859.13	16409
859.263	16417
859.396	16542
859.529	16409
859.662	16375
859.795	16344
859.928	16360
860.061	16569
860.194	16500
860.327	16303
860.46	16348
860.592	16447
860.725	16481
860.858	16546
860.99	16413
861.123	16295
861.256	16329
861.388	16382
861.521	17056
861.653	16246
861.786	16093
861.918	16276
862.05	16230
862.183	16337
862.315	16371
862.447	16481
862.58	16268
862.712	16147
862.844	16086
862.976	16162
863.108	16097
863.24	16573
863.372	16025
863.504	16063
863.636	16143
863.768	16192
863.9	16154
864.032	16078
864.164	16154
864.296	16135
864.428	16284
864.559	16181
864.691	16272
864.823	16188
864.954	16128
865.086	16093
865.217	16036
865.349	15956
865.48	16147
865.612	16002
865.743	16314
865.875	16063
866.006	16013
866.137	16090
866.269	15998
866.4	15991
866.531	15975
866.662	15930
866.793	16074
866.924	16055
867.055	16078
867.186	16048
867.317	15964
867.448	16002
867.579	16036
867.71	15991
867.841	16093
867.972	16120
868.103	16109
868.233	16097
868.364	16090
868.495	16143
868.625	16204
868.756	16504
868.886	16291
869.017	16306
869.147	16424
869.278	16417
869.408	16367
869.539	16325
869.669	16375
869.799	16234
869.929	16459
870.06	16402
870.19	16611
870.32	16622
870.45	16622
870.58	16786
870.71	16877
870.84	16793
870.97	16653
871.1	16668
871.23	16892
871.36	16885
871.489	16839
871.619	16896
871.749	16835
871.879	16786
872.008	17018
872.138	16862
872.267	16850
872.397	16733
872.526	16740
872.656	16767
872.785	16740
872.915	16911
873.044	16995
873.173	16896
873.303	17010
873.432	17067
873.561	17010
873.69	16965
873.819	17018
873.948	17022
874.077	16965
874.206	17071
874.335	17033
874.464	17239
874.593	17250
874.722	17315
874.851	17341
874.979	17421
875.108	17269
875.237	17280
875.365	17280
875.494	17265
875.623	17383
875.751	17273
875.88	17376
876.008	17505
876.136	17478
876.265	17680
876.393	17901
876.521	17843
876.65	17737
876.778	17714
876.906	17783
877.034	17752
877.162	17840
877.29	17710
877.418	17733
877.546	17863
877.674	17882
877.802	17980
877.93	17954
878.058	17935
878.185	17798
878.313	17908
878.441	18114
878.568	18011
878.696	18209
878.824	18407
878.951	18422
879.079	18947
879.206	19411
879.333	19525
879.461	19784
879.588	19993
879.715	19906
879.842	19875
879.97	19540
880.097	18954
880.224	18722
880.351	18604
880.478	18277
880.605	18213
880.732	18209
880.859	18251
880.986	18117
881.112	18159
881.239	17935
881.366	17847
881.493	17870
881.619	17783
881.746	17783
881.872	17821
881.999	17767
882.125	17722
882.252	17828
882.378	17794
882.505	17980
882.631	17608
882.757	17687
882.883	17611
883.01	17562
883.136	17539
883.262	17490
883.388	17337
883.514	17585
883.64	17581
883.766	17433
883.892	17368
884.018	17322
884.143	17566
884.269	17611
884.395	17296
884.52	17345
884.646	17235
884.772	17250
884.897	17151
885.023	17204
885.148	17330
885.274	17429
885.399	17303
885.524	17193
885.65	17159
885.775	17280
885.9	17143
886.025	17269
886.15	17185
886.275	17086
886.4	16980
886.525	16957
886.65	16991
886.775	17064
886.9	17162
887.025	17242
887.149	16976
887.274	16820
887.399	16828
887.523	16748
887.648	16767
887.773	16603
887.897	16729
888.021	16786
888.146	16573
888.27	16820
888.395	16790
888.519	16748
888.643	16675
888.767	16763
888.891	16584
889.015	16546
889.139	16588
889.263	16432
889.387	16588
889.511	16592
889.635	16558
889.759	16337
889.883	16287
890.006	16424
890.13	16603
890.254	16344
890.377	16512
890.501	16226
890.624	16196
890.748	16276
890.871	16139
890.995	16051
891.118	16105
891.241	16143
891.364	16040
891.488	16135
891.611	16044
891.734	15987
891.857	16173
891.98	16150
892.103	16086
892.226	16128
892.349	15926
892.471	15819
892.594	16044
892.717	15972
892.839	16086
892.962	16067
893.085	15987
893.207	15953
893.33	15911
893.452	15911
893.575	16013
893.697	15865
893.819	16131
893.941	16120
894.064	16143
894.186	15823
894.308	15785
894.43	15987
894.552	16154
894.674	15972
894.796	15918
894.918	15892
895.04	16032
895.161	16032
895.283	15991
895.405	15838
895.526	15983
895.648	16071
895.769	16074
895.891	16044
896.012	16124
896.134	16120
896.255	15972
896.376	16021
896.498	16120
896.619	16139
896.74	15998
896.861	16120
896.982	16428
897.103	16504
897.224	16337
897.345	16314
897.466	16284
897.587	16306
897.708	16512
897.828	16405
897.949	16276
898.07	16135
898.19	16200
898.311	16436
898.431	16253
898.552	16394
898.672	16382
898.792	16481
898.913	16443
899.033	16325
899.153	16204
899.273	16116
899.393	16162
899.513	16276
899.633	16169
899.753	16329
899.873	16124
899.993	16268
900.113	16154
900.232	16314
900.352	16196
900.472	16128
900.591	16021
900.711	16044
900.83	15975
900.95	16234
901.069	16173
901.189	16002
901.308	15831
901.427	15709
901.546	15641
901.665	15709
901.784	15698
901.904	15584
902.023	15530
902.141	15389
902.26	15313
902.379	15332
902.498	15294
902.617	15184
902.735	15256
902.854	15176
902.973	15142
903.091	14963
903.21	14952
903.328	14887
903.446	14891
903.565	14815
903.683	14727
903.801	14659
903.919	14735
904.038	14629
904.156	14621
904.274	14549
904.392	14476
904.51	14511
904.627	14598
904.745	14564
904.863	14583
904.981	14385
905.098	14115
905.216	14294
905.334	14259
905.451	14233
905.569	14134
905.686	14202
905.803	14130
905.921	13955
906.038	14008
906.155	14027
906.272	13890
906.389	13883
906.506	13727
906.623	13689
906.74	13700
906.857	13632
906.974	13712
907.091	13841
907.208	13784
907.324	13784
907.441	13563
907.557	13392
907.674	13403
907.79	13362
907.907	13441
908.023	13483
908.139	13365
908.256	13346
908.372	13308
908.488	13297
908.604	13263
908.72	13194
908.836	13141
908.952	13152
909.068	13194
909.184	13354
909.3	13129
909.415	13285
909.531	13137
909.647	12909
909.762	12920
909.878	12776
909.993	12886
910.108	12909
910.224	12901
910.339	12913
910.454	12730
910.57	12791
910.685	12684
910.8	12909
910.915	12943
911.03	12741
911.145	12559
911.259	12574
911.374	12620
911.489	12498
911.604	12460
911.718	12292
911.833	12353
911.947	12201
912.062	12133
912.176	12243
912.291	12353
912.405	12205
912.519	12433
912.633	12528
912.748	12346
912.862	12224
912.976	12095
913.09	12072
913.204	12175
913.318	12098
913.431	12304
913.545	12228
913.659	12220
913.772	12121
913.886	12022
914	12045
914.113	12194
914.226	12178
914.34	12095
914.453	11977
914.566	12152
914.68	11942
914.793	11961
914.906	11771
915.019	11638
915.132	11714
915.245	11699
915.358	11695
915.47	11840
915.583	11722
915.696	11783
915.809	11931
915.921	11885
916.034	11748
916.146	11653
916.259	11699
916.371	11752
916.483	11745
916.595	11661
916.708	11623
916.82	11562
916.932	11600
917.044	11600
917.156	11642
917.268	11467
917.38	11592
917.491	11497
917.603	11615
917.715	11589
917.826	11604
917.938	11467
918.049	11353
918.161	11490
918.272	11703
918.384	11703
918.495	11562
918.606	11467
918.717	11292
918.828	11414
918.939	11425
919.05	11307
919.161	11284
919.272	11083
919.383	11185
919.494	11372
919.604	11581
919.715	11337
919.826	11326
919.936	11372
920.047	11493
920.157	11429
920.267	11516
920.378	11353
920.488	11265
920.598	11566
920.708	11707
920.818	11528
920.928	11509
921.038	11737
921.148	11691
921.258	11417
921.368	11356
921.477	11189
921.587	11136
921.697	11155
921.806	11216
921.916	11056
922.025	10866
922.134	10862
922.244	10896
922.353	10877
922.462	10763
922.571	10706
922.68	10573
922.789	10523
922.898	10550
923.007	10455
923.116	10573
923.224	10603
923.333	10489
923.442	10440
923.55	10417
923.659	10382
923.767	10512
923.876	10318
923.984	10485
924.092	10299
924.201	10386
924.309	10375
924.417	10405
924.525	10299
924.633	10261
924.741	11109
924.849	10082
924.956	10310
925.064	10204
925.172	10071
925.279	10097
925.387	10116
925.494	10124
925.602	10306
925.709	10143
925.816	10143
925.924	10067
926.031	10265
926.138	10109
926.245	10158
926.352	10097
926.459	10158
926.566	10204
926.673	10044
926.779	9987
926.886	9918
926.993	9812
927.099	9838
927.206	9759
927.312	9774
927.419	9892
927.525	9789
927.631	9861
927.737	9713
927.843	9690
927.95	9576
928.056	9686
928.162	9747
928.267	9698
928.373	10341
928.479	9770
928.585	9530
928.69	9675
928.796	9682
928.901	9614
929.007	9485
929.112	9603
929.218	9576
929.323	9526
929.428	9428
929.533	9675
929.638	9389
929.743	9477
929.848	9511
929.953	9435
930.058	9408
930.163	9199
930.267	9317
930.372	9336
930.477	9214
930.581	9439
930.685	9317
930.79	9192
930.894	9192
930.998	9157
931.103	9272
931.207	8975
931.311	8876
931.415	8902
931.519	8678
931.623	8617
