Data from test_V78500241_2505.txt Node
Date: Fri Mar 25 14:51:09 CST 2022
User: usil
Spectrometer: V785-0024
Trigger mode: 0
Integration Time (sec): 4.000000E-1
Scans to average: 1
Nonlinearity correction enabled: false
Boxcar width: 0
Storing dark spectrum: false
XAxis mode: Wavelengths
Number of Pixels in Spectrum: 1024
>>>>>Begin Spectral Data<<<<<
801.071	22051
801.214	21949
801.356	21812
801.499	21675
801.641	21424
801.783	21408
801.926	21466
802.068	21336
802.211	21264
802.353	21192
802.496	21024
802.638	20838
802.78	20899
802.923	20849
803.065	20716
803.208	20777
803.35	20739
803.492	20785
803.635	20880
803.777	20667
803.919	20819
804.061	21100
804.204	20777
804.346	20708
804.488	20663
804.63	20758
804.773	20530
804.915	20765
805.057	20686
805.199	20644
805.341	20769
805.483	20769
805.626	20659
805.768	20556
805.91	20594
806.052	20785
806.194	20613
806.336	20785
806.478	20727
806.62	20587
806.762	20655
806.904	20819
807.046	21180
807.188	21070
807.33	21089
807.472	21104
807.614	20811
807.756	20823
807.898	20872
808.04	20792
808.182	20807
808.324	20804
808.465	20857
808.607	20967
808.749	20986
808.891	21169
809.033	21249
809.174	21161
809.316	21020
809.458	21123
809.6	20960
809.741	21138
809.883	21096
810.025	21249
810.166	21207
810.308	21374
810.45	21226
810.591	20937
810.733	20918
810.875	20952
811.016	20819
811.158	20735
811.299	20819
811.441	21009
811.582	20956
811.724	20792
811.865	20895
812.007	20712
812.148	20697
812.29	20765
812.431	20925
812.573	21127
812.714	21123
812.855	21287
812.997	21564
813.138	21530
813.279	21488
813.421	21382
813.562	21245
813.703	21165
813.845	20929
813.986	20697
814.127	20503
814.268	20465
814.41	20499
814.551	20431
814.692	20377
814.833	20305
814.974	20317
815.115	20579
815.256	20157
815.397	20248
815.539	20298
815.68	20016
815.821	20031
815.962	20199
816.103	20035
816.244	19864
816.385	19909
816.526	19765
816.666	19685
816.807	19506
816.948	19594
817.089	19632
817.23	19544
817.371	19559
817.512	19499
817.653	19491
817.793	19506
817.934	19518
818.075	19586
818.216	19457
818.356	19438
818.497	19362
818.638	19187
818.778	19270
818.919	19259
819.06	19247
819.2	19346
819.341	19377
819.481	19335
819.622	19453
819.762	19605
819.903	19715
820.043	19506
820.184	19681
820.324	19540
820.465	19552
820.605	19483
820.746	19594
820.886	19335
821.026	19533
821.167	19491
821.307	19533
821.447	19453
821.588	19232
821.728	19126
821.868	19114
822.008	18901
822.149	18798
822.289	18947
822.429	18604
822.569	18582
822.709	18563
822.849	18456
822.99	18388
823.13	18429
823.27	18209
823.41	18213
823.55	18186
823.69	18235
823.83	18235
823.97	18087
824.11	17954
824.25	17969
824.389	17870
824.529	17977
824.669	17897
824.809	18049
824.949	18003
825.089	18045
825.228	18064
825.368	17855
825.508	17707
825.648	17783
825.787	17851
825.927	17779
826.067	17722
826.206	17737
826.346	17832
826.485	17741
826.625	17802
826.765	17851
826.904	17707
827.044	17509
827.183	17543
827.323	17410
827.462	17474
827.601	17486
827.741	17444
827.88	17524
828.02	17360
828.159	17364
828.298	17490
828.437	17421
828.577	17391
828.716	17509
828.855	17417
828.994	17223
829.134	17166
829.273	17307
829.412	17143
829.551	17239
829.69	17159
829.829	17185
829.968	17330
830.107	17246
830.246	17220
830.385	17136
830.524	17094
830.663	17052
830.802	16927
830.941	16824
831.08	16774
831.219	16923
831.357	16896
831.496	17025
831.635	16797
831.774	16672
831.913	16706
832.051	16592
832.19	16596
832.329	16672
832.467	16402
832.606	16485
832.744	16493
832.883	16512
833.022	16470
833.16	16470
833.299	16550
833.437	16474
833.576	16596
833.714	16440
833.852	16569
833.991	16535
834.129	16622
834.267	16618
834.406	16527
834.544	16588
834.682	16573
834.821	16641
834.959	16713
835.097	16538
835.235	16675
835.373	16531
835.511	16580
835.65	16447
835.788	16363
835.926	16314
836.064	16299
836.202	16284
836.34	16538
836.478	16622
836.615	16379
836.753	16478
836.891	16565
837.029	16478
837.167	16363
837.305	16382
837.443	16447
837.58	16329
837.718	16462
837.856	16337
837.993	16287
838.131	16299
838.269	16166
838.406	16154
838.544	16169
838.681	16017
838.819	16074
838.956	15880
839.094	15797
839.231	15960
839.369	16006
839.506	16337
839.643	16150
839.781	15926
839.918	15732
840.055	15876
840.193	15854
840.33	15808
840.467	15846
840.604	15934
840.742	16207
840.879	15663
841.016	15766
841.153	15797
841.29	15960
841.427	15827
841.564	15861
841.701	15888
841.838	15812
841.975	15751
842.112	15812
842.249	15690
842.385	15591
842.522	15915
842.659	15739
842.796	15641
842.933	15633
843.069	15557
843.206	15564
843.343	15732
843.479	15732
843.616	15698
843.752	15458
843.889	15393
844.025	15637
844.162	15439
844.298	15485
844.435	15424
844.571	15348
844.708	15420
844.844	15576
844.98	15622
845.117	15614
845.253	15412
845.389	15386
845.525	15408
845.661	15298
845.798	15268
845.934	15245
846.07	15142
846.206	15351
846.342	15405
846.478	15287
846.614	15058
846.75	14910
846.886	14952
847.022	15207
847.158	15074
847.294	15085
847.429	15058
847.565	15093
847.701	15184
847.837	14887
847.972	14705
848.108	14758
848.244	14830
848.379	14693
848.515	14682
848.65	14594
848.786	14651
848.921	14678
849.057	14636
849.192	14716
849.328	14655
849.463	14632
849.598	14686
849.734	14533
849.869	14480
850.004	14438
850.14	14438
850.275	14328
850.41	14374
850.545	14434
850.68	14320
850.815	14332
850.95	14377
851.085	14556
851.22	14469
851.355	14351
851.49	14393
851.625	14400
851.76	14423
851.895	14309
852.03	14202
852.165	14351
852.299	14362
852.434	14495
852.569	14355
852.703	14396
852.838	14495
852.973	14511
853.107	14530
853.242	14370
853.376	14271
853.511	14142
853.645	14191
853.78	14336
853.914	14324
854.048	14233
854.183	14191
854.317	14183
854.451	14446
854.585	14221
854.72	14244
854.854	14305
854.988	14126
855.122	14252
855.256	14111
855.39	14267
855.524	14336
855.658	14248
855.792	14267
855.926	14210
856.06	14355
856.194	14252
856.327	14229
856.461	14191
856.595	14096
856.729	14119
856.862	14381
856.996	14195
857.13	14320
857.263	14290
857.397	14233
857.53	14233
857.664	14324
857.797	14339
857.931	14412
858.064	14408
858.197	14256
858.331	14218
858.464	14233
858.597	14084
858.731	14309
858.864	14233
858.997	14172
859.13	14252
859.263	14237
859.396	14298
859.529	14259
859.662	14191
859.795	14244
859.928	14218
860.061	14370
860.194	14480
860.327	14294
860.46	14218
860.592	14278
860.725	14332
860.858	14370
860.99	14301
861.123	14214
861.256	14103
861.388	14199
861.521	14830
861.653	14195
861.786	14153
861.918	14024
862.05	14244
862.183	14267
862.315	14256
862.447	14275
862.58	14153
862.712	14024
862.844	13993
862.976	14008
863.108	14103
863.24	14324
863.372	14020
863.504	14027
863.636	13993
863.768	14005
863.9	14142
864.032	14081
864.164	13978
864.296	14103
864.428	14119
864.559	14168
864.691	14031
864.823	14164
864.954	14050
865.086	14100
865.217	14065
865.349	13982
865.48	13970
865.612	14103
865.743	14229
865.875	14027
866.006	13947
866.137	13906
866.269	14107
866.4	13974
866.531	13989
866.662	13883
866.793	13955
866.924	14035
867.055	14065
867.186	14027
867.317	14046
867.448	13894
867.579	14043
867.71	13913
867.841	13993
867.972	14065
868.103	13997
868.233	13932
868.364	14062
868.495	14168
868.625	14180
868.756	14305
868.886	14240
869.017	14267
869.147	14351
869.278	14362
869.408	14385
869.539	14240
869.669	14263
869.799	14290
869.929	14469
870.06	14286
870.19	14518
870.32	14621
870.45	14610
870.58	14636
870.71	14800
870.84	14743
870.97	14629
871.1	14667
871.23	14807
871.36	14845
871.489	14781
871.619	14823
871.749	14868
871.879	14910
872.008	15036
872.138	14872
872.267	14845
872.397	14746
872.526	14758
872.656	14621
872.785	14617
872.915	14929
873.044	14948
873.173	14876
873.303	14914
873.432	14933
873.561	14925
873.69	14891
873.819	14986
873.948	14998
874.077	14902
874.206	14921
874.335	14902
874.464	15047
874.593	15275
874.722	15081
874.851	15321
874.979	15222
875.108	15260
875.237	15184
875.365	15176
875.494	15203
875.623	15203
875.751	15207
875.88	15214
876.008	15424
876.136	15549
876.265	15656
876.393	15751
876.521	15698
876.65	15785
876.778	15724
876.906	15625
877.034	15599
877.162	15667
877.29	15564
877.418	15614
877.546	15603
877.674	15629
877.802	15686
877.93	15709
878.058	15603
878.185	15485
878.313	15720
878.441	15572
878.568	15538
878.696	15660
878.824	15545
878.951	15724
879.079	15770
879.206	16105
879.333	15739
879.461	15667
879.588	15785
879.715	15781
879.842	15903
879.97	15671
880.097	15454
880.224	15420
880.351	15526
880.478	15473
880.605	15401
880.732	15496
880.859	15736
880.986	15576
881.112	15599
881.239	15325
881.366	15370
881.493	15199
881.619	15176
881.746	15138
881.872	15135
881.999	15089
882.125	15085
882.252	15192
882.378	15051
882.505	15325
882.631	15127
882.757	14899
882.883	15058
883.01	15047
883.136	14872
883.262	14792
883.388	14792
883.514	14864
883.64	14994
883.766	14933
883.892	14842
884.018	14925
884.143	14925
884.269	15039
884.395	14629
884.52	14651
884.646	14708
884.772	14590
884.897	14560
885.023	14670
885.148	14773
885.274	14785
885.399	14727
885.524	14754
885.65	14667
885.775	14621
885.9	14720
886.025	14781
886.15	14705
886.275	14701
886.4	14575
886.525	14526
886.65	14670
886.775	14575
886.9	14807
887.025	14792
887.149	14621
887.274	14549
887.399	14454
887.523	14522
887.648	14415
887.773	14457
887.897	14602
888.021	14583
888.146	14549
888.27	14533
888.395	14640
888.519	14545
888.643	14541
888.767	14571
888.891	14446
889.015	14320
889.139	14457
889.263	14370
889.387	14484
889.511	14598
889.635	14507
889.759	14267
889.883	14377
890.006	14313
890.13	14503
890.254	14240
890.377	14343
890.501	14221
890.624	14248
890.748	14328
890.871	14149
890.995	13997
891.118	13963
891.241	14069
891.364	14081
891.488	14153
891.611	14039
891.734	14088
891.857	14062
891.98	14001
892.103	14103
892.226	14142
892.349	14096
892.471	14001
892.594	14039
892.717	14081
892.839	14142
892.962	14134
893.085	14153
893.207	14092
893.33	14012
893.452	13993
893.575	14103
893.697	14069
893.819	14290
893.941	14374
894.064	14244
894.186	13989
894.308	14130
894.43	14176
894.552	14324
894.674	14233
894.796	14062
894.918	14103
895.04	14077
895.161	14202
895.283	14153
895.405	14187
895.526	14176
895.648	14210
895.769	14290
895.891	14259
896.012	14286
896.134	14202
896.255	14206
896.376	14221
896.498	14259
896.619	14343
896.74	14290
896.861	14313
896.982	14594
897.103	14777
897.224	14564
897.345	14514
897.466	14457
897.587	14438
897.708	14613
897.828	14606
897.949	14480
898.07	14305
898.19	14469
898.311	14610
898.431	14484
898.552	14568
898.672	14625
898.792	14754
898.913	14697
899.033	14606
899.153	14400
899.273	14305
899.393	14320
899.513	14503
899.633	14461
899.753	14457
899.873	14339
899.993	14400
900.113	14396
900.232	14533
900.352	14396
900.472	14294
900.591	14317
900.711	14313
900.83	14301
900.95	14415
901.069	14476
901.189	14218
901.308	14031
901.427	14046
901.546	13989
901.665	14103
901.784	13997
901.904	13837
902.023	13830
902.141	13624
902.26	13544
902.379	13559
902.498	13590
902.617	13525
902.735	13556
902.854	13521
902.973	13487
903.091	13236
903.21	13324
903.328	13285
903.446	13164
903.565	13164
903.683	13145
903.801	13080
903.919	13179
904.038	13126
904.156	12966
904.274	13000
904.392	12886
904.51	12973
904.627	12920
904.745	13000
904.863	13038
904.981	12669
905.098	12612
905.216	12684
905.334	12684
905.451	12688
905.569	12566
905.686	12681
905.803	12642
905.921	12403
906.038	12620
906.155	12547
906.272	12460
906.389	12384
906.506	12270
906.623	12152
906.74	12281
906.857	12045
906.974	12178
907.091	12289
907.208	12372
907.324	12289
907.441	12117
907.557	11961
907.674	12015
907.79	11870
907.907	11969
908.023	12007
908.139	12053
908.256	11935
908.372	11901
908.488	11828
908.604	11783
908.72	11733
908.836	11741
908.952	11790
909.068	11802
909.184	11843
909.3	11733
909.415	11802
909.531	11710
909.647	11516
909.762	11490
909.878	11486
909.993	11589
910.108	11433
910.224	11528
910.339	11497
910.454	11421
910.57	11410
910.685	11395
910.8	11638
910.915	11608
911.03	11326
911.145	11201
911.259	11159
911.374	11201
911.489	11178
911.604	11071
911.718	10976
911.833	11033
911.947	10839
912.062	10820
912.176	10957
912.291	10961
912.405	11037
912.519	11102
912.633	11143
912.748	11025
912.862	10919
912.976	10809
913.09	10801
913.204	10786
913.318	10778
913.431	10934
913.545	10911
913.659	10942
913.772	10873
913.886	10706
914	10702
914.113	10839
914.226	10930
914.34	10839
914.453	10679
914.566	10759
914.68	10615
914.793	10694
914.906	10478
915.019	10451
915.132	10432
915.245	10424
915.358	10531
915.47	10500
915.583	10432
915.696	10569
915.809	10527
915.921	10603
916.034	10436
916.146	10405
916.259	10443
916.371	10497
916.483	10535
916.595	10405
916.708	10409
916.82	10436
916.932	10398
917.044	10367
917.156	10344
917.268	10257
917.38	10306
917.491	10234
917.603	10318
917.715	10379
917.826	10405
917.938	10352
918.049	10207
918.161	10257
918.272	10398
918.384	10356
918.495	10409
918.606	10211
918.717	10124
918.828	10192
918.939	10181
919.05	10143
919.161	10128
919.272	10006
919.383	10044
919.494	10234
919.604	10428
919.715	10131
919.826	10173
919.936	10135
920.047	10261
920.157	10109
920.267	10451
920.378	10211
920.488	10196
920.598	10386
920.708	10516
920.818	10402
920.928	10295
921.038	10618
921.148	10546
921.258	10261
921.368	10242
921.477	10078
921.587	10040
921.697	9899
921.806	10097
921.916	9972
922.025	9778
922.134	9724
922.244	9728
922.353	9705
922.462	9656
922.571	9614
922.68	9488
922.789	9370
922.898	9420
923.007	9355
923.116	9488
923.224	9485
923.333	9458
923.442	9329
923.55	9332
923.659	9367
923.767	9408
923.876	9336
923.984	9382
924.092	9272
924.201	9336
924.309	9287
924.417	9249
924.525	9230
924.633	9329
924.741	10234
924.849	9116
924.956	9317
925.064	9154
925.172	9009
925.279	9119
925.387	9066
925.494	9146
925.602	9211
925.709	9135
925.816	9036
925.924	9119
926.031	9203
926.138	9112
926.245	9173
926.352	9093
926.459	9119
926.566	9241
926.673	9043
926.779	9001
926.886	8986
926.993	8872
927.099	8834
927.206	8766
927.312	8788
927.419	8826
927.525	8853
927.631	8899
927.737	8762
927.843	8705
927.95	8632
928.056	8693
928.162	8739
928.267	8769
928.373	9340
928.479	8811
928.585	8602
928.69	8678
928.796	8701
928.901	8651
929.007	8446
929.112	8651
929.218	8587
929.323	8492
929.428	8492
929.533	8655
929.638	8431
929.743	8446
929.848	8594
929.953	8511
930.058	8442
930.163	8301
930.267	8305
930.372	8450
930.477	8294
930.581	8469
930.685	8438
930.79	8282
930.894	8313
930.998	8267
931.103	8396
931.207	8081
931.311	7993
931.415	7909
931.519	7784
931.623	7674
