Data from test_V78500241_1745.txt Node
Date: Fri Mar 25 14:45:51 CST 2022
User: usil
Spectrometer: V785-0024
Trigger mode: 0
Integration Time (sec): 4.000000E-1
Scans to average: 1
Nonlinearity correction enabled: false
Boxcar width: 0
Storing dark spectrum: false
XAxis mode: Wavelengths
Number of Pixels in Spectrum: 1024
>>>>>Begin Spectral Data<<<<<
801.071	22204
801.214	22078
801.356	21899
801.499	21793
801.641	21713
801.783	21500
801.926	21656
802.068	21469
802.211	21412
802.353	21336
802.496	21188
802.638	21066
802.78	20975
802.923	20925
803.065	20948
803.208	20868
803.35	20941
803.492	20963
803.635	21009
803.777	20777
803.919	21028
804.061	21340
804.204	20944
804.346	20899
804.488	20800
804.63	20826
804.773	20727
804.915	20739
805.057	20960
805.199	20796
805.341	20933
805.483	20906
805.626	20925
805.768	20735
805.91	20834
806.052	20925
806.194	20743
806.336	20899
806.478	20853
806.62	20545
806.762	20811
806.904	21009
807.046	21249
807.188	21150
807.33	21081
807.472	21283
807.614	21100
807.756	21081
807.898	20918
808.04	20834
808.182	20830
808.324	20944
808.465	21055
808.607	21127
808.749	21256
808.891	21359
809.033	21412
809.174	21230
809.316	21135
809.458	21203
809.6	21218
809.741	21211
809.883	21180
810.025	21348
810.166	21412
810.308	21408
810.45	21313
810.591	21260
810.733	21116
810.875	21066
811.016	20994
811.158	20887
811.299	21070
811.441	21096
811.582	21085
811.724	21039
811.865	21108
812.007	20921
812.148	20994
812.29	21024
812.431	21195
812.573	21351
812.714	21317
812.855	21458
812.997	21622
813.138	21663
813.279	21637
813.421	21496
813.562	21412
813.703	21298
813.845	21077
813.986	20853
814.127	20765
814.268	20613
814.41	20609
814.551	20594
814.692	20545
814.833	20351
814.974	20518
815.115	20507
815.256	20317
815.397	20431
815.539	20503
815.68	20301
815.821	20313
815.962	20248
816.103	20313
816.244	20153
816.385	19993
816.526	20012
816.666	19826
816.807	19647
816.948	19772
817.089	19887
817.23	19674
817.371	19712
817.512	19662
817.653	19704
817.793	19647
817.934	19651
818.075	19681
818.216	19632
818.356	19704
818.497	19388
818.638	19228
818.778	19400
818.919	19499
819.06	19457
819.2	19411
819.341	19537
819.481	19590
819.622	19708
819.762	19864
819.903	19803
820.043	19719
820.184	19708
820.324	19616
820.465	19712
820.605	19757
820.746	19662
820.886	19480
821.026	19628
821.167	19605
821.307	19700
821.447	19651
821.588	19426
821.728	19289
821.868	19255
822.008	19065
822.149	19129
822.289	18966
822.429	18852
822.569	18764
822.709	18700
822.849	18418
822.99	18574
823.13	18445
823.27	18532
823.41	18464
823.55	18224
823.69	18369
823.83	18391
823.97	18361
824.11	18155
824.25	18144
824.389	18064
824.529	18190
824.669	18136
824.809	18224
824.949	18201
825.089	18190
825.228	18197
825.368	17973
825.508	18030
825.648	17984
825.787	17969
825.927	18110
826.067	17752
826.206	17794
826.346	17904
826.485	17893
826.625	17893
826.765	18060
826.904	17859
827.044	17775
827.183	17630
827.323	17608
827.462	17638
827.601	17493
827.741	17505
827.88	17528
828.02	17520
828.159	17589
828.298	17524
828.437	17684
828.577	17497
828.716	17707
828.855	17539
828.994	17455
829.134	17254
829.273	17474
829.412	17330
829.551	17425
829.69	17379
829.829	17395
829.968	17391
830.107	17368
830.246	17436
830.385	17395
830.524	17239
830.663	17094
830.802	17090
830.941	16881
831.08	16987
831.219	17075
831.357	17071
831.496	17197
831.635	17025
831.774	16881
831.913	16797
832.051	16774
832.19	16816
832.329	16816
832.467	16615
832.606	16584
832.744	16641
832.883	16702
833.022	16721
833.16	16694
833.299	16611
833.437	16607
833.576	16660
833.714	16774
833.852	16778
833.991	16767
834.129	16793
834.267	16759
834.406	16850
834.544	16771
834.682	16702
834.821	16752
834.959	16961
835.097	16679
835.235	16782
835.373	16660
835.511	16733
835.65	16656
835.788	16599
835.926	16443
836.064	16440
836.202	16462
836.34	16637
836.478	16752
836.615	16580
836.753	16656
836.891	16717
837.029	16687
837.167	16546
837.305	16474
837.443	16459
837.58	16478
837.718	16546
837.856	16424
837.993	16402
838.131	16405
838.269	16379
838.406	16481
838.544	16314
838.681	16158
838.819	16097
838.956	15960
839.094	16051
839.231	16029
839.369	16249
839.506	16371
839.643	16322
839.781	16063
839.918	16029
840.055	16086
840.193	16051
840.33	15994
840.467	15960
840.604	15956
840.742	16223
840.879	15899
841.016	15819
841.153	15998
841.29	16029
841.427	16059
841.564	16059
841.701	16055
841.838	15960
841.975	15994
842.112	15991
842.249	15876
842.385	15713
842.522	15926
842.659	15865
842.796	15739
842.933	15804
843.069	15732
843.206	15717
843.343	15808
843.479	15819
843.616	15842
843.752	15572
843.889	15538
844.025	15800
844.162	15641
844.298	15667
844.435	15580
844.571	15515
844.708	15660
844.844	15778
844.98	15713
845.117	15648
845.253	15606
845.389	15469
845.525	15515
845.661	15500
845.798	15393
845.934	15401
846.07	15408
846.206	15507
846.342	15504
846.478	15367
846.614	15211
846.75	15226
846.886	15093
847.022	15310
847.158	15157
847.294	15203
847.429	15100
847.565	15203
847.701	15439
847.837	14929
847.972	14895
848.108	15039
848.244	15081
848.379	14834
848.515	14659
848.65	14830
848.786	14785
848.921	14781
849.057	14994
849.192	14952
849.328	14792
849.463	14823
849.598	14796
849.734	14781
849.869	14644
850.004	14564
850.14	14621
850.275	14610
850.41	14541
850.545	14556
850.68	14457
850.815	14579
850.95	14541
851.085	14720
851.22	14727
851.355	14590
851.49	14434
851.625	14469
851.76	14552
851.895	14351
852.03	14427
852.165	14499
852.299	14606
852.434	14617
852.569	14571
852.703	14594
852.838	14613
852.973	14705
853.107	14625
853.242	14533
853.376	14404
853.511	14282
853.645	14393
853.78	14507
853.914	14450
854.048	14419
854.183	14381
854.317	14404
854.451	14556
854.585	14419
854.72	14473
854.854	14476
854.988	14385
855.122	14484
855.256	14358
855.39	14370
855.524	14526
855.658	14514
855.792	14446
855.926	14495
856.06	14434
856.194	14564
856.327	14434
856.461	14381
856.595	14343
856.729	14358
856.862	14629
856.996	14480
857.13	14560
857.263	14533
857.397	14412
857.53	14374
857.664	14465
857.797	14476
857.931	14530
858.064	14514
858.197	14522
858.331	14389
858.464	14385
858.597	14339
858.731	14351
858.864	14446
858.997	14355
859.13	14526
859.263	14396
859.396	14602
859.529	14419
859.662	14450
859.795	14385
859.928	14488
860.061	14648
860.194	14716
860.327	14461
860.46	14438
860.592	14556
860.725	14492
860.858	14469
860.99	14469
861.123	14347
861.256	14347
861.388	14450
861.521	15184
861.653	14298
861.786	14298
861.918	14320
862.05	14324
862.183	14446
862.315	14473
862.447	14511
862.58	14309
862.712	14263
862.844	14157
862.976	14240
863.108	14271
863.24	14632
863.372	14123
863.504	14115
863.636	14214
863.768	14240
863.9	14244
864.032	14172
864.164	14153
864.296	14214
864.428	14408
864.559	14355
864.691	14298
864.823	14294
864.954	14237
865.086	14324
865.217	14214
865.349	14138
865.48	14237
865.612	14290
865.743	14309
865.875	14172
866.006	14278
866.137	14164
866.269	14206
866.4	14161
866.531	14206
866.662	14046
866.793	14176
866.924	14103
867.055	14168
867.186	14145
867.317	14058
867.448	14134
867.579	14221
867.71	14138
867.841	14111
867.972	14168
868.103	14259
868.233	14221
868.364	14214
868.495	14267
868.625	14336
868.756	14568
868.886	14290
869.017	14377
869.147	14503
869.278	14552
869.408	14431
869.539	14423
869.669	14499
869.799	14545
869.929	14476
870.06	14492
870.19	14663
870.32	14708
870.45	14678
870.58	14868
870.71	14956
870.84	15032
870.97	14853
871.1	14796
871.23	15017
871.36	15066
871.489	14952
871.619	14986
871.749	15058
871.879	15032
872.008	15123
872.138	15024
872.267	15058
872.397	14861
872.526	14811
872.656	14819
872.785	14994
872.915	15062
873.044	15138
873.173	15055
873.303	15009
873.432	15077
873.561	15154
873.69	15203
873.819	15146
873.948	15252
874.077	15180
874.206	15085
874.335	15173
874.464	15150
874.593	15481
874.722	15435
874.851	15382
874.979	15439
875.108	15405
875.237	15443
875.365	15378
875.494	15416
875.623	15370
875.751	15355
875.88	15439
876.008	15614
876.136	15538
876.265	15838
876.393	16013
876.521	15892
876.65	15994
876.778	15842
876.906	15709
877.034	15739
877.162	15656
877.29	15800
877.418	15873
877.546	15812
877.674	15861
877.802	15861
877.93	15774
878.058	15762
878.185	15724
878.313	15713
878.441	15827
878.568	15610
878.696	15781
878.824	15827
878.951	15819
879.079	15922
879.206	16192
879.333	15934
879.461	15895
879.588	15884
879.715	16120
879.842	16131
879.97	15926
880.097	15698
880.224	15648
880.351	15713
880.478	15606
880.605	15637
880.732	15705
880.859	15934
880.986	15663
881.112	15675
881.239	15572
881.366	15469
881.493	15386
881.619	15351
881.746	15287
881.872	15336
881.999	15157
882.125	15230
882.252	15355
882.378	15310
882.505	15519
882.631	15260
882.757	15100
882.883	15207
883.01	15100
883.136	15074
883.262	15058
883.388	14998
883.514	15074
883.64	15173
883.766	15093
883.892	14967
884.018	14929
884.143	15131
884.269	15203
884.395	14956
884.52	14773
884.646	14830
884.772	14648
884.897	14788
885.023	14876
885.148	14929
885.274	15062
885.399	15043
885.524	14933
885.65	14933
885.775	14887
885.9	14921
886.025	14921
886.15	14834
886.275	14727
886.4	14739
886.525	14743
886.65	14727
886.775	14792
886.9	14918
887.025	15001
887.149	14891
887.274	14750
887.399	14670
887.523	14651
887.648	14552
887.773	14617
887.897	14819
888.021	14644
888.146	14621
888.27	14663
888.395	14849
888.519	14636
888.643	14826
888.767	14697
888.891	14594
889.015	14427
889.139	14511
889.263	14533
889.387	14651
889.511	14762
889.635	14617
889.759	14530
889.883	14530
890.006	14568
890.13	14602
890.254	14427
890.377	14511
890.501	14374
890.624	14256
890.748	14423
890.871	14305
890.995	14183
891.118	14050
891.241	14240
891.364	14218
891.488	14282
891.611	14244
891.734	14240
891.857	14221
891.98	14252
892.103	14229
892.226	14275
892.349	14161
892.471	14115
892.594	14237
892.717	14191
892.839	14149
892.962	14191
893.085	14195
893.207	14202
893.33	14145
893.452	14164
893.575	14237
893.697	14149
893.819	14400
893.941	14389
894.064	14381
894.186	14240
894.308	14199
894.43	14393
894.552	14442
894.674	14400
894.796	14191
894.918	14252
895.04	14324
895.161	14381
895.283	14404
895.405	14313
895.526	14328
895.648	14324
895.769	14267
895.891	14404
896.012	14317
896.134	14339
896.255	14298
896.376	14355
896.498	14385
896.619	14404
896.74	14377
896.861	14499
896.982	14716
897.103	14754
897.224	14663
897.345	14644
897.466	14621
897.587	14636
897.708	14758
897.828	14655
897.949	14632
898.07	14499
898.19	14648
898.311	14864
898.431	14693
898.552	14796
898.672	14804
898.792	14773
898.913	14785
899.033	14651
899.153	14640
899.273	14556
899.393	14625
899.513	14594
899.633	14632
899.753	14712
899.873	14617
899.993	14598
900.113	14526
900.232	14651
900.352	14594
900.472	14457
900.591	14431
900.711	14492
900.83	14393
900.95	14579
901.069	14545
901.189	14305
901.308	14202
901.427	14016
901.546	14126
901.665	14134
901.784	14214
901.904	14043
902.023	13944
902.141	13727
902.26	13757
902.379	13742
902.498	13746
902.617	13689
902.735	13765
902.854	13780
902.973	13601
903.091	13449
903.21	13411
903.328	13369
903.446	13316
903.565	13320
903.683	13251
903.801	13145
903.919	13228
904.038	13278
904.156	13057
904.274	13228
904.392	13069
904.51	13110
904.627	13023
904.745	13122
904.863	13129
904.981	12951
905.098	12715
905.216	12757
905.334	12760
905.451	12840
905.569	12734
905.686	12798
905.803	12684
905.921	12456
906.038	12642
906.155	12544
906.272	12525
906.389	12532
906.506	12460
906.623	12395
906.74	12285
906.857	12251
906.974	12228
907.091	12448
907.208	12479
907.324	12369
907.441	12171
907.557	12114
907.674	12079
907.79	12041
907.907	12064
908.023	12178
908.139	12114
908.256	12083
908.372	12038
908.488	11980
908.604	11840
908.72	11828
908.836	11832
908.952	11901
909.068	11866
909.184	12030
909.3	11866
909.415	11889
909.531	11855
909.647	11707
909.762	11668
909.878	11649
909.993	11543
910.108	11653
910.224	11532
910.339	11699
910.454	11490
910.57	11448
910.685	11478
910.8	11661
910.915	11672
911.03	11478
911.145	11311
911.259	11364
911.374	11330
911.489	11242
911.604	11155
911.718	11033
911.833	11143
911.947	10972
912.062	10877
912.176	10987
912.291	11132
912.405	11048
912.519	11204
912.633	11288
912.748	11121
912.862	10995
912.976	10995
913.09	10824
913.204	10908
913.318	10934
913.431	11006
913.545	11003
913.659	11064
913.772	11010
913.886	10968
914	10797
914.113	10934
914.226	10984
914.34	10904
914.453	10820
914.566	10934
914.68	10778
914.793	10797
914.906	10561
915.019	10504
915.132	10421
915.245	10550
915.358	10599
915.47	10637
915.583	10603
915.696	10565
915.809	10675
915.921	10801
916.034	10611
916.146	10599
916.259	10527
916.371	10675
916.483	10649
916.595	10504
916.708	10580
916.82	10577
916.932	10580
917.044	10542
917.156	10493
917.268	10394
917.38	10417
917.491	10356
917.603	10504
917.715	10542
917.826	10527
917.938	10421
918.049	10318
918.161	10432
918.272	10538
918.384	10569
918.495	10535
918.606	10268
918.717	10291
918.828	10371
918.939	10371
919.05	10268
919.161	10306
919.272	10166
919.383	10120
919.494	10341
919.604	10531
919.715	10280
919.826	10192
919.936	10261
920.047	10421
920.157	10306
920.267	10550
920.378	10310
920.488	10341
920.598	10554
920.708	10634
920.818	10603
920.928	10596
921.038	10630
921.148	10675
921.258	10382
921.368	10261
921.477	10253
921.587	10223
921.697	10112
921.806	10162
921.916	10097
922.025	9903
922.134	9838
922.244	9880
922.353	10017
922.462	9778
922.571	9705
922.68	9633
922.789	9614
922.898	9530
923.007	9496
923.116	9660
923.224	9561
923.333	9618
923.442	9454
923.55	9454
923.659	9530
923.767	9504
923.876	9408
923.984	9534
924.092	9428
924.201	9382
924.309	9431
924.417	9389
924.525	9428
924.633	9329
924.741	10253
924.849	9245
924.956	9321
925.064	9237
925.172	9203
925.279	9222
925.387	9199
925.494	9218
925.602	9389
925.709	9256
925.816	9161
925.924	9233
926.031	9233
926.138	9294
926.245	9272
926.352	9146
926.459	9310
926.566	9279
926.673	9192
926.779	9062
926.886	9036
926.993	8994
927.099	8857
927.206	8914
927.312	8880
927.419	9024
927.525	8941
927.631	9051
927.737	8857
927.843	8826
927.95	8731
928.056	8804
928.162	8864
928.267	8948
928.373	9542
928.479	8876
928.585	8667
928.69	8819
928.796	8861
928.901	8762
929.007	8541
929.112	8735
929.218	8708
929.323	8682
929.428	8648
929.533	8834
929.638	8541
929.743	8610
929.848	8716
929.953	8678
930.058	8560
930.163	8362
930.267	8396
930.372	8518
930.477	8377
930.581	8594
930.685	8427
930.79	8389
930.894	8454
930.998	8347
931.103	8457
931.207	8195
931.311	8096
931.415	8058
931.519	7830
931.623	7845
