Data from test_V78500241_751.txt Node
Date: Fri Mar 25 14:38:56 CST 2022
User: usil
Spectrometer: V785-0024
Trigger mode: 0
Integration Time (sec): 4.000000E-1
Scans to average: 1
Nonlinearity correction enabled: false
Boxcar width: 0
Storing dark spectrum: false
XAxis mode: Wavelengths
Number of Pixels in Spectrum: 1024
>>>>>Begin Spectral Data<<<<<
801.071	27116
801.214	27077
801.356	26621
801.499	26590
801.641	26328
801.783	26374
801.926	26400
802.068	26286
802.211	26301
802.353	26077
802.496	25951
802.638	25837
802.78	25936
802.923	25890
803.065	25856
803.208	25822
803.35	25776
803.492	25921
803.635	26005
803.777	25947
803.919	26001
804.061	26370
804.204	26157
804.346	26020
804.488	25932
804.63	26122
804.773	26233
804.915	26233
805.057	26377
805.199	26309
805.341	26488
805.483	26644
805.626	26625
805.768	26552
805.91	26724
806.052	27017
806.194	26853
806.336	27348
806.478	27405
806.62	27564
806.762	27819
806.904	28249
807.046	28782
807.188	28968
807.33	29345
807.472	30083
807.614	30825
807.756	31685
807.898	32735
808.04	34249
808.182	36403
808.324	39017
808.465	42129
808.607	45583
808.749	48509
808.891	50316
809.033	50480
809.174	48817
809.316	45907
809.458	42262
809.6	38887
809.741	36064
809.883	33739
810.025	32313
810.166	31209
810.308	30365
810.45	29699
810.591	29223
810.733	28618
810.875	28207
811.016	27888
811.158	27599
811.299	27545
811.441	27557
811.582	27310
811.724	27047
811.865	27039
812.007	26883
812.148	26823
812.29	26762
812.431	26754
812.573	27013
812.714	26899
812.855	26880
812.997	27112
813.138	27017
813.279	26975
813.421	26739
813.562	26689
813.703	26476
813.845	26412
813.986	26054
814.127	25856
814.268	25795
814.41	25613
814.551	25575
814.692	25681
814.833	25350
814.974	25434
815.115	25419
815.256	25457
815.397	25266
815.539	25369
815.68	25152
815.821	25133
815.962	25080
816.103	25050
816.244	24954
816.385	24825
816.526	24726
816.666	24623
816.807	24475
816.948	24525
817.089	24490
817.23	24327
817.371	24308
817.512	24342
817.653	24445
817.793	24391
817.934	24342
818.075	24407
818.216	24353
818.356	24174
818.497	24163
818.638	24087
818.778	24015
818.919	23980
819.06	23965
819.2	24174
819.341	24232
819.481	24266
819.622	24391
819.762	24551
819.903	24471
820.043	24133
820.184	24178
820.324	24220
820.465	24289
820.605	24102
820.746	24079
820.886	24038
821.026	24064
821.167	23958
821.307	24163
821.447	23927
821.588	23870
821.728	23710
821.868	23531
822.008	23372
822.149	23280
822.289	23284
822.429	23166
822.569	23113
822.709	23090
822.849	22881
822.99	22736
823.13	22759
823.27	22672
823.41	22588
823.55	22550
823.69	22637
823.83	22596
823.97	22493
824.11	22386
824.25	22322
824.389	22291
824.529	22322
824.669	22421
824.809	22379
824.949	22489
825.089	22455
825.228	22474
825.368	22158
825.508	22185
825.648	22253
825.787	22196
825.927	22181
826.067	22063
826.206	22204
826.346	22196
826.485	22219
826.625	22105
826.765	22211
826.904	22128
827.044	21899
827.183	21941
827.323	21781
827.462	21880
827.601	21785
827.741	21785
827.88	21698
828.02	21739
828.159	21827
828.298	21880
828.437	21785
828.577	21766
828.716	21956
828.855	21800
828.994	21477
829.134	21610
829.273	21564
829.412	21386
829.551	21507
829.69	21439
829.829	21363
829.968	21549
830.107	21583
830.246	21382
830.385	21500
830.524	21393
830.663	21351
830.802	21184
830.941	21089
831.08	21089
831.219	21112
831.357	21150
831.496	21329
831.635	21146
831.774	21017
831.913	21093
832.051	20842
832.19	20910
832.329	21024
832.467	20872
832.606	20941
832.744	21058
832.883	21024
833.022	21062
833.16	21207
833.299	21268
833.437	21515
833.576	21530
833.714	21698
833.852	21869
833.991	21873
834.129	22070
834.267	22025
834.406	22021
834.544	21972
834.682	21915
834.821	21709
834.959	21671
835.097	21435
835.235	21386
835.373	21256
835.511	21173
835.65	21028
835.788	21089
835.926	20754
836.064	20731
836.202	20621
836.34	20746
836.478	20788
836.615	20731
836.753	20667
836.891	20686
837.029	20686
837.167	20659
837.305	20503
837.443	20446
837.58	20492
837.718	20533
837.856	20446
837.993	20480
838.131	20438
838.269	20271
838.406	20271
838.544	20256
838.681	20107
838.819	20088
838.956	19906
839.094	19894
839.231	20012
839.369	20031
839.506	20294
839.643	20111
839.781	19818
839.918	19761
840.055	19681
840.193	19860
840.33	19681
840.467	19814
840.604	19852
840.742	20164
840.879	19784
841.016	19811
841.153	19772
841.29	19944
841.427	19860
841.564	19879
841.701	19871
841.838	19811
841.975	19723
842.112	19696
842.249	19628
842.385	19559
842.522	19757
842.659	19616
842.796	19761
842.933	19715
843.069	19712
843.206	19769
843.343	19780
843.479	19769
843.616	19849
843.752	19609
843.889	19704
844.025	19845
844.162	19788
844.298	19959
844.435	20134
844.571	20305
844.708	20560
844.844	21093
844.98	21504
845.117	22150
845.253	23136
845.389	25194
845.525	28812
845.661	34771
845.798	41866
845.934	47132
846.07	48992
846.206	47349
846.342	42612
846.478	35589
846.614	29395
846.75	25594
846.886	23288
847.022	21926
847.158	20990
847.294	20400
847.429	20096
847.565	19791
847.701	19925
847.837	19274
847.972	19099
848.108	19179
848.244	19069
848.379	18901
848.515	18882
848.65	18722
848.786	18825
848.921	18730
849.057	18856
849.192	18840
849.328	18719
849.463	18661
849.598	18551
849.734	18403
849.869	18555
850.004	18407
850.14	18456
850.275	18376
850.41	18304
850.545	18330
850.68	18201
850.815	18323
850.95	18376
851.085	18426
851.22	18365
851.355	18239
851.49	18292
851.625	18330
851.76	18201
851.895	18292
852.03	18266
852.165	18262
852.299	18292
852.434	18422
852.569	18399
852.703	18319
852.838	18372
852.973	18494
853.107	18536
853.242	18292
853.376	18300
853.511	18437
853.645	18372
853.78	18483
853.914	18585
854.048	18555
854.183	18555
854.317	18578
854.451	18658
854.585	18646
854.72	18509
854.854	18631
854.988	18334
855.122	18330
855.256	18247
855.39	18319
855.524	18441
855.658	18327
855.792	18315
855.926	18235
856.06	18300
856.194	18350
856.327	18133
856.461	18140
856.595	18083
856.729	18049
856.862	18296
856.996	18273
857.13	18163
857.263	18273
857.397	18182
857.53	18114
857.664	18114
857.797	18159
857.931	18213
858.064	18007
858.197	18117
858.331	18034
858.464	18022
858.597	17923
858.731	18087
858.864	17969
858.997	17973
859.13	18049
859.263	17999
859.396	18125
859.529	17973
859.662	17840
859.795	17927
859.928	17988
860.061	18117
860.194	18121
860.327	17942
860.46	17923
860.592	18049
860.725	17939
860.858	18038
860.99	18060
861.123	17885
861.256	17786
861.388	17984
861.521	18669
861.653	17767
861.786	17752
861.918	17733
862.05	17912
862.183	17832
862.315	17885
862.447	18007
862.58	17805
862.712	17672
862.844	17634
862.976	17790
863.108	17710
863.24	18155
863.372	17573
863.504	17577
863.636	17581
863.768	17642
863.9	17589
864.032	17566
864.164	17566
864.296	17532
864.428	17726
864.559	17661
864.691	17729
864.823	17661
864.954	17726
865.086	17577
865.217	17543
865.349	17581
865.48	17482
865.612	17459
865.743	17668
865.875	17634
866.006	17528
866.137	17646
866.269	17486
866.4	17649
866.531	17570
866.662	17429
866.793	17554
866.924	17486
867.055	17619
867.186	17524
867.317	17532
867.448	17421
867.579	17573
867.71	17395
867.841	17402
867.972	17520
868.103	17589
868.233	17585
868.364	17573
868.495	17703
868.625	17843
868.756	17863
868.886	17764
869.017	17752
869.147	17870
869.278	17965
869.408	17992
869.539	17809
869.669	17969
869.799	17885
869.929	17893
870.06	17931
870.19	18114
870.32	18148
870.45	18190
870.58	18285
870.71	18418
870.84	18311
870.97	18292
871.1	18330
871.23	18395
871.36	18483
871.489	18300
871.619	18540
871.749	18475
871.879	18525
872.008	18715
872.138	18631
872.267	18578
872.397	18494
872.526	18300
872.656	18486
872.785	18464
872.915	18593
873.044	18646
873.173	18688
873.303	18772
873.432	18760
873.561	18920
873.69	18943
873.819	18829
873.948	18958
874.077	18882
874.206	18905
874.335	19000
874.464	19000
874.593	19327
874.722	19194
874.851	19388
874.979	19365
875.108	19441
875.237	19384
875.365	19335
875.494	19354
875.623	19597
875.751	19556
875.88	19556
876.008	19894
876.136	19871
876.265	20100
876.393	20267
876.521	20381
876.65	20366
876.778	20442
876.906	20309
877.034	20343
877.162	20587
877.29	20689
877.418	20819
877.546	20750
877.674	20895
877.802	21013
877.93	21203
878.058	21378
878.185	21515
878.313	21728
878.441	22173
878.568	22329
878.696	23037
878.824	23855
878.951	25065
879.079	26705
879.206	28911
879.333	30901
879.461	32724
879.588	33827
879.715	33774
879.842	32880
879.97	30935
880.097	28736
880.224	26975
880.351	25970
880.478	24886
880.605	24391
880.732	23961
880.859	23973
880.986	23589
881.112	23505
881.239	23254
881.366	23136
881.493	23132
881.619	22976
881.746	22930
881.872	23143
881.999	23208
882.125	23033
882.252	23193
882.378	23284
882.505	23356
882.631	23250
882.757	23128
882.883	23250
883.01	23151
883.136	23044
883.262	22995
883.388	22824
883.514	22965
883.64	23041
883.766	23151
883.892	22793
884.018	22843
884.143	23143
884.269	22968
884.395	22980
884.52	22725
884.646	22797
884.772	22774
884.897	22755
885.023	22923
885.148	22904
885.274	22816
885.399	22748
885.524	22557
885.65	22462
885.775	22363
885.9	22097
886.025	22048
886.15	21816
886.275	21644
886.4	21374
886.525	21405
886.65	21233
886.775	21062
886.9	21188
887.025	21070
887.149	20952
887.274	20564
887.399	20450
887.523	20336
887.648	20225
887.773	20058
887.897	20187
888.021	20168
888.146	20027
888.27	19997
888.395	19890
888.519	19963
888.643	19860
888.767	19818
888.891	19666
889.015	19594
889.139	19586
889.263	19438
889.387	19510
889.511	19476
889.635	19422
889.759	19145
889.883	19426
890.006	19194
890.13	19221
890.254	19118
890.377	19061
890.501	18837
890.624	18837
890.748	18764
890.871	18703
890.995	18593
891.118	18475
891.241	18376
891.364	18608
891.488	18665
891.611	18452
891.734	18506
891.857	18330
891.98	18528
892.103	18460
892.226	18365
892.349	18292
892.471	18159
892.594	18232
892.717	18144
892.839	18038
892.962	18022
893.085	18110
893.207	18049
893.33	17916
893.452	17885
893.575	18087
893.697	17874
893.819	18129
893.941	18163
894.064	17980
894.186	17866
894.308	17828
894.43	17942
894.552	17923
894.674	17992
894.796	17752
894.918	17691
895.04	17764
895.161	17824
895.283	17699
895.405	17653
895.526	17665
895.648	17691
895.769	17634
895.891	17748
896.012	17745
896.134	17642
896.255	17661
896.376	17646
896.498	17695
896.619	17794
896.74	17604
896.861	17676
896.982	17984
897.103	17958
897.224	17821
897.345	17798
897.466	17745
897.587	17813
897.708	17843
897.828	17912
897.949	17745
898.07	17604
898.19	17695
898.311	17821
898.431	17737
898.552	17752
898.672	17737
898.792	17855
898.913	17912
899.033	17695
899.153	17661
899.273	17516
899.393	17672
899.513	17585
899.633	17619
899.753	17554
899.873	17543
899.993	17596
900.113	17520
900.232	17642
900.352	17455
900.472	17467
900.591	17318
900.711	17436
900.83	17341
900.95	17467
901.069	17429
901.189	17334
901.308	17025
901.427	16980
901.546	16938
901.665	17052
901.784	17056
901.904	16778
902.023	16729
902.141	16519
902.26	16409
902.379	16565
902.498	16405
902.617	16360
902.735	16402
902.854	16436
902.973	16352
903.091	16093
903.21	16093
903.328	16078
903.446	15869
903.565	15850
903.683	15838
903.801	15770
903.919	15774
904.038	15842
904.156	15701
904.274	15759
904.392	15561
904.51	15603
904.627	15515
904.745	15667
904.863	15610
904.981	15264
905.098	15203
905.216	15199
905.334	15245
905.451	15272
905.569	15203
905.686	15321
905.803	15245
905.921	15055
906.038	15058
906.155	15020
906.272	14933
906.389	15017
906.506	14785
906.623	14902
906.74	14697
906.857	14667
906.974	14670
907.091	14861
907.208	14887
907.324	14758
907.441	14701
907.557	14598
907.674	14564
907.79	14530
907.907	14484
908.023	14454
908.139	14503
908.256	14400
908.372	14423
908.488	14385
908.604	14210
908.72	14214
908.836	14119
908.952	14157
909.068	14168
909.184	14351
909.3	14259
909.415	14206
909.531	14214
909.647	14005
909.762	13921
909.878	13936
909.993	13993
910.108	13871
910.224	13917
910.339	13967
910.454	13784
910.57	13791
910.685	13750
910.8	14062
910.915	13879
911.03	13750
911.145	13651
911.259	13613
911.374	13529
911.489	13487
911.604	13472
911.718	13411
911.833	13312
911.947	13297
912.062	13206
912.176	13331
912.291	13339
912.405	13335
912.519	13518
912.633	13624
912.748	13445
912.862	13278
912.976	13152
913.09	13057
913.204	13114
913.318	13179
913.431	13285
913.545	13320
913.659	13266
913.772	13171
913.886	12966
914	13038
914.113	13076
914.226	13179
914.34	13145
914.453	12905
914.566	13088
914.68	12966
914.793	12985
914.906	12669
915.019	12764
915.132	12707
915.245	12738
915.358	12738
915.47	12757
915.583	12787
915.696	12909
915.809	12905
915.921	12833
916.034	12852
916.146	12688
916.259	12677
916.371	12795
916.483	12707
916.595	12681
916.708	12673
916.82	12627
916.932	12700
917.044	12623
917.156	12608
917.268	12532
917.38	12464
917.491	12536
917.603	12536
917.715	12589
917.826	12528
917.938	12509
918.049	12384
918.161	12448
918.272	12582
918.384	12506
918.495	12395
918.606	12296
918.717	12308
918.828	12296
918.939	12296
919.05	12163
919.161	12228
919.272	12011
919.383	12209
919.494	12281
919.604	12494
919.715	12239
919.826	12175
919.936	12251
920.047	12308
920.157	12254
920.267	12418
920.378	12350
920.488	12205
920.598	12414
920.708	12528
920.818	12494
920.928	12410
921.038	12612
921.148	12456
921.258	12220
921.368	12178
921.477	12030
921.587	12038
921.697	11980
921.806	12072
921.916	11912
922.025	11798
922.134	11596
922.244	11668
922.353	11733
922.462	11566
922.571	11440
922.68	11395
922.789	11315
922.898	11360
923.007	11254
923.116	11429
923.224	11250
923.333	11353
923.442	11136
923.55	11204
923.659	11193
923.767	11296
923.876	11136
923.984	11212
924.092	11136
924.201	11189
924.309	11151
924.417	11220
924.525	11159
924.633	11086
924.741	11798
924.849	10869
924.956	11045
925.064	10877
925.172	10892
925.279	10854
925.387	10892
925.494	10927
925.602	11025
925.709	10934
925.816	10858
925.924	10946
926.031	10968
926.138	11037
926.245	10911
926.352	10752
926.459	10949
926.566	10847
926.673	10790
926.779	10683
926.886	10714
926.993	10542
927.099	10485
927.206	10485
927.312	10447
927.419	10577
927.525	10546
927.631	10580
927.737	10413
927.843	10413
927.95	10363
928.056	10405
928.162	10360
928.267	10405
928.373	11056
928.479	10459
928.585	10272
928.69	10363
928.796	10424
928.901	10257
929.007	10177
929.112	10276
929.218	10265
929.323	10143
929.428	10128
929.533	10352
929.638	10150
929.743	10196
929.848	10143
929.953	10150
930.058	10040
930.163	9918
930.267	9865
930.372	9972
930.477	9873
930.581	10017
930.685	9937
930.79	9861
930.894	9873
930.998	9835
931.103	9968
931.207	9584
931.311	9492
931.415	9523
931.519	9260
931.623	9287
