Data from test_V78500241_2503.txt Node
Date: Fri Mar 25 14:51:08 CST 2022
User: usil
Spectrometer: V785-0024
Trigger mode: 0
Integration Time (sec): 4.000000E-1
Scans to average: 1
Nonlinearity correction enabled: false
Boxcar width: 0
Storing dark spectrum: false
XAxis mode: Wavelengths
Number of Pixels in Spectrum: 1024
>>>>>Begin Spectral Data<<<<<
801.071	22074
801.214	21941
801.356	21720
801.499	21606
801.641	21431
801.783	21492
801.926	21500
802.068	21329
802.211	21351
802.353	21332
802.496	21108
802.638	20963
802.78	21001
802.923	20800
803.065	20724
803.208	20648
803.35	20796
803.492	20769
803.635	20781
803.777	20727
803.919	20804
804.061	21203
804.204	20906
804.346	20716
804.488	20648
804.63	20788
804.773	20644
804.915	20678
805.057	20724
805.199	20651
805.341	20796
805.483	20883
805.626	20750
805.768	20720
805.91	20796
806.052	20678
806.194	20556
806.336	20902
806.478	20606
806.62	20693
806.762	20861
806.904	20880
807.046	21070
807.188	21085
807.33	21089
807.472	21161
807.614	20899
807.756	20941
807.898	20883
808.04	20697
808.182	20781
808.324	20838
808.465	20758
808.607	20967
808.749	21093
808.891	21127
809.033	21180
809.174	21157
809.316	20971
809.458	21058
809.6	21009
809.741	21047
809.883	21135
810.025	21203
810.166	21123
810.308	21218
810.45	21275
810.591	21195
810.733	20967
810.875	20910
811.016	20712
811.158	20785
811.299	20853
811.441	20842
811.582	20971
811.724	20670
811.865	20804
812.007	20785
812.148	20830
812.29	20792
812.431	21070
812.573	21237
812.714	21336
812.855	21291
812.997	21382
813.138	21488
813.279	21447
813.421	21344
813.562	21233
813.703	21135
813.845	20963
813.986	20651
814.127	20461
814.268	20374
814.41	20400
814.551	20332
814.692	20507
814.833	20339
814.974	20301
815.115	20282
815.256	20134
815.397	20244
815.539	20370
815.68	20145
815.821	20065
815.962	20172
816.103	20058
816.244	19894
816.385	19841
816.526	19860
816.666	19662
816.807	19506
816.948	19567
817.089	19582
817.23	19578
817.371	19514
817.512	19578
817.653	19544
817.793	19434
817.934	19594
818.075	19499
818.216	19533
818.356	19354
818.497	19312
818.638	19053
818.778	19179
818.919	19255
819.06	19179
819.2	19354
819.341	19457
819.481	19419
819.622	19544
819.762	19658
819.903	19655
820.043	19499
820.184	19480
820.324	19434
820.465	19624
820.605	19571
820.746	19449
820.886	19411
821.026	19559
821.167	19430
821.307	19575
821.447	19403
821.588	19392
821.728	19247
821.868	19095
822.008	18863
822.149	18894
822.289	18905
822.429	18563
822.569	18593
822.709	18612
822.849	18407
822.99	18353
823.13	18350
823.27	18365
823.41	18205
823.55	18205
823.69	18178
823.83	18254
823.97	18125
824.11	17977
824.25	17999
824.389	18057
824.529	18045
824.669	17931
824.809	18087
824.949	18133
825.089	18068
825.228	17977
825.368	17821
825.508	17691
825.648	17809
825.787	17726
825.927	17805
826.067	17699
826.206	17703
826.346	17790
826.485	17828
826.625	17859
826.765	17939
826.904	17748
827.044	17577
827.183	17497
827.323	17341
827.462	17474
827.601	17509
827.741	17516
827.88	17528
828.02	17284
828.159	17482
828.298	17440
828.437	17471
828.577	17490
828.716	17604
828.855	17459
828.994	17235
829.134	17204
829.273	17166
829.412	17185
829.551	17143
829.69	17140
829.829	17200
829.968	17227
830.107	17174
830.246	17273
830.385	17178
830.524	17155
830.663	17075
830.802	17048
830.941	16858
831.08	16839
831.219	16885
831.357	16957
831.496	16938
831.635	16858
831.774	16755
831.913	16660
832.051	16561
832.19	16634
832.329	16687
832.467	16481
832.606	16470
832.744	16493
832.883	16550
833.022	16500
833.16	16637
833.299	16577
833.437	16504
833.576	16717
833.714	16577
833.852	16599
833.991	16675
834.129	16592
834.267	16641
834.406	16588
834.544	16592
834.682	16641
834.821	16493
834.959	16675
835.097	16603
835.235	16630
835.373	16603
835.511	16615
835.65	16462
835.788	16390
835.926	16329
836.064	16242
836.202	16268
836.34	16519
836.478	16550
836.615	16470
836.753	16443
836.891	16573
837.029	16538
837.167	16504
837.305	16428
837.443	16443
837.58	16344
837.718	16424
837.856	16360
837.993	16246
838.131	16367
838.269	16192
838.406	16268
838.544	16284
838.681	16048
838.819	16055
838.956	15899
839.094	15945
839.231	15949
839.369	15991
839.506	16333
839.643	16059
839.781	15865
839.918	15960
840.055	15922
840.193	15838
840.33	15888
840.467	15926
840.604	16063
840.742	16143
840.879	15827
841.016	15774
841.153	15842
841.29	15991
841.427	15907
841.564	15949
841.701	15960
841.838	15918
841.975	15739
842.112	15804
842.249	15698
842.385	15686
842.522	15907
842.659	15778
842.796	15660
842.933	15663
843.069	15610
843.206	15637
843.343	15751
843.479	15690
843.616	15701
843.752	15485
843.889	15496
844.025	15648
844.162	15428
844.298	15584
844.435	15454
844.571	15450
844.708	15473
844.844	15633
844.98	15504
845.117	15462
845.253	15492
845.389	15272
845.525	15424
845.661	15294
845.798	15230
845.934	15161
846.07	15279
846.206	15325
846.342	15428
846.478	15313
846.614	15001
846.75	14963
846.886	14994
847.022	15195
847.158	15036
847.294	15020
847.429	15005
847.565	15020
847.701	15264
847.837	14701
847.972	14667
848.108	14845
848.244	14838
848.379	14724
848.515	14610
848.65	14682
848.786	14663
848.921	14629
849.057	14701
849.192	14724
849.328	14602
849.463	14629
849.598	14583
849.734	14499
849.869	14473
850.004	14355
850.14	14480
850.275	14457
850.41	14343
850.545	14332
850.68	14324
850.815	14412
850.95	14324
851.085	14560
851.22	14423
851.355	14355
851.49	14298
851.625	14332
851.76	14389
851.895	14396
852.03	14286
852.165	14434
852.299	14484
852.434	14545
852.569	14423
852.703	14427
852.838	14431
852.973	14484
853.107	14575
853.242	14343
853.376	14301
853.511	14142
853.645	14263
853.78	14309
853.914	14237
854.048	14248
854.183	14259
854.317	14370
854.451	14396
854.585	14263
854.72	14229
854.854	14225
854.988	14103
855.122	14214
855.256	14062
855.39	14298
855.524	14438
855.658	14263
855.792	14290
855.926	14282
856.06	14282
856.194	14431
856.327	14328
856.461	14153
856.595	14176
856.729	14183
856.862	14385
856.996	14313
857.13	14355
857.263	14389
857.397	14415
857.53	14332
857.664	14473
857.797	14301
857.931	14374
858.064	14282
858.197	14396
858.331	14366
858.464	14263
858.597	14187
858.731	14263
858.864	14309
858.997	14282
859.13	14263
859.263	14229
859.396	14309
859.529	14252
859.662	14336
859.795	14195
859.928	14282
860.061	14358
860.194	14465
860.327	14320
860.46	14267
860.592	14480
860.725	14370
860.858	14412
860.99	14195
861.123	14157
861.256	14229
861.388	14320
861.521	14861
861.653	14168
861.786	14145
861.918	14088
862.05	14107
862.183	14301
862.315	14206
862.447	14317
862.58	14172
862.712	14008
862.844	14081
862.976	14092
863.108	14134
863.24	14324
863.372	14001
863.504	13982
863.636	14001
863.768	14088
863.9	14020
864.032	13978
864.164	13970
864.296	14100
864.428	14157
864.559	14256
864.691	14202
864.823	14046
864.954	14031
865.086	14062
865.217	14062
865.349	13970
865.48	14020
865.612	14096
865.743	14069
865.875	14024
866.006	14058
866.137	14001
866.269	13986
866.4	14084
866.531	14035
866.662	13917
866.793	13906
866.924	14008
867.055	13982
867.186	13978
867.317	13967
867.448	13970
867.579	14012
867.71	13864
867.841	13811
867.972	13932
868.103	14008
868.233	13978
868.364	13997
868.495	14081
868.625	14244
868.756	14419
868.886	14313
869.017	14259
869.147	14396
869.278	14366
869.408	14351
869.539	14210
869.669	14305
869.799	14328
869.929	14317
870.06	14355
870.19	14564
870.32	14507
870.45	14659
870.58	14640
870.71	14804
870.84	14804
870.97	14644
871.1	14701
871.23	14883
871.36	14902
871.489	14739
871.619	14788
871.749	14845
871.879	14914
872.008	15024
872.138	14982
872.267	14861
872.397	14743
872.526	14823
872.656	14712
872.785	14625
872.915	14956
873.044	14921
873.173	14956
873.303	15005
873.432	14929
873.561	15017
873.69	14975
873.819	15020
873.948	15131
874.077	15047
874.206	14902
874.335	14952
874.464	15127
874.593	15283
874.722	15176
874.851	15275
874.979	15207
875.108	15370
875.237	15176
875.365	15169
875.494	15138
875.623	15294
875.751	15249
875.88	15291
876.008	15382
876.136	15496
876.265	15637
876.393	15675
876.521	15743
876.65	15800
876.778	15629
876.906	15572
877.034	15644
877.162	15633
877.29	15443
877.418	15705
877.546	15644
877.674	15648
877.802	15675
877.93	15690
878.058	15561
878.185	15595
878.313	15675
878.441	15739
878.568	15534
878.696	15572
878.824	15679
878.951	15701
879.079	15808
879.206	15903
879.333	15876
879.461	15701
879.588	15743
879.715	15915
879.842	15835
879.97	15686
880.097	15534
880.224	15431
880.351	15523
880.478	15500
880.605	15485
880.732	15485
880.859	15618
880.986	15523
881.112	15564
881.239	15447
881.366	15291
881.493	15192
881.619	15089
881.746	15081
881.872	15165
881.999	15169
882.125	15100
882.252	15192
882.378	15173
882.505	15291
882.631	15062
882.757	15039
882.883	15100
883.01	15043
883.136	14933
883.262	14895
883.388	14823
883.514	14963
883.64	14944
883.766	14891
883.892	14750
884.018	14796
884.143	14967
884.269	15017
884.395	14693
884.52	14632
884.646	14701
884.772	14545
884.897	14533
885.023	14670
885.148	14788
885.274	14819
885.399	14743
885.524	14746
885.65	14724
885.775	14758
885.9	14507
886.025	14785
886.15	14819
886.275	14693
886.4	14602
886.525	14632
886.65	14602
886.775	14644
886.9	14842
887.025	14944
887.149	14632
887.274	14541
887.399	14465
887.523	14549
887.648	14507
887.773	14419
887.897	14575
888.021	14594
888.146	14457
888.27	14617
888.395	14617
888.519	14640
888.643	14629
888.767	14568
888.891	14499
889.015	14347
889.139	14377
889.263	14408
889.387	14541
889.511	14564
889.635	14457
889.759	14370
889.883	14393
890.006	14442
890.13	14476
890.254	14366
890.377	14347
890.501	14172
890.624	14176
890.748	14259
890.871	14126
890.995	14016
891.118	14031
891.241	14126
891.364	14054
891.488	14142
891.611	14107
891.734	14050
891.857	14218
891.98	14123
892.103	14130
892.226	14008
892.349	14065
892.471	13845
892.594	14031
892.717	14153
892.839	14096
892.962	14084
893.085	14164
893.207	14088
893.33	13974
893.452	14020
893.575	14134
893.697	14001
893.819	14237
893.941	14218
894.064	14275
894.186	14123
894.308	14012
894.43	14180
894.552	14290
894.674	14240
894.796	14073
894.918	14084
895.04	14111
895.161	14134
895.283	14134
895.405	14126
895.526	14267
895.648	14195
895.769	14199
895.891	14221
896.012	14305
896.134	14263
896.255	14244
896.376	14237
896.498	14301
896.619	14237
896.74	14240
896.861	14389
896.982	14636
897.103	14670
897.224	14530
897.345	14575
897.466	14434
897.587	14507
897.708	14598
897.828	14556
897.949	14560
898.07	14415
898.19	14545
898.311	14579
898.431	14583
898.552	14518
898.672	14708
898.792	14606
898.913	14602
899.033	14556
899.153	14461
899.273	14355
899.393	14396
899.513	14499
899.633	14484
899.753	14476
899.873	14339
899.993	14606
900.113	14374
900.232	14461
900.352	14450
900.472	14393
900.591	14336
900.711	14313
900.83	14271
900.95	14423
901.069	14393
901.189	14347
901.308	14027
901.427	14001
901.546	13928
901.665	13951
901.784	14008
901.904	13902
902.023	13826
902.141	13636
902.26	13491
902.379	13674
902.498	13548
902.617	13563
902.735	13647
902.854	13616
902.973	13514
903.091	13358
903.21	13343
903.328	13244
903.446	13346
903.565	13091
903.683	13110
903.801	13137
903.919	13149
904.038	13194
904.156	12951
904.274	13034
904.392	12886
904.51	12928
904.627	12962
904.745	12993
904.863	12993
904.981	12749
905.098	12627
905.216	12719
905.334	12715
905.451	12722
905.569	12570
905.686	12722
905.803	12631
905.921	12464
906.038	12631
906.155	12437
906.272	12350
906.389	12376
906.506	12273
906.623	12186
906.74	12148
906.857	12083
906.974	12133
907.091	12281
907.208	12270
907.324	12258
907.441	12133
907.557	11980
907.674	11927
907.79	11897
907.907	11931
908.023	12007
908.139	12049
908.256	11870
908.372	11870
908.488	11851
908.604	11756
908.72	11703
908.836	11657
908.952	11707
909.068	11710
909.184	11893
909.3	11745
909.415	11752
909.531	11741
909.647	11501
909.762	11490
909.878	11482
909.993	11608
910.108	11505
910.224	11436
910.339	11493
910.454	11471
910.57	11303
910.685	11246
910.8	11604
910.915	11520
911.03	11429
911.145	11197
911.259	11151
911.374	11296
911.489	11174
911.604	11022
911.718	10968
911.833	10991
911.947	10835
912.062	10820
912.176	10953
912.291	10904
912.405	10991
912.519	11132
912.633	11178
912.748	11014
912.862	10961
912.976	10858
913.09	10778
913.204	10675
913.318	10816
913.431	10866
913.545	10904
913.659	10984
913.772	10873
913.886	10744
914	10733
914.113	10824
914.226	10835
914.34	10862
914.453	10714
914.566	10839
914.68	10649
914.793	10634
914.906	10459
915.019	10542
915.132	10394
915.245	10531
915.358	10508
915.47	10500
915.583	10561
915.696	10538
915.809	10531
915.921	10615
916.034	10432
916.146	10348
916.259	10447
916.371	10561
916.483	10508
916.595	10462
916.708	10481
916.82	10352
916.932	10398
917.044	10379
917.156	10432
917.268	10329
917.38	10234
917.491	10325
917.603	10382
917.715	10371
917.826	10382
917.938	10268
918.049	10188
918.161	10299
918.272	10421
918.384	10421
918.495	10318
918.606	10249
918.717	10120
918.828	10238
918.939	10169
919.05	10162
919.161	10162
919.272	10006
919.383	9975
919.494	10276
919.604	10341
919.715	10177
919.826	10071
919.936	10177
920.047	10227
920.157	10173
920.267	10417
920.378	10230
920.488	10204
920.598	10379
920.708	10565
920.818	10375
920.928	10428
921.038	10580
921.148	10481
921.258	10200
921.368	10150
921.477	10048
921.587	10002
921.697	9880
921.806	10158
921.916	9945
922.025	9751
922.134	9759
922.244	9728
922.353	9831
922.462	9705
922.571	9526
922.68	9447
922.789	9492
922.898	9450
923.007	9488
923.116	9458
923.224	9431
923.333	9504
923.442	9367
923.55	9253
923.659	9317
923.767	9401
923.876	9325
923.984	9412
924.092	9188
924.201	9332
924.309	9287
924.417	9355
924.525	9287
924.633	9249
924.741	10177
924.849	9119
924.956	9203
925.064	9009
925.172	9020
925.279	9058
925.387	9176
925.494	9100
925.602	9268
925.709	9218
925.816	9070
925.924	9146
926.031	9188
926.138	9123
926.245	9085
926.352	9032
926.459	9245
926.566	9268
926.673	9097
926.779	8963
926.886	8971
926.993	8876
927.099	8819
927.206	8804
927.312	8754
927.419	8929
927.525	8773
927.631	8845
927.737	8758
927.843	8659
927.95	8564
928.056	8697
928.162	8689
928.267	8785
928.373	9382
928.479	8868
928.585	8564
928.69	8701
928.796	8644
928.901	8670
929.007	8488
929.112	8629
929.218	8636
929.323	8613
929.428	8549
929.533	8674
929.638	8473
929.743	8522
929.848	8583
929.953	8552
930.058	8492
930.163	8248
930.267	8286
930.372	8473
930.477	8279
930.581	8575
930.685	8381
930.79	8195
930.894	8233
930.998	8221
931.103	8355
931.207	8058
931.311	7970
931.415	7928
931.519	7704
931.623	7750
