Data from test_V78500241_1592.txt Node
Date: Fri Mar 25 14:44:47 CST 2022
User: usil
Spectrometer: V785-0024
Trigger mode: 0
Integration Time (sec): 4.000000E-1
Scans to average: 1
Nonlinearity correction enabled: false
Boxcar width: 0
Storing dark spectrum: false
XAxis mode: Wavelengths
Number of Pixels in Spectrum: 1024
>>>>>Begin Spectral Data<<<<<
801.071	22382
801.214	22333
801.356	22029
801.499	21915
801.641	21762
801.783	21739
801.926	21865
802.068	21641
802.211	21629
802.353	21663
802.496	21283
802.638	21173
802.78	21161
802.923	21188
803.065	21116
803.208	21062
803.35	21116
803.492	21093
803.635	21230
803.777	21081
803.919	21188
804.061	21447
804.204	21207
804.346	21047
804.488	20918
804.63	21100
804.773	20811
804.915	21013
805.057	21127
805.199	20960
805.341	21104
805.483	21108
805.626	21020
805.768	21058
805.91	21017
806.052	21032
806.194	20910
806.336	21039
806.478	21024
806.62	20960
806.762	20990
806.904	21195
807.046	21435
807.188	21344
807.33	21435
807.472	21363
807.614	21157
807.756	21355
807.898	21184
808.04	21112
808.182	21074
808.324	21310
808.465	21249
808.607	21439
808.749	21557
808.891	21545
809.033	21656
809.174	21682
809.316	21538
809.458	21515
809.6	21485
809.741	21526
809.883	21542
810.025	21473
810.166	21656
810.308	21637
810.45	21606
810.591	21454
810.733	21382
810.875	21275
811.016	21161
811.158	21020
811.299	21260
811.441	21241
811.582	21218
811.724	21184
811.865	21154
812.007	21169
812.148	21161
812.29	21146
812.431	21420
812.573	21507
812.714	21557
812.855	21728
812.997	21690
813.138	21941
813.279	21895
813.421	21705
813.562	21660
813.703	21534
813.845	21348
813.986	21123
814.127	20811
814.268	20781
814.41	20788
814.551	20602
814.692	20800
814.833	20667
814.974	20625
815.115	20792
815.256	20644
815.397	20541
815.539	20731
815.68	20575
815.821	20393
815.962	20594
816.103	20499
816.244	20271
816.385	20225
816.526	20267
816.666	19963
816.807	19932
816.948	20001
817.089	20020
817.23	19890
817.371	19830
817.512	19913
817.653	19940
817.793	19849
817.934	19860
818.075	19902
818.216	19894
818.356	19936
818.497	19795
818.638	19434
818.778	19563
818.919	19586
819.06	19563
819.2	19712
819.341	19693
819.481	19803
819.622	19947
819.762	20035
819.903	19970
820.043	19830
820.184	19788
820.324	19814
820.465	19932
820.605	19845
820.746	19894
820.886	19772
821.026	19822
821.167	19677
821.307	19833
821.447	19723
821.588	19628
821.728	19578
821.868	19419
822.008	19095
822.149	19282
822.289	19175
822.429	19034
822.569	18958
822.709	18863
822.849	18772
822.99	18726
823.13	18719
823.27	18616
823.41	18582
823.55	18441
823.69	18585
823.83	18460
823.97	18479
824.11	18365
824.25	18296
824.389	18300
824.529	18376
824.669	18369
824.809	18559
824.949	18429
825.089	18388
825.228	18273
825.368	18133
825.508	18083
825.648	18064
825.787	18205
825.927	18091
826.067	18144
826.206	17927
826.346	18057
826.485	18243
826.625	18121
826.765	18209
826.904	18102
827.044	17885
827.183	17840
827.323	17722
827.462	17726
827.601	17843
827.741	17866
827.88	17889
828.02	17756
828.159	17707
828.298	17733
828.437	17824
828.577	17783
828.716	17863
828.855	17707
828.994	17532
829.134	17474
829.273	17554
829.412	17581
829.551	17452
829.69	17448
829.829	17562
829.968	17539
830.107	17570
830.246	17566
830.385	17501
830.524	17356
830.663	17227
830.802	17239
830.941	17227
831.08	17132
831.219	17200
831.357	17239
831.496	17273
831.635	17121
831.774	17052
831.913	17025
832.051	16987
832.19	16881
832.329	16831
832.467	16801
832.606	16801
832.744	16908
832.883	16850
833.022	16767
833.16	16892
833.299	16824
833.437	16847
833.576	16793
833.714	16850
833.852	16801
833.991	16820
834.129	16934
834.267	16923
834.406	16797
834.544	16995
834.682	16896
834.821	16820
834.959	16965
835.097	16736
835.235	16873
835.373	16995
835.511	16889
835.65	16908
835.788	16740
835.926	16641
836.064	16592
836.202	16493
836.34	16805
836.478	16824
836.615	16641
836.753	16805
836.891	16946
837.029	16854
837.167	16748
837.305	16691
837.443	16675
837.58	16481
837.718	16702
837.856	16649
837.993	16500
838.131	16630
838.269	16618
838.406	16538
838.544	16519
838.681	16303
838.819	16306
838.956	16143
839.094	16158
839.231	16139
839.369	16287
839.506	16527
839.643	16375
839.781	16211
839.918	16116
840.055	16128
840.193	16162
840.33	16090
840.467	16177
840.604	16196
840.742	16421
840.879	15926
841.016	16032
841.153	16139
841.29	16333
841.427	16086
841.564	16204
841.701	16162
841.838	16192
841.975	16055
842.112	16055
842.249	15884
842.385	15827
842.522	16071
842.659	16006
842.796	15949
842.933	15998
843.069	15850
843.206	15816
843.343	16002
843.479	16093
843.616	15926
843.752	15739
843.889	15831
844.025	15800
844.162	15705
844.298	15819
844.435	15766
844.571	15679
844.708	15831
844.844	15907
844.98	15956
845.117	15774
845.253	15713
845.389	15587
845.525	15698
845.661	15663
845.798	15625
845.934	15713
846.07	15629
846.206	15728
846.342	15781
846.478	15538
846.614	15336
846.75	15279
846.886	15188
847.022	15348
847.158	15283
847.294	15332
847.429	15389
847.565	15245
847.701	15500
847.837	14994
847.972	14975
848.108	15123
848.244	15173
848.379	14899
848.515	14845
848.65	14853
848.786	14910
848.921	14891
849.057	15058
849.192	14979
849.328	14838
849.463	14944
849.598	14887
849.734	14876
849.869	14762
850.004	14651
850.14	14659
850.275	14686
850.41	14495
850.545	14575
850.68	14617
850.815	14613
850.95	14648
851.085	14796
851.22	14712
851.355	14640
851.49	14621
851.625	14590
851.76	14617
851.895	14556
852.03	14511
852.165	14754
852.299	14632
852.434	14705
852.569	14667
852.703	14686
852.838	14716
852.973	14826
853.107	14864
853.242	14621
853.376	14587
853.511	14339
853.645	14465
853.78	14659
853.914	14610
854.048	14423
854.183	14461
854.317	14530
854.451	14655
854.585	14469
854.72	14434
854.854	14560
854.988	14358
855.122	14549
855.256	14366
855.39	14473
855.524	14629
855.658	14530
855.792	14499
855.926	14587
856.06	14522
856.194	14701
856.327	14621
856.461	14537
856.595	14484
856.729	14533
856.862	14629
856.996	14583
857.13	14568
857.263	14583
857.397	14689
857.53	14412
857.664	14587
857.797	14644
857.931	14632
858.064	14571
858.197	14651
858.331	14564
858.464	14533
858.597	14381
858.731	14587
858.864	14488
858.997	14484
859.13	14499
859.263	14587
859.396	14590
859.529	14549
859.662	14427
859.795	14507
859.928	14590
860.061	14670
860.194	14579
860.327	14537
860.46	14511
860.592	14560
860.725	14530
860.858	14571
860.99	14511
861.123	14465
861.256	14492
861.388	14507
861.521	15374
861.653	14423
861.786	14343
861.918	14336
862.05	14412
862.183	14404
862.315	14526
862.447	14594
862.58	14473
862.712	14237
862.844	14259
862.976	14282
863.108	14412
863.24	14826
863.372	14149
863.504	14294
863.636	14294
863.768	14389
863.9	14244
864.032	14168
864.164	14240
864.296	14305
864.428	14408
864.559	14377
864.691	14393
864.823	14317
864.954	14275
865.086	14305
865.217	14206
865.349	14172
865.48	14294
865.612	14240
865.743	14396
865.875	14313
866.006	14138
866.137	14290
866.269	14252
866.4	14271
866.531	14206
866.662	14191
866.793	14107
866.924	14221
867.055	14271
867.186	14324
867.317	14168
867.448	14145
867.579	14218
867.71	14206
867.841	14199
867.972	14214
868.103	14176
868.233	14320
868.364	14313
868.495	14301
868.625	14526
868.756	14602
868.886	14423
869.017	14488
869.147	14640
869.278	14594
869.408	14579
869.539	14564
869.669	14629
869.799	14465
869.929	14530
870.06	14613
870.19	14811
870.32	14819
870.45	14853
870.58	14906
870.71	15024
870.84	14971
870.97	14868
871.1	14891
871.23	15085
871.36	15070
871.489	14998
871.619	15058
871.749	15161
871.879	15112
872.008	15104
872.138	15058
872.267	15138
872.397	14876
872.526	14910
872.656	14857
872.785	14990
872.915	15100
873.044	15119
873.173	15066
873.303	15192
873.432	15142
873.561	15245
873.69	15066
873.819	15169
873.948	15150
874.077	15138
874.206	15195
874.335	15195
874.464	15256
874.593	15359
874.722	15325
874.851	15534
874.979	15477
875.108	15504
875.237	15397
875.365	15374
875.494	15382
875.623	15606
875.751	15393
875.88	15488
876.008	15625
876.136	15587
876.265	15812
876.393	16036
876.521	15968
876.65	15987
876.778	15983
876.906	15751
877.034	15759
877.162	15861
877.29	15823
877.418	15903
877.546	15884
877.674	15934
877.802	15892
877.93	15892
878.058	15953
878.185	15755
878.313	15964
878.441	15907
878.568	15759
878.696	15827
878.824	15884
878.951	15934
879.079	16097
879.206	16185
879.333	16158
879.461	15979
879.588	16143
879.715	16173
879.842	16120
879.97	15972
880.097	15743
880.224	15690
880.351	15667
880.478	15884
880.605	15751
880.732	15705
880.859	15899
880.986	15789
881.112	15739
881.239	15663
881.366	15534
881.493	15389
881.619	15401
881.746	15428
881.872	15317
881.999	15367
882.125	15412
882.252	15443
882.378	15332
882.505	15462
882.631	15325
882.757	15195
882.883	15222
883.01	15252
883.136	15161
883.262	15047
883.388	15085
883.514	15233
883.64	15351
883.766	15119
883.892	15104
884.018	15077
884.143	15131
884.269	15378
884.395	14952
884.52	14880
884.646	14842
884.772	14857
884.897	14842
885.023	14986
885.148	14887
885.274	15036
885.399	14963
885.524	14880
885.65	14948
885.775	15013
885.9	14826
886.025	15020
886.15	15039
886.275	14921
886.4	14724
886.525	14880
886.65	14830
886.775	14807
886.9	14880
887.025	15165
887.149	14967
887.274	14678
887.399	14811
887.523	14773
887.648	14712
887.773	14488
887.897	14868
888.021	14739
888.146	14743
888.27	14883
888.395	14872
888.519	14727
888.643	14826
888.767	14788
888.891	14735
889.015	14583
889.139	14613
889.263	14465
889.387	14640
889.511	14754
889.635	14670
889.759	14560
889.883	14606
890.006	14541
890.13	14678
890.254	14431
890.377	14541
890.501	14389
890.624	14370
890.748	14438
890.871	14267
890.995	14214
891.118	14218
891.241	14267
891.364	14324
891.488	14305
891.611	14358
891.734	14400
891.857	14286
891.98	14317
892.103	14381
892.226	14385
892.349	14309
892.471	14088
892.594	14221
892.717	14256
892.839	14225
892.962	14267
893.085	14301
893.207	14313
893.33	14180
893.452	14153
893.575	14290
893.697	14275
893.819	14457
893.941	14476
894.064	14507
894.186	14187
894.308	14191
894.43	14412
894.552	14499
894.674	14419
894.796	14187
894.918	14244
895.04	14294
895.161	14431
895.283	14454
895.405	14324
895.526	14332
895.648	14366
895.769	14537
895.891	14461
896.012	14522
896.134	14480
896.255	14552
896.376	14431
896.498	14374
896.619	14492
896.74	14530
896.861	14632
896.982	14864
897.103	14952
897.224	14727
897.345	14724
897.466	14655
897.587	14807
897.708	14853
897.828	14765
897.949	14682
898.07	14648
898.19	14743
898.311	14887
898.431	14701
898.552	14861
898.672	14910
898.792	14876
898.913	14834
899.033	14693
899.153	14670
899.273	14598
899.393	14579
899.513	14663
899.633	14625
899.753	14693
899.873	14590
899.993	14743
900.113	14568
900.232	14731
900.352	14640
900.472	14594
900.591	14408
900.711	14552
900.83	14358
900.95	14636
901.069	14587
901.189	14461
901.308	14259
901.427	14176
901.546	14115
901.665	14320
901.784	14294
901.904	14043
902.023	14024
902.141	13788
902.26	13757
902.379	13833
902.498	13719
902.617	13715
902.735	13776
902.854	13753
902.973	13624
903.091	13472
903.21	13578
903.328	13567
903.446	13407
903.565	13320
903.683	13278
903.801	13225
903.919	13301
904.038	13293
904.156	13114
904.274	13175
904.392	13015
904.51	13171
904.627	13149
904.745	13183
904.863	13255
904.981	12943
905.098	12779
905.216	12802
905.334	12817
905.451	12802
905.569	12825
905.686	12920
905.803	12859
905.921	12688
906.038	12749
906.155	12616
906.272	12570
906.389	12536
906.506	12388
906.623	12494
906.74	12448
906.857	12350
906.974	12315
907.091	12506
907.208	12608
907.324	12460
907.441	12281
907.557	12140
907.674	12155
907.79	12114
907.907	12144
908.023	12182
908.139	12175
908.256	12091
908.372	12083
908.488	12038
908.604	11882
908.72	11904
908.836	11855
908.952	11912
909.068	11942
909.184	11931
909.3	11939
909.415	11980
909.531	11859
909.647	11722
909.762	11638
909.878	11695
909.993	11688
910.108	11756
910.224	11699
910.339	11729
910.454	11630
910.57	11539
910.685	11471
910.8	11745
910.915	11783
911.03	11505
911.145	11364
911.259	11379
911.374	11349
911.489	11303
911.604	11277
911.718	11250
911.833	11140
911.947	11045
912.062	10972
912.176	11124
912.291	11109
912.405	11136
912.519	11315
912.633	11364
912.748	11155
912.862	11132
912.976	10908
913.09	10991
913.204	11052
913.318	11037
913.431	11124
913.545	11056
913.659	11117
913.772	11033
913.886	10835
914	10873
914.113	10957
914.226	10953
914.34	10999
914.453	10755
914.566	11037
914.68	10869
914.793	10828
914.906	10694
915.019	10565
915.132	10485
915.245	10607
915.358	10675
915.47	10675
915.583	10649
915.696	10626
915.809	10767
915.921	10740
916.034	10607
916.146	10542
916.259	10592
916.371	10645
916.483	10607
916.595	10554
916.708	10519
916.82	10592
916.932	10561
917.044	10474
917.156	10493
917.268	10432
917.38	10436
917.491	10375
917.603	10538
917.715	10542
917.826	10535
917.938	10402
918.049	10360
918.161	10436
918.272	10554
918.384	10588
918.495	10462
918.606	10360
918.717	10284
918.828	10360
918.939	10390
919.05	10257
919.161	10322
919.272	10162
919.383	10200
919.494	10386
919.604	10550
919.715	10253
919.826	10246
919.936	10299
920.047	10405
920.157	10455
920.267	10554
920.378	10432
920.488	10352
920.598	10596
920.708	10649
920.818	10626
920.928	10451
921.038	10675
921.148	10653
921.258	10394
921.368	10318
921.477	10238
921.587	10219
921.697	10036
921.806	10230
921.916	10097
922.025	10006
922.134	9880
922.244	9911
922.353	9934
922.462	9770
922.571	9713
922.68	9595
922.789	9603
922.898	9622
923.007	9553
923.116	9622
923.224	9530
923.333	9542
923.442	9481
923.55	9458
923.659	9492
923.767	9580
923.876	9439
923.984	9500
924.092	9378
924.201	9485
924.309	9424
924.417	9428
924.525	9401
924.633	9351
924.741	10287
924.849	9291
924.956	9435
925.064	9249
925.172	9207
925.279	9211
925.387	9222
925.494	9294
925.602	9363
925.709	9268
925.816	9150
925.924	9283
926.031	9348
926.138	9283
926.245	9329
926.352	9104
926.459	9393
926.566	9351
926.673	9180
926.779	9074
926.886	9108
926.993	8921
927.099	8967
927.206	8906
927.312	8921
927.419	8933
927.525	8960
927.631	8982
927.737	8834
927.843	8834
927.95	8727
928.056	8918
928.162	8826
928.267	8906
928.373	9428
928.479	8933
928.585	8686
928.69	8804
928.796	8853
928.901	8762
929.007	8659
929.112	8670
929.218	8708
929.323	8655
929.428	8655
929.533	8800
929.638	8583
929.743	8712
929.848	8705
929.953	8651
930.058	8610
930.163	8396
930.267	8499
930.372	8526
930.477	8377
930.581	8674
930.685	8507
930.79	8290
930.894	8419
930.998	8461
931.103	8492
931.207	8092
931.311	8084
931.415	8031
931.519	7887
931.623	7822
