Data from test_V78500241_2139.txt Node
Date: Fri Mar 25 14:48:36 CST 2022
User: usil
Spectrometer: V785-0024
Trigger mode: 0
Integration Time (sec): 4.000000E-1
Scans to average: 1
Nonlinearity correction enabled: false
Boxcar width: 0
Storing dark spectrum: false
XAxis mode: Wavelengths
Number of Pixels in Spectrum: 1024
>>>>>Begin Spectral Data<<<<<
801.071	22147
801.214	22070
801.356	21915
801.499	21774
801.641	21564
801.783	21557
801.926	21587
802.068	21511
802.211	21393
802.353	21386
802.496	21207
802.638	21081
802.78	20910
802.923	20982
803.065	20834
803.208	20906
803.35	20914
803.492	21017
803.635	20979
803.777	20918
803.919	20883
804.061	21245
804.204	21047
804.346	20834
804.488	20796
804.63	20811
804.773	20815
804.915	20743
805.057	20883
805.199	20845
805.341	20887
805.483	21005
805.626	20899
805.768	20720
805.91	20902
806.052	20815
806.194	20731
806.336	20979
806.478	20785
806.62	20735
806.762	20891
806.904	21081
807.046	21226
807.188	21089
807.33	21154
807.472	21173
807.614	21043
807.756	21081
807.898	20845
808.04	20819
808.182	20864
808.324	21058
808.465	20849
808.607	21043
808.749	21245
808.891	21344
809.033	21466
809.174	21348
809.316	21180
809.458	21226
809.6	21241
809.741	21272
809.883	21222
810.025	21374
810.166	21363
810.308	21348
810.45	21302
810.591	21203
810.733	21100
810.875	21051
811.016	20861
811.158	20929
811.299	21085
811.441	21093
811.582	21165
811.724	20979
811.865	20937
812.007	20914
812.148	20998
812.29	21047
812.431	21085
812.573	21287
812.714	21367
812.855	21462
812.997	21625
813.138	21739
813.279	21610
813.421	21576
813.562	21374
813.703	21192
813.845	21195
813.986	20800
814.127	20712
814.268	20571
814.41	20503
814.551	20526
814.692	20663
814.833	20419
814.974	20423
815.115	20545
815.256	20415
815.397	20389
815.539	20499
815.68	20256
815.821	20153
815.962	20290
816.103	20267
816.244	19993
816.385	20081
816.526	19978
816.666	19776
816.807	19734
816.948	19780
817.089	19715
817.23	19647
817.371	19670
817.512	19761
817.653	19613
817.793	19662
817.934	19769
818.075	19727
818.216	19689
818.356	19594
818.497	19499
818.638	19377
818.778	19346
818.919	19396
819.06	19278
819.2	19578
819.341	19499
819.481	19620
819.622	19689
819.762	19955
819.903	19662
820.043	19708
820.184	19651
820.324	19613
820.465	19738
820.605	19731
820.746	19666
820.886	19468
821.026	19556
821.167	19605
821.307	19791
821.447	19575
821.588	19556
821.728	19327
821.868	19209
822.008	19034
822.149	19080
822.289	18947
822.429	18947
822.569	18635
822.709	18620
822.849	18566
822.99	18525
823.13	18513
823.27	18566
823.41	18372
823.55	18232
823.69	18391
823.83	18422
823.97	18285
824.11	18159
824.25	18209
824.389	18159
824.529	18194
824.669	18068
824.809	18216
824.949	18186
825.089	18079
825.228	18106
825.368	17931
825.508	17912
825.648	18045
825.787	17923
825.927	17988
826.067	17866
826.206	17904
826.346	17942
826.485	17977
826.625	17863
826.765	17988
826.904	17999
827.044	17600
827.183	17707
827.323	17657
827.462	17691
827.601	17577
827.741	17585
827.88	17649
828.02	17474
828.159	17535
828.298	17505
828.437	17737
828.577	17486
828.716	17722
828.855	17615
828.994	17242
829.134	17417
829.273	17433
829.412	17292
829.551	17216
829.69	17292
829.829	17391
829.968	17433
830.107	17455
830.246	17372
830.385	17265
830.524	17235
830.663	17140
830.802	17098
830.941	16987
831.08	16892
831.219	17056
831.357	16938
831.496	17117
831.635	16946
831.774	16900
831.913	16908
832.051	16679
832.19	16691
832.329	16790
832.467	16660
832.606	16725
832.744	16687
832.883	16683
833.022	16611
833.16	16675
833.299	16698
833.437	16653
833.576	16786
833.714	16672
833.852	16786
833.991	16824
834.129	16793
834.267	16763
834.406	16668
834.544	16717
834.682	16683
834.821	16721
834.959	16869
835.097	16634
835.235	16828
835.373	16889
835.511	16755
835.65	16653
835.788	16470
835.926	16466
836.064	16474
836.202	16394
836.34	16634
836.478	16687
836.615	16558
836.753	16641
836.891	16801
837.029	16565
837.167	16596
837.305	16497
837.443	16656
837.58	16371
837.718	16500
837.856	16428
837.993	16394
838.131	16485
838.269	16394
838.406	16348
838.544	16402
838.681	16158
838.819	16139
838.956	15930
839.094	15888
839.231	16086
839.369	16154
839.506	16329
839.643	16337
839.781	15949
839.918	15998
840.055	16013
840.193	16067
840.33	16059
840.467	15998
840.604	16135
840.742	16306
840.879	15850
841.016	15953
841.153	15880
841.29	16139
841.427	15960
841.564	16120
841.701	16055
841.838	16021
841.975	15956
842.112	15953
842.249	15823
842.385	15842
842.522	15960
842.659	15701
842.796	15732
842.933	15846
843.069	15774
843.206	15705
843.343	15915
843.479	15755
843.616	15876
843.752	15614
843.889	15572
844.025	15724
844.162	15523
844.298	15720
844.435	15500
844.571	15584
844.708	15648
844.844	15705
844.98	15717
845.117	15679
845.253	15519
845.389	15466
845.525	15477
845.661	15515
845.798	15382
845.934	15340
846.07	15359
846.206	15507
846.342	15492
846.478	15447
846.614	15192
846.75	15230
846.886	15165
847.022	15283
847.158	15169
847.294	15233
847.429	15222
847.565	15180
847.701	15428
847.837	15005
847.972	14876
848.108	14979
848.244	14864
848.379	14663
848.515	14754
848.65	14716
848.786	14697
848.921	14705
849.057	14857
849.192	14887
849.328	14708
849.463	14864
849.598	14697
849.734	14670
849.869	14625
850.004	14571
850.14	14629
850.275	14533
850.41	14450
850.545	14438
850.68	14511
850.815	14446
850.95	14446
851.085	14644
851.22	14697
851.355	14522
851.49	14423
851.625	14530
851.76	14469
851.895	14412
852.03	14415
852.165	14404
852.299	14552
852.434	14549
852.569	14522
852.703	14549
852.838	14564
852.973	14724
853.107	14594
853.242	14503
853.376	14351
853.511	14240
853.645	14366
853.78	14499
853.914	14503
854.048	14442
854.183	14339
854.317	14404
854.451	14545
854.585	14259
854.72	14278
854.854	14450
854.988	14324
855.122	14377
855.256	14263
855.39	14404
855.524	14442
855.658	14465
855.792	14457
855.926	14427
856.06	14438
856.194	14476
856.327	14332
856.461	14423
856.595	14248
856.729	14332
856.862	14488
856.996	14389
857.13	14469
857.263	14492
857.397	14507
857.53	14393
857.664	14450
857.797	14461
857.931	14469
858.064	14393
858.197	14503
858.331	14358
858.464	14286
858.597	14252
858.731	14370
858.864	14313
858.997	14355
859.13	14457
859.263	14476
859.396	14488
859.529	14469
859.662	14275
859.795	14366
859.928	14400
860.061	14533
860.194	14579
860.327	14484
860.46	14423
860.592	14568
860.725	14579
860.858	14511
860.99	14427
861.123	14305
861.256	14347
861.388	14389
861.521	15077
861.653	14298
861.786	14202
861.918	14275
862.05	14332
862.183	14301
862.315	14457
862.447	14408
862.58	14286
862.712	14084
862.844	14161
862.976	14290
863.108	14267
863.24	14499
863.372	14103
863.504	14145
863.636	14149
863.768	14263
863.9	14168
864.032	14054
864.164	14134
864.296	14259
864.428	14130
864.559	14263
864.691	14309
864.823	14252
864.954	14206
865.086	14225
865.217	14115
865.349	14043
865.48	14092
865.612	14180
865.743	14298
865.875	14126
866.006	14237
866.137	14187
866.269	14180
866.4	14180
866.531	14138
866.662	14100
866.793	14168
866.924	14183
867.055	14119
867.186	14138
867.317	14088
867.448	14020
867.579	14058
867.71	14058
867.841	14218
867.972	14187
868.103	14111
868.233	14138
868.364	14130
868.495	14275
868.625	14457
868.756	14465
868.886	14301
869.017	14385
869.147	14518
869.278	14564
869.408	14370
869.539	14415
869.669	14434
869.799	14415
869.929	14526
870.06	14533
870.19	14602
870.32	14583
870.45	14724
870.58	14800
870.71	14849
870.84	14895
870.97	14773
871.1	14811
871.23	15066
871.36	14948
871.489	14918
871.619	14918
871.749	15024
871.879	15058
872.008	15062
872.138	15020
872.267	14963
872.397	14872
872.526	14743
872.656	14727
872.785	14849
872.915	15104
873.044	15165
873.173	15043
873.303	15066
873.432	15074
873.561	15157
873.69	15024
873.819	15020
873.948	15100
874.077	15024
874.206	14979
874.335	15142
874.464	15188
874.593	15416
874.722	15359
874.851	15310
874.979	15454
875.108	15382
875.237	15367
875.365	15359
875.494	15340
875.623	15500
875.751	15386
875.88	15386
876.008	15507
876.136	15599
876.265	15838
876.393	15876
876.521	15857
876.65	15930
876.778	15835
876.906	15705
877.034	15667
877.162	15701
877.29	15812
877.418	15838
877.546	15842
877.674	15774
877.802	15751
877.93	15804
878.058	15762
878.185	15660
878.313	15785
878.441	15739
878.568	15595
878.696	15698
878.824	15728
878.951	15930
879.079	15968
879.206	16051
879.333	15930
879.461	15751
879.588	15861
879.715	16013
879.842	16055
879.97	15953
880.097	15629
880.224	15690
880.351	15606
880.478	15641
880.605	15591
880.732	15709
880.859	15835
880.986	15641
881.112	15671
881.239	15549
881.366	15336
881.493	15363
881.619	15367
881.746	15336
881.872	15291
881.999	15180
882.125	15135
882.252	15249
882.378	15275
882.505	15340
882.631	15222
882.757	15097
882.883	15203
883.01	15165
883.136	15169
883.262	14998
883.388	14967
883.514	15062
883.64	15131
883.766	15051
883.892	14941
884.018	14887
884.143	15081
884.269	15287
884.395	14887
884.52	14781
884.646	14834
884.772	14758
884.897	14735
885.023	14769
885.148	14834
885.274	15013
885.399	14941
885.524	14838
885.65	14914
885.775	14785
885.9	14830
886.025	14941
886.15	14899
886.275	14800
886.4	14800
886.525	14762
886.65	14796
886.775	14731
886.9	14971
887.025	15005
887.149	14750
887.274	14644
887.399	14568
887.523	14606
887.648	14568
887.773	14556
887.897	14727
888.021	14724
888.146	14507
888.27	14705
888.395	14754
888.519	14701
888.643	14823
888.767	14769
888.891	14610
889.015	14511
889.139	14549
889.263	14461
889.387	14590
889.511	14632
889.635	14705
889.759	14442
889.883	14530
890.006	14556
890.13	14636
890.254	14514
890.377	14465
890.501	14229
890.624	14271
890.748	14377
890.871	14202
890.995	14218
891.118	14164
891.241	14202
891.364	14305
891.488	14278
891.611	14103
891.734	14157
891.857	14214
891.98	14103
892.103	14206
892.226	14168
892.349	14164
892.471	14123
892.594	14157
892.717	14126
892.839	14130
892.962	14195
893.085	14370
893.207	14183
893.33	14115
893.452	14092
893.575	14290
893.697	14168
893.819	14355
893.941	14366
894.064	14275
894.186	14218
894.308	14233
894.43	14381
894.552	14336
894.674	14332
894.796	14259
894.918	14282
895.04	14248
895.161	14343
895.283	14328
895.405	14267
895.526	14244
895.648	14286
895.769	14328
895.891	14366
896.012	14423
896.134	14404
896.255	14457
896.376	14400
896.498	14366
896.619	14438
896.74	14446
896.861	14492
896.982	14682
897.103	14796
897.224	14651
897.345	14594
897.466	14503
897.587	14648
897.708	14765
897.828	14724
897.949	14575
898.07	14442
898.19	14632
898.311	14777
898.431	14712
898.552	14648
898.672	14777
898.792	14823
898.913	14788
899.033	14613
899.153	14571
899.273	14495
899.393	14438
899.513	14613
899.633	14518
899.753	14568
899.873	14492
899.993	14659
900.113	14541
900.232	14590
900.352	14499
900.472	14488
900.591	14355
900.711	14465
900.83	14385
900.95	14446
901.069	14598
901.189	14313
901.308	14103
901.427	14046
901.546	14115
901.665	14161
901.784	14073
901.904	13917
902.023	13898
902.141	13712
902.26	13624
902.379	13753
902.498	13643
902.617	13628
902.735	13708
902.854	13677
902.973	13689
903.091	13419
903.21	13400
903.328	13312
903.446	13278
903.565	13251
903.683	13293
903.801	13110
903.919	13209
904.038	13114
904.156	13050
904.274	13145
904.392	13114
904.51	12981
904.627	13053
904.745	13057
904.863	13091
904.981	12859
905.098	12810
905.216	12662
905.334	12707
905.451	12776
905.569	12753
905.686	12810
905.803	12833
905.921	12684
906.038	12677
906.155	12616
906.272	12547
906.389	12486
906.506	12270
906.623	12327
906.74	12273
906.857	12220
906.974	12254
907.091	12315
907.208	12479
907.324	12433
907.441	12266
907.557	12163
907.674	12121
907.79	12011
907.907	12053
908.023	12110
908.139	12133
908.256	12030
908.372	11969
908.488	12038
908.604	11950
908.72	11824
908.836	11855
908.952	11855
909.068	11840
909.184	12011
909.3	11859
909.415	11805
909.531	11790
909.647	11611
909.762	11630
909.878	11653
909.993	11539
910.108	11554
910.224	11516
910.339	11630
910.454	11478
910.57	11486
910.685	11406
910.8	11604
910.915	11600
911.03	11482
911.145	11326
911.259	11220
911.374	11277
911.489	11208
911.604	11166
911.718	11041
911.833	11067
911.947	10946
912.062	10854
912.176	11079
912.291	10965
912.405	11098
912.519	11239
912.633	11280
912.748	11090
912.862	11071
912.976	10930
913.09	10908
913.204	10885
913.318	10911
913.431	11010
913.545	11033
913.659	11056
913.772	10938
913.886	10790
914	10869
914.113	10816
914.226	10980
914.34	10881
914.453	10683
914.566	10831
914.68	10805
914.793	10744
914.906	10573
915.019	10516
915.132	10447
915.245	10523
915.358	10542
915.47	10512
915.583	10588
915.696	10607
915.809	10672
915.921	10793
916.034	10588
916.146	10459
916.259	10489
916.371	10561
916.483	10622
916.595	10462
916.708	10440
916.82	10500
916.932	10481
917.044	10443
917.156	10443
917.268	10360
917.38	10424
917.491	10375
917.603	10436
917.715	10481
917.826	10550
917.938	10421
918.049	10322
918.161	10413
918.272	10653
918.384	10497
918.495	10356
918.606	10306
918.717	10219
918.828	10227
918.939	10318
919.05	10166
919.161	10238
919.272	10013
919.383	10177
919.494	10356
919.604	10466
919.715	10272
919.826	10147
919.936	10219
920.047	10413
920.157	10341
920.267	10497
920.378	10344
920.488	10249
920.598	10485
920.708	10637
920.818	10519
920.928	10489
921.038	10645
921.148	10592
921.258	10325
921.368	10280
921.477	10223
921.587	10120
921.697	10063
921.806	10143
921.916	10010
922.025	9869
922.134	9835
922.244	9812
922.353	9949
922.462	9774
922.571	9740
922.68	9538
922.789	9526
922.898	9584
923.007	9454
923.116	9580
923.224	9564
923.333	9492
923.442	9416
923.55	9412
923.659	9515
923.767	9534
923.876	9367
923.984	9473
924.092	9367
924.201	9348
924.309	9393
924.417	9435
924.525	9336
924.633	9359
924.741	10253
924.849	9203
924.956	9329
925.064	9226
925.172	9192
925.279	9123
925.387	9169
925.494	9165
925.602	9332
925.709	9275
925.816	9116
925.924	9138
926.031	9291
926.138	9222
926.245	9218
926.352	9104
926.459	9256
926.566	9260
926.673	9108
926.779	9013
926.886	9032
926.993	8925
927.099	8815
927.206	8876
927.312	8880
927.419	8998
927.525	8815
927.631	8880
927.737	8811
927.843	8777
927.95	8670
928.056	8807
928.162	8819
928.267	8815
928.373	9359
928.479	8838
928.585	8689
928.69	8785
928.796	8807
928.901	8655
929.007	8564
929.112	8716
929.218	8769
929.323	8606
929.428	8621
929.533	8766
929.638	8575
929.743	8587
929.848	8648
929.953	8629
930.058	8530
930.163	8347
930.267	8454
930.372	8480
930.477	8366
930.581	8552
930.685	8438
930.79	8355
930.894	8377
930.998	8332
931.103	8492
931.207	8138
931.311	8107
931.415	8012
931.519	7845
931.623	7830
