Data from test_V78500241_1605.txt Node
Date: Fri Mar 25 14:44:53 CST 2022
User: usil
Spectrometer: V785-0024
Trigger mode: 0
Integration Time (sec): 4.000000E-1
Scans to average: 1
Nonlinearity correction enabled: false
Boxcar width: 0
Storing dark spectrum: false
XAxis mode: Wavelengths
Number of Pixels in Spectrum: 1024
>>>>>Begin Spectral Data<<<<<
801.071	22268
801.214	22268
801.356	21983
801.499	21838
801.641	21888
801.783	21667
801.926	21618
802.068	21545
802.211	21568
802.353	21431
802.496	21287
802.638	21294
802.78	21146
802.923	21127
803.065	21070
803.208	21020
803.35	20956
803.492	21096
803.635	21192
803.777	21142
803.919	21176
804.061	21538
804.204	21123
804.346	20944
804.488	20998
804.63	21051
804.773	20941
804.915	20899
805.057	21135
805.199	20941
805.341	20986
805.483	21093
805.626	21203
805.768	20937
805.91	21017
806.052	20990
806.194	20941
806.336	21207
806.478	21093
806.62	20960
806.762	21123
806.904	21138
807.046	21405
807.188	21321
807.33	21264
807.472	21416
807.614	21310
807.756	21275
807.898	21195
808.04	21062
808.182	21165
808.324	21104
808.465	21256
808.607	21355
808.749	21530
808.891	21603
809.033	21625
809.174	21412
809.316	21481
809.458	21447
809.6	21370
809.741	21420
809.883	21526
810.025	21686
810.166	21511
810.308	21618
810.45	21595
810.591	21424
810.733	21291
810.875	21291
811.016	21165
811.158	21028
811.299	21142
811.441	21256
811.582	21279
811.724	21256
811.865	21165
812.007	21085
812.148	21203
812.29	21249
812.431	21363
812.573	21557
812.714	21488
812.855	21701
812.997	21770
813.138	21861
813.279	21850
813.421	21618
813.562	21663
813.703	21393
813.845	21317
813.986	21036
814.127	20868
814.268	20765
814.41	20708
814.551	20735
814.692	20746
814.833	20670
814.974	20731
815.115	20842
815.256	20564
815.397	20636
815.539	20533
815.68	20530
815.821	20347
815.962	20492
816.103	20396
816.244	20419
816.385	20221
816.526	20202
816.666	20081
816.807	20020
816.948	19921
817.089	20069
817.23	19936
817.371	19932
817.512	19909
817.653	19860
817.793	19742
817.934	19864
818.075	19845
818.216	19864
818.356	19822
818.497	19708
818.638	19460
818.778	19571
818.919	19483
819.06	19483
819.2	19616
819.341	19757
819.481	19670
819.622	19925
819.762	19925
819.903	20081
820.043	19894
820.184	19822
820.324	19883
820.465	19868
820.605	19765
820.746	19807
820.886	19632
821.026	19712
821.167	19928
821.307	19932
821.447	19799
821.588	19533
821.728	19487
821.868	19525
822.008	19194
822.149	19270
822.289	19221
822.429	18985
822.569	18977
822.709	18844
822.849	18772
822.99	18734
823.13	18688
823.27	18646
823.41	18517
823.55	18437
823.69	18452
823.83	18410
823.97	18452
824.11	18304
824.25	18258
824.389	18338
824.529	18429
824.669	18380
824.809	18395
824.949	18456
825.089	18410
825.228	18395
825.368	18178
825.508	18091
825.648	18125
825.787	18110
825.927	18228
826.067	18087
826.206	18049
826.346	18030
826.485	18106
826.625	18041
826.765	18182
826.904	18087
827.044	17813
827.183	17851
827.323	17798
827.462	17882
827.601	17790
827.741	17771
827.88	17805
828.02	17687
828.159	17737
828.298	17805
828.437	17821
828.577	17710
828.716	17889
828.855	17771
828.994	17558
829.134	17368
829.273	17543
829.412	17455
829.551	17532
829.69	17436
829.829	17478
829.968	17566
830.107	17528
830.246	17558
830.385	17417
830.524	17467
830.663	17307
830.802	17311
830.941	17098
831.08	17166
831.219	17189
831.357	17151
831.496	17372
831.635	17075
831.774	16965
831.913	16972
832.051	16759
832.19	16946
832.329	16953
832.467	16790
832.606	16702
832.744	16713
832.883	16839
833.022	16748
833.16	16797
833.299	16729
833.437	16881
833.576	16942
833.714	16877
833.852	16847
833.991	16889
834.129	16961
834.267	16896
834.406	16892
834.544	16854
834.682	16847
834.821	16729
834.959	16930
835.097	16824
835.235	16968
835.373	16889
835.511	16835
835.65	16721
835.788	16698
835.926	16675
836.064	16558
836.202	16641
836.34	16736
836.478	16862
836.615	16744
836.753	16713
836.891	16835
837.029	16763
837.167	16797
837.305	16561
837.443	16668
837.58	16584
837.718	16729
837.856	16664
837.993	16569
838.131	16607
838.269	16546
838.406	16596
838.544	16516
838.681	16325
838.819	16223
838.956	16093
839.094	16162
839.231	16192
839.369	16257
839.506	16546
839.643	16413
839.781	16223
839.918	16090
840.055	16124
840.193	16169
840.33	16078
840.467	16204
840.604	16268
840.742	16352
840.879	16017
841.016	16158
841.153	16074
841.29	16276
841.427	16162
841.564	16169
841.701	16112
841.838	16139
841.975	15994
842.112	16067
842.249	15964
842.385	15854
842.522	16124
842.659	15918
842.796	15918
842.933	15975
843.069	15892
843.206	15892
843.343	15983
843.479	15888
843.616	15922
843.752	15751
843.889	15667
844.025	15861
844.162	15774
844.298	15812
844.435	15797
844.571	15675
844.708	15785
844.844	15823
844.98	15816
845.117	15930
845.253	15720
845.389	15751
845.525	15690
845.661	15686
845.798	15557
845.934	15698
846.07	15568
846.206	15625
846.342	15762
846.478	15595
846.614	15340
846.75	15302
846.886	15264
847.022	15397
847.158	15272
847.294	15279
847.429	15351
847.565	15291
847.701	15576
847.837	14998
847.972	14956
848.108	15157
848.244	15081
848.379	14899
848.515	14849
848.65	14952
848.786	14842
848.921	14975
849.057	15005
849.192	15013
849.328	14986
849.463	14811
849.598	14883
849.734	14788
849.869	14758
850.004	14644
850.14	14663
850.275	14667
850.41	14663
850.545	14587
850.68	14606
850.815	14731
850.95	14655
851.085	14781
851.22	14781
851.355	14579
851.49	14583
851.625	14549
851.76	14587
851.895	14484
852.03	14492
852.165	14621
852.299	14678
852.434	14746
852.569	14678
852.703	14598
852.838	14632
852.973	14659
853.107	14819
853.242	14602
853.376	14457
853.511	14427
853.645	14450
853.78	14651
853.914	14503
854.048	14457
854.183	14594
854.317	14598
854.451	14735
854.585	14381
854.72	14469
854.854	14560
854.988	14495
855.122	14347
855.256	14419
855.39	14476
855.524	14689
855.658	14549
855.792	14522
855.926	14518
856.06	14583
856.194	14651
856.327	14541
856.461	14438
856.595	14396
856.729	14469
856.862	14720
856.996	14530
857.13	14545
857.263	14674
857.397	14610
857.53	14564
857.664	14670
857.797	14503
857.931	14613
858.064	14602
858.197	14648
858.331	14484
858.464	14419
858.597	14370
858.731	14423
858.864	14408
858.997	14480
859.13	14454
859.263	14575
859.396	14598
859.529	14442
859.662	14499
859.795	14530
859.928	14450
860.061	14724
860.194	14678
860.327	14488
860.46	14465
860.592	14613
860.725	14625
860.858	14625
860.99	14640
861.123	14427
861.256	14427
861.388	14495
861.521	15336
861.653	14358
861.786	14370
861.918	14374
862.05	14503
862.183	14404
862.315	14545
862.447	14587
862.58	14457
862.712	14286
862.844	14180
862.976	14370
863.108	14294
863.24	14739
863.372	14218
863.504	14313
863.636	14305
863.768	14278
863.9	14309
864.032	14237
864.164	14214
864.296	14339
864.428	14396
864.559	14404
864.691	14263
864.823	14317
864.954	14336
865.086	14381
865.217	14305
865.349	14206
865.48	14309
865.612	14263
865.743	14415
865.875	14206
866.006	14206
866.137	14298
866.269	14286
866.4	14263
866.531	14176
866.662	14168
866.793	14271
866.924	14290
867.055	14301
867.186	14237
867.317	14240
867.448	14134
867.579	14218
867.71	14202
867.841	14240
867.972	14332
868.103	14214
868.233	14298
868.364	14248
868.495	14301
868.625	14552
868.756	14537
868.886	14419
869.017	14545
869.147	14575
869.278	14648
869.408	14537
869.539	14533
869.669	14583
869.799	14503
869.929	14629
870.06	14568
870.19	14731
870.32	14773
870.45	14807
870.58	14952
870.71	15005
870.84	14967
870.97	14960
871.1	14883
871.23	15119
871.36	15089
871.489	14941
871.619	15039
871.749	15085
871.879	15180
872.008	15188
872.138	15218
872.267	15116
872.397	15036
872.526	14861
872.656	14910
872.785	14929
872.915	15047
873.044	15112
873.173	15188
873.303	15291
873.432	15233
873.561	15184
873.69	15154
873.819	15127
873.948	15214
874.077	15233
874.206	15146
874.335	15150
874.464	15226
874.593	15370
874.722	15332
874.851	15561
874.979	15515
875.108	15485
875.237	15424
875.365	15279
875.494	15306
875.623	15538
875.751	15405
875.88	15580
876.008	15584
876.136	15622
876.265	15907
876.393	15994
876.521	15945
876.65	15918
876.778	15774
876.906	15918
877.034	15895
877.162	15819
877.29	15816
877.418	15911
877.546	15918
877.674	15831
877.802	15808
877.93	15918
878.058	15762
878.185	15698
878.313	15827
878.441	15934
878.568	15831
878.696	15876
878.824	15960
878.951	15979
879.079	16131
879.206	16219
879.333	16116
879.461	15975
879.588	15975
879.715	16093
879.842	16166
879.97	15911
880.097	15736
880.224	15690
880.351	15770
880.478	15622
880.605	15770
880.732	15667
880.859	15983
880.986	15770
881.112	15743
881.239	15637
881.366	15534
881.493	15485
881.619	15443
881.746	15431
881.872	15351
881.999	15302
882.125	15405
882.252	15454
882.378	15420
882.505	15557
882.631	15443
882.757	15173
882.883	15329
883.01	15195
883.136	15138
883.262	14986
883.388	15131
883.514	15302
883.64	15325
883.766	15249
883.892	14998
884.018	14990
884.143	15146
884.269	15256
884.395	14944
884.52	14834
884.646	15001
884.772	14872
884.897	14853
885.023	14948
885.148	15020
885.274	15097
885.399	14998
885.524	14948
885.65	14944
885.775	14963
885.9	14746
886.025	15039
886.15	15039
886.275	14864
886.4	14819
886.525	14838
886.65	14845
886.775	14883
886.9	15005
887.025	15108
887.149	14864
887.274	14750
887.399	14659
887.523	14587
887.648	14693
887.773	14648
887.897	14788
888.021	14834
888.146	14708
888.27	14788
888.395	14849
888.519	14804
888.643	14804
888.767	14800
888.891	14731
889.015	14571
889.139	14594
889.263	14530
889.387	14727
889.511	14872
889.635	14644
889.759	14606
889.883	14476
890.006	14743
890.13	14708
890.254	14571
890.377	14564
890.501	14434
890.624	14377
890.748	14457
890.871	14328
890.995	14248
891.118	14126
891.241	14271
891.364	14290
891.488	14339
891.611	14286
891.734	14317
891.857	14377
891.98	14434
892.103	14404
892.226	14358
892.349	14275
892.471	14126
892.594	14381
892.717	14229
892.839	14286
892.962	14282
893.085	14313
893.207	14259
893.33	14225
893.452	14176
893.575	14309
893.697	14161
893.819	14514
893.941	14427
894.064	14484
894.186	14294
894.308	14202
894.43	14408
894.552	14450
894.674	14446
894.796	14218
894.918	14286
895.04	14271
895.161	14324
895.283	14332
895.405	14313
895.526	14374
895.648	14469
895.769	14343
895.891	14465
896.012	14442
896.134	14473
896.255	14385
896.376	14415
896.498	14465
896.619	14507
896.74	14457
896.861	14598
896.982	14834
897.103	14967
897.224	14785
897.345	14735
897.466	14720
897.587	14720
897.708	14952
897.828	14667
897.949	14701
898.07	14590
898.19	14556
898.311	14883
898.431	14815
898.552	14712
898.672	14906
898.792	14941
898.913	14880
899.033	14777
899.153	14670
899.273	14545
899.393	14632
899.513	14587
899.633	14655
899.753	14629
899.873	14530
899.993	14678
900.113	14564
900.232	14708
900.352	14564
900.472	14632
900.591	14366
900.711	14511
900.83	14381
900.95	14590
901.069	14625
901.189	14389
901.308	14263
901.427	14092
901.546	14183
901.665	14240
901.784	14275
901.904	14119
902.023	13982
902.141	13887
902.26	13723
902.379	13769
902.498	13715
902.617	13700
902.735	13803
902.854	13662
902.973	13731
903.091	13472
903.21	13468
903.328	13422
903.446	13449
903.565	13327
903.683	13293
903.801	13179
903.919	13324
904.038	13183
904.156	13103
904.274	13190
904.392	13076
904.51	13145
904.627	13091
904.745	13076
904.863	13156
904.981	12886
905.098	12787
905.216	12791
905.334	12875
905.451	12939
905.569	12848
905.686	12913
905.803	12783
905.921	12608
906.038	12696
906.155	12700
906.272	12532
906.389	12566
906.506	12395
906.623	12437
906.74	12403
906.857	12289
906.974	12266
907.091	12494
907.208	12582
907.324	12410
907.441	12273
907.557	12186
907.674	12178
907.79	12019
907.907	12057
908.023	12110
908.139	12087
908.256	12068
908.372	12095
908.488	11996
908.604	11908
908.72	11882
908.836	11950
908.952	11897
909.068	11927
909.184	11946
909.3	11942
909.415	11980
909.531	11882
909.647	11737
909.762	11695
909.878	11642
909.993	11722
910.108	11577
910.224	11570
910.339	11684
910.454	11604
910.57	11509
910.685	11448
910.8	11783
910.915	11695
911.03	11611
911.145	11440
911.259	11303
911.374	11311
911.489	11227
911.604	11265
911.718	11273
911.833	11094
911.947	11075
912.062	11029
912.176	11140
912.291	11181
912.405	11193
912.519	11258
912.633	11288
912.748	11223
912.862	11124
912.976	10968
913.09	10873
913.204	10915
913.318	11022
913.431	11037
913.545	11170
913.659	11162
913.772	10968
913.886	10911
914	10790
914.113	10919
914.226	11083
914.34	10976
914.453	10797
914.566	10942
914.68	10786
914.793	10748
914.906	10645
915.019	10577
915.132	10577
915.245	10573
915.358	10607
915.47	10656
915.583	10675
915.696	10679
915.809	10793
915.921	10759
916.034	10603
916.146	10577
916.259	10538
916.371	10622
916.483	10729
916.595	10573
916.708	10508
916.82	10599
916.932	10508
917.044	10485
917.156	10519
917.268	10421
917.38	10455
917.491	10455
917.603	10375
917.715	10527
917.826	10550
917.938	10451
918.049	10295
918.161	10440
918.272	10565
918.384	10615
918.495	10519
918.606	10306
918.717	10303
918.828	10371
918.939	10413
919.05	10177
919.161	10348
919.272	10154
919.383	10246
919.494	10352
919.604	10542
919.715	10337
919.826	10299
919.936	10230
920.047	10417
920.157	10402
920.267	10561
920.378	10352
920.488	10417
920.598	10500
920.708	10672
920.818	10440
920.928	10462
921.038	10687
921.148	10596
921.258	10344
921.368	10299
921.477	10227
921.587	10177
921.697	10051
921.806	10268
921.916	10112
922.025	9956
922.134	9930
922.244	9911
922.353	9983
922.462	9789
922.571	9644
922.68	9591
922.789	9610
922.898	9606
923.007	9568
923.116	9553
923.224	9576
923.333	9545
923.442	9515
923.55	9416
923.659	9488
923.767	9545
923.876	9492
923.984	9504
924.092	9473
924.201	9408
924.309	9424
924.417	9424
924.525	9412
924.633	9359
924.741	10158
924.849	9264
924.956	9374
925.064	9256
925.172	9138
925.279	9161
925.387	9291
925.494	9218
925.602	9405
925.709	9264
925.816	9188
925.924	9222
926.031	9302
926.138	9256
926.245	9253
926.352	9138
926.459	9283
926.566	9321
926.673	9256
926.779	9142
926.886	9074
926.993	9009
927.099	8998
927.206	8899
927.312	8861
927.419	9032
927.525	8971
927.631	8975
927.737	8910
927.843	8819
927.95	8758
928.056	8773
928.162	8834
928.267	8891
928.373	9439
928.479	8864
928.585	8674
928.69	8819
928.796	8800
928.901	8724
929.007	8537
929.112	8712
929.218	8701
929.323	8739
929.428	8636
929.533	8773
929.638	8613
929.743	8629
929.848	8697
929.953	8648
930.058	8568
930.163	8362
930.267	8469
930.372	8537
930.477	8370
930.581	8625
930.685	8522
930.79	8339
930.894	8450
930.998	8385
931.103	8560
931.207	8183
931.311	8020
931.415	8039
931.519	7864
931.623	7906
