Data from test_V78500241_2852.txt Node
Date: Fri Mar 25 14:53:34 CST 2022
User: usil
Spectrometer: V785-0024
Trigger mode: 0
Integration Time (sec): 4.000000E-1
Scans to average: 1
Nonlinearity correction enabled: false
Boxcar width: 0
Storing dark spectrum: false
XAxis mode: Wavelengths
Number of Pixels in Spectrum: 1024
>>>>>Begin Spectral Data<<<<<
801.071	22044
801.214	21930
801.356	21660
801.499	21625
801.641	21534
801.783	21397
801.926	21378
802.068	21431
802.211	21310
802.353	21260
802.496	21089
802.638	21001
802.78	20933
802.923	20868
803.065	20697
803.208	20640
803.35	20708
803.492	20914
803.635	20956
803.777	20693
803.919	20880
804.061	21100
804.204	20807
804.346	20625
804.488	20514
804.63	20739
804.773	20598
804.915	20678
805.057	20781
805.199	20724
805.341	20708
805.483	20887
805.626	20876
805.768	20648
805.91	20594
806.052	20663
806.194	20552
806.336	20701
806.478	20537
806.62	20629
806.762	20754
806.904	20781
807.046	21043
807.188	20899
807.33	21032
807.472	21032
807.614	20899
807.756	20899
807.898	20682
808.04	20750
808.182	20746
808.324	20716
808.465	20746
808.607	20967
808.749	21131
808.891	21085
809.033	21176
809.174	21070
809.316	21028
809.458	21055
809.6	21085
809.741	21096
809.883	21028
810.025	21176
810.166	21207
810.308	21173
810.45	21138
810.591	21161
810.733	20956
810.875	20762
811.016	20823
811.158	20716
811.299	20891
811.441	21005
811.582	21005
811.724	20758
811.865	20765
812.007	20811
812.148	20792
812.29	20853
812.431	20937
812.573	21150
812.714	21176
812.855	21363
812.997	21416
813.138	21553
813.279	21545
813.421	21329
813.562	21195
813.703	20990
813.845	20982
813.986	20701
814.127	20568
814.268	20503
814.41	20389
814.551	20385
814.692	20495
814.833	20290
814.974	20339
815.115	20278
815.256	20183
815.397	20199
815.539	20187
815.68	20107
815.821	20077
815.962	20107
816.103	20016
816.244	19879
816.385	19734
816.526	19780
816.666	19746
816.807	19510
816.948	19540
817.089	19575
817.23	19457
817.371	19540
817.512	19487
817.653	19487
817.793	19377
817.934	19415
818.075	19506
818.216	19529
818.356	19445
818.497	19350
818.638	19137
818.778	19232
818.919	19152
819.06	19202
819.2	19426
819.341	19293
819.481	19434
819.622	19377
819.762	19719
819.903	19506
820.043	19662
820.184	19483
820.324	19392
820.465	19441
820.605	19480
820.746	19468
820.886	19289
821.026	19411
821.167	19483
821.307	19441
821.447	19346
821.588	19350
821.728	19171
821.868	19023
822.008	18894
822.149	18901
822.289	18768
822.429	18650
822.569	18566
822.709	18612
822.849	18441
822.99	18270
823.13	18357
823.27	18258
823.41	18186
823.55	18178
823.69	18228
823.83	18190
823.97	18022
824.11	17931
824.25	17874
824.389	17908
824.529	18053
824.669	17916
824.809	18007
824.949	17980
825.089	17939
825.228	17946
825.368	17775
825.508	17722
825.648	17684
825.787	17779
825.927	17760
826.067	17691
826.206	17661
826.346	17745
826.485	17691
826.625	17672
826.765	17840
826.904	17783
827.044	17474
827.183	17535
827.323	17299
827.462	17554
827.601	17417
827.741	17356
827.88	17417
828.02	17269
828.159	17379
828.298	17455
828.437	17478
828.577	17296
828.716	17455
828.855	17379
828.994	17140
829.134	17045
829.273	17136
829.412	17109
829.551	17025
829.69	17151
829.829	17117
829.968	17166
830.107	17174
830.246	17117
830.385	17220
830.524	16999
830.663	16965
830.802	16858
830.941	16797
831.08	16710
831.219	16824
831.357	16691
831.496	16961
831.635	16748
831.774	16577
831.913	16656
832.051	16672
832.19	16538
832.329	16660
832.467	16531
832.606	16421
832.744	16424
832.883	16512
833.022	16436
833.16	16314
833.299	16519
833.437	16409
833.576	16447
833.714	16523
833.852	16481
833.991	16554
834.129	16675
834.267	16554
834.406	16424
834.544	16508
834.682	16558
834.821	16462
834.959	16717
835.097	16413
835.235	16615
835.373	16577
835.511	16527
835.65	16443
835.788	16287
835.926	16306
836.064	16215
836.202	16238
836.34	16447
836.478	16508
836.615	16413
836.753	16402
836.891	16500
837.029	16440
837.167	16413
837.305	16280
837.443	16329
837.58	16219
837.718	16382
837.856	16299
837.993	16257
838.131	16348
838.269	16333
838.406	16204
838.544	16188
838.681	16010
838.819	15964
838.956	15827
839.094	15789
839.231	15876
839.369	15994
839.506	16249
839.643	16059
839.781	15808
839.918	15854
840.055	15816
840.193	15953
840.33	15736
840.467	15838
840.604	15880
840.742	16131
840.879	15633
841.016	15724
841.153	15728
841.29	15899
841.427	15823
841.564	15861
841.701	15991
841.838	15793
841.975	15671
842.112	15686
842.249	15713
842.385	15488
842.522	15816
842.659	15603
842.796	15606
842.933	15637
843.069	15530
843.206	15530
843.343	15694
843.479	15614
843.616	15652
843.752	15374
843.889	15458
844.025	15481
844.162	15412
844.298	15477
844.435	15378
844.571	15370
844.708	15485
844.844	15561
844.98	15568
845.117	15462
845.253	15336
845.389	15401
845.525	15306
845.661	15199
845.798	15264
845.934	15291
846.07	15131
846.206	15249
846.342	15397
846.478	15154
846.614	14982
846.75	14960
846.886	14842
847.022	15116
847.158	14895
847.294	14914
847.429	15036
847.565	14861
847.701	15195
847.837	14739
847.972	14629
848.108	14762
848.244	14807
848.379	14602
848.515	14549
848.65	14473
848.786	14575
848.921	14602
849.057	14594
849.192	14636
849.328	14556
849.463	14484
849.598	14537
849.734	14457
849.869	14412
850.004	14305
850.14	14339
850.275	14400
850.41	14286
850.545	14332
850.68	14336
850.815	14336
850.95	14309
851.085	14404
851.22	14446
851.355	14290
851.49	14240
851.625	14286
851.76	14381
851.895	14195
852.03	14183
852.165	14229
852.299	14324
852.434	14499
852.569	14427
852.703	14423
852.838	14423
852.973	14568
853.107	14514
853.242	14347
853.376	14115
853.511	13997
853.645	14123
853.78	14282
853.914	14164
854.048	14275
854.183	14142
854.317	14187
854.451	14385
854.585	14134
854.72	14180
854.854	14267
854.988	14100
855.122	14168
855.256	14088
855.39	14191
855.524	14320
855.658	14210
855.792	14142
855.926	14218
856.06	14225
856.194	14286
856.327	14149
856.461	14123
856.595	14161
856.729	14100
856.862	14309
856.996	14301
857.13	14282
857.263	14275
857.397	14282
857.53	14180
857.664	14355
857.797	14252
857.931	14286
858.064	14275
858.197	14351
858.331	14164
858.464	14092
858.597	14103
858.731	14145
858.864	14134
858.997	14138
859.13	14282
859.263	14172
859.396	14195
859.529	14202
859.662	14145
859.795	14031
859.928	14176
860.061	14412
860.194	14324
860.327	14252
860.46	14138
860.592	14240
860.725	14339
860.858	14237
860.99	14168
861.123	14084
861.256	14103
861.388	14149
861.521	14735
861.653	14119
861.786	13951
861.918	14115
862.05	14168
862.183	14172
862.315	14145
862.447	14294
862.58	14111
862.712	14020
862.844	13928
862.976	14100
863.108	13963
863.24	14499
863.372	13913
863.504	13982
863.636	14062
863.768	14062
863.9	13925
864.032	13830
864.164	13974
864.296	14027
864.428	14050
864.559	14176
864.691	14115
864.823	14054
864.954	14035
865.086	13963
865.217	13970
865.349	13868
865.48	13917
865.612	13986
865.743	14111
865.875	13909
866.006	13898
866.137	14069
866.269	13917
866.4	13940
866.531	13932
866.662	13868
866.793	13856
866.924	13875
867.055	14012
867.186	13959
867.317	13822
867.448	13917
867.579	13898
867.71	13860
867.841	13864
867.972	13982
868.103	13928
868.233	14001
868.364	14046
868.495	14058
868.625	14237
868.756	14233
868.886	14100
869.017	14267
869.147	14351
869.278	14320
869.408	14252
869.539	14180
869.669	14294
869.799	14259
869.929	14225
870.06	14275
870.19	14533
870.32	14533
870.45	14454
870.58	14648
870.71	14663
870.84	14720
870.97	14598
871.1	14564
871.23	14697
871.36	14800
871.489	14716
871.619	14823
871.749	14857
871.879	14819
872.008	14868
872.138	14762
872.267	14785
872.397	14651
872.526	14655
872.656	14659
872.785	14617
872.915	14853
873.044	14880
873.173	14811
873.303	14792
873.432	14937
873.561	14921
873.69	14872
873.819	14883
873.948	14956
874.077	14929
874.206	14823
874.335	14941
874.464	15066
874.593	15180
874.722	15108
874.851	15176
874.979	15184
875.108	15233
875.237	15119
875.365	15020
875.494	15169
875.623	15184
875.751	15127
875.88	15245
876.008	15233
876.136	15321
876.265	15572
876.393	15709
876.521	15660
876.65	15667
876.778	15622
876.906	15564
877.034	15515
877.162	15564
877.29	15492
877.418	15648
877.546	15644
877.674	15614
877.802	15732
877.93	15553
878.058	15625
878.185	15625
878.313	15523
878.441	15675
878.568	15500
878.696	15504
878.824	15675
878.951	15739
879.079	15808
879.206	15956
879.333	15717
879.461	15705
879.588	15717
879.715	15797
879.842	15911
879.97	15660
880.097	15408
880.224	15481
880.351	15416
880.478	15500
880.605	15538
880.732	15481
880.859	15717
880.986	15511
881.112	15561
881.239	15329
881.366	15306
881.493	15279
881.619	15283
881.746	15104
881.872	15150
881.999	15138
882.125	15070
882.252	15283
882.378	15081
882.505	15336
882.631	15154
882.757	14952
882.883	15017
883.01	14963
883.136	14971
883.262	14826
883.388	14697
883.514	14944
883.64	15089
883.766	14967
883.892	14785
884.018	14762
884.143	14944
884.269	15066
884.395	14655
884.52	14621
884.646	14697
884.772	14640
884.897	14598
885.023	14765
885.148	14788
885.274	14754
885.399	14754
885.524	14693
885.65	14640
885.775	14727
885.9	14689
886.025	14819
886.15	14769
886.275	14648
886.4	14564
886.525	14518
886.65	14693
886.775	14674
886.9	14838
887.025	14906
887.149	14594
887.274	14530
887.399	14495
887.523	14469
887.648	14473
887.773	14412
887.897	14583
888.021	14556
888.146	14423
888.27	14583
888.395	14651
888.519	14514
888.643	14583
888.767	14537
888.891	14431
889.015	14381
889.139	14385
889.263	14434
889.387	14476
889.511	14499
889.635	14465
889.759	14343
889.883	14454
890.006	14396
890.13	14461
890.254	14225
890.377	14282
890.501	14202
890.624	14126
890.748	14210
890.871	14084
890.995	13967
891.118	14054
891.241	14138
891.364	14005
891.488	14084
891.611	14031
891.734	14081
891.857	14069
891.98	14107
892.103	14176
892.226	14138
892.349	14050
892.471	13963
892.594	13974
892.717	14130
892.839	13989
892.962	14058
893.085	14138
893.207	14065
893.33	13864
893.452	13989
893.575	14138
893.697	14039
893.819	14237
893.941	14298
894.064	14183
894.186	14130
894.308	13986
894.43	14225
894.552	14214
894.674	14199
894.796	14012
894.918	14126
895.04	14069
895.161	14149
895.283	14183
895.405	14084
895.526	14176
895.648	14199
895.769	14134
895.891	14256
896.012	14313
896.134	14381
896.255	14244
896.376	14218
896.498	14172
896.619	14286
896.74	14328
896.861	14278
896.982	14583
897.103	14686
897.224	14545
897.345	14457
897.466	14507
897.587	14434
897.708	14556
897.828	14617
897.949	14469
898.07	14374
898.19	14564
898.311	14556
898.431	14530
898.552	14693
898.672	14625
898.792	14785
898.913	14674
899.033	14457
899.153	14438
899.273	14347
899.393	14492
899.513	14347
899.633	14412
899.753	14469
899.873	14461
899.993	14507
900.113	14419
900.232	14473
900.352	14389
900.472	14317
900.591	14282
900.711	14358
900.83	14267
900.95	14396
901.069	14469
901.189	14229
901.308	13986
901.427	14092
901.546	13974
901.665	14065
901.784	14058
901.904	13845
902.023	13784
902.141	13681
902.26	13556
902.379	13578
902.498	13548
902.617	13563
902.735	13544
902.854	13548
902.973	13499
903.091	13228
903.21	13293
903.328	13232
903.446	13285
903.565	13088
903.683	13099
903.801	13091
903.919	13118
904.038	13118
904.156	12981
904.274	12981
904.392	12958
904.51	12954
904.627	12989
904.745	12993
904.863	12966
904.981	12669
905.098	12639
905.216	12604
905.334	12692
905.451	12616
905.569	12646
905.686	12749
905.803	12696
905.921	12418
906.038	12574
906.155	12448
906.272	12304
906.389	12353
906.506	12277
906.623	12247
906.74	12296
906.857	12121
906.974	12148
907.091	12270
907.208	12350
907.324	12243
907.441	12152
907.557	11950
907.674	11882
907.79	11843
907.907	11984
908.023	11889
908.139	12049
908.256	11874
908.372	11923
908.488	11828
908.604	11805
908.72	11729
908.836	11684
908.952	11703
909.068	11726
909.184	11790
909.3	11748
909.415	11790
909.531	11707
909.647	11608
909.762	11486
909.878	11448
909.993	11562
910.108	11486
910.224	11440
910.339	11539
910.454	11402
910.57	11414
910.685	11277
910.8	11577
910.915	11417
911.03	11376
911.145	11151
911.259	11162
911.374	11250
911.489	11166
911.604	11079
911.718	11006
911.833	10980
911.947	10957
912.062	10889
912.176	10915
912.291	10915
912.405	11006
912.519	11143
912.633	11060
912.748	11064
912.862	10923
912.976	10869
913.09	10664
913.204	10759
913.318	10858
913.431	10927
913.545	10934
913.659	10953
913.772	10854
913.886	10691
914	10637
914.113	10774
914.226	10869
914.34	10771
914.453	10618
914.566	10850
914.68	10664
914.793	10603
914.906	10535
915.019	10440
915.132	10360
915.245	10367
915.358	10405
915.47	10447
915.583	10512
915.696	10489
915.809	10577
915.921	10664
916.034	10440
916.146	10436
916.259	10386
916.371	10478
916.483	10409
916.595	10417
916.708	10318
916.82	10363
916.932	10386
917.044	10386
917.156	10341
917.268	10230
917.38	10333
917.491	10188
917.603	10348
917.715	10375
917.826	10375
917.938	10390
918.049	10261
918.161	10181
918.272	10474
918.384	10417
918.495	10352
918.606	10196
918.717	10105
918.828	10196
918.939	10207
919.05	10059
919.161	10147
919.272	9960
919.383	10093
919.494	10207
919.604	10371
919.715	10242
919.826	10162
919.936	10181
920.047	10287
920.157	10162
920.267	10485
920.378	10272
920.488	10200
920.598	10413
920.708	10485
920.818	10322
920.928	10344
921.038	10561
921.148	10459
921.258	10204
921.368	10177
921.477	10109
921.587	10048
921.697	9907
921.806	10116
921.916	9922
922.025	9759
922.134	9770
922.244	9690
922.353	9835
922.462	9656
922.571	9580
922.68	9481
922.789	9435
922.898	9481
923.007	9332
923.116	9549
923.224	9447
923.333	9447
923.442	9287
923.55	9279
923.659	9359
923.767	9412
923.876	9329
923.984	9431
924.092	9180
924.201	9291
924.309	9424
924.417	9306
924.525	9184
924.633	9313
924.741	10242
924.849	9028
924.956	9207
925.064	9138
925.172	9028
925.279	9024
925.387	9077
925.494	9135
925.602	9180
925.709	9192
925.816	9024
925.924	9097
926.031	9195
926.138	9066
926.245	9195
926.352	9055
926.459	9233
926.566	9192
926.673	8979
926.779	8925
926.886	8902
926.993	8880
927.099	8830
927.206	8731
927.312	8746
927.419	8830
927.525	8800
927.631	8872
927.737	8716
927.843	8746
927.95	8587
928.056	8735
928.162	8712
928.267	8766
928.373	9268
928.479	8758
928.585	8610
928.69	8701
928.796	8746
928.901	8621
929.007	8503
929.112	8651
929.218	8648
929.323	8564
929.428	8549
929.533	8636
929.638	8541
929.743	8530
929.848	8625
929.953	8499
930.058	8423
930.163	8286
930.267	8320
930.372	8438
930.477	8298
930.581	8564
930.685	8305
930.79	8275
930.894	8370
930.998	8259
931.103	8461
931.207	8115
931.311	7993
931.415	7864
931.519	7772
931.623	7704
