Data from test_V78500241_2360.txt Node
Date: Fri Mar 25 14:50:08 CST 2022
User: usil
Spectrometer: V785-0024
Trigger mode: 0
Integration Time (sec): 4.000000E-1
Scans to average: 1
Nonlinearity correction enabled: false
Boxcar width: 0
Storing dark spectrum: false
XAxis mode: Wavelengths
Number of Pixels in Spectrum: 1024
>>>>>Begin Spectral Data<<<<<
801.071	22185
801.214	21930
801.356	21652
801.499	21534
801.641	21515
801.783	21408
801.926	21405
802.068	21317
802.211	21428
802.353	21344
802.496	20986
802.638	21047
802.78	20872
802.923	20902
803.065	20819
803.208	20861
803.35	20853
803.492	20952
803.635	20967
803.777	20785
803.919	20906
804.061	21131
804.204	20887
804.346	20830
804.488	20701
804.63	20849
804.773	20602
804.915	20693
805.057	20948
805.199	20739
805.341	20845
805.483	20952
805.626	20788
805.768	20735
805.91	20777
806.052	20804
806.194	20659
806.336	20857
806.478	20682
806.62	20716
806.762	20769
806.904	20986
807.046	21192
807.188	21112
807.33	21119
807.472	21100
807.614	21032
807.756	20971
807.898	20963
808.04	20811
808.182	20785
808.324	20864
808.465	20921
808.607	21017
808.749	21157
808.891	21222
809.033	21218
809.174	21359
809.316	21203
809.458	21058
809.6	21131
809.741	21264
809.883	21275
810.025	21348
810.166	21389
810.308	21226
810.45	21268
810.591	21112
810.733	20967
810.875	20986
811.016	20754
811.158	20773
811.299	20994
811.441	20990
811.582	20918
811.724	20944
811.865	20781
812.007	20918
812.148	20891
812.29	20994
812.431	21119
812.573	21233
812.714	21294
812.855	21348
812.997	21576
813.138	21610
813.279	21648
813.421	21389
813.562	21359
813.703	21138
813.845	21036
813.986	20674
814.127	20606
814.268	20457
814.41	20457
814.551	20590
814.692	20480
814.833	20450
814.974	20366
815.115	20415
815.256	20324
815.397	20202
815.539	20278
815.68	20229
815.821	20081
815.962	20282
816.103	20199
816.244	19940
816.385	19932
816.526	19921
816.666	19712
816.807	19491
816.948	19597
817.089	19746
817.23	19628
817.371	19510
817.512	19616
817.653	19552
817.793	19514
817.934	19605
818.075	19578
818.216	19605
818.356	19468
818.497	19422
818.638	19236
818.778	19304
818.919	19358
819.06	19392
819.2	19449
819.341	19369
819.481	19426
819.622	19613
819.762	19769
819.903	19651
820.043	19655
820.184	19655
820.324	19544
820.465	19731
820.605	19571
820.746	19605
820.886	19415
821.026	19556
821.167	19578
821.307	19601
821.447	19468
821.588	19449
821.728	19331
821.868	19137
822.008	18962
822.149	19057
822.289	18890
822.429	18696
822.569	18601
822.709	18779
822.849	18426
822.99	18506
823.13	18513
823.27	18338
823.41	18308
823.55	18190
823.69	18300
823.83	18365
823.97	18163
824.11	17973
824.25	18053
824.389	18114
824.529	18102
824.669	17988
824.809	18129
824.949	18110
825.089	18041
825.228	18114
825.368	17798
825.508	17855
825.648	17859
825.787	17908
825.927	17840
826.067	17794
826.206	17775
826.346	17847
826.485	17824
826.625	17764
826.765	17942
826.904	17752
827.044	17615
827.183	17528
827.323	17482
827.462	17566
827.601	17482
827.741	17452
827.88	17501
828.02	17406
828.159	17474
828.298	17493
828.437	17585
828.577	17532
828.716	17524
828.855	17455
828.994	17250
829.134	17292
829.273	17265
829.412	17216
829.551	17185
829.69	17250
829.829	17208
829.968	17353
830.107	17311
830.246	17189
830.385	17117
830.524	17147
830.663	17048
830.802	16885
830.941	16843
831.08	16679
831.219	16953
831.357	16873
831.496	17159
831.635	16812
831.774	16816
831.913	16710
832.051	16691
832.19	16721
832.329	16626
832.467	16607
832.606	16508
832.744	16527
832.883	16569
833.022	16577
833.16	16455
833.299	16466
833.437	16573
833.576	16596
833.714	16531
833.852	16637
833.991	16599
834.129	16615
834.267	16653
834.406	16618
834.544	16672
834.682	16481
834.821	16569
834.959	16706
835.097	16546
835.235	16630
835.373	16565
835.511	16611
835.65	16413
835.788	16367
835.926	16291
836.064	16261
836.202	16318
836.34	16542
836.478	16561
836.615	16432
836.753	16443
836.891	16542
837.029	16588
837.167	16421
837.305	16367
837.443	16459
837.58	16318
837.718	16360
837.856	16318
837.993	16230
838.131	16398
838.269	16287
838.406	16246
838.544	16234
838.681	16105
838.819	16059
838.956	15987
839.094	15915
839.231	15934
839.369	15956
839.506	16166
839.643	16044
839.781	15884
839.918	15846
840.055	15892
840.193	15857
840.33	15861
840.467	15907
840.604	15915
840.742	16055
840.879	15774
841.016	15755
841.153	15705
841.29	15960
841.427	15915
841.564	15903
841.701	15934
841.838	15876
841.975	15842
842.112	15876
842.249	15717
842.385	15648
842.522	15819
842.659	15701
842.796	15690
842.933	15671
843.069	15686
843.206	15538
843.343	15686
843.479	15675
843.616	15675
843.752	15428
843.889	15584
844.025	15595
844.162	15439
844.298	15557
844.435	15435
844.571	15405
844.708	15462
844.844	15603
844.98	15553
845.117	15549
845.253	15466
845.389	15291
845.525	15386
845.661	15233
845.798	15344
845.934	15389
846.07	15302
846.206	15268
846.342	15367
846.478	15306
846.614	15203
846.75	15013
846.886	15062
847.022	15226
847.158	14967
847.294	15036
847.429	15108
847.565	15024
847.701	15252
847.837	14807
847.972	14712
848.108	14853
848.244	14876
848.379	14655
848.515	14537
848.65	14655
848.786	14541
848.921	14674
849.057	14708
849.192	14758
849.328	14689
849.463	14590
849.598	14575
849.734	14511
849.869	14560
850.004	14415
850.14	14499
850.275	14457
850.41	14351
850.545	14317
850.68	14339
850.815	14480
850.95	14377
851.085	14590
851.22	14495
851.355	14351
851.49	14381
851.625	14446
851.76	14355
851.895	14263
852.03	14225
852.165	14320
852.299	14408
852.434	14549
852.569	14469
852.703	14336
852.838	14381
852.973	14568
853.107	14541
853.242	14374
853.376	14298
853.511	14054
853.645	14138
853.78	14393
853.914	14305
854.048	14267
854.183	14092
854.317	14278
854.451	14461
854.585	14282
854.72	14176
854.854	14396
854.988	14161
855.122	14343
855.256	14092
855.39	14256
855.524	14317
855.658	14298
855.792	14336
855.926	14259
856.06	14267
856.194	14476
856.327	14347
856.461	14206
856.595	14153
856.729	14252
856.862	14362
856.996	14237
857.13	14191
857.263	14400
857.397	14202
857.53	14324
857.664	14256
857.797	14332
857.931	14457
858.064	14347
858.197	14374
858.331	14263
858.464	14240
858.597	14214
858.731	14252
858.864	14317
858.997	14336
859.13	14309
859.263	14218
859.396	14301
859.529	14199
859.662	14202
859.795	14180
859.928	14332
860.061	14370
860.194	14431
860.327	14362
860.46	14309
860.592	14423
860.725	14473
860.858	14374
860.99	14210
861.123	14107
861.256	14248
861.388	14294
861.521	14807
861.653	14252
861.786	14084
861.918	14062
862.05	14199
862.183	14123
862.315	14214
862.447	14320
862.58	14237
862.712	14096
862.844	13982
862.976	14157
863.108	14138
863.24	14404
863.372	13902
863.504	13963
863.636	14005
863.768	14103
863.9	13955
864.032	13909
864.164	13955
864.296	14077
864.428	14195
864.559	14134
864.691	14126
864.823	14161
864.954	14088
865.086	13970
865.217	14008
865.349	13963
865.48	13986
865.612	14130
865.743	14123
865.875	14001
866.006	14008
866.137	14001
866.269	14191
866.4	13997
866.531	13959
866.662	13913
866.793	13925
866.924	14016
867.055	13982
867.186	13974
867.317	14008
867.448	13902
867.579	13982
867.71	13902
867.841	13997
867.972	14043
868.103	14024
868.233	14065
868.364	14005
868.495	14088
868.625	14210
868.756	14427
868.886	14233
869.017	14210
869.147	14366
869.278	14370
869.408	14301
869.539	14263
869.669	14298
869.799	14339
869.929	14400
870.06	14355
870.19	14720
870.32	14693
870.45	14590
870.58	14659
870.71	14708
870.84	14743
870.97	14610
871.1	14659
871.23	14887
871.36	14925
871.489	14876
871.619	14891
871.749	14807
871.879	14876
872.008	14990
872.138	14902
872.267	14834
872.397	14720
872.526	14625
872.656	14686
872.785	14705
872.915	14990
873.044	14990
873.173	14956
873.303	15024
873.432	14933
873.561	14979
873.69	14902
873.819	15024
873.948	14933
874.077	14918
874.206	14823
874.335	14941
874.464	15089
874.593	15173
874.722	15157
874.851	15127
874.979	15272
875.108	15348
875.237	15218
875.365	15142
875.494	15203
875.623	15389
875.751	15108
875.88	15279
876.008	15408
876.136	15435
876.265	15652
876.393	15838
876.521	15698
876.65	15751
876.778	15701
876.906	15584
877.034	15614
877.162	15648
877.29	15720
877.418	15538
877.546	15644
877.674	15641
877.802	15614
877.93	15625
878.058	15637
878.185	15477
878.313	15610
878.441	15568
878.568	15428
878.696	15584
878.824	15728
878.951	15682
879.079	15861
879.206	15941
879.333	15797
879.461	15705
879.588	15743
879.715	15789
879.842	16006
879.97	15736
880.097	15492
880.224	15534
880.351	15443
880.478	15568
880.605	15507
880.732	15492
880.859	15709
880.986	15458
881.112	15515
881.239	15275
881.366	15233
881.493	15157
881.619	15241
881.746	15055
881.872	15154
881.999	15180
882.125	15135
882.252	15275
882.378	15203
882.505	15443
882.631	15062
882.757	14960
882.883	14971
883.01	15013
883.136	15013
883.262	14853
883.388	14804
883.514	14906
883.64	15024
883.766	14929
883.892	14708
884.018	14785
884.143	15005
884.269	15081
884.395	14670
884.52	14621
884.646	14731
884.772	14670
884.897	14731
885.023	14674
885.148	14739
885.274	14796
885.399	14762
885.524	14644
885.65	14716
885.775	14708
885.9	14720
886.025	14933
886.15	14705
886.275	14644
886.4	14537
886.525	14731
886.65	14613
886.775	14545
886.9	14788
887.025	14910
887.149	14667
887.274	14617
887.399	14480
887.523	14473
887.648	14457
887.773	14442
887.897	14613
888.021	14484
888.146	14533
888.27	14610
888.395	14594
888.519	14522
888.643	14537
888.767	14667
888.891	14450
889.015	14362
889.139	14423
889.263	14377
889.387	14442
889.511	14560
889.635	14404
889.759	14320
889.883	14473
890.006	14381
890.13	14431
890.254	14282
890.377	14370
890.501	14172
890.624	14145
890.748	14218
890.871	14046
890.995	13986
891.118	13974
891.241	14035
891.364	14054
891.488	14187
891.611	14016
891.734	14073
891.857	14195
891.98	14084
892.103	14138
892.226	14199
892.349	14081
892.471	13925
892.594	14054
892.717	14138
892.839	13982
892.962	14031
893.085	14157
893.207	14164
893.33	13940
893.452	14035
893.575	14069
893.697	14054
893.819	14298
893.941	14290
894.064	14199
894.186	14054
894.308	14031
894.43	14180
894.552	14240
894.674	14267
894.796	14252
894.918	14111
895.04	14058
895.161	14256
895.283	14229
895.405	14081
895.526	14199
895.648	14145
895.769	14294
895.891	14180
896.012	14233
896.134	14328
896.255	14195
896.376	14161
896.498	14275
896.619	14286
896.74	14240
896.861	14336
896.982	14530
897.103	14796
897.224	14552
897.345	14560
897.466	14351
897.587	14442
897.708	14556
897.828	14594
897.949	14530
898.07	14423
898.19	14552
898.311	14686
898.431	14503
898.552	14579
898.672	14785
898.792	14693
898.913	14617
899.033	14579
899.153	14461
899.273	14400
899.393	14377
899.513	14484
899.633	14438
899.753	14431
899.873	14442
899.993	14415
900.113	14473
900.232	14530
900.352	14446
900.472	14278
900.591	14286
900.711	14301
900.83	14259
900.95	14446
901.069	14366
901.189	14210
901.308	14020
901.427	13978
901.546	14001
901.665	13967
901.784	14046
901.904	13875
902.023	13772
902.141	13700
902.26	13556
902.379	13616
902.498	13518
902.617	13453
902.735	13601
902.854	13605
902.973	13495
903.091	13304
903.21	13312
903.328	13259
903.446	13255
903.565	13118
903.683	13175
903.801	13126
903.919	13266
904.038	13057
904.156	12996
904.274	12989
904.392	12916
904.51	12928
904.627	12951
904.745	13023
904.863	12989
904.981	12772
905.098	12673
905.216	12688
905.334	12669
905.451	12677
905.569	12585
905.686	12646
905.803	12681
905.921	12498
906.038	12547
906.155	12433
906.272	12399
906.389	12372
906.506	12251
906.623	12197
906.74	12315
906.857	12076
906.974	12152
907.091	12300
907.208	12323
907.324	12220
907.441	12182
907.557	12019
907.674	11992
907.79	11920
907.907	11965
908.023	11984
908.139	11996
908.256	11916
908.372	11798
908.488	11847
908.604	11786
908.72	11710
908.836	11821
908.952	11672
909.068	11817
909.184	11817
909.3	11767
909.415	11733
909.531	11752
909.647	11509
909.762	11516
909.878	11497
909.993	11611
910.108	11516
910.224	11395
910.339	11535
910.454	11402
910.57	11387
910.685	11265
910.8	11627
910.915	11570
911.03	11391
911.145	11181
911.259	11250
911.374	11162
911.489	11185
911.604	11128
911.718	10953
911.833	10999
911.947	10869
912.062	10816
912.176	10854
912.291	11014
912.405	10949
912.519	11113
912.633	11128
912.748	11052
912.862	11018
912.976	10778
913.09	10721
913.204	10771
913.318	10831
913.431	10923
913.545	10946
913.659	11025
913.772	10896
913.886	10752
914	10656
914.113	10820
914.226	10881
914.34	10793
914.453	10694
914.566	10767
914.68	10634
914.793	10729
914.906	10546
915.019	10428
915.132	10409
915.245	10485
915.358	10516
915.47	10497
915.583	10493
915.696	10451
915.809	10622
915.921	10618
916.034	10417
916.146	10493
916.259	10306
916.371	10508
916.483	10516
916.595	10432
916.708	10402
916.82	10436
916.932	10409
917.044	10375
917.156	10421
917.268	10268
917.38	10329
917.491	10265
917.603	10333
917.715	10417
917.826	10405
917.938	10310
918.049	10188
918.161	10265
918.272	10478
918.384	10421
918.495	10356
918.606	10192
918.717	10078
918.828	10147
918.939	10227
919.05	10090
919.161	10139
919.272	9991
919.383	10040
919.494	10272
919.604	10417
919.715	10249
919.826	10063
919.936	10204
920.047	10322
920.157	10215
920.267	10394
920.378	10177
920.488	10150
920.598	10390
920.708	10603
920.818	10493
920.928	10356
921.038	10565
921.148	10531
921.258	10211
921.368	10211
921.477	10032
921.587	9979
921.697	9922
921.806	10131
921.916	9895
922.025	9838
922.134	9884
922.244	9599
922.353	9759
922.462	9686
922.571	9553
922.68	9473
922.789	9416
922.898	9420
923.007	9416
923.116	9450
923.224	9450
923.333	9439
923.442	9294
923.55	9298
923.659	9359
923.767	9443
923.876	9306
923.984	9340
924.092	9165
924.201	9294
924.309	9310
924.417	9310
924.525	9260
924.633	9233
924.741	10010
924.849	9058
924.956	9279
925.064	9093
925.172	9032
925.279	9062
925.387	9104
925.494	9104
925.602	9241
925.709	9157
925.816	9043
925.924	9135
926.031	9218
926.138	9100
926.245	9241
926.352	9055
926.459	9195
926.566	9173
926.673	9047
926.779	8914
926.886	8982
926.993	8921
927.099	8872
927.206	8811
927.312	8804
927.419	8849
927.525	8887
927.631	8861
927.737	8773
927.843	8697
927.95	8674
928.056	8773
928.162	8716
928.267	8819
928.373	9363
928.479	8864
928.585	8594
928.69	8735
928.796	8766
928.901	8686
929.007	8579
929.112	8701
929.218	8606
929.323	8625
929.428	8610
929.533	8693
929.638	8499
929.743	8549
929.848	8670
929.953	8480
930.058	8465
930.163	8370
930.267	8336
930.372	8552
930.477	8351
930.581	8613
930.685	8412
930.79	8298
930.894	8271
930.998	8355
931.103	8469
931.207	8123
931.311	8050
931.415	7909
931.519	7761
931.623	7757
