Data from test_V78500241_1678.txt Node
Date: Fri Mar 25 14:45:23 CST 2022
User: usil
Spectrometer: V785-0024
Trigger mode: 0
Integration Time (sec): 4.000000E-1
Scans to average: 1
Nonlinearity correction enabled: false
Boxcar width: 0
Storing dark spectrum: false
XAxis mode: Wavelengths
Number of Pixels in Spectrum: 1024
>>>>>Begin Spectral Data<<<<<
801.071	22246
801.214	22067
801.356	21823
801.499	21804
801.641	21652
801.783	21690
801.926	21679
802.068	21500
802.211	21534
802.353	21389
802.496	21230
802.638	21154
802.78	21112
802.923	20956
803.065	20883
803.208	20971
803.35	20925
803.492	21089
803.635	21074
803.777	20967
803.919	21116
804.061	21351
804.204	21051
804.346	20921
804.488	20773
804.63	20826
804.773	20785
804.915	20788
805.057	21032
805.199	20815
805.341	20796
805.483	21032
805.626	21055
805.768	20842
805.91	20876
806.052	20906
806.194	20876
806.336	21039
806.478	20861
806.62	20895
806.762	20857
806.904	21096
807.046	21367
807.188	21214
807.33	21207
807.472	21192
807.614	21173
807.756	21192
807.898	21131
808.04	21028
808.182	20956
808.324	21043
808.465	21028
808.607	21268
808.749	21302
808.891	21431
809.033	21538
809.174	21511
809.316	21222
809.458	21294
809.6	21298
809.741	21447
809.883	21283
810.025	21542
810.166	21458
810.308	21458
810.45	21370
810.591	21275
810.733	21100
810.875	21108
811.016	20994
811.158	21047
811.299	21085
811.441	21116
811.582	21214
811.724	21001
811.865	21020
812.007	20990
812.148	21055
812.29	21116
812.431	21393
812.573	21359
812.714	21458
812.855	21561
812.997	21682
813.138	21831
813.279	21637
813.421	21500
813.562	21576
813.703	21355
813.845	21157
813.986	20891
814.127	20765
814.268	20606
814.41	20693
814.551	20545
814.692	20621
814.833	20549
814.974	20522
815.115	20526
815.256	20469
815.397	20408
815.539	20533
815.68	20393
815.821	20282
815.962	20450
816.103	20446
816.244	20210
816.385	20012
816.526	20107
816.666	19928
816.807	19807
816.948	19811
817.089	19871
817.23	19879
817.371	19826
817.512	19696
817.653	19780
817.793	19769
817.934	19693
818.075	19780
818.216	19780
818.356	19628
818.497	19491
818.638	19483
818.778	19453
818.919	19483
819.06	19434
819.2	19651
819.341	19620
819.481	19670
819.622	19746
819.762	19970
819.903	19849
820.043	19696
820.184	19662
820.324	19837
820.465	19788
820.605	19765
820.746	19753
820.886	19620
821.026	19651
821.167	19605
821.307	19666
821.447	19681
821.588	19518
821.728	19518
821.868	19270
822.008	19152
822.149	19175
822.289	19050
822.429	18909
822.569	18768
822.709	18867
822.849	18673
822.99	18650
823.13	18620
823.27	18620
823.41	18437
823.55	18384
823.69	18544
823.83	18448
823.97	18338
824.11	18159
824.25	18197
824.389	18216
824.529	18296
824.669	18235
824.809	18327
824.949	18327
825.089	18220
825.228	18125
825.368	18076
825.508	18041
825.648	17996
825.787	18098
825.927	18079
826.067	17984
826.206	17942
826.346	18102
826.485	17935
826.625	17935
826.765	18129
826.904	17984
827.044	17726
827.183	17813
827.323	17581
827.462	17722
827.601	17653
827.741	17710
827.88	17748
828.02	17524
828.159	17668
828.298	17638
828.437	17707
828.577	17558
828.716	17813
828.855	17665
828.994	17452
829.134	17421
829.273	17474
829.412	17356
829.551	17284
829.69	17387
829.829	17406
829.968	17573
830.107	17444
830.246	17387
830.385	17398
830.524	17330
830.663	17242
830.802	17185
830.941	17045
831.08	17010
831.219	17086
831.357	17086
831.496	17265
831.635	16961
831.774	16854
831.913	16961
832.051	16805
832.19	16824
832.329	16896
832.467	16740
832.606	16622
832.744	16584
832.883	16706
833.022	16660
833.16	16717
833.299	16771
833.437	16710
833.576	16831
833.714	16885
833.852	16740
833.991	16729
834.129	16908
834.267	16858
834.406	16717
834.544	16835
834.682	16744
834.821	16774
834.959	16866
835.097	16675
835.235	16873
835.373	16858
835.511	16824
835.65	16615
835.788	16672
835.926	16455
836.064	16436
836.202	16558
836.34	16592
836.478	16763
836.615	16672
836.753	16645
836.891	16755
837.029	16660
837.167	16599
837.305	16599
837.443	16523
837.58	16481
837.718	16679
837.856	16500
837.993	16561
838.131	16538
838.269	16500
838.406	16390
838.544	16379
838.681	16181
838.819	16154
838.956	16124
839.094	16226
839.231	16128
839.369	16337
839.506	16497
839.643	16344
839.781	16006
839.918	16097
840.055	16135
840.193	16112
840.33	16093
840.467	16109
840.604	16124
840.742	16341
840.879	16021
841.016	16048
841.153	16055
841.29	16181
841.427	16131
841.564	16158
841.701	16090
841.838	16074
841.975	15873
842.112	15945
842.249	15835
842.385	15892
842.522	16143
842.659	15907
842.796	15781
842.933	15857
843.069	15888
843.206	15850
843.343	15922
843.479	15972
843.616	15915
843.752	15663
843.889	15705
844.025	15743
844.162	15587
844.298	15720
844.435	15557
844.571	15622
844.708	15720
844.844	15915
844.98	15751
845.117	15720
845.253	15606
845.389	15564
845.525	15572
845.661	15545
845.798	15530
845.934	15568
846.07	15507
846.206	15530
846.342	15580
846.478	15473
846.614	15283
846.75	15378
846.886	15207
847.022	15275
847.158	15135
847.294	15184
847.429	15241
847.565	15184
847.701	15439
847.837	15108
847.972	14929
848.108	15085
848.244	14918
848.379	14758
848.515	14823
848.65	14792
848.786	14792
848.921	14785
849.057	14952
849.192	15020
849.328	14880
849.463	14876
849.598	14731
849.734	14693
849.869	14640
850.004	14533
850.14	14610
850.275	14590
850.41	14476
850.545	14522
850.68	14530
850.815	14499
850.95	14568
851.085	14765
851.22	14693
851.355	14636
851.49	14560
851.625	14495
851.76	14568
851.895	14503
852.03	14400
852.165	14526
852.299	14495
852.434	14629
852.569	14579
852.703	14522
852.838	14731
852.973	14686
853.107	14651
853.242	14556
853.376	14450
853.511	14267
853.645	14305
853.78	14564
853.914	14488
854.048	14450
854.183	14381
854.317	14533
854.451	14583
854.585	14522
854.72	14351
854.854	14568
854.988	14385
855.122	14446
855.256	14358
855.39	14419
855.524	14484
855.658	14408
855.792	14446
855.926	14457
856.06	14412
856.194	14549
856.327	14450
856.461	14370
856.595	14339
856.729	14355
856.862	14537
856.996	14511
857.13	14526
857.263	14568
857.397	14499
857.53	14423
857.664	14549
857.797	14476
857.931	14610
858.064	14412
858.197	14575
858.331	14484
858.464	14408
858.597	14317
858.731	14465
858.864	14415
858.997	14427
859.13	14476
859.263	14423
859.396	14492
859.529	14347
859.662	14438
859.795	14427
859.928	14476
860.061	14514
860.194	14697
860.327	14522
860.46	14400
860.592	14594
860.725	14602
860.858	14503
860.99	14431
861.123	14328
861.256	14362
861.388	14499
861.521	15009
861.653	14294
861.786	14320
861.918	14332
862.05	14355
862.183	14339
862.315	14469
862.447	14454
862.58	14339
862.712	14256
862.844	14153
862.976	14248
863.108	14278
863.24	14705
863.372	14092
863.504	14324
863.636	14119
863.768	14225
863.9	14313
864.032	14161
864.164	14180
864.296	14301
864.428	14336
864.559	14313
864.691	14313
864.823	14305
864.954	14282
865.086	14278
865.217	14172
865.349	14138
865.48	14214
865.612	14206
865.743	14381
865.875	14237
866.006	14149
866.137	14240
866.269	14172
866.4	14240
866.531	14244
866.662	14202
866.793	14157
866.924	14233
867.055	14233
867.186	14153
867.317	14157
867.448	14210
867.579	14157
867.71	14271
867.841	14187
867.972	14206
868.103	14225
868.233	14229
868.364	14214
868.495	14298
868.625	14530
868.756	14545
868.886	14301
869.017	14434
869.147	14533
869.278	14526
869.408	14465
869.539	14503
869.669	14473
869.799	14518
869.929	14579
870.06	14674
870.19	14785
870.32	14724
870.45	14785
870.58	14804
870.71	15036
870.84	15036
870.97	14963
871.1	14781
871.23	14982
871.36	15055
871.489	14891
871.619	14925
871.749	15032
871.879	15085
872.008	15142
872.138	14994
872.267	15013
872.397	14963
872.526	14956
872.656	14807
872.785	14853
872.915	15032
873.044	15119
873.173	15119
873.303	15127
873.432	15116
873.561	15089
873.69	15150
873.819	15157
873.948	15188
874.077	15017
874.206	15043
874.335	15112
874.464	15188
874.593	15428
874.722	15291
874.851	15511
874.979	15450
875.108	15405
875.237	15340
875.365	15256
875.494	15545
875.623	15481
875.751	15431
875.88	15443
876.008	15568
876.136	15622
876.265	15816
876.393	15922
876.521	15888
876.65	15937
876.778	15819
876.906	15816
877.034	15785
877.162	15694
877.29	15728
877.418	15759
877.546	15884
877.674	15888
877.802	15819
877.93	15922
878.058	15762
878.185	15751
878.313	15831
878.441	15880
878.568	15679
878.696	15835
878.824	15857
878.951	15911
879.079	16071
879.206	16109
879.333	16002
879.461	15876
879.588	16021
879.715	15994
879.842	16139
879.97	15846
880.097	15656
880.224	15713
880.351	15679
880.478	15671
880.605	15682
880.732	15652
880.859	15842
880.986	15698
881.112	15736
881.239	15572
881.366	15515
881.493	15488
881.619	15313
881.746	15329
881.872	15313
881.999	15218
882.125	15188
882.252	15424
882.378	15389
882.505	15439
882.631	15302
882.757	15169
882.883	15237
883.01	15161
883.136	15074
883.262	15100
883.388	15001
883.514	15199
883.64	15184
883.766	15192
883.892	14990
884.018	14960
884.143	15127
884.269	15199
884.395	14921
884.52	14807
884.646	14883
884.772	14765
884.897	14720
885.023	14914
885.148	14960
885.274	14963
885.399	14914
885.524	14872
885.65	14857
885.775	14918
885.9	14861
886.025	14994
886.15	14933
886.275	14796
886.4	14705
886.525	14800
886.65	14777
886.775	14758
886.9	14944
887.025	15062
887.149	14868
887.274	14720
887.399	14670
887.523	14511
887.648	14552
887.773	14552
887.897	14815
888.021	14765
888.146	14686
888.27	14815
888.395	14758
888.519	14754
888.643	14830
888.767	14701
888.891	14541
889.015	14583
889.139	14598
889.263	14492
889.387	14689
889.511	14655
889.635	14697
889.759	14492
889.883	14480
890.006	14575
890.13	14602
890.254	14492
890.377	14400
890.501	14385
890.624	14339
890.748	14457
890.871	14286
890.995	14248
891.118	14103
891.241	14199
891.364	14294
891.488	14332
891.611	14168
891.734	14229
891.857	14237
891.98	14317
892.103	14229
892.226	14267
892.349	14168
892.471	14001
892.594	14161
892.717	14237
892.839	14142
892.962	14267
893.085	14263
893.207	14221
893.33	14153
893.452	14229
893.575	14256
893.697	14248
893.819	14431
893.941	14488
894.064	14278
894.186	14221
894.308	14172
894.43	14301
894.552	14400
894.674	14370
894.796	14259
894.918	14187
895.04	14317
895.161	14457
895.283	14343
895.405	14271
895.526	14290
895.648	14404
895.769	14313
895.891	14446
896.012	14423
896.134	14495
896.255	14351
896.376	14374
896.498	14355
896.619	14499
896.74	14267
896.861	14431
896.982	14731
897.103	14830
897.224	14621
897.345	14682
897.466	14530
897.587	14693
897.708	14826
897.828	14731
897.949	14610
898.07	14587
898.19	14583
898.311	14804
898.431	14724
898.552	14773
898.672	14891
898.792	14773
898.913	14739
899.033	14644
899.153	14651
899.273	14503
899.393	14499
899.513	14655
899.633	14522
899.753	14640
899.873	14564
899.993	14568
900.113	14514
900.232	14590
900.352	14594
900.472	14492
900.591	14495
900.711	14545
900.83	14465
900.95	14598
901.069	14518
901.189	14396
901.308	14176
901.427	14058
901.546	14195
901.665	14187
901.784	14168
901.904	14016
902.023	13963
902.141	13791
902.26	13666
902.379	13837
902.498	13696
902.617	13712
902.735	13791
902.854	13738
902.973	13662
903.091	13464
903.21	13384
903.328	13453
903.446	13377
903.565	13308
903.683	13236
903.801	13251
903.919	13400
904.038	13270
904.156	13133
904.274	13202
904.392	13065
904.51	13050
904.627	13061
904.745	13118
904.863	13190
904.981	12943
905.098	12806
905.216	12825
905.334	12886
905.451	12760
905.569	12726
905.686	12760
905.803	12783
905.921	12627
906.038	12719
906.155	12635
906.272	12414
906.389	12563
906.506	12391
906.623	12445
906.74	12357
906.857	12197
906.974	12327
907.091	12365
907.208	12494
907.324	12346
907.441	12300
907.557	12163
907.674	12038
907.79	12041
907.907	12015
908.023	12121
908.139	12121
908.256	12083
908.372	12083
908.488	11992
908.604	11863
908.72	11851
908.836	11897
908.952	11729
909.068	11836
909.184	12049
909.3	11874
909.415	11973
909.531	11889
909.647	11722
909.762	11672
909.878	11707
909.993	11684
910.108	11608
910.224	11615
910.339	11615
910.454	11573
910.57	11467
910.685	11596
910.8	11809
910.915	11627
911.03	11478
911.145	11185
911.259	11414
911.374	11341
911.489	11299
911.604	11261
911.718	11109
911.833	11052
911.947	11010
912.062	10934
912.176	11105
912.291	11105
912.405	11128
912.519	11288
912.633	11223
912.748	11155
912.862	11174
912.976	10919
913.09	10885
913.204	10904
913.318	11014
913.431	11086
913.545	11079
913.659	11060
913.772	11014
913.886	10809
914	10896
914.113	10919
914.226	10980
914.34	10972
914.453	10790
914.566	10858
914.68	10824
914.793	10797
914.906	10626
915.019	10577
915.132	10519
915.245	10481
915.358	10577
915.47	10618
915.583	10603
915.696	10634
915.809	10831
915.921	10740
916.034	10577
916.146	10558
916.259	10508
916.371	10660
916.483	10546
916.595	10535
916.708	10527
916.82	10508
916.932	10519
917.044	10478
917.156	10466
917.268	10356
917.38	10440
917.491	10337
917.603	10519
917.715	10489
917.826	10470
917.938	10451
918.049	10363
918.161	10405
918.272	10546
918.384	10489
918.495	10432
918.606	10291
918.717	10219
918.828	10386
918.939	10348
919.05	10227
919.161	10249
919.272	10010
919.383	10219
919.494	10219
919.604	10508
919.715	10314
919.826	10230
919.936	10314
920.047	10348
920.157	10257
920.267	10531
920.378	10276
920.488	10314
920.598	10580
920.708	10656
920.818	10573
920.928	10538
921.038	10710
921.148	10668
921.258	10379
921.368	10295
921.477	10204
921.587	10139
921.697	10029
921.806	10188
921.916	10128
922.025	9899
922.134	9854
922.244	9800
922.353	9918
922.462	9759
922.571	9717
922.68	9526
922.789	9523
922.898	9488
923.007	9485
923.116	9519
923.224	9549
923.333	9500
923.442	9424
923.55	9386
923.659	9393
923.767	9504
923.876	9424
923.984	9549
924.092	9397
924.201	9454
924.309	9374
924.417	9393
924.525	9386
924.633	9363
924.741	10325
924.849	9165
924.956	9321
925.064	9195
925.172	9161
925.279	9173
925.387	9260
925.494	9161
925.602	9378
925.709	9340
925.816	9043
925.924	9188
926.031	9310
926.138	9169
926.245	9230
926.352	9112
926.459	9291
926.566	9344
926.673	9157
926.779	9066
926.886	9097
926.993	8956
927.099	8948
927.206	8804
927.312	8811
927.419	9017
927.525	8929
927.631	8960
927.737	8895
927.843	8826
927.95	8769
928.056	8739
928.162	8777
928.267	8857
928.373	9397
928.479	8876
928.585	8716
928.69	8758
928.796	8872
928.901	8766
929.007	8621
929.112	8796
929.218	8754
929.323	8625
929.428	8667
929.533	8838
929.638	8533
929.743	8655
929.848	8663
929.953	8674
930.058	8541
930.163	8381
930.267	8393
930.372	8499
930.477	8328
930.581	8579
930.685	8484
930.79	8355
930.894	8393
930.998	8279
931.103	8461
931.207	8145
931.311	8096
931.415	8035
931.519	7864
931.623	7833
