Data from test_V78500241_2180.txt Node
Date: Fri Mar 25 14:48:53 CST 2022
User: usil
Spectrometer: V785-0024
Trigger mode: 0
Integration Time (sec): 4.000000E-1
Scans to average: 1
Nonlinearity correction enabled: false
Boxcar width: 0
Storing dark spectrum: false
XAxis mode: Wavelengths
Number of Pixels in Spectrum: 1024
>>>>>Begin Spectral Data<<<<<
801.071	22135
801.214	22086
801.356	21838
801.499	21717
801.641	21625
801.783	21515
801.926	21557
802.068	21473
802.211	21370
802.353	21386
802.496	21142
802.638	21024
802.78	20994
802.923	20899
803.065	20773
803.208	20769
803.35	20861
803.492	20876
803.635	21013
803.777	20834
803.919	21036
804.061	21093
804.204	20819
804.346	20750
804.488	20739
804.63	20807
804.773	20712
804.915	20849
805.057	20769
805.199	20773
805.341	20902
805.483	20887
805.626	20857
805.768	20621
805.91	20868
806.052	20838
806.194	20648
806.336	20826
806.478	20724
806.62	20823
806.762	20815
806.904	20952
807.046	21279
807.188	21032
807.33	21184
807.472	21138
807.614	20948
807.756	21043
807.898	20979
808.04	20868
808.182	20777
808.324	20804
808.465	20941
808.607	21096
808.749	21157
808.891	21351
809.033	21321
809.174	21207
809.316	21127
809.458	21112
809.6	21249
809.741	21310
809.883	21233
810.025	21321
810.166	21230
810.308	21294
810.45	21252
810.591	21157
810.733	20933
810.875	20921
811.016	20921
811.158	20921
811.299	21013
811.441	20967
811.582	21043
811.724	21001
811.865	20925
812.007	20815
812.148	20754
812.29	21043
812.431	21028
812.573	21291
812.714	21329
812.855	21412
812.997	21572
813.138	21637
813.279	21492
813.421	21500
813.562	21310
813.703	21249
813.845	21100
813.986	20807
814.127	20659
814.268	20632
814.41	20564
814.551	20495
814.692	20537
814.833	20488
814.974	20332
815.115	20393
815.256	20343
815.397	20328
815.539	20153
815.68	20142
815.821	20199
815.962	20103
816.103	20244
816.244	20024
816.385	19932
816.526	19875
816.666	19788
816.807	19696
816.948	19830
817.089	19807
817.23	19624
817.371	19556
817.512	19635
817.653	19605
817.793	19556
817.934	19613
818.075	19666
818.216	19681
818.356	19552
818.497	19365
818.638	19213
818.778	19362
818.919	19225
819.06	19297
819.2	19502
819.341	19453
819.481	19430
819.622	19552
819.762	19822
819.903	19780
820.043	19548
820.184	19582
820.324	19632
820.465	19628
820.605	19597
820.746	19518
820.886	19411
821.026	19658
821.167	19472
821.307	19590
821.447	19491
821.588	19491
821.728	19285
821.868	19209
822.008	18882
822.149	19038
822.289	18981
822.429	18726
822.569	18661
822.709	18707
822.849	18418
822.99	18445
823.13	18483
823.27	18338
823.41	18281
823.55	18315
823.69	18304
823.83	18365
823.97	18205
824.11	18083
824.25	17980
824.389	18083
824.529	18174
824.669	18038
824.809	18174
824.949	18140
825.089	18155
825.228	17916
825.368	17832
825.508	17824
825.648	17882
825.787	17889
825.927	17859
826.067	17802
826.206	17707
826.346	17790
826.485	17893
826.625	17824
826.765	17859
826.904	17866
827.044	17608
827.183	17585
827.323	17573
827.462	17512
827.601	17509
827.741	17429
827.88	17608
828.02	17383
828.159	17471
828.298	17516
828.437	17642
828.577	17520
828.716	17581
828.855	17547
828.994	17395
829.134	17220
829.273	17376
829.412	17254
829.551	17208
829.69	17235
829.829	17311
829.968	17356
830.107	17383
830.246	17121
830.385	17227
830.524	17204
830.663	17060
830.802	17014
830.941	16805
831.08	16908
831.219	16938
831.357	16908
831.496	17079
831.635	16934
831.774	16812
831.913	16717
832.051	16736
832.19	16675
832.329	16698
832.467	16558
832.606	16470
832.744	16599
832.883	16622
833.022	16459
833.16	16733
833.299	16459
833.437	16634
833.576	16546
833.714	16618
833.852	16596
833.991	16622
834.129	16679
834.267	16694
834.406	16611
834.544	16637
834.682	16569
834.821	16577
834.959	16774
835.097	16611
835.235	16698
835.373	16706
835.511	16630
835.65	16512
835.788	16455
835.926	16443
836.064	16363
836.202	16356
836.34	16489
836.478	16561
836.615	16508
836.753	16516
836.891	16565
837.029	16637
837.167	16481
837.305	16470
837.443	16341
837.58	16466
837.718	16481
837.856	16516
837.993	16344
838.131	16443
838.269	16352
838.406	16295
838.544	16268
838.681	16093
838.819	16051
838.956	16040
839.094	15903
839.231	16013
839.369	16112
839.506	16276
839.643	16234
839.781	15987
839.918	15869
840.055	16032
840.193	16059
840.33	15930
840.467	15934
840.604	15934
840.742	16173
840.879	15816
841.016	15831
841.153	15739
841.29	16071
841.427	15964
841.564	16036
841.701	15895
841.838	15785
841.975	15800
842.112	15880
842.249	15732
842.385	15774
842.522	15892
842.659	15793
842.796	15724
842.933	15785
843.069	15644
843.206	15686
843.343	15713
843.479	15759
843.616	15800
843.752	15576
843.889	15530
844.025	15660
844.162	15393
844.298	15690
844.435	15534
844.571	15466
844.708	15580
844.844	15686
844.98	15709
845.117	15701
845.253	15428
845.389	15401
845.525	15420
845.661	15393
845.798	15302
845.934	15386
846.07	15256
846.206	15340
846.342	15378
846.478	15344
846.614	15150
846.75	15089
846.886	15028
847.022	15093
847.158	15131
847.294	15131
847.429	15085
847.565	15009
847.701	15306
847.837	14800
847.972	14758
848.108	15009
848.244	14864
848.379	14644
848.515	14731
848.65	14693
848.786	14705
848.921	14632
849.057	14800
849.192	14845
849.328	14613
849.463	14716
849.598	14579
849.734	14613
849.869	14518
850.004	14454
850.14	14549
850.275	14507
850.41	14358
850.545	14339
850.68	14492
850.815	14484
850.95	14396
851.085	14587
851.22	14446
851.355	14450
851.49	14385
851.625	14400
851.76	14408
851.895	14309
852.03	14332
852.165	14408
852.299	14404
852.434	14606
852.569	14385
852.703	14450
852.838	14625
852.973	14610
853.107	14644
853.242	14317
853.376	14339
853.511	14142
853.645	14252
853.78	14450
853.914	14320
854.048	14313
854.183	14191
854.317	14309
854.451	14518
854.585	14309
854.72	14320
854.854	14317
854.988	14172
855.122	14290
855.256	14145
855.39	14183
855.524	14366
855.658	14358
855.792	14351
855.926	14282
856.06	14404
856.194	14396
856.327	14317
856.461	14347
856.595	14351
856.729	14267
856.862	14427
856.996	14290
857.13	14343
857.263	14446
857.397	14419
857.53	14404
857.664	14324
857.797	14377
857.931	14408
858.064	14298
858.197	14434
858.331	14336
858.464	14336
858.597	14176
858.731	14351
858.864	14282
858.997	14339
859.13	14328
859.263	14347
859.396	14389
859.529	14225
859.662	14313
859.795	14237
859.928	14431
860.061	14423
860.194	14389
860.327	14267
860.46	14332
860.592	14488
860.725	14461
860.858	14473
860.99	14305
861.123	14240
861.256	14336
861.388	14324
861.521	14895
861.653	14206
861.786	14142
861.918	14206
862.05	14339
862.183	14343
862.315	14305
862.447	14389
862.58	14309
862.712	14161
862.844	13967
862.976	14191
863.108	14096
863.24	14480
863.372	14024
863.504	14130
863.636	14077
863.768	14096
863.9	14142
864.032	13967
864.164	14092
864.296	14081
864.428	14195
864.559	14210
864.691	14225
864.823	14103
864.954	14081
865.086	14195
865.217	14027
865.349	14024
865.48	14062
865.612	14096
865.743	14164
865.875	14142
866.006	13986
866.137	14001
866.269	14092
866.4	14039
866.531	14058
866.662	14046
866.793	14008
866.924	14069
867.055	14077
867.186	14039
867.317	14054
867.448	14008
867.579	13986
867.71	13906
867.841	14001
867.972	14081
868.103	14054
868.233	14035
868.364	14119
868.495	14153
868.625	14290
868.756	14400
868.886	14248
869.017	14282
869.147	14480
869.278	14434
869.408	14343
869.539	14355
869.669	14408
869.799	14389
869.929	14457
870.06	14488
870.19	14610
870.32	14648
870.45	14701
870.58	14765
870.71	14754
870.84	14811
870.97	14743
871.1	14689
871.23	14891
871.36	14982
871.489	14830
871.619	14921
871.749	14975
871.879	14918
872.008	14914
872.138	14937
872.267	14826
872.397	14689
872.526	14872
872.656	14769
872.785	14777
872.915	14857
873.044	14982
873.173	14944
873.303	14967
873.432	14876
873.561	15055
873.69	14994
873.819	15009
873.948	15100
874.077	14990
874.206	15005
874.335	15062
874.464	15119
874.593	15180
874.722	15218
874.851	15329
874.979	15268
875.108	15386
875.237	15233
875.365	15085
875.494	15348
875.623	15363
875.751	15260
875.88	15275
876.008	15405
876.136	15492
876.265	15682
876.393	15873
876.521	15823
876.65	15823
876.778	15736
876.906	15644
877.034	15595
877.162	15720
877.29	15675
877.418	15736
877.546	15774
877.674	15656
877.802	15564
877.93	15686
878.058	15732
878.185	15606
878.313	15584
878.441	15713
878.568	15523
878.696	15572
878.824	15667
878.951	15812
879.079	15907
879.206	16051
879.333	15899
879.461	15694
879.588	15789
879.715	15865
879.842	15861
879.97	15766
880.097	15549
880.224	15576
880.351	15447
880.478	15545
880.605	15564
880.732	15439
880.859	15736
880.986	15641
881.112	15599
881.239	15397
881.366	15310
881.493	15298
881.619	15275
881.746	15188
881.872	15214
881.999	15104
882.125	15135
882.252	15184
882.378	15287
882.505	15306
882.631	15150
882.757	14979
882.883	15017
883.01	15055
883.136	14899
883.262	14902
883.388	14785
883.514	15047
883.64	14956
883.766	14967
883.892	14792
884.018	14800
884.143	14986
884.269	15116
884.395	14796
884.52	14735
884.646	14705
884.772	14663
884.897	14613
885.023	14750
885.148	14872
885.274	14902
885.399	14944
885.524	14739
885.65	14708
885.775	14845
885.9	14689
886.025	14956
886.15	14731
886.275	14644
886.4	14606
886.525	14670
886.65	14689
886.775	14621
886.9	14956
887.025	14845
887.149	14701
887.274	14583
887.399	14560
887.523	14495
887.648	14552
887.773	14503
887.897	14727
888.021	14564
888.146	14598
888.27	14648
888.395	14670
888.519	14655
888.643	14579
888.767	14640
888.891	14518
889.015	14476
889.139	14473
889.263	14507
889.387	14507
889.511	14625
889.635	14522
889.759	14347
889.883	14358
890.006	14434
890.13	14568
890.254	14252
890.377	14351
890.501	14225
890.624	14225
890.748	14290
890.871	14199
890.995	14008
891.118	13986
891.241	14168
891.364	14191
891.488	14229
891.611	14187
891.734	14153
891.857	14195
891.98	14103
892.103	14134
892.226	14126
892.349	14096
892.471	13959
892.594	14081
892.717	14138
892.839	14115
892.962	14084
893.085	14225
893.207	14130
893.33	14031
893.452	14012
893.575	14214
893.697	13963
893.819	14275
893.941	14294
894.064	14301
894.186	14081
894.308	14123
894.43	14237
894.552	14347
894.674	14275
894.796	14126
894.918	14161
895.04	14115
895.161	14282
895.283	14202
895.405	14130
895.526	14233
895.648	14244
895.769	14225
895.891	14313
896.012	14301
896.134	14423
896.255	14263
896.376	14153
896.498	14358
896.619	14271
896.74	14374
896.861	14374
896.982	14511
897.103	14777
897.224	14530
897.345	14568
897.466	14454
897.587	14541
897.708	14743
897.828	14613
897.949	14499
898.07	14427
898.19	14571
898.311	14765
898.431	14625
898.552	14682
898.672	14724
898.792	14720
898.913	14556
899.033	14590
899.153	14541
899.273	14434
899.393	14431
899.513	14503
899.633	14457
899.753	14610
899.873	14381
899.993	14492
900.113	14465
900.232	14507
900.352	14495
900.472	14469
900.591	14351
900.711	14393
900.83	14263
900.95	14530
901.069	14461
901.189	14278
901.308	14031
901.427	13921
901.546	14039
901.665	14035
901.784	13997
901.904	13818
902.023	13822
902.141	13624
902.26	13616
902.379	13647
902.498	13662
902.617	13525
902.735	13636
902.854	13658
902.973	13521
903.091	13343
903.21	13362
903.328	13327
903.446	13293
903.565	13129
903.683	13244
903.801	13091
903.919	13145
904.038	13107
904.156	12981
904.274	13088
904.392	12943
904.51	12928
904.627	13015
904.745	12954
904.863	13004
904.981	12779
905.098	12783
905.216	12749
905.334	12688
905.451	12692
905.569	12681
905.686	12700
905.803	12646
905.921	12471
906.038	12570
906.155	12475
906.272	12410
906.389	12422
906.506	12300
906.623	12197
906.74	12213
906.857	12129
906.974	12117
907.091	12365
907.208	12334
907.324	12285
907.441	12209
907.557	11996
907.674	12049
907.79	12034
907.907	11973
908.023	12026
908.139	11969
908.256	12026
908.372	11870
908.488	11973
908.604	11748
908.72	11771
908.836	11843
908.952	11737
909.068	11832
909.184	11901
909.3	11790
909.415	11783
909.531	11813
909.647	11619
909.762	11539
909.878	11493
909.993	11486
910.108	11592
910.224	11459
910.339	11592
910.454	11436
910.57	11376
910.685	11273
910.8	11627
910.915	11573
911.03	11417
911.145	11296
911.259	11250
911.374	11280
911.489	11197
911.604	11121
911.718	11052
911.833	10972
911.947	10843
912.062	10869
912.176	11052
912.291	10934
912.405	11067
912.519	11223
912.633	11212
912.748	11056
912.862	10987
912.976	10854
913.09	10710
913.204	10847
913.318	10835
913.431	10999
913.545	10987
913.659	10995
913.772	10889
913.886	10835
914	10725
914.113	10862
914.226	10995
914.34	10923
914.453	10710
914.566	10790
914.68	10675
914.793	10656
914.906	10531
915.019	10519
915.132	10386
915.245	10405
915.358	10519
915.47	10508
915.583	10554
915.696	10577
915.809	10687
915.921	10736
916.034	10500
916.146	10409
916.259	10504
916.371	10516
916.483	10455
916.595	10402
916.708	10512
916.82	10497
916.932	10440
917.044	10413
917.156	10356
917.268	10257
917.38	10325
917.491	10325
917.603	10333
917.715	10459
917.826	10478
917.938	10424
918.049	10188
918.161	10337
918.272	10527
918.384	10451
918.495	10382
918.606	10188
918.717	10169
918.828	10192
918.939	10299
919.05	10204
919.161	10227
919.272	10032
919.383	10071
919.494	10284
919.604	10459
919.715	10215
919.826	10177
919.936	10227
920.047	10246
920.157	10196
920.267	10421
920.378	10352
920.488	10181
920.598	10417
920.708	10508
920.818	10474
920.928	10356
921.038	10588
921.148	10474
921.258	10265
921.368	10173
921.477	10177
921.587	10074
921.697	9937
921.806	10120
921.916	9975
922.025	9880
922.134	9827
922.244	9713
922.353	9873
922.462	9701
922.571	9618
922.68	9507
922.789	9416
922.898	9504
923.007	9435
923.116	9587
923.224	9473
923.333	9450
923.442	9374
923.55	9317
923.659	9382
923.767	9374
923.876	9405
923.984	9435
924.092	9298
924.201	9344
924.309	9302
924.417	9393
924.525	9298
924.633	9298
924.741	10048
924.849	9123
924.956	9283
925.064	9097
925.172	9116
925.279	9039
925.387	9142
925.494	9127
925.602	9321
925.709	9230
925.816	9024
925.924	9100
926.031	9108
926.138	9169
926.245	9207
926.352	9028
926.459	9237
926.566	9249
926.673	9112
926.779	9009
926.886	8956
926.993	8872
927.099	8857
927.206	8845
927.312	8762
927.419	8979
927.525	8857
927.631	8861
927.737	8815
927.843	8750
927.95	8670
928.056	8739
928.162	8743
928.267	8891
928.373	9454
928.479	8819
928.585	8613
928.69	8762
928.796	8781
928.901	8689
929.007	8541
929.112	8651
929.218	8731
929.323	8617
929.428	8606
929.533	8629
929.638	8503
929.743	8568
929.848	8583
929.953	8602
930.058	8450
930.163	8282
930.267	8396
930.372	8533
930.477	8366
930.581	8610
930.685	8404
930.79	8324
930.894	8366
930.998	8221
931.103	8400
931.207	8031
931.311	7970
931.415	7963
931.519	7792
931.623	7807
