Data from test_V78500241_1452.txt Node
Date: Fri Mar 25 14:43:49 CST 2022
User: usil
Spectrometer: V785-0024
Trigger mode: 0
Integration Time (sec): 4.000000E-1
Scans to average: 1
Nonlinearity correction enabled: false
Boxcar width: 0
Storing dark spectrum: false
XAxis mode: Wavelengths
Number of Pixels in Spectrum: 1024
>>>>>Begin Spectral Data<<<<<
801.071	22310
801.214	22379
801.356	22040
801.499	21778
801.641	21766
801.783	21770
801.926	21656
802.068	21610
802.211	21587
802.353	21462
802.496	21344
802.638	21302
802.78	21313
802.923	21135
803.065	21188
803.208	21005
803.35	21055
803.492	21226
803.635	21260
803.777	21074
803.919	21180
804.061	21355
804.204	21131
804.346	21039
804.488	20975
804.63	21066
804.773	20994
804.915	21017
805.057	21131
805.199	21150
805.341	21089
805.483	21169
805.626	21135
805.768	20899
805.91	21032
806.052	21020
806.194	20944
806.336	21028
806.478	21055
806.62	20956
806.762	21138
806.904	21287
807.046	21363
807.188	21287
807.33	21393
807.472	21469
807.614	21355
807.756	21401
807.898	21165
808.04	21237
808.182	21256
808.324	21294
808.465	21405
808.607	21557
808.749	21561
808.891	21724
809.033	21804
809.174	21564
809.316	21644
809.458	21633
809.6	21587
809.741	21485
809.883	21599
810.025	21603
810.166	21599
810.308	21553
810.45	21599
810.591	21526
810.733	21443
810.875	21336
811.016	21199
811.158	21241
811.299	21211
811.441	21389
811.582	21272
811.724	21184
811.865	21176
812.007	21089
812.148	21226
812.29	21272
812.431	21477
812.573	21542
812.714	21671
812.855	21652
812.997	21823
813.138	22036
813.279	21907
813.421	21713
813.562	21713
813.703	21344
813.845	21450
813.986	21108
814.127	20899
814.268	20887
814.41	20800
814.551	20804
814.692	20819
814.833	20648
814.974	20762
815.115	20739
815.256	20480
815.397	20503
815.539	20545
815.68	20541
815.821	20469
815.962	20579
816.103	20446
816.244	20214
816.385	20256
816.526	20149
816.666	20122
816.807	19936
816.948	19936
817.089	19997
817.23	19989
817.371	19860
817.512	19978
817.653	19849
817.793	19967
817.934	19807
818.075	19974
818.216	19955
818.356	19826
818.497	19776
818.638	19616
818.778	19662
818.919	19651
819.06	19575
819.2	19674
819.341	19715
819.481	19788
819.622	19959
819.762	20183
819.903	20008
820.043	19803
820.184	19780
820.324	19871
820.465	19928
820.605	19902
820.746	19868
820.886	19780
821.026	19704
821.167	19879
821.307	19932
821.447	19826
821.588	19712
821.728	19624
821.868	19510
822.008	19362
822.149	19289
822.289	19278
822.429	19072
822.569	18951
822.709	18943
822.849	18779
822.99	18726
823.13	18787
823.27	18707
823.41	18612
823.55	18593
823.69	18631
823.83	18635
823.97	18589
824.11	18376
824.25	18323
824.389	18346
824.529	18589
824.669	18380
824.809	18456
824.949	18388
825.089	18403
825.228	18292
825.368	18319
825.508	18163
825.648	18110
825.787	18174
825.927	18167
826.067	18232
826.206	18224
826.346	18216
826.485	18140
826.625	18098
826.765	18205
826.904	18114
827.044	17908
827.183	17920
827.323	17790
827.462	17897
827.601	17851
827.741	17722
827.88	17775
828.02	17722
828.159	17748
828.298	17817
828.437	17824
828.577	17786
828.716	17863
828.855	17752
828.994	17596
829.134	17539
829.273	17646
829.412	17558
829.551	17474
829.69	17585
829.829	17562
829.968	17695
830.107	17566
830.246	17478
830.385	17501
830.524	17520
830.663	17410
830.802	17265
830.941	17231
831.08	17204
831.219	17280
831.357	17311
831.496	17398
831.635	17143
831.774	17117
831.913	17117
832.051	17025
832.19	16862
832.329	17067
832.467	16949
832.606	16835
832.744	16858
832.883	16824
833.022	16759
833.16	16972
833.299	16866
833.437	16949
833.576	17029
833.714	17010
833.852	17006
833.991	17064
834.129	17045
834.267	17045
834.406	16930
834.544	17067
834.682	17014
834.821	17010
834.959	17090
835.097	16858
835.235	16984
835.373	16984
835.511	16850
835.65	16896
835.788	16812
835.926	16694
836.064	16550
836.202	16660
836.34	16687
836.478	16847
836.615	16805
836.753	16900
836.891	16877
837.029	16892
837.167	16797
837.305	16710
837.443	16725
837.58	16588
837.718	16755
837.856	16713
837.993	16683
838.131	16694
838.269	16554
838.406	16565
838.544	16478
838.681	16455
838.819	16371
838.956	16284
839.094	16253
839.231	16188
839.369	16379
839.506	16577
839.643	16459
839.781	16185
839.918	16192
840.055	16234
840.193	16219
840.33	16196
840.467	16276
840.604	16192
840.742	16440
840.879	16150
841.016	16238
841.153	16063
841.29	16325
841.427	16154
841.564	16211
841.701	16310
841.838	16139
841.975	16048
842.112	16177
842.249	15975
842.385	15979
842.522	16257
842.659	16048
842.796	15941
842.933	15994
843.069	15972
843.206	15922
843.343	16044
843.479	16029
843.616	16105
843.752	15819
843.889	15861
844.025	15884
844.162	15785
844.298	15937
844.435	15827
844.571	15831
844.708	15835
844.844	16006
844.98	16025
845.117	15903
845.253	15797
845.389	15667
845.525	15827
845.661	15842
845.798	15823
845.934	15846
846.07	15854
846.206	15812
846.342	15899
846.478	15747
846.614	15561
846.75	15397
846.886	15245
847.022	15473
847.158	15336
847.294	15507
847.429	15344
847.565	15332
847.701	15530
847.837	15074
847.972	15089
848.108	15207
848.244	15081
848.379	14948
848.515	14929
848.65	14918
848.786	14880
848.921	14952
849.057	15070
849.192	15005
849.328	15032
849.463	15009
849.598	14849
849.734	14937
849.869	14781
850.004	14674
850.14	14758
850.275	14739
850.41	14632
850.545	14693
850.68	14731
850.815	14689
850.95	14693
851.085	14853
851.22	14739
851.355	14701
851.49	14689
851.625	14746
851.76	14678
851.895	14621
852.03	14552
852.165	14804
852.299	14731
852.434	14708
852.569	14727
852.703	14754
852.838	14823
852.973	14864
853.107	14842
853.242	14743
853.376	14606
853.511	14457
853.645	14598
853.78	14712
853.914	14590
854.048	14598
854.183	14583
854.317	14655
854.451	14731
854.585	14613
854.72	14579
854.854	14602
854.988	14469
855.122	14518
855.256	14431
855.39	14606
855.524	14697
855.658	14648
855.792	14610
855.926	14613
856.06	14571
856.194	14750
856.327	14648
856.461	14533
856.595	14537
856.729	14552
856.862	14758
856.996	14606
857.13	14659
857.263	14762
857.397	14701
857.53	14575
857.664	14682
857.797	14651
857.931	14678
858.064	14701
858.197	14663
858.331	14594
858.464	14659
858.597	14568
858.731	14693
858.864	14598
858.997	14541
859.13	14640
859.263	14613
859.396	14727
859.529	14632
859.662	14571
859.795	14587
859.928	14648
860.061	14765
860.194	14796
860.327	14610
860.46	14632
860.592	14705
860.725	14731
860.858	14701
860.99	14727
861.123	14594
861.256	14602
861.388	14625
861.521	15336
861.653	14530
861.786	14507
861.918	14461
862.05	14503
862.183	14598
862.315	14537
862.447	14705
862.58	14571
862.712	14412
862.844	14351
862.976	14537
863.108	14415
863.24	14773
863.372	14355
863.504	14427
863.636	14431
863.768	14514
863.9	14385
864.032	14408
864.164	14317
864.296	14442
864.428	14434
864.559	14514
864.691	14480
864.823	14484
864.954	14396
865.086	14423
865.217	14366
865.349	14320
865.48	14374
865.612	14431
865.743	14545
865.875	14362
866.006	14412
866.137	14339
866.269	14362
866.4	14355
866.531	14313
866.662	14332
866.793	14355
866.924	14313
867.055	14313
867.186	14400
867.317	14377
867.448	14145
867.579	14298
867.71	14244
867.841	14275
867.972	14438
868.103	14336
868.233	14362
868.364	14393
868.495	14389
868.625	14568
868.756	14621
868.886	14518
869.017	14583
869.147	14727
869.278	14781
869.408	14644
869.539	14613
869.669	14686
869.799	14602
869.929	14754
870.06	14739
870.19	15066
870.32	15005
870.45	14948
870.58	14994
870.71	15142
870.84	15051
870.97	15081
871.1	15032
871.23	15218
871.36	15150
871.489	15051
871.619	15161
871.749	15138
871.879	15249
872.008	15291
872.138	15256
872.267	15287
872.397	15131
872.526	15104
872.656	14941
872.785	15001
872.915	15233
873.044	15256
873.173	15264
873.303	15412
873.432	15294
873.561	15310
873.69	15237
873.819	15348
873.948	15294
874.077	15226
874.206	15226
874.335	15260
874.464	15450
874.593	15572
874.722	15443
874.851	15614
874.979	15660
875.108	15610
875.237	15519
875.365	15447
875.494	15557
875.623	15671
875.751	15545
875.88	15629
876.008	15660
876.136	15838
876.265	15964
876.393	16109
876.521	16109
876.65	16063
876.778	16025
876.906	15994
877.034	15975
877.162	16029
877.29	15899
877.418	15998
877.546	16006
877.674	16040
877.802	16036
877.93	15960
878.058	16036
878.185	15888
878.313	15953
878.441	16051
878.568	15835
878.696	15930
878.824	15968
878.951	16055
879.079	16207
879.206	16295
879.333	16238
879.461	16150
879.588	16272
879.715	16394
879.842	16421
879.97	16192
880.097	15930
880.224	15884
880.351	15956
880.478	15854
880.605	15857
880.732	15857
880.859	16055
880.986	15899
881.112	15911
881.239	15667
881.366	15660
881.493	15614
881.619	15492
881.746	15504
881.872	15542
881.999	15534
882.125	15466
882.252	15576
882.378	15549
882.505	15682
882.631	15507
882.757	15348
882.883	15332
883.01	15325
883.136	15340
883.262	15302
883.388	15351
883.514	15340
883.64	15260
883.766	15321
883.892	15325
884.018	15203
884.143	15359
884.269	15351
884.395	15051
884.52	14933
884.646	15100
884.772	14929
884.897	14899
885.023	15043
885.148	15093
885.274	15260
885.399	15226
885.524	15032
885.65	14990
885.775	15051
885.9	14971
886.025	15199
886.15	15108
886.275	14975
886.4	14883
886.525	15161
886.65	15028
886.775	14910
886.9	15233
887.025	15241
887.149	15009
887.274	14796
887.399	14750
887.523	14724
887.648	14796
887.773	14796
887.897	14918
888.021	14929
888.146	14777
888.27	14876
888.395	14899
888.519	14842
888.643	14891
888.767	14857
888.891	14773
889.015	14739
889.139	14701
889.263	14663
889.387	14724
889.511	14986
889.635	14792
889.759	14648
889.883	14625
890.006	14750
890.13	14815
890.254	14644
890.377	14689
890.501	14533
890.624	14457
890.748	14571
890.871	14465
890.995	14370
891.118	14187
891.241	14332
891.364	14408
891.488	14625
891.611	14358
891.734	14355
891.857	14400
891.98	14400
892.103	14385
892.226	14381
892.349	14419
892.471	14298
892.594	14434
892.717	14400
892.839	14404
892.962	14366
893.085	14366
893.207	14294
893.33	14286
893.452	14218
893.575	14454
893.697	14473
893.819	14495
893.941	14655
894.064	14450
894.186	14419
894.308	14301
894.43	14423
894.552	14545
894.674	14556
894.796	14313
894.918	14522
895.04	14324
895.161	14469
895.283	14488
895.405	14419
895.526	14355
895.648	14457
895.769	14511
895.891	14514
896.012	14617
896.134	14590
896.255	14552
896.376	14465
896.498	14480
896.619	14640
896.74	14594
896.861	14556
896.982	14845
897.103	14982
897.224	14918
897.345	14849
897.466	14689
897.587	14842
897.708	14944
897.828	14921
897.949	14743
898.07	14693
898.19	14819
898.311	14929
898.431	14754
898.552	14883
898.672	14937
898.792	15047
898.913	14998
899.033	14853
899.153	14743
899.273	14632
899.393	14720
899.513	14758
899.633	14826
899.753	14830
899.873	14720
899.993	14746
900.113	14693
900.232	14792
900.352	14689
900.472	14697
900.591	14640
900.711	14636
900.83	14518
900.95	14648
901.069	14731
901.189	14644
901.308	14336
901.427	14256
901.546	14252
901.665	14320
901.784	14320
901.904	14275
902.023	14088
902.141	13879
902.26	13822
902.379	13909
902.498	13807
902.617	13757
902.735	13856
902.854	13868
902.973	13864
903.091	13533
903.21	13556
903.328	13502
903.446	13521
903.565	13422
903.683	13434
903.801	13377
903.919	13343
904.038	13304
904.156	13179
904.274	13308
904.392	13164
904.51	13274
904.627	13225
904.745	13149
904.863	13228
904.981	12966
905.098	12970
905.216	12993
905.334	12901
905.451	12951
905.569	12871
905.686	12905
905.803	12875
905.921	12703
906.038	12966
906.155	12734
906.272	12612
906.389	12555
906.506	12654
906.623	12506
906.74	12483
906.857	12464
906.974	12418
907.091	12597
907.208	12528
907.324	12654
907.441	12429
907.557	12308
907.674	12270
907.79	12114
907.907	12254
908.023	12281
908.139	12243
908.256	12197
908.372	12144
908.488	12102
908.604	12045
908.72	11920
908.836	11999
908.952	12007
909.068	12038
909.184	12064
909.3	11977
909.415	12003
909.531	12049
909.647	11714
909.762	11703
909.878	11688
909.993	11805
910.108	11802
910.224	11627
910.339	11786
910.454	11566
910.57	11630
910.685	11581
910.8	11889
910.915	11760
911.03	11661
911.145	11421
911.259	11444
911.374	11444
911.489	11402
911.604	11311
911.718	11288
911.833	11189
911.947	10995
912.062	11014
912.176	11208
912.291	11166
912.405	11189
912.519	11398
912.633	11406
912.748	11322
912.862	11197
912.976	11067
913.09	10889
913.204	10984
913.318	11109
913.431	11094
913.545	11132
913.659	11231
913.772	11098
913.886	11018
914	10961
914.113	11064
914.226	11128
914.34	10961
914.453	10873
914.566	11094
914.68	10847
914.793	10866
914.906	10714
915.019	10637
915.132	10660
915.245	10698
915.358	10759
915.47	10714
915.583	10774
915.696	10847
915.809	10839
915.921	10889
916.034	10691
916.146	10641
916.259	10592
916.371	10782
916.483	10702
916.595	10637
916.708	10649
916.82	10615
916.932	10584
917.044	10554
917.156	10599
917.268	10523
917.38	10550
917.491	10466
917.603	10508
917.715	10611
917.826	10596
917.938	10523
918.049	10466
918.161	10485
918.272	10630
918.384	10592
918.495	10554
918.606	10409
918.717	10310
918.828	10478
918.939	10459
919.05	10322
919.161	10443
919.272	10223
919.383	10318
919.494	10379
919.604	10664
919.715	10356
919.826	10344
919.936	10386
920.047	10478
920.157	10405
920.267	10637
920.378	10371
920.488	10413
920.598	10588
920.708	10778
920.818	10558
920.928	10603
921.038	10801
921.148	10752
921.258	10493
921.368	10325
921.477	10306
921.587	10249
921.697	10101
921.806	10223
921.916	10185
922.025	10067
922.134	10059
922.244	9953
922.353	10097
922.462	9861
922.571	9876
922.68	9686
922.789	9625
922.898	9724
923.007	9641
923.116	9789
923.224	9652
923.333	9587
923.442	9568
923.55	9564
923.659	9606
923.767	9576
923.876	9450
923.984	9603
924.092	9549
924.201	9526
924.309	9561
924.417	9530
924.525	9504
924.633	9526
924.741	10390
924.849	9256
924.956	9481
925.064	9325
925.172	9207
925.279	9241
925.387	9348
925.494	9408
925.602	9488
925.709	9420
925.816	9279
925.924	9310
926.031	9469
926.138	9351
926.245	9435
926.352	9256
926.459	9408
926.566	9386
926.673	9310
926.779	9199
926.886	9260
926.993	9028
927.099	8925
927.206	8998
927.312	9051
927.419	9100
927.525	9009
927.631	9051
927.737	8986
927.843	8925
927.95	8845
928.056	8918
928.162	8963
928.267	8941
928.373	9591
928.479	9070
928.585	8830
928.69	8910
928.796	8994
928.901	8853
929.007	8644
929.112	8815
929.218	8785
929.323	8800
929.428	8769
929.533	8849
929.638	8636
929.743	8686
929.848	8735
929.953	8735
930.058	8655
930.163	8450
930.267	8583
930.372	8602
930.477	8446
930.581	8762
930.685	8533
930.79	8427
930.894	8457
930.998	8480
931.103	8545
931.207	8279
931.311	8119
931.415	8176
931.519	7997
931.623	7967
