Data from test_V78500241_1380.txt Node
Date: Fri Mar 25 14:43:19 CST 2022
User: usil
Spectrometer: V785-0024
Trigger mode: 0
Integration Time (sec): 4.000000E-1
Scans to average: 1
Nonlinearity correction enabled: false
Boxcar width: 0
Storing dark spectrum: false
XAxis mode: Wavelengths
Number of Pixels in Spectrum: 1024
>>>>>Begin Spectral Data<<<<<
801.071	22497
801.214	22375
801.356	22131
801.499	21994
801.641	21907
801.783	21842
801.926	21873
802.068	21644
802.211	21603
802.353	21507
802.496	21363
802.638	21310
802.78	21252
802.923	21233
803.065	21104
803.208	21017
803.35	21157
803.492	21275
803.635	21283
803.777	21119
803.919	21157
804.061	21481
804.204	21275
804.346	21123
804.488	21036
804.63	21058
804.773	20952
804.915	21077
805.057	21165
805.199	21009
805.341	21096
805.483	21112
805.626	21203
805.768	21180
805.91	21146
806.052	21043
806.194	21066
806.336	21237
806.478	21020
806.62	21032
806.762	21249
806.904	21302
807.046	21572
807.188	21492
807.33	21435
807.472	21496
807.614	21367
807.756	21317
807.898	21302
808.04	21157
808.182	21233
808.324	21294
808.465	21367
808.607	21587
808.749	21701
808.891	21800
809.033	21823
809.174	21739
809.316	21637
809.458	21663
809.6	21481
809.741	21682
809.883	21717
810.025	21724
810.166	21747
810.308	21778
810.45	21599
810.591	21443
810.733	21306
810.875	21298
811.016	21169
811.158	21112
811.299	21249
811.441	21405
811.582	21340
811.724	21245
811.865	21211
812.007	21226
812.148	21195
812.29	21237
812.431	21439
812.573	21583
812.714	21656
812.855	21804
812.997	21800
813.138	22109
813.279	21941
813.421	21747
813.562	21564
813.703	21538
813.845	21313
813.986	21176
814.127	21074
814.268	20906
814.41	20883
814.551	20773
814.692	20899
814.833	20773
814.974	20682
815.115	20792
815.256	20594
815.397	20674
815.539	20659
815.68	20575
815.821	20511
815.962	20499
816.103	20549
816.244	20362
816.385	20244
816.526	20278
816.666	20149
816.807	19944
816.948	20065
817.089	20050
817.23	19997
817.371	19898
817.512	20012
817.653	19906
817.793	19879
817.934	19978
818.075	19921
818.216	20016
818.356	19913
818.497	19845
818.638	19544
818.778	19552
818.919	19647
819.06	19616
819.2	19776
819.341	19734
819.481	19746
819.622	19906
819.762	20092
819.903	20084
820.043	19925
820.184	20027
820.324	19906
820.465	20001
820.605	20012
820.746	19902
820.886	19814
821.026	19883
821.167	19780
821.307	19906
821.447	19887
821.588	19791
821.728	19708
821.868	19571
822.008	19339
822.149	19373
822.289	19434
822.429	19053
822.569	19031
822.709	19050
822.849	18776
822.99	18806
823.13	18844
823.27	18814
823.41	18585
823.55	18532
823.69	18623
823.83	18646
823.97	18502
824.11	18414
824.25	18391
824.389	18224
824.529	18448
824.669	18429
824.809	18464
824.949	18589
825.089	18559
825.228	18418
825.368	18155
825.508	18209
825.648	18117
825.787	18186
825.927	18148
826.067	18178
826.206	18076
826.346	18178
826.485	18186
826.625	18171
826.765	18213
826.904	18163
827.044	17950
827.183	17885
827.323	17821
827.462	17958
827.601	17984
827.741	17859
827.88	17897
828.02	17745
828.159	17942
828.298	17904
828.437	17878
828.577	17771
828.716	18003
828.855	17840
828.994	17627
829.134	17680
829.273	17657
829.412	17566
829.551	17596
829.69	17589
829.829	17581
829.968	17695
830.107	17611
830.246	17672
830.385	17532
830.524	17452
830.663	17379
830.802	17356
830.941	17239
831.08	17242
831.219	17341
831.357	17189
831.496	17512
831.635	17235
831.774	17170
831.913	17223
832.051	16953
832.19	17086
832.329	17109
832.467	16995
832.606	16835
832.744	16923
832.883	16812
833.022	16862
833.16	16919
833.299	17025
833.437	16991
833.576	17033
833.714	17037
833.852	17052
833.991	17071
834.129	17113
834.267	17128
834.406	17022
834.544	17025
834.682	16980
834.821	16850
834.959	17174
835.097	16911
835.235	16999
835.373	16999
835.511	16942
835.65	16934
835.788	16881
835.926	16603
836.064	16774
836.202	16710
836.34	16839
836.478	17079
836.615	16896
836.753	17029
836.891	16953
837.029	16919
837.167	16919
837.305	16767
837.443	16691
837.58	16763
837.718	16805
837.856	16820
837.993	16710
838.131	16683
838.269	16683
838.406	16736
838.544	16535
838.681	16455
838.819	16310
838.956	16303
839.094	16284
839.231	16344
839.369	16394
839.506	16653
839.643	16615
839.781	16329
839.918	16261
840.055	16394
840.193	16306
840.33	16299
840.467	16268
840.604	16363
840.742	16565
840.879	16166
841.016	16128
841.153	16246
841.29	16356
841.427	16276
841.564	16253
841.701	16291
841.838	16234
841.975	16090
842.112	16166
842.249	16120
842.385	16078
842.522	16131
842.659	16048
842.796	16067
842.933	16143
843.069	16109
843.206	16032
843.343	16181
843.479	16032
843.616	16154
843.752	15781
843.889	15880
844.025	15975
844.162	15774
844.298	16059
844.435	15842
844.571	15915
844.708	15861
844.844	16010
844.98	16006
845.117	16044
845.253	15838
845.389	15854
845.525	15884
845.661	15884
845.798	15915
845.934	16002
846.07	15945
846.206	16006
846.342	16036
846.478	15819
846.614	15629
846.75	15466
846.886	15405
847.022	15549
847.158	15462
847.294	15500
847.429	15447
847.565	15511
847.701	15610
847.837	15233
847.972	15100
848.108	15272
848.244	15393
848.379	15119
848.515	15097
848.65	15077
848.786	14994
848.921	15028
849.057	15188
849.192	15230
849.328	15017
849.463	15150
849.598	15093
849.734	14990
849.869	14914
850.004	14872
850.14	14895
850.275	14758
850.41	14648
850.545	14754
850.68	14705
850.815	14796
850.95	14777
851.085	14933
851.22	14895
851.355	14781
851.49	14762
851.625	14777
851.76	14762
851.895	14625
852.03	14735
852.165	14933
852.299	14902
852.434	14868
852.569	14838
852.703	14864
852.838	14853
852.973	14906
853.107	14941
853.242	14788
853.376	14727
853.511	14556
853.645	14636
853.78	14758
853.914	14663
854.048	14697
854.183	14613
854.317	14769
854.451	14811
854.585	14602
854.72	14689
854.854	14758
854.988	14625
855.122	14689
855.256	14583
855.39	14621
855.524	14765
855.658	14773
855.792	14686
855.926	14708
856.06	14807
856.194	14819
856.327	14667
856.461	14674
856.595	14636
856.729	14724
856.862	14762
856.996	14716
857.13	14765
857.263	14777
857.397	14815
857.53	14674
857.664	14762
857.797	14781
857.931	14944
858.064	14621
858.197	14819
858.331	14629
858.464	14564
858.597	14613
858.731	14625
858.864	14655
858.997	14682
859.13	14663
859.263	14674
859.396	14765
859.529	14625
859.662	14659
859.795	14636
859.928	14693
860.061	14754
860.194	14933
860.327	14777
860.46	14678
860.592	14918
860.725	14754
860.858	14838
860.99	14621
861.123	14495
861.256	14659
861.388	14697
861.521	15462
861.653	14594
861.786	14533
861.918	14560
862.05	14552
862.183	14579
862.315	14632
862.447	14632
862.58	14682
862.712	14488
862.844	14419
862.976	14476
863.108	14537
863.24	14811
863.372	14400
863.504	14347
863.636	14438
863.768	14423
863.9	14446
864.032	14431
864.164	14423
864.296	14530
864.428	14518
864.559	14518
864.691	14499
864.823	14507
864.954	14514
865.086	14530
865.217	14457
865.349	14374
865.48	14385
865.612	14431
865.743	14583
865.875	14454
866.006	14408
866.137	14450
866.269	14469
866.4	14454
866.531	14473
866.662	14381
866.793	14404
866.924	14393
867.055	14488
867.186	14339
867.317	14412
867.448	14370
867.579	14446
867.71	14370
867.841	14221
867.972	14431
868.103	14537
868.233	14480
868.364	14552
868.495	14587
868.625	14602
868.756	14727
868.886	14511
869.017	14575
869.147	14708
869.278	14826
869.408	14636
869.539	14636
869.669	14800
869.799	14750
869.929	14857
870.06	14670
870.19	14979
870.32	15043
870.45	15017
870.58	15055
870.71	15211
870.84	15173
870.97	15123
871.1	15047
871.23	15203
871.36	15222
871.489	15165
871.619	15222
871.749	15279
871.879	15310
872.008	15332
872.138	15283
872.267	15233
872.397	15161
872.526	15043
872.656	15051
872.785	15157
872.915	15363
873.044	15317
873.173	15313
873.303	15302
873.432	15294
873.561	15405
873.69	15287
873.819	15329
873.948	15367
874.077	15325
874.206	15294
874.335	15424
874.464	15447
874.593	15595
874.722	15511
874.851	15610
874.979	15656
875.108	15694
875.237	15633
875.365	15526
875.494	15629
875.623	15694
875.751	15667
875.88	15682
876.008	15705
876.136	15880
876.265	16063
876.393	16177
876.521	16116
876.65	16048
876.778	16067
876.906	16067
877.034	15979
877.162	16051
877.29	16036
877.418	16093
877.546	16013
877.674	16048
877.802	16090
877.93	16067
878.058	16025
878.185	15941
878.313	16078
878.441	16082
878.568	15880
878.696	15975
878.824	16215
878.951	16078
879.079	16215
879.206	16382
879.333	16329
879.461	16215
879.588	16253
879.715	16367
879.842	16497
879.97	16246
880.097	16071
880.224	15987
880.351	15907
880.478	16032
880.605	15953
880.732	15876
880.859	16139
880.986	15972
881.112	15915
881.239	15873
881.366	15675
881.493	15656
881.619	15507
881.746	15641
881.872	15629
881.999	15599
882.125	15488
882.252	15618
882.378	15622
882.505	15720
882.631	15599
882.757	15370
882.883	15424
883.01	15363
883.136	15287
883.262	15260
883.388	15321
883.514	15317
883.64	15397
883.766	15408
883.892	15222
884.018	15108
884.143	15332
884.269	15412
884.395	15173
884.52	15138
884.646	15093
884.772	15039
884.897	15039
885.023	15005
885.148	15214
885.274	15249
885.399	15207
885.524	15074
885.65	15097
885.775	15142
885.9	15138
886.025	15192
886.15	15207
886.275	14986
886.4	15062
886.525	15043
886.65	15013
886.775	14979
886.9	15214
887.025	15325
887.149	15150
887.274	14830
887.399	14952
887.523	14929
887.648	14895
887.773	14823
887.897	14895
888.021	14967
888.146	14933
888.27	15001
888.395	14971
888.519	14963
888.643	14929
888.767	14918
888.891	14804
889.015	14735
889.139	14777
889.263	14758
889.387	14765
889.511	14918
889.635	14906
889.759	14705
889.883	14807
890.006	14845
890.13	14830
890.254	14697
890.377	14765
890.501	14636
890.624	14541
890.748	14583
890.871	14469
890.995	14313
891.118	14457
891.241	14415
891.364	14434
891.488	14545
891.611	14355
891.734	14457
891.857	14537
891.98	14438
892.103	14545
892.226	14400
892.349	14488
892.471	14317
892.594	14446
892.717	14526
892.839	14305
892.962	14377
893.085	14564
893.207	14503
893.33	14400
893.452	14351
893.575	14499
893.697	14381
893.819	14587
893.941	14644
894.064	14610
894.186	14446
894.308	14408
894.43	14579
894.552	14670
894.674	14533
894.796	14522
894.918	14442
895.04	14461
895.161	14537
895.283	14480
895.405	14438
895.526	14587
895.648	14549
895.769	14560
895.891	14575
896.012	14644
896.134	14636
896.255	14648
896.376	14594
896.498	14507
896.619	14670
896.74	14632
896.861	14701
896.982	14891
897.103	15055
897.224	14921
897.345	14788
897.466	14804
897.587	14868
897.708	14963
897.828	14906
897.949	14720
898.07	14712
898.19	14830
898.311	15013
898.431	14811
898.552	14952
898.672	15009
898.792	15036
898.913	15055
899.033	14746
899.153	14857
899.273	14750
899.393	14762
899.513	14788
899.633	14785
899.753	14845
899.873	14686
899.993	14807
900.113	14758
900.232	14788
900.352	14727
900.472	14697
900.591	14575
900.711	14716
900.83	14541
900.95	14765
901.069	14826
901.189	14598
901.308	14355
901.427	14256
901.546	14301
901.665	14275
901.784	14366
901.904	14153
902.023	14176
902.141	13936
902.26	13993
902.379	14012
902.498	13906
902.617	13795
902.735	13967
902.854	13925
902.973	13830
903.091	13636
903.21	13613
903.328	13670
903.446	13472
903.565	13453
903.683	13518
903.801	13365
903.919	13388
904.038	13377
904.156	13259
904.274	13301
904.392	13251
904.51	13190
904.627	13251
904.745	13343
904.863	13278
904.981	13072
905.098	12973
905.216	12897
905.334	12966
905.451	12882
905.569	12894
905.686	12882
905.803	12913
905.921	12726
906.038	12787
906.155	12814
906.272	12658
906.389	12616
906.506	12513
906.623	12475
906.74	12566
906.857	12338
906.974	12376
907.091	12612
907.208	12677
907.324	12608
907.441	12506
907.557	12315
907.674	12239
907.79	12201
907.907	12213
908.023	12262
908.139	12342
908.256	12205
908.372	12171
908.488	12106
908.604	12045
908.72	12072
908.836	12011
908.952	12015
909.068	11935
909.184	12064
909.3	12041
909.415	12129
909.531	11996
909.647	11813
909.762	11767
909.878	11783
909.993	11821
910.108	11790
910.224	11741
910.339	11745
910.454	11752
910.57	11646
910.685	11528
910.8	11973
910.915	11802
911.03	11680
911.145	11471
911.259	11505
911.374	11455
911.489	11433
911.604	11425
911.718	11212
911.833	11258
911.947	11124
912.062	11037
912.176	11273
912.291	11208
912.405	11239
912.519	11425
912.633	11376
912.748	11280
912.862	11193
912.976	11128
913.09	10995
913.204	10984
913.318	11086
913.431	11216
913.545	11216
913.659	11242
913.772	11117
913.886	11014
914	11022
914.113	11041
914.226	11094
914.34	11105
914.453	10949
914.566	11094
914.68	10942
914.793	10877
914.906	10702
915.019	10672
915.132	10656
915.245	10721
915.358	10782
915.47	10736
915.583	10774
915.696	10778
915.809	10877
915.921	10889
916.034	10694
916.146	10774
916.259	10649
916.371	10683
916.483	10782
916.595	10599
916.708	10626
916.82	10634
916.932	10664
917.044	10577
917.156	10588
917.268	10508
917.38	10512
917.491	10512
917.603	10580
917.715	10577
917.826	10679
917.938	10516
918.049	10493
918.161	10550
918.272	10706
918.384	10668
918.495	10664
918.606	10421
918.717	10379
918.828	10402
918.939	10443
919.05	10360
919.161	10409
919.272	10238
919.383	10310
919.494	10493
919.604	10622
919.715	10413
919.826	10337
919.936	10409
920.047	10447
920.157	10481
920.267	10618
920.378	10519
920.488	10451
920.598	10546
920.708	10843
920.818	10679
920.928	10645
921.038	10744
921.148	10755
921.258	10455
921.368	10382
921.477	10329
921.587	10234
921.697	10131
921.806	10318
921.916	10116
922.025	9911
922.134	9960
922.244	9930
922.353	10029
922.462	9854
922.571	9861
922.68	9705
922.789	9644
922.898	9587
923.007	9599
923.116	9709
923.224	9724
923.333	9690
923.442	9591
923.55	9496
923.659	9580
923.767	9686
923.876	9507
923.984	9576
924.092	9458
924.201	9530
924.309	9488
924.417	9507
924.525	9466
924.633	9523
924.741	10367
924.849	9321
924.956	9488
925.064	9264
925.172	9203
925.279	9272
925.387	9344
925.494	9329
925.602	9477
925.709	9340
925.816	9260
925.924	9325
926.031	9454
926.138	9279
926.245	9367
926.352	9310
926.459	9416
926.566	9416
926.673	9214
926.779	9165
926.886	9188
926.993	9116
927.099	8986
927.206	8990
927.312	8982
927.419	9062
927.525	9032
927.631	9100
927.737	8921
927.843	8941
927.95	8766
928.056	8933
928.162	8948
928.267	9028
928.373	9629
928.479	8971
928.585	8826
928.69	8921
928.796	8956
928.901	8777
929.007	8678
929.112	8811
929.218	8762
929.323	8701
929.428	8731
929.533	8876
929.638	8674
929.743	8682
929.848	8758
929.953	8731
930.058	8598
930.163	8476
930.267	8530
930.372	8613
930.477	8450
930.581	8724
930.685	8644
930.79	8438
930.894	8495
930.998	8412
931.103	8518
931.207	8210
931.311	8172
931.415	8180
931.519	7909
931.623	7890
