Data from test_V78500241_1825.txt Node
Date: Fri Mar 25 14:46:25 CST 2022
User: usil
Spectrometer: V785-0024
Trigger mode: 0
Integration Time (sec): 4.000000E-1
Scans to average: 1
Nonlinearity correction enabled: false
Boxcar width: 0
Storing dark spectrum: false
XAxis mode: Wavelengths
Number of Pixels in Spectrum: 1024
>>>>>Begin Spectral Data<<<<<
801.071	22128
801.214	22017
801.356	21850
801.499	21644
801.641	21500
801.783	21545
801.926	21496
802.068	21603
802.211	21340
802.353	21302
802.496	21066
802.638	20971
802.78	21036
802.923	20925
803.065	20823
803.208	20842
803.35	20921
803.492	20876
803.635	21062
803.777	20838
803.919	20963
804.061	21169
804.204	20864
804.346	20716
804.488	20724
804.63	20769
804.773	20701
804.915	20857
805.057	20921
805.199	20876
805.341	20811
805.483	20925
805.626	20826
805.768	20762
805.91	20743
806.052	20796
806.194	20807
806.336	20952
806.478	20796
806.62	20712
806.762	20861
806.904	20994
807.046	21230
807.188	21207
807.33	21157
807.472	21184
807.614	21116
807.756	20960
807.898	20971
808.04	20899
808.182	20872
808.324	20868
808.465	21017
808.607	20933
808.749	21180
808.891	21272
809.033	21252
809.174	21306
809.316	21157
809.458	21199
809.6	21096
809.741	21260
809.883	21233
810.025	21359
810.166	21283
810.308	21325
810.45	21283
810.591	21188
810.733	21104
810.875	21036
811.016	20807
811.158	20849
811.299	20918
811.441	20990
811.582	21043
811.724	20929
811.865	20941
812.007	21043
812.148	20971
812.29	20979
812.431	20975
812.573	21279
812.714	21294
812.855	21405
812.997	21610
813.138	21671
813.279	21469
813.421	21408
813.562	21382
813.703	21119
813.845	21066
813.986	20769
814.127	20568
814.268	20511
814.41	20606
814.551	20579
814.692	20533
814.833	20450
814.974	20423
815.115	20423
815.256	20317
815.397	20381
815.539	20336
815.68	20252
815.821	20161
815.962	20221
816.103	20153
816.244	20195
816.385	20020
816.526	19906
816.666	19826
816.807	19624
816.948	19734
817.089	19685
817.23	19613
817.371	19628
817.512	19666
817.653	19529
817.793	19632
817.934	19696
818.075	19681
818.216	19651
818.356	19666
818.497	19396
818.638	19304
818.778	19293
818.919	19259
819.06	19301
819.2	19392
819.341	19483
819.481	19495
819.622	19655
819.762	19826
819.903	19776
820.043	19704
820.184	19605
820.324	19559
820.465	19708
820.605	19662
820.746	19681
820.886	19502
821.026	19533
821.167	19628
821.307	19658
821.447	19491
821.588	19468
821.728	19331
821.868	19057
822.008	18981
822.149	18973
822.289	19004
822.429	18741
822.569	18741
822.709	18722
822.849	18525
822.99	18460
823.13	18547
823.27	18589
823.41	18456
823.55	18304
823.69	18239
823.83	18330
823.97	18232
824.11	18091
824.25	18053
824.389	18072
824.529	18194
824.669	18163
824.809	18251
824.949	18247
825.089	18125
825.228	18155
825.368	17908
825.508	17878
825.648	17851
825.787	17954
825.927	17882
826.067	17851
826.206	17794
826.346	17866
826.485	17965
826.625	17832
826.765	17939
826.904	17752
827.044	17604
827.183	17577
827.323	17585
827.462	17646
827.601	17493
827.741	17589
827.88	17634
828.02	17395
828.159	17482
828.298	17573
828.437	17672
828.577	17573
828.716	17707
828.855	17528
828.994	17334
829.134	17414
829.273	17246
829.412	17113
829.551	17105
829.69	17345
829.829	17315
829.968	17341
830.107	17322
830.246	17379
830.385	17273
830.524	17376
830.663	17140
830.802	17033
830.941	16881
831.08	16850
831.219	16999
831.357	16854
831.496	17105
831.635	16831
831.774	16778
831.913	16850
832.051	16729
832.19	16774
832.329	16866
832.467	16611
832.606	16615
832.744	16573
832.883	16554
833.022	16558
833.16	16584
833.299	16622
833.437	16573
833.576	16660
833.714	16755
833.852	16706
833.991	16755
834.129	16763
834.267	16790
834.406	16698
834.544	16713
834.682	16740
834.821	16622
834.959	16812
835.097	16626
835.235	16778
835.373	16725
835.511	16618
835.65	16641
835.788	16569
835.926	16497
836.064	16371
836.202	16481
836.34	16577
836.478	16649
836.615	16577
836.753	16611
836.891	16656
837.029	16660
837.167	16554
837.305	16569
837.443	16398
837.58	16470
837.718	16527
837.856	16485
837.993	16314
838.131	16497
838.269	16390
838.406	16329
838.544	16371
838.681	16162
838.819	16093
838.956	15953
839.094	15983
839.231	16025
839.369	16131
839.506	16398
839.643	16325
839.781	16025
839.918	15975
840.055	15979
840.193	15949
840.33	15991
840.467	16006
840.604	16002
840.742	16268
840.879	15911
841.016	15964
841.153	15987
841.29	16105
841.427	16055
841.564	16002
841.701	16093
841.838	16036
841.975	15987
842.112	15850
842.249	15751
842.385	15838
842.522	16032
842.659	15720
842.796	15781
842.933	15808
843.069	15842
843.206	15770
843.343	15873
843.479	15800
843.616	15747
843.752	15557
843.889	15633
844.025	15778
844.162	15545
844.298	15713
844.435	15500
844.571	15542
844.708	15644
844.844	15694
844.98	15736
845.117	15660
845.253	15530
845.389	15374
845.525	15454
845.661	15355
845.798	15340
845.934	15416
846.07	15329
846.206	15416
846.342	15447
846.478	15443
846.614	15116
846.75	15093
846.886	15165
847.022	15237
847.158	15131
847.294	15237
847.429	15093
847.565	14967
847.701	15317
847.837	14937
847.972	14792
848.108	14933
848.244	14853
848.379	14800
848.515	14758
848.65	14731
848.786	14720
848.921	14731
849.057	14754
849.192	14792
849.328	14735
849.463	14746
849.598	14655
849.734	14651
849.869	14678
850.004	14564
850.14	14564
850.275	14606
850.41	14442
850.545	14484
850.68	14480
850.815	14541
850.95	14499
851.085	14659
851.22	14651
851.355	14423
851.49	14431
851.625	14469
851.76	14366
851.895	14408
852.03	14366
852.165	14488
852.299	14454
852.434	14579
852.569	14541
852.703	14511
852.838	14636
852.973	14712
853.107	14674
853.242	14526
853.376	14442
853.511	14358
853.645	14332
853.78	14537
853.914	14457
854.048	14377
854.183	14317
854.317	14320
854.451	14549
854.585	14423
854.72	14408
854.854	14469
854.988	14343
855.122	14438
855.256	14301
855.39	14332
855.524	14499
855.658	14408
855.792	14404
855.926	14377
856.06	14400
856.194	14518
856.327	14347
856.461	14404
856.595	14244
856.729	14396
856.862	14579
856.996	14347
857.13	14419
857.263	14568
857.397	14511
857.53	14431
857.664	14454
857.797	14434
857.931	14450
858.064	14339
858.197	14541
858.331	14370
858.464	14298
858.597	14309
858.731	14332
858.864	14393
858.997	14400
859.13	14389
859.263	14317
859.396	14431
859.529	14389
859.662	14389
859.795	14328
859.928	14461
860.061	14583
860.194	14590
860.327	14343
860.46	14434
860.592	14518
860.725	14454
860.858	14457
860.99	14431
861.123	14393
861.256	14374
861.388	14294
861.521	15138
861.653	14275
861.786	14183
861.918	14248
862.05	14282
862.183	14206
862.315	14347
862.447	14457
862.58	14237
862.712	14183
862.844	14107
862.976	14233
863.108	14214
863.24	14579
863.372	14069
863.504	14138
863.636	14138
863.768	14195
863.9	14142
864.032	14103
864.164	14100
864.296	14176
864.428	14286
864.559	14278
864.691	14233
864.823	14134
864.954	14199
865.086	14145
865.217	14100
865.349	14016
865.48	14218
865.612	14126
865.743	14324
865.875	14218
866.006	14062
866.137	14145
866.269	14107
866.4	14088
866.531	14054
866.662	14077
866.793	14081
866.924	14062
867.055	14225
867.186	14142
867.317	14103
867.448	13967
867.579	14031
867.71	14069
867.841	13963
867.972	14153
868.103	14138
868.233	14081
868.364	14130
868.495	14237
868.625	14332
868.756	14545
868.886	14336
869.017	14309
869.147	14499
869.278	14590
869.408	14309
869.539	14339
869.669	14564
869.799	14358
869.929	14590
870.06	14473
870.19	14678
870.32	14636
870.45	14697
870.58	14663
870.71	14899
870.84	14906
870.97	14849
871.1	14792
871.23	15020
871.36	14986
871.489	14963
871.619	14929
871.749	14895
871.879	15043
872.008	15116
872.138	15070
872.267	14944
872.397	14937
872.526	14758
872.656	14834
872.785	14743
872.915	14979
873.044	15112
873.173	14982
873.303	15051
873.432	15123
873.561	15116
873.69	15100
873.819	15020
873.948	15154
874.077	15024
874.206	14883
874.335	15074
874.464	15192
874.593	15412
874.722	15218
874.851	15386
874.979	15367
875.108	15450
875.237	15218
875.365	15230
875.494	15325
875.623	15370
875.751	15386
875.88	15405
876.008	15428
876.136	15511
876.265	15755
876.393	15812
876.521	15804
876.65	15827
876.778	15781
876.906	15762
877.034	15648
877.162	15831
877.29	15675
877.418	15838
877.546	15831
877.674	15717
877.802	15751
877.93	15827
878.058	15724
878.185	15701
878.313	15671
878.441	15842
878.568	15610
878.696	15701
878.824	15766
878.951	15857
879.079	15926
879.206	16162
879.333	15979
879.461	15713
879.588	15823
879.715	15930
879.842	15979
879.97	15846
880.097	15618
880.224	15637
880.351	15564
880.478	15595
880.605	15568
880.732	15557
880.859	15835
880.986	15561
881.112	15648
881.239	15507
881.366	15435
881.493	15302
881.619	15275
881.746	15317
881.872	15207
881.999	15245
882.125	15211
882.252	15355
882.378	15233
882.505	15462
882.631	15256
882.757	15070
882.883	15066
883.01	15074
883.136	15081
883.262	14990
883.388	15024
883.514	15009
883.64	15001
883.766	15077
883.892	14880
884.018	14918
884.143	14971
884.269	15161
884.395	14769
884.52	14834
884.646	14739
884.772	14689
884.897	14777
885.023	14807
885.148	14887
885.274	14895
885.399	14952
885.524	14758
885.65	14800
885.775	14788
885.9	14788
886.025	14979
886.15	14826
886.275	14697
886.4	14701
886.525	14758
886.65	14705
886.775	14708
886.9	14910
887.025	14967
887.149	14731
887.274	14632
887.399	14689
887.523	14629
887.648	14568
887.773	14636
887.897	14720
888.021	14613
888.146	14613
888.27	14678
888.395	14678
888.519	14686
888.643	14613
888.767	14720
888.891	14587
889.015	14385
889.139	14522
889.263	14469
889.387	14507
889.511	14579
889.635	14579
889.759	14492
889.883	14454
890.006	14514
890.13	14564
890.254	14419
890.377	14469
890.501	14263
890.624	14358
890.748	14366
890.871	14183
890.995	14149
891.118	14050
891.241	14221
891.364	14259
891.488	14271
891.611	14183
891.734	14088
891.857	14271
891.98	14229
892.103	14202
892.226	14191
892.349	14161
892.471	13989
892.594	14088
892.717	14126
892.839	14229
892.962	14126
893.085	14309
893.207	14103
893.33	14111
893.452	14161
893.575	14172
893.697	14240
893.819	14324
893.941	14370
894.064	14305
894.186	14157
894.308	14168
894.43	14278
894.552	14305
894.674	14328
894.796	14123
894.918	14206
895.04	14172
895.161	14286
895.283	14313
895.405	14138
895.526	14267
895.648	14278
895.769	14275
895.891	14282
896.012	14389
896.134	14446
896.255	14278
896.376	14298
896.498	14343
896.619	14358
896.74	14301
896.861	14427
896.982	14701
897.103	14880
897.224	14678
897.345	14625
897.466	14507
897.587	14571
897.708	14807
897.828	14602
897.949	14587
898.07	14495
898.19	14644
898.311	14785
898.431	14644
898.552	14731
898.672	14705
898.792	14754
898.913	14785
899.033	14636
899.153	14533
899.273	14385
899.393	14514
899.513	14556
899.633	14507
899.753	14526
899.873	14556
899.993	14560
900.113	14541
900.232	14663
900.352	14511
900.472	14545
900.591	14377
900.711	14446
900.83	14347
900.95	14484
901.069	14575
901.189	14237
901.308	14100
901.427	14081
901.546	14100
901.665	14183
901.784	14008
901.904	13989
902.023	13830
902.141	13666
902.26	13666
902.379	13742
902.498	13658
902.617	13556
902.735	13715
902.854	13636
902.973	13601
903.091	13388
903.21	13316
903.328	13419
903.446	13304
903.565	13228
903.683	13213
903.801	13141
903.919	13247
904.038	13137
904.156	13091
904.274	13133
904.392	13031
904.51	13042
904.627	13034
904.745	12981
904.863	13088
904.981	12798
905.098	12669
905.216	12757
905.334	12768
905.451	12726
905.569	12669
905.686	12764
905.803	12738
905.921	12566
906.038	12692
906.155	12616
906.272	12502
906.389	12532
906.506	12315
906.623	12315
906.74	12209
906.857	12232
906.974	12186
907.091	12334
907.208	12578
907.324	12433
907.441	12251
907.557	12121
907.674	12125
907.79	12045
907.907	11961
908.023	12114
908.139	12064
908.256	12003
908.372	12019
908.488	11954
908.604	11817
908.72	11893
908.836	11904
908.952	11817
909.068	11828
909.184	11946
909.3	11786
909.415	11828
909.531	11866
909.647	11524
909.762	11452
909.878	11554
909.993	11653
910.108	11497
910.224	11657
910.339	11570
910.454	11482
910.57	11448
910.685	11349
910.8	11710
910.915	11600
911.03	11440
911.145	11345
911.259	11288
911.374	11277
911.489	11265
911.604	11166
911.718	11117
911.833	11098
911.947	10942
912.062	10908
912.176	11143
912.291	11029
912.405	11029
912.519	11235
912.633	11162
912.748	11083
912.862	11113
912.976	10930
913.09	10786
913.204	10896
913.318	10965
913.431	11014
913.545	10999
913.659	11102
913.772	10892
913.886	10854
914	10664
914.113	10850
914.226	10949
914.34	10881
914.453	10809
914.566	10927
914.68	10717
914.793	10763
914.906	10554
915.019	10558
915.132	10516
915.245	10519
915.358	10577
915.47	10538
915.583	10573
915.696	10592
915.809	10611
915.921	10725
916.034	10470
916.146	10561
916.259	10470
916.371	10637
916.483	10558
916.595	10508
916.708	10402
916.82	10459
916.932	10481
917.044	10436
917.156	10474
917.268	10371
917.38	10333
917.491	10242
917.603	10371
917.715	10470
917.826	10432
917.938	10386
918.049	10325
918.161	10337
918.272	10523
918.384	10500
918.495	10379
918.606	10230
918.717	10166
918.828	10215
918.939	10291
919.05	10166
919.161	10211
919.272	10078
919.383	10116
919.494	10268
919.604	10504
919.715	10219
919.826	10192
919.936	10249
920.047	10310
920.157	10227
920.267	10455
920.378	10333
920.488	10257
920.598	10447
920.708	10599
920.818	10417
920.928	10360
921.038	10698
921.148	10512
921.258	10325
921.368	10200
921.477	10188
921.587	10105
921.697	10017
921.806	10188
921.916	10040
922.025	9835
922.134	9808
922.244	9781
922.353	9816
922.462	9740
922.571	9698
922.68	9561
922.789	9515
922.898	9485
923.007	9469
923.116	9500
923.224	9462
923.333	9549
923.442	9382
923.55	9367
923.659	9420
923.767	9466
923.876	9386
923.984	9488
924.092	9332
924.201	9393
924.309	9431
924.417	9393
924.525	9382
924.633	9355
924.741	10310
924.849	9157
924.956	9367
925.064	9188
925.172	9020
925.279	9192
925.387	9157
925.494	9116
925.602	9287
925.709	9165
925.816	9138
925.924	9199
926.031	9211
926.138	9203
926.245	9264
926.352	9116
926.459	9249
926.566	9272
926.673	9104
926.779	9123
926.886	9017
926.993	8864
927.099	8948
927.206	8868
927.312	8830
927.419	8948
927.525	8895
927.631	8872
927.737	8777
927.843	8750
927.95	8629
928.056	8796
928.162	8811
928.267	8838
928.373	9336
928.479	8845
928.585	8594
928.69	8796
928.796	8724
928.901	8682
929.007	8526
929.112	8800
929.218	8720
929.323	8651
929.428	8568
929.533	8750
929.638	8495
929.743	8587
929.848	8697
929.953	8583
930.058	8465
930.163	8343
930.267	8366
930.372	8507
930.477	8294
930.581	8594
930.685	8457
930.79	8374
930.894	8324
930.998	8282
931.103	8423
931.207	8065
931.311	8077
931.415	7936
931.519	7814
931.623	7792
