Data from test_V78500241_1468.txt Node
Date: Fri Mar 25 14:43:56 CST 2022
User: usil
Spectrometer: V785-0024
Trigger mode: 0
Integration Time (sec): 4.000000E-1
Scans to average: 1
Nonlinearity correction enabled: false
Boxcar width: 0
Storing dark spectrum: false
XAxis mode: Wavelengths
Number of Pixels in Spectrum: 1024
>>>>>Begin Spectral Data<<<<<
801.071	22519
801.214	22371
801.356	22067
801.499	21926
801.641	21800
801.783	21743
801.926	21812
802.068	21720
802.211	21694
802.353	21671
802.496	21458
802.638	21351
802.78	21222
802.923	21161
803.065	21154
803.208	21085
803.35	21150
803.492	21329
803.635	21294
803.777	21138
803.919	21272
804.061	21466
804.204	21302
804.346	21039
804.488	20910
804.63	21066
804.773	20876
804.915	21142
805.057	21157
805.199	21070
805.341	21138
805.483	21127
805.626	21096
805.768	21047
805.91	21032
806.052	21089
806.194	20921
806.336	21275
806.478	20990
806.62	21055
806.762	21013
806.904	21291
807.046	21542
807.188	21408
807.33	21378
807.472	21477
807.614	21382
807.756	21439
807.898	21268
808.04	21302
808.182	21294
808.324	21386
808.465	21302
808.607	21614
808.749	21739
808.891	21705
809.033	21755
809.174	21797
809.316	21534
809.458	21656
809.6	21572
809.741	21686
809.883	21660
810.025	21720
810.166	21717
810.308	21572
810.45	21572
810.591	21519
810.733	21401
810.875	21386
811.016	21180
811.158	21093
811.299	21336
811.441	21420
811.582	21378
811.724	21340
811.865	21245
812.007	21359
812.148	21241
812.29	21302
812.431	21454
812.573	21561
812.714	21705
812.855	21778
812.997	21949
813.138	22010
813.279	21846
813.421	21652
813.562	21618
813.703	21564
813.845	21332
813.986	21089
814.127	21009
814.268	20834
814.41	20777
814.551	20750
814.692	20975
814.833	20686
814.974	20670
815.115	20914
815.256	20625
815.397	20598
815.539	20629
815.68	20545
815.821	20492
815.962	20602
816.103	20507
816.244	20282
816.385	20252
816.526	20237
816.666	20142
816.807	19913
816.948	20031
817.089	20065
817.23	19989
817.371	19986
817.512	19970
817.653	19906
817.793	19871
817.934	19944
818.075	20012
818.216	20020
818.356	19928
818.497	19670
818.638	19613
818.778	19689
818.919	19704
819.06	19529
819.2	19719
819.341	19784
819.481	19761
819.622	19967
819.762	20100
819.903	20065
820.043	20069
820.184	19944
820.324	19879
820.465	20096
820.605	19917
820.746	19818
820.886	19700
821.026	19868
821.167	19913
821.307	19856
821.447	19841
821.588	19769
821.728	19556
821.868	19362
822.008	19285
822.149	19324
822.289	19308
822.429	19008
822.569	18947
822.709	19000
822.849	18802
822.99	18814
823.13	18741
823.27	18783
823.41	18639
823.55	18646
823.69	18703
823.83	18612
823.97	18547
824.11	18429
824.25	18369
824.389	18350
824.529	18532
824.669	18502
824.809	18612
824.949	18426
825.089	18517
825.228	18403
825.368	18144
825.508	18235
825.648	18159
825.787	18220
825.927	18235
826.067	18057
826.206	18106
826.346	18350
826.485	18220
826.625	18121
826.765	18243
826.904	18258
827.044	17870
827.183	18007
827.323	17908
827.462	17958
827.601	17863
827.741	17821
827.88	17805
828.02	17722
828.159	17779
828.298	17874
828.437	17870
828.577	17912
828.716	17923
828.855	17798
828.994	17638
829.134	17661
829.273	17638
829.412	17558
829.551	17581
829.69	17573
829.829	17668
829.968	17733
830.107	17710
830.246	17581
830.385	17589
830.524	17649
830.663	17512
830.802	17356
830.941	17307
831.08	17254
831.219	17296
831.357	17299
831.496	17334
831.635	17124
831.774	17162
831.913	17067
832.051	16991
832.19	17029
832.329	17048
832.467	16919
832.606	16824
832.744	16919
832.883	16869
833.022	16900
833.16	16904
833.299	16904
833.437	17216
833.576	17003
833.714	16961
833.852	16984
833.991	17056
834.129	17022
834.267	16995
834.406	16919
834.544	17041
834.682	16961
834.821	16949
834.959	17140
835.097	17022
835.235	17136
835.373	17029
835.511	16934
835.65	16934
835.788	16869
835.926	16736
836.064	16668
836.202	16733
836.34	16862
836.478	17006
836.615	16900
836.753	16824
836.891	17018
837.029	16946
837.167	16873
837.305	16797
837.443	16774
837.58	16721
837.718	16812
837.856	16740
837.993	16660
838.131	16691
838.269	16622
838.406	16641
838.544	16508
838.681	16360
838.819	16455
838.956	16268
839.094	16261
839.231	16272
839.369	16421
839.506	16675
839.643	16474
839.781	16295
839.918	16230
840.055	16280
840.193	16390
840.33	16196
840.467	16280
840.604	16303
840.742	16618
840.879	16215
841.016	16067
841.153	16204
841.29	16337
841.427	16310
841.564	16337
841.701	16120
841.838	16204
841.975	16246
842.112	16230
842.249	16055
842.385	15991
842.522	16257
842.659	16101
842.796	16090
842.933	16086
843.069	16059
843.206	16036
843.343	16109
843.479	16143
843.616	16067
843.752	15880
843.889	15869
844.025	15911
844.162	15854
844.298	15945
844.435	15869
844.571	15857
844.708	15854
844.844	16067
844.98	15983
845.117	15876
845.253	15778
845.389	15774
845.525	15857
845.661	15766
845.798	15857
845.934	15964
846.07	15873
846.206	15926
846.342	16006
846.478	15812
846.614	15606
846.75	15462
846.886	15306
847.022	15492
847.158	15359
847.294	15500
847.429	15447
847.565	15386
847.701	15660
847.837	15104
847.972	15123
848.108	15199
848.244	15173
848.379	14986
848.515	14971
848.65	15085
848.786	14986
848.921	14998
849.057	15123
849.192	15112
849.328	15055
849.463	14982
849.598	14963
849.734	14906
849.869	14785
850.004	14785
850.14	14845
850.275	14838
850.41	14655
850.545	14785
850.68	14708
850.815	14739
850.95	14754
851.085	14857
851.22	14853
851.355	14739
851.49	14716
851.625	14739
851.76	14731
851.895	14632
852.03	14587
852.165	14765
852.299	14750
852.434	14796
852.569	14804
852.703	14727
852.838	14899
852.973	14914
853.107	14868
853.242	14750
853.376	14667
853.511	14556
853.645	14636
853.78	14773
853.914	14606
854.048	14571
854.183	14560
854.317	14644
854.451	14796
854.585	14621
854.72	14682
854.854	14762
854.988	14590
855.122	14678
855.256	14560
855.39	14629
855.524	14693
855.658	14678
855.792	14625
855.926	14697
856.06	14769
856.194	14705
856.327	14571
856.461	14549
856.595	14594
856.729	14670
856.862	14735
856.996	14621
857.13	14632
857.263	14777
857.397	14762
857.53	14560
857.664	14636
857.797	14773
857.931	14758
858.064	14670
858.197	14842
858.331	14587
858.464	14560
858.597	14473
858.731	14545
858.864	14686
858.997	14629
859.13	14697
859.263	14743
859.396	14716
859.529	14541
859.662	14602
859.795	14533
859.928	14659
860.061	14758
860.194	14861
860.327	14587
860.46	14590
860.592	14792
860.725	14746
860.858	14689
860.99	14663
861.123	14507
861.256	14514
861.388	14632
861.521	15195
861.653	14503
861.786	14450
861.918	14495
862.05	14598
862.183	14560
862.315	14655
862.447	14674
862.58	14533
862.712	14423
862.844	14438
862.976	14492
863.108	14545
863.24	14876
863.372	14298
863.504	14427
863.636	14339
863.768	14423
863.9	14381
864.032	14275
864.164	14294
864.296	14419
864.428	14511
864.559	14518
864.691	14438
864.823	14488
864.954	14393
865.086	14431
865.217	14408
865.349	14240
865.48	14362
865.612	14377
865.743	14541
865.875	14320
866.006	14358
866.137	14408
866.269	14450
866.4	14298
866.531	14385
866.662	14355
866.793	14366
866.924	14305
867.055	14370
867.186	14278
867.317	14366
867.448	14244
867.579	14389
867.71	14263
867.841	14252
867.972	14385
868.103	14309
868.233	14381
868.364	14336
868.495	14377
868.625	14636
868.756	14697
868.886	14450
869.017	14632
869.147	14716
869.278	14746
869.408	14575
869.539	14632
869.669	14701
869.799	14644
869.929	14743
870.06	14857
870.19	14899
870.32	14914
870.45	14891
870.58	15051
870.71	15017
870.84	15089
870.97	14986
871.1	15005
871.23	15146
871.36	15230
871.489	14990
871.619	15252
871.749	15184
871.879	15287
872.008	15348
872.138	15298
872.267	15173
872.397	15127
872.526	15005
872.656	15039
872.785	15039
872.915	15211
873.044	15321
873.173	15207
873.303	15298
873.432	15317
873.561	15294
873.69	15233
873.819	15306
873.948	15370
874.077	15321
874.206	15192
874.335	15241
874.464	15367
874.593	15587
874.722	15542
874.851	15568
874.979	15656
875.108	15724
875.237	15473
875.365	15466
875.494	15511
875.623	15618
875.751	15466
875.88	15671
876.008	15732
876.136	15800
876.265	16051
876.393	16101
876.521	16036
876.65	16051
876.778	15949
876.906	15918
877.034	15926
877.162	15922
877.29	15850
877.418	16002
877.546	16006
877.674	16082
877.802	16032
877.93	16071
878.058	15979
878.185	15926
878.313	16086
878.441	16029
878.568	15926
878.696	15930
878.824	16021
878.951	16093
879.079	16287
879.206	16284
879.333	16367
879.461	16257
879.588	16219
879.715	16329
879.842	16356
879.97	16112
880.097	15835
880.224	15823
880.351	15930
880.478	15918
880.605	15819
880.732	15850
880.859	15994
880.986	15956
881.112	15918
881.239	15739
881.366	15694
881.493	15492
881.619	15492
881.746	15553
881.872	15454
881.999	15500
882.125	15412
882.252	15469
882.378	15504
882.505	15622
882.631	15450
882.757	15397
882.883	15454
883.01	15310
883.136	15252
883.262	15138
883.388	15203
883.514	15401
883.64	15412
883.766	15264
883.892	15199
884.018	15233
884.143	15340
884.269	15389
884.395	15157
884.52	14994
884.646	15089
884.772	15043
884.897	14777
885.023	15062
885.148	15100
885.274	15169
885.399	15100
885.524	15066
885.65	15077
885.775	15062
885.9	14921
886.025	15112
886.15	15169
886.275	14971
886.4	14910
886.525	14975
886.65	15017
886.775	14967
886.9	15230
887.025	15245
887.149	14990
887.274	14868
887.399	14804
887.523	14792
887.648	14830
887.773	14731
887.897	14853
888.021	14956
888.146	14834
888.27	14937
888.395	14887
888.519	14944
888.643	14781
888.767	14876
888.891	14849
889.015	14678
889.139	14697
889.263	14727
889.387	14811
889.511	14811
889.635	14792
889.759	14636
889.883	14689
890.006	14758
890.13	14838
890.254	14602
890.377	14587
890.501	14480
890.624	14503
890.748	14598
890.871	14389
890.995	14488
891.118	14290
891.241	14347
891.364	14309
891.488	14503
891.611	14396
891.734	14385
891.857	14431
891.98	14362
892.103	14507
892.226	14492
892.349	14423
892.471	14191
892.594	14355
892.717	14385
892.839	14187
892.962	14469
893.085	14396
893.207	14358
893.33	14282
893.452	14244
893.575	14404
893.697	14438
893.819	14530
893.941	14587
894.064	14473
894.186	14286
894.308	14336
894.43	14461
894.552	14636
894.674	14606
894.796	14259
894.918	14396
895.04	14385
895.161	14533
895.283	14393
895.405	14412
895.526	14412
895.648	14492
895.769	14587
895.891	14560
896.012	14636
896.134	14655
896.255	14537
896.376	14526
896.498	14602
896.619	14503
896.74	14564
896.861	14689
896.982	14906
897.103	15070
897.224	14823
897.345	14689
897.466	14674
897.587	14754
897.708	14906
897.828	14872
897.949	14746
898.07	14735
898.19	14880
898.311	14994
898.431	14800
898.552	14914
898.672	14921
898.792	14941
898.913	14979
899.033	14823
899.153	14792
899.273	14613
899.393	14674
899.513	14708
899.633	14758
899.753	14746
899.873	14735
899.993	14708
900.113	14670
900.232	14800
900.352	14610
900.472	14731
900.591	14545
900.711	14636
900.83	14583
900.95	14746
901.069	14655
901.189	14492
901.308	14294
901.427	14301
901.546	14229
901.665	14275
901.784	14317
901.904	14161
902.023	14020
902.141	13883
902.26	13875
902.379	14035
902.498	13871
902.617	13765
902.735	13887
902.854	13890
902.973	13833
903.091	13594
903.21	13575
903.328	13464
903.446	13445
903.565	13388
903.683	13559
903.801	13365
903.919	13320
904.038	13434
904.156	13137
904.274	13339
904.392	13133
904.51	13145
904.627	13266
904.745	13266
904.863	13289
904.981	12958
905.098	12829
905.216	12867
905.334	12924
905.451	12894
905.569	12966
905.686	12924
905.803	12878
905.921	12635
906.038	12772
906.155	12722
906.272	12665
906.389	12616
906.506	12456
906.623	12483
906.74	12429
906.857	12365
906.974	12464
907.091	12540
907.208	12585
907.324	12513
907.441	12388
907.557	12254
907.674	12266
907.79	12205
907.907	12117
908.023	12205
908.139	12270
908.256	12235
908.372	12155
908.488	12144
908.604	11946
908.72	11961
908.836	12049
908.952	12022
909.068	11954
909.184	12095
909.3	12022
909.415	12087
909.531	11973
909.647	11832
909.762	11760
909.878	11729
909.993	11760
910.108	11676
910.224	11703
910.339	11805
910.454	11668
910.57	11627
910.685	11573
910.8	11756
910.915	11790
911.03	11653
911.145	11490
911.259	11486
911.374	11440
911.489	11440
911.604	11406
911.718	11250
911.833	11151
911.947	11029
912.062	10938
912.176	11185
912.291	11197
912.405	11223
912.519	11379
912.633	11383
912.748	11242
912.862	11204
912.976	11086
913.09	10946
913.204	10919
913.318	11056
913.431	11201
913.545	11193
913.659	11246
913.772	11136
913.886	10908
914	10923
914.113	11060
914.226	11052
914.34	11136
914.453	10847
914.566	10953
914.68	10896
914.793	10869
914.906	10672
915.019	10687
915.132	10679
915.245	10622
915.358	10656
915.47	10748
915.583	10683
915.696	10694
915.809	10790
915.921	10877
916.034	10717
916.146	10622
916.259	10618
916.371	10774
916.483	10649
916.595	10569
916.708	10622
916.82	10630
916.932	10599
917.044	10630
917.156	10573
917.268	10535
917.38	10535
917.491	10466
917.603	10519
917.715	10550
917.826	10664
917.938	10561
918.049	10356
918.161	10592
918.272	10664
918.384	10675
918.495	10474
918.606	10421
918.717	10379
918.828	10409
918.939	10382
919.05	10325
919.161	10360
919.272	10211
919.383	10238
919.494	10451
919.604	10634
919.715	10367
919.826	10318
919.936	10386
920.047	10531
920.157	10367
920.267	10588
920.378	10405
920.488	10413
920.598	10531
920.708	10717
920.818	10550
920.928	10577
921.038	10736
921.148	10752
921.258	10504
921.368	10466
921.477	10223
921.587	10223
921.697	10109
921.806	10363
921.916	10173
922.025	10006
922.134	9911
922.244	9873
922.353	9922
922.462	9869
922.571	9785
922.68	9675
922.789	9660
922.898	9709
923.007	9603
923.116	9701
923.224	9622
923.333	9603
923.442	9591
923.55	9507
923.659	9496
923.767	9492
923.876	9454
923.984	9572
924.092	9481
924.201	9545
924.309	9519
924.417	9542
924.525	9420
924.633	9511
924.741	10398
924.849	9363
924.956	9500
925.064	9253
925.172	9241
925.279	9188
925.387	9275
925.494	9321
925.602	9424
925.709	9329
925.816	9188
925.924	9233
926.031	9344
926.138	9272
926.245	9287
926.352	9313
926.459	9355
926.566	9340
926.673	9275
926.779	9173
926.886	9165
926.993	9001
927.099	9017
927.206	8944
927.312	8960
927.419	9070
927.525	9020
927.631	9039
927.737	8956
927.843	8925
927.95	8815
928.056	8891
928.162	8918
928.267	8960
928.373	9496
928.479	8937
928.585	8758
928.69	8853
928.796	8994
928.901	8830
929.007	8712
929.112	8880
929.218	8819
929.323	8697
929.428	8617
929.533	8815
929.638	8708
929.743	8762
929.848	8773
929.953	8785
930.058	8625
930.163	8431
930.267	8473
930.372	8533
930.477	8465
930.581	8758
930.685	8594
930.79	8415
930.894	8457
930.998	8427
931.103	8541
931.207	8259
931.311	8084
931.415	8096
931.519	7890
931.623	7944
