Data from test_V78500241_2820.txt Node
Date: Fri Mar 25 14:53:21 CST 2022
User: usil
Spectrometer: V785-0024
Trigger mode: 0
Integration Time (sec): 4.000000E-1
Scans to average: 1
Nonlinearity correction enabled: false
Boxcar width: 0
Storing dark spectrum: false
XAxis mode: Wavelengths
Number of Pixels in Spectrum: 1024
>>>>>Begin Spectral Data<<<<<
801.071	22128
801.214	21918
801.356	21739
801.499	21633
801.641	21458
801.783	21447
801.926	21450
802.068	21405
802.211	21237
802.353	21195
802.496	20963
802.638	20796
802.78	21043
802.923	20823
803.065	20629
803.208	20720
803.35	20754
803.492	20960
803.635	20845
803.777	20800
803.919	20952
804.061	21096
804.204	20853
804.346	20640
804.488	20720
804.63	20678
804.773	20678
804.915	20651
805.057	20765
805.199	20674
805.341	20613
805.483	20857
805.626	20697
805.768	20583
805.91	20667
806.052	20716
806.194	20621
806.336	20758
806.478	20648
806.62	20746
806.762	20674
806.904	20876
807.046	21085
807.188	20975
807.33	21028
807.472	20910
807.614	20937
807.756	20826
807.898	20807
808.04	20640
808.182	20727
808.324	20842
808.465	20796
808.607	20872
808.749	21001
808.891	21108
809.033	21291
809.174	21085
809.316	20853
809.458	21116
809.6	20979
809.741	21081
809.883	21062
810.025	21275
810.166	21112
810.308	21230
810.45	21032
810.591	21047
810.733	20872
810.875	20727
811.016	20758
811.158	20609
811.299	20849
811.441	20941
811.582	20998
811.724	20773
811.865	20697
812.007	20773
812.148	20792
812.29	20800
812.431	20914
812.573	21070
812.714	21245
812.855	21306
812.997	21397
813.138	21511
813.279	21393
813.421	21306
813.562	21150
813.703	21135
813.845	20887
813.986	20727
814.127	20587
814.268	20408
814.41	20461
814.551	20396
814.692	20381
814.833	20237
814.974	20339
815.115	20313
815.256	20195
815.397	20183
815.539	20214
815.68	20073
815.821	20008
815.962	20016
816.103	20016
816.244	19841
816.385	19871
816.526	19765
816.666	19578
816.807	19460
816.948	19483
817.089	19723
817.23	19529
817.371	19548
817.512	19400
817.653	19518
817.793	19438
817.934	19556
818.075	19426
818.216	19449
818.356	19407
818.497	19225
818.638	19221
818.778	19244
818.919	19091
819.06	19221
819.2	19255
819.341	19392
819.481	19384
819.622	19419
819.762	19651
819.903	19677
820.043	19441
820.184	19407
820.324	19506
820.465	19495
820.605	19487
820.746	19369
820.886	19270
821.026	19495
821.167	19175
821.307	19457
821.447	19308
821.588	19160
821.728	19183
821.868	19137
822.008	18802
822.149	18863
822.289	18844
822.429	18544
822.569	18608
822.709	18498
822.849	18342
822.99	18281
823.13	18273
823.27	18350
823.41	18201
823.55	18049
823.69	18224
823.83	18182
823.97	18022
824.11	17832
824.25	17832
824.389	18053
824.529	17939
824.669	17863
824.809	18079
824.949	18022
825.089	18034
825.228	17897
825.368	17676
825.508	17741
825.648	17703
825.787	17817
825.927	17764
826.067	17585
826.206	17642
826.346	17623
826.485	17729
826.625	17604
826.765	17847
826.904	17786
827.044	17562
827.183	17505
827.323	17516
827.462	17452
827.601	17376
827.741	17334
827.88	17349
828.02	17299
828.159	17254
828.298	17395
828.437	17535
828.577	17299
828.716	17562
828.855	17368
828.994	17246
829.134	17143
829.273	17117
829.412	17086
829.551	17086
829.69	17193
829.829	17102
829.968	17204
830.107	17056
830.246	17155
830.385	17052
830.524	17003
830.663	16858
830.802	16881
830.941	16771
831.08	16767
831.219	16793
831.357	16854
831.496	16987
831.635	16782
831.774	16687
831.913	16698
832.051	16546
832.19	16554
832.329	16432
832.467	16531
832.606	16371
832.744	16394
832.883	16447
833.022	16421
833.16	16504
833.299	16436
833.437	16447
833.576	16489
833.714	16493
833.852	16443
833.991	16607
834.129	16634
834.267	16497
834.406	16508
834.544	16451
834.682	16493
834.821	16421
834.959	16599
835.097	16546
835.235	16596
835.373	16573
835.511	16512
835.65	16409
835.788	16440
835.926	16405
836.064	16177
836.202	16284
836.34	16493
836.478	16588
836.615	16417
836.753	16466
836.891	16478
837.029	16504
837.167	16295
837.305	16276
837.443	16215
837.58	16314
837.718	16284
837.856	16314
837.993	16299
838.131	16257
838.269	16223
838.406	16329
838.544	16112
838.681	16010
838.819	15964
838.956	15816
839.094	15804
839.231	15987
839.369	16002
839.506	16272
839.643	16032
839.781	15842
839.918	15743
840.055	15861
840.193	15884
840.33	15781
840.467	15823
840.604	15903
840.742	16143
840.879	15747
841.016	15797
841.153	15793
841.29	15945
841.427	15895
841.564	15823
841.701	15838
841.838	15705
841.975	15781
842.112	15641
842.249	15797
842.385	15644
842.522	15770
842.659	15656
842.796	15633
842.933	15641
843.069	15606
843.206	15667
843.343	15717
843.479	15576
843.616	15747
843.752	15412
843.889	15393
844.025	15549
844.162	15351
844.298	15450
844.435	15393
844.571	15401
844.708	15420
844.844	15580
844.98	15538
845.117	15629
845.253	15355
845.389	15336
845.525	15294
845.661	15279
845.798	15275
845.934	15230
846.07	15264
846.206	15313
846.342	15321
846.478	15249
846.614	15013
846.75	14941
846.886	15001
847.022	14982
847.158	15070
847.294	15005
847.429	15081
847.565	15036
847.701	15275
847.837	14701
847.972	14705
848.108	14872
848.244	14842
848.379	14705
848.515	14621
848.65	14594
848.786	14629
848.921	14689
849.057	14693
849.192	14682
849.328	14476
849.463	14644
849.598	14594
849.734	14522
849.869	14469
850.004	14347
850.14	14408
850.275	14336
850.41	14336
850.545	14267
850.68	14370
850.815	14396
850.95	14412
851.085	14480
851.22	14568
851.355	14461
851.49	14393
851.625	14347
851.76	14339
851.895	14248
852.03	14214
852.165	14301
852.299	14339
852.434	14469
852.569	14362
852.703	14412
852.838	14526
852.973	14495
853.107	14499
853.242	14408
853.376	14214
853.511	14008
853.645	14221
853.78	14263
853.914	14286
854.048	14145
854.183	14202
854.317	14221
854.451	14415
854.585	14263
854.72	14240
854.854	14259
854.988	14145
855.122	14271
855.256	14088
855.39	14282
855.524	14362
855.658	14298
855.792	14290
855.926	14320
856.06	14362
856.194	14278
856.327	14263
856.461	14164
856.595	14191
856.729	14206
856.862	14351
856.996	14347
857.13	14347
857.263	14324
857.397	14275
857.53	14195
857.664	14271
857.797	14343
857.931	14282
858.064	14305
858.197	14328
858.331	14187
858.464	14183
858.597	14145
858.731	14237
858.864	14229
858.997	14183
859.13	14214
859.263	14324
859.396	14355
859.529	14267
859.662	14187
859.795	14142
859.928	14221
860.061	14415
860.194	14347
860.327	14240
860.46	14275
860.592	14298
860.725	14370
860.858	14408
860.99	14176
861.123	14103
861.256	14084
861.388	14214
861.521	14887
861.653	14130
861.786	14100
861.918	14035
862.05	14161
862.183	14199
862.315	14191
862.447	14328
862.58	14214
862.712	14065
862.844	14012
862.976	14039
863.108	14065
863.24	14530
863.372	13944
863.504	13997
863.636	14005
863.768	14142
863.9	13959
864.032	14001
864.164	13871
864.296	14115
864.428	14100
864.559	14195
864.691	14130
864.823	14142
864.954	13932
865.086	14096
865.217	13982
865.349	13833
865.48	14069
865.612	14035
865.743	14180
865.875	13875
866.006	14069
866.137	13864
866.269	13928
866.4	14016
866.531	14024
866.662	13868
866.793	14012
866.924	13928
867.055	14035
867.186	13947
867.317	13970
867.448	13902
867.579	14020
867.71	13890
867.841	13921
867.972	14039
868.103	14027
868.233	14058
868.364	14027
868.495	14123
868.625	14351
868.756	14305
868.886	14126
869.017	14282
869.147	14404
869.278	14305
869.408	14301
869.539	14374
869.669	14332
869.799	14377
869.929	14328
870.06	14389
870.19	14621
870.32	14549
870.45	14606
870.58	14621
870.71	14720
870.84	14842
870.97	14644
871.1	14613
871.23	14815
871.36	14845
871.489	14708
871.619	14781
871.749	14891
871.879	14914
872.008	14895
872.138	14902
872.267	14853
872.397	14727
872.526	14686
872.656	14549
872.785	14705
872.915	14777
873.044	15036
873.173	14872
873.303	14902
873.432	14902
873.561	14967
873.69	14872
873.819	14891
873.948	14990
874.077	14975
874.206	14918
874.335	14902
874.464	15013
874.593	15218
874.722	15055
874.851	15188
874.979	15131
875.108	15264
875.237	15123
875.365	15184
875.494	15146
875.623	15252
875.751	15256
875.88	15207
876.008	15313
876.136	15412
876.265	15633
876.393	15633
876.521	15732
876.65	15785
876.778	15663
876.906	15682
877.034	15542
877.162	15561
877.29	15496
877.418	15618
877.546	15618
877.674	15625
877.802	15606
877.93	15663
878.058	15675
878.185	15553
878.313	15580
878.441	15625
878.568	15515
878.696	15675
878.824	15576
878.951	15637
879.079	15774
879.206	15937
879.333	15884
879.461	15614
879.588	15816
879.715	15785
879.842	15819
879.97	15724
880.097	15348
880.224	15443
880.351	15462
880.478	15504
880.605	15435
880.732	15515
880.859	15686
880.986	15504
881.112	15488
881.239	15382
881.366	15218
881.493	15188
881.619	15112
881.746	15116
881.872	15207
881.999	15039
882.125	15047
882.252	15203
882.378	15150
882.505	15329
882.631	15077
882.757	14876
882.883	14956
883.01	14895
883.136	14891
883.262	14819
883.388	14861
883.514	14963
883.64	15009
883.766	14876
883.892	14769
884.018	14826
884.143	14960
884.269	15089
884.395	14811
884.52	14598
884.646	14610
884.772	14541
884.897	14625
885.023	14575
885.148	14708
885.274	14819
885.399	14804
885.524	14625
885.65	14674
885.775	14670
885.9	14640
886.025	14758
886.15	14682
886.275	14625
886.4	14568
886.525	14697
886.65	14648
886.775	14625
886.9	14804
887.025	14921
887.149	14594
887.274	14457
887.399	14370
887.523	14434
887.648	14396
887.773	14370
887.897	14552
888.021	14583
888.146	14480
888.27	14571
888.395	14632
888.519	14495
888.643	14594
888.767	14533
888.891	14415
889.015	14305
889.139	14473
889.263	14358
889.387	14446
889.511	14545
889.635	14492
889.759	14355
889.883	14385
890.006	14370
890.13	14541
890.254	14240
890.377	14305
890.501	14180
890.624	14183
890.748	14229
890.871	14142
890.995	14050
891.118	14001
891.241	14027
891.364	14084
891.488	14149
891.611	14001
891.734	14111
891.857	14062
891.98	14050
892.103	14103
892.226	14081
892.349	14024
892.471	13940
892.594	13989
892.717	14130
892.839	13982
892.962	14050
893.085	14100
893.207	14043
893.33	13989
893.452	14077
893.575	14111
893.697	14088
893.819	14229
893.941	14275
894.064	14187
894.186	14081
894.308	14005
894.43	14161
894.552	14275
894.674	14161
894.796	13925
894.918	14111
895.04	14107
895.161	14206
895.283	14176
895.405	14092
895.526	14267
895.648	14157
895.769	14271
895.891	14278
896.012	14305
896.134	14225
896.255	14119
896.376	14142
896.498	14195
896.619	14199
896.74	14180
896.861	14263
896.982	14560
897.103	14659
897.224	14526
897.345	14465
897.466	14476
897.587	14511
897.708	14598
897.828	14617
897.949	14415
898.07	14423
898.19	14419
898.311	14655
898.431	14537
898.552	14537
898.672	14602
898.792	14670
898.913	14568
899.033	14522
899.153	14389
899.273	14393
899.393	14313
899.513	14484
899.633	14423
899.753	14488
899.873	14320
899.993	14396
900.113	14450
900.232	14476
900.352	14381
900.472	14286
900.591	14225
900.711	14374
900.83	14218
900.95	14351
901.069	14408
901.189	14176
901.308	14024
901.427	13989
901.546	13955
901.665	13978
901.784	14043
901.904	13871
902.023	13738
902.141	13586
902.26	13556
902.379	13624
902.498	13491
902.617	13499
902.735	13616
902.854	13491
902.973	13499
903.091	13304
903.21	13266
903.328	13350
903.446	13240
903.565	13069
903.683	13110
903.801	13084
903.919	13118
904.038	13194
904.156	12882
904.274	12951
904.392	12886
904.51	12867
904.627	12943
904.745	12973
904.863	12943
904.981	12802
905.098	12627
905.216	12597
905.334	12574
905.451	12642
905.569	12715
905.686	12692
905.803	12627
905.921	12429
906.038	12585
906.155	12433
906.272	12300
906.389	12395
906.506	12152
906.623	12273
906.74	12194
906.857	12129
906.974	12144
907.091	12285
907.208	12365
907.324	12235
907.441	12140
907.557	11942
907.674	11958
907.79	11847
907.907	11939
908.023	12026
908.139	11927
908.256	11817
908.372	11889
908.488	11836
908.604	11783
908.72	11657
908.836	11779
908.952	11680
909.068	11783
909.184	11794
909.3	11703
909.415	11722
909.531	11794
909.647	11452
909.762	11543
909.878	11410
909.993	11589
910.108	11410
910.224	11478
910.339	11360
910.454	11425
910.57	11387
910.685	11242
910.8	11577
910.915	11452
911.03	11406
911.145	11242
911.259	11147
911.374	11181
911.489	11147
911.604	11090
911.718	10934
911.833	10953
911.947	10843
912.062	10850
912.176	10923
912.291	10976
912.405	10980
912.519	11151
912.633	11140
912.748	10995
912.862	10873
912.976	10816
913.09	10698
913.204	10850
913.318	10900
913.431	10949
913.545	10919
913.659	10908
913.772	10915
913.886	10786
914	10717
914.113	10763
914.226	10854
914.34	10752
914.453	10653
914.566	10809
914.68	10637
914.793	10645
914.906	10516
915.019	10375
915.132	10261
915.245	10390
915.358	10481
915.47	10436
915.583	10508
915.696	10519
915.809	10538
915.921	10626
916.034	10409
916.146	10413
916.259	10398
916.371	10504
916.483	10462
916.595	10398
916.708	10428
916.82	10462
916.932	10390
917.044	10371
917.156	10466
917.268	10249
917.38	10268
917.491	10204
917.603	10299
917.715	10352
917.826	10379
917.938	10310
918.049	10158
918.161	10356
918.272	10421
918.384	10413
918.495	10333
918.606	10139
918.717	10112
918.828	10200
918.939	10105
919.05	10086
919.161	10139
919.272	9953
919.383	10021
919.494	10238
919.604	10318
919.715	10162
919.826	10116
919.936	10120
920.047	10177
920.157	10227
920.267	10299
920.378	10249
920.488	10188
920.598	10318
920.708	10493
920.818	10371
920.928	10367
921.038	10538
921.148	10573
921.258	10219
921.368	10082
921.477	10112
921.587	10074
921.697	9888
921.806	10074
921.916	9953
922.025	9743
922.134	9724
922.244	9751
922.353	9766
922.462	9625
922.571	9595
922.68	9401
922.789	9393
922.898	9435
923.007	9363
923.116	9469
923.224	9420
923.333	9439
923.442	9302
923.55	9302
923.659	9294
923.767	9435
923.876	9294
923.984	9363
924.092	9192
924.201	9329
924.309	9336
924.417	9355
924.525	9211
924.633	9264
924.741	10078
924.849	9100
924.956	9199
925.064	8979
925.172	9017
925.279	9051
925.387	9108
925.494	9116
925.602	9245
925.709	9150
925.816	9020
925.924	9089
926.031	9150
926.138	9146
926.245	9154
926.352	8967
926.459	9146
926.566	9192
926.673	9100
926.779	8982
926.886	8998
926.993	8838
927.099	8743
927.206	8739
927.312	8800
927.419	8823
927.525	8811
927.631	8823
927.737	8792
927.843	8777
927.95	8602
928.056	8735
928.162	8708
928.267	8800
928.373	9272
928.479	8758
928.585	8571
928.69	8693
928.796	8708
928.901	8644
929.007	8473
929.112	8621
929.218	8526
929.323	8564
929.428	8530
929.533	8632
929.638	8507
929.743	8499
929.848	8613
929.953	8438
930.058	8423
930.163	8301
930.267	8252
930.372	8396
930.477	8248
930.581	8533
930.685	8351
930.79	8191
930.894	8256
930.998	8210
931.103	8396
931.207	8039
931.311	7940
931.415	7944
931.519	7795
931.623	7738
