Data from test_V78500241_939.txt Node
Date: Fri Mar 25 14:40:15 CST 2022
User: usil
Spectrometer: V785-0024
Trigger mode: 0
Integration Time (sec): 4.000000E-1
Scans to average: 1
Nonlinearity correction enabled: false
Boxcar width: 0
Storing dark spectrum: false
XAxis mode: Wavelengths
Number of Pixels in Spectrum: 1024
>>>>>Begin Spectral Data<<<<<
801.071	24357
801.214	24186
801.356	24026
801.499	23980
801.641	23843
801.783	23653
801.926	23649
802.068	23570
802.211	23577
802.353	23547
802.496	23242
802.638	23242
802.78	23242
802.923	23143
803.065	23025
803.208	23166
803.35	23094
803.492	23166
803.635	23105
803.777	23041
803.919	23155
804.061	23459
804.204	23204
804.346	23086
804.488	22854
804.63	23037
804.773	22919
804.915	22965
805.057	23056
805.199	22946
805.341	23071
805.483	23124
805.626	23056
805.768	22968
805.91	23143
806.052	23128
806.194	23151
806.336	23444
806.478	23242
806.62	23121
806.762	23406
806.904	23471
807.046	23714
807.188	23627
807.33	23714
807.472	23878
807.614	23863
807.756	24038
807.898	23958
808.04	24129
808.182	24330
808.324	24589
808.465	25057
808.607	25377
808.749	26096
808.891	26206
809.033	26145
809.174	25928
809.316	25518
809.458	25194
809.6	24776
809.741	24635
809.883	24429
810.025	24327
810.166	24365
810.308	24041
810.45	23950
810.591	23901
810.733	23775
810.875	23596
811.016	23463
811.158	23429
811.299	23478
811.441	23619
811.582	23710
811.724	23356
811.865	23391
812.007	23353
812.148	23429
812.29	23410
812.431	23627
812.573	23592
812.714	23707
812.855	23874
812.997	23878
813.138	23992
813.279	23817
813.421	23729
813.562	23737
813.703	23554
813.845	23611
813.986	23181
814.127	22957
814.268	23018
814.41	22782
814.551	22831
814.692	22949
814.833	22847
814.974	22904
815.115	22850
815.256	22698
815.397	22672
815.539	22706
815.68	22641
815.821	22443
815.962	22554
816.103	22554
816.244	22352
816.385	22390
816.526	22219
816.666	22200
816.807	22010
816.948	22116
817.089	22029
817.23	22029
817.371	22017
817.512	21964
817.653	21774
817.793	21842
817.934	21956
818.075	22002
818.216	21884
818.356	21975
818.497	21880
818.638	21595
818.778	21675
818.919	21667
819.06	21736
819.2	21709
819.341	21747
819.481	21770
819.622	21983
819.762	22131
819.903	21960
820.043	21949
820.184	21850
820.324	21766
820.465	22055
820.605	21895
820.746	21915
820.886	21793
821.026	21861
821.167	21907
821.307	21861
821.447	21808
821.588	21686
821.728	21713
821.868	21405
822.008	21336
822.149	21351
822.289	21108
822.429	21066
822.569	20986
822.709	20937
822.849	20769
822.99	20743
823.13	20735
823.27	20674
823.41	20480
823.55	20476
823.69	20549
823.83	20571
823.97	20571
824.11	20252
824.25	20183
824.389	20320
824.529	20381
824.669	20240
824.809	20404
824.949	20431
825.089	20419
825.228	20434
825.368	19970
825.508	20309
825.648	20157
825.787	20206
825.927	20084
826.067	20031
826.206	20088
826.346	20157
826.485	20130
826.625	20100
826.765	20119
826.904	20027
827.044	19852
827.183	19791
827.323	19845
827.462	19887
827.601	19902
827.741	19864
827.88	19734
828.02	19624
828.159	19734
828.298	19837
828.437	19791
828.577	19681
828.716	19856
828.855	19727
828.994	19506
829.134	19578
829.273	19487
829.412	19377
829.551	19480
829.69	19441
829.829	19537
829.968	19514
830.107	19533
830.246	19578
830.385	19403
830.524	19453
830.663	19430
830.802	19274
830.941	19145
831.08	19057
831.219	19198
831.357	19168
831.496	19297
831.635	19084
831.774	19080
831.913	19027
832.051	18913
832.19	18897
832.329	19023
832.467	18802
832.606	18772
832.744	18711
832.883	18749
833.022	18935
833.16	18783
833.299	18833
833.437	18882
833.576	18852
833.714	18882
833.852	18859
833.991	19053
834.129	19050
834.267	18932
834.406	18924
834.544	18954
834.682	18966
834.821	18871
834.959	19114
835.097	18916
835.235	18798
835.373	18871
835.511	18795
835.65	18734
835.788	18654
835.926	18620
836.064	18471
836.202	18544
836.34	18749
836.478	18848
836.615	18726
836.753	18669
836.891	18768
837.029	18688
837.167	18547
837.305	18547
837.443	18498
837.58	18513
837.718	18646
837.856	18597
837.993	18547
838.131	18559
838.269	18407
838.406	18426
838.544	18403
838.681	18209
838.819	18178
838.956	18045
839.094	18022
839.231	18194
839.369	18140
839.506	18422
839.643	18311
839.781	18022
839.918	17908
840.055	18117
840.193	17950
840.33	17946
840.467	18034
840.604	17988
840.742	18178
840.879	17874
841.016	17916
841.153	17821
841.29	18114
841.427	18087
841.564	18144
841.701	18026
841.838	17882
841.975	17847
842.112	17889
842.249	17813
842.385	17779
842.522	17901
842.659	17783
842.796	17638
842.933	17779
843.069	17752
843.206	17760
843.343	17901
843.479	17783
843.616	17821
843.752	17486
843.889	17592
844.025	17710
844.162	17547
844.298	17687
844.435	17497
844.571	17551
844.708	17604
844.844	17805
844.98	17737
845.117	17863
845.253	17802
845.389	17939
845.525	18311
845.661	18935
845.798	19559
845.934	20324
846.07	20415
846.206	20495
846.342	20084
846.478	19152
846.614	18357
846.75	17756
846.886	17402
847.022	17501
847.158	17284
847.294	17159
847.429	17166
847.565	17079
847.701	17391
847.837	16812
847.972	16824
848.108	16927
848.244	16915
848.379	16675
848.515	16641
848.65	16736
848.786	16740
848.921	16618
849.057	16778
849.192	16656
849.328	16736
849.463	16683
849.598	16554
849.734	16478
849.869	16603
850.004	16375
850.14	16462
850.275	16402
850.41	16379
850.545	16447
850.68	16333
850.815	16424
850.95	16318
851.085	16538
851.22	16432
851.355	16318
851.49	16310
851.625	16322
851.76	16272
851.895	16223
852.03	16246
852.165	16440
852.299	16462
852.434	16466
852.569	16390
852.703	16394
852.838	16485
852.973	16523
853.107	16596
853.242	16356
853.376	16322
853.511	16158
853.645	16280
853.78	16394
853.914	16303
854.048	16261
854.183	16211
854.317	16242
854.451	16493
854.585	16280
854.72	16272
854.854	16344
854.988	16158
855.122	16154
855.256	16029
855.39	16215
855.524	16375
855.658	16284
855.792	16204
855.926	16295
856.06	16238
856.194	16337
856.327	16215
856.461	16105
856.595	16105
856.729	16150
856.862	16348
856.996	16211
857.13	16291
857.263	16390
857.397	16280
857.53	16109
857.664	16314
857.797	16295
857.931	16299
858.064	16147
858.197	16268
858.331	16177
858.464	16177
858.597	16162
858.731	16177
858.864	16090
858.997	16219
859.13	16215
859.263	16090
859.396	16325
859.529	16223
859.662	16063
859.795	16105
859.928	16181
860.061	16253
860.194	16398
860.327	16192
860.46	16211
860.592	16322
860.725	16299
860.858	16147
860.99	16158
861.123	16135
861.256	16074
861.388	16257
861.521	16733
861.653	16139
861.786	16105
861.918	16185
862.05	16173
862.183	16120
862.315	16116
862.447	16150
862.58	16124
862.712	15968
862.844	16010
862.976	15998
863.108	16032
863.24	16379
863.372	15823
863.504	15895
863.636	15873
863.768	16055
863.9	15926
864.032	15888
864.164	15911
864.296	15960
864.428	15972
864.559	16006
864.691	16002
864.823	15998
864.954	15934
865.086	15975
865.217	15899
865.349	15838
865.48	15884
865.612	15850
865.743	16055
865.875	15930
866.006	15850
866.137	15857
866.269	15884
866.4	15918
866.531	15850
866.662	15762
866.793	15766
866.924	15804
867.055	15865
867.186	15884
867.317	15781
867.448	15800
867.579	15797
867.71	15823
867.841	15778
867.972	15911
868.103	15739
868.233	15842
868.364	15842
868.495	15907
868.625	16162
868.756	16143
868.886	15956
869.017	16109
869.147	16200
869.278	16147
869.408	16207
869.539	16017
869.669	16185
869.799	16131
869.929	16310
870.06	16280
870.19	16375
870.32	16371
870.45	16344
870.58	16474
870.71	16607
870.84	16645
870.97	16470
871.1	16451
871.23	16733
871.36	16599
871.489	16668
871.619	16668
871.749	16607
871.879	16675
872.008	16664
872.138	16691
872.267	16675
872.397	16561
872.526	16569
872.656	16558
872.785	16508
872.915	16687
873.044	16847
873.173	16710
873.303	16744
873.432	16824
873.561	16938
873.69	16797
873.819	16774
873.948	16896
874.077	16854
874.206	16797
874.335	16835
874.464	16976
874.593	17010
874.722	17006
874.851	17121
874.979	17094
875.108	17132
875.237	17033
875.365	17060
875.494	17075
875.623	17193
875.751	17200
875.88	17105
876.008	17284
876.136	17379
876.265	17516
876.393	17630
876.521	17611
876.65	17558
876.778	17516
876.906	17459
877.034	17372
877.162	17600
877.29	17493
877.418	17608
877.546	17509
877.674	17608
877.802	17665
877.93	17577
878.058	17623
878.185	17490
878.313	17699
878.441	17779
878.568	17539
878.696	17627
878.824	17927
878.951	18057
879.079	18407
879.206	18665
879.333	18821
879.461	19031
879.588	19110
879.715	19213
879.842	19183
879.97	18791
880.097	18350
880.224	18121
880.351	18136
880.478	17988
880.605	17783
880.732	17729
880.859	17889
880.986	17767
881.112	17771
881.239	17608
881.366	17474
881.493	17402
881.619	17334
881.746	17414
881.872	17353
881.999	17326
882.125	17376
882.252	17383
882.378	17535
882.505	17535
882.631	17265
882.757	17261
882.883	17143
883.01	17330
883.136	17200
883.262	17162
883.388	17079
883.514	17261
883.64	17296
883.766	17109
883.892	17067
884.018	17033
884.143	16999
884.269	17345
884.395	16938
884.52	16801
884.646	16805
884.772	16847
884.897	16850
885.023	16820
885.148	16953
885.274	17033
885.399	16889
885.524	16869
885.65	16862
885.775	16873
885.9	16786
886.025	16923
886.15	16889
886.275	16797
886.4	16698
886.525	16622
886.65	16683
886.775	16713
886.9	16691
887.025	16850
887.149	16679
887.274	16538
887.399	16481
887.523	16447
887.648	16440
887.773	16459
887.897	16500
888.021	16523
888.146	16379
888.27	16538
888.395	16474
888.519	16500
888.643	16363
888.767	16470
888.891	16284
889.015	16166
889.139	16341
889.263	16150
889.387	16215
889.511	16390
889.635	16360
889.759	16074
889.883	16093
890.006	16242
890.13	16318
890.254	16063
890.377	16131
890.501	15964
890.624	16044
890.748	15979
890.871	15854
890.995	15781
891.118	15770
891.241	15793
891.364	15994
891.488	15888
891.611	15743
891.734	15774
891.857	15804
891.98	15804
892.103	15835
892.226	15846
892.349	15778
892.471	15667
892.594	15770
892.717	15797
892.839	15766
892.962	15781
893.085	15827
893.207	15778
893.33	15629
893.452	15622
893.575	15865
893.697	15694
893.819	15956
893.941	15968
894.064	15907
894.186	15717
894.308	15717
894.43	15930
894.552	15979
894.674	15797
894.796	15694
894.918	15762
895.04	15701
895.161	15850
895.283	15831
895.405	15679
895.526	15743
895.648	15823
895.769	15895
895.891	15915
896.012	15937
896.134	15983
896.255	15751
896.376	15808
896.498	15804
896.619	15895
896.74	15907
896.861	15953
896.982	16322
897.103	16253
897.224	16177
897.345	16109
897.466	16112
897.587	16090
897.708	16257
897.828	16128
897.949	16166
898.07	16017
898.19	16101
898.311	16284
898.431	16071
898.552	16207
898.672	16325
898.792	16280
898.913	16211
899.033	16177
899.153	16044
899.273	15880
899.393	15934
899.513	15941
899.633	16097
899.753	16025
899.873	15979
899.993	16051
900.113	16025
900.232	16086
900.352	16006
900.472	15964
900.591	15884
900.711	15907
900.83	15808
900.95	15972
901.069	15979
901.189	15918
901.308	15606
901.427	15511
901.546	15473
901.665	15622
901.784	15553
901.904	15477
902.023	15351
902.141	15108
902.26	15093
902.379	15150
902.498	15009
902.617	15009
902.735	15142
902.854	15081
902.973	14937
903.091	14720
903.21	14743
903.328	14735
903.446	14743
903.565	14598
903.683	14552
903.801	14526
903.919	14590
904.038	14495
904.156	14442
904.274	14415
904.392	14317
904.51	14259
904.627	14412
904.745	14461
904.863	14358
904.981	14199
905.098	14081
905.216	14031
905.334	14100
905.451	14043
905.569	14043
905.686	14020
905.803	13959
905.921	13833
906.038	13902
906.155	13879
906.272	13712
906.389	13666
906.506	13559
906.623	13666
906.74	13651
906.857	13502
906.974	13449
907.091	13628
907.208	13708
907.324	13632
907.441	13491
907.557	13331
907.674	13343
907.79	13274
907.907	13362
908.023	13335
908.139	13316
908.256	13282
908.372	13259
908.488	13240
908.604	13149
908.72	13061
908.836	13129
908.952	13034
909.068	13091
909.184	13149
909.3	13038
909.415	13118
909.531	13023
909.647	12814
909.762	12810
909.878	12886
909.993	12707
910.108	12711
910.224	12635
910.339	12787
910.454	12719
910.57	12601
910.685	12582
910.8	12947
910.915	12779
911.03	12662
911.145	12513
911.259	12536
911.374	12517
911.489	12426
911.604	12342
911.718	12201
911.833	12201
911.947	12159
912.062	12087
912.176	12197
912.291	12254
912.405	12205
912.519	12395
912.633	12334
912.748	12308
912.862	12258
912.976	12064
913.09	12026
913.204	12102
913.318	12060
913.431	12224
913.545	12148
913.659	12205
913.772	12060
913.886	12022
914	11923
914.113	11961
914.226	11980
914.34	11988
914.453	11824
914.566	11980
914.68	11946
914.793	11927
914.906	11760
915.019	11684
915.132	11680
915.245	11699
915.358	11638
915.47	11611
915.583	11680
915.696	11756
915.809	11786
915.921	11863
916.034	11611
916.146	11611
916.259	11627
916.371	11805
916.483	11649
916.595	11623
916.708	11581
916.82	11638
916.932	11619
917.044	11505
917.156	11581
917.268	11360
917.38	11471
917.491	11490
917.603	11509
917.715	11551
917.826	11532
917.938	11417
918.049	11330
918.161	11425
918.272	11596
918.384	11547
918.495	11455
918.606	11223
918.717	11277
918.828	11315
918.939	11296
919.05	11258
919.161	11265
919.272	11079
919.383	11258
919.494	11326
919.604	11562
919.715	11334
919.826	11159
919.936	11223
920.047	11318
920.157	11307
920.267	11501
920.378	11360
920.488	11292
920.598	11490
920.708	11608
920.818	11459
920.928	11459
921.038	11604
921.148	11589
921.258	11322
921.368	11189
921.477	11136
921.587	11147
921.697	10987
921.806	11174
921.916	11029
922.025	10858
922.134	10862
922.244	10656
922.353	10767
922.462	10717
922.571	10649
922.68	10436
922.789	10455
922.898	10535
923.007	10474
923.116	10531
923.224	10489
923.333	10500
923.442	10341
923.55	10337
923.659	10299
923.767	10493
923.876	10291
923.984	10314
924.092	10299
924.201	10325
924.309	10333
924.417	10322
924.525	10173
924.633	10280
924.741	11010
924.849	10086
924.956	10253
925.064	10154
925.172	10036
925.279	10051
925.387	10097
925.494	10040
925.602	10162
925.709	10219
925.816	9983
925.924	10021
926.031	10158
926.138	9991
926.245	10131
926.352	9953
926.459	10150
926.566	10131
926.673	10025
926.779	9876
926.886	9854
926.993	9766
927.099	9732
927.206	9682
927.312	9679
927.419	9778
927.525	9751
927.631	9778
927.737	9709
927.843	9511
927.95	9568
928.056	9622
928.162	9728
928.267	9713
928.373	10173
928.479	9751
928.585	9450
928.69	9648
928.796	9580
928.901	9549
929.007	9424
929.112	9618
929.218	9591
929.323	9507
929.428	9515
929.533	9584
929.638	9397
929.743	9351
929.848	9443
929.953	9435
930.058	9317
930.163	9154
930.267	9256
930.372	9317
930.477	9150
930.581	9367
930.685	9203
930.79	9123
930.894	9184
930.998	9062
931.103	9249
931.207	8883
931.311	8853
931.415	8849
931.519	8514
931.623	8549
