Data from test_V78500241_2219.txt Node
Date: Fri Mar 25 14:49:09 CST 2022
User: usil
Spectrometer: V785-0024
Trigger mode: 0
Integration Time (sec): 4.000000E-1
Scans to average: 1
Nonlinearity correction enabled: false
Boxcar width: 0
Storing dark spectrum: false
XAxis mode: Wavelengths
Number of Pixels in Spectrum: 1024
>>>>>Begin Spectral Data<<<<<
801.071	22207
801.214	22032
801.356	21937
801.499	21656
801.641	21629
801.783	21591
801.926	21526
802.068	21515
802.211	21439
802.353	21332
802.496	21161
802.638	21089
802.78	21089
802.923	20929
803.065	21017
803.208	20762
803.35	20998
803.492	20929
803.635	21051
803.777	20872
803.919	20872
804.061	21237
804.204	20971
804.346	20849
804.488	20651
804.63	20811
804.773	20796
804.915	20777
805.057	20941
805.199	20796
805.341	20937
805.483	20906
805.626	20887
805.768	20743
805.91	20838
806.052	20868
806.194	20667
806.336	21020
806.478	20781
806.62	20724
806.762	20857
806.904	20876
807.046	21237
807.188	21146
807.33	21085
807.472	21283
807.614	21077
807.756	20998
807.898	21047
808.04	20868
808.182	20982
808.324	20967
808.465	20941
808.607	21043
808.749	21188
808.891	21306
809.033	21431
809.174	21306
809.316	21188
809.458	21207
809.6	21058
809.741	21283
809.883	21272
810.025	21431
810.166	21325
810.308	21249
810.45	21313
810.591	21199
810.733	20971
810.875	21009
811.016	20842
811.158	20921
811.299	20994
811.441	21135
811.582	21104
811.724	20967
811.865	20899
812.007	20937
812.148	20914
812.29	20986
812.431	20975
812.573	21020
812.714	21481
812.855	21511
812.997	21576
813.138	21671
813.279	21519
813.421	21408
813.562	21321
813.703	21226
813.845	21195
813.986	20811
814.127	20667
814.268	20583
814.41	20727
814.551	20522
814.692	20648
814.833	20454
814.974	20556
815.115	20594
815.256	20339
815.397	20370
815.539	20434
815.68	20252
815.821	20301
815.962	20210
816.103	20252
816.244	20191
816.385	20031
816.526	19917
816.666	19871
816.807	19677
816.948	19803
817.089	19742
817.23	19559
817.371	19708
817.512	19658
817.653	19586
817.793	19635
817.934	19544
818.075	19727
818.216	19559
818.356	19597
818.497	19510
818.638	19278
818.778	19346
818.919	19377
819.06	19308
819.2	19365
819.341	19518
819.481	19487
819.622	19727
819.762	19811
819.903	19811
820.043	19780
820.184	19700
820.324	19605
820.465	19723
820.605	19643
820.746	19655
820.886	19434
821.026	19578
821.167	19643
821.307	19616
821.447	19544
821.588	19472
821.728	19297
821.868	19110
822.008	18993
822.149	19069
822.289	19008
822.429	18749
822.569	18612
822.709	18684
822.849	18517
822.99	18486
823.13	18490
823.27	18437
823.41	18441
823.55	18273
823.69	18414
823.83	18285
823.97	18262
824.11	18030
824.25	18079
824.389	18060
824.529	18136
824.669	18053
824.809	18152
824.949	18030
825.089	18174
825.228	18083
825.368	17931
825.508	17824
825.648	17885
825.787	17931
825.927	17980
826.067	17828
826.206	17847
826.346	17885
826.485	18003
826.625	17843
826.765	17916
826.904	17935
827.044	17672
827.183	17615
827.323	17455
827.462	17532
827.601	17505
827.741	17535
827.88	17532
828.02	17421
828.159	17520
828.298	17570
828.437	17486
828.577	17509
828.716	17623
828.855	17497
828.994	17277
829.134	17368
829.273	17296
829.412	17288
829.551	17299
829.69	17242
829.829	17345
829.968	17334
830.107	17322
830.246	17208
830.385	17254
830.524	17216
830.663	17193
830.802	17025
830.941	17052
831.08	16885
831.219	17060
831.357	16938
831.496	17140
831.635	16793
831.774	16812
831.913	16812
832.051	16744
832.19	16588
832.329	16725
832.467	16634
832.606	16535
832.744	16485
832.883	16489
833.022	16645
833.16	16603
833.299	16546
833.437	16649
833.576	16531
833.714	16645
833.852	16607
833.991	16668
834.129	16771
834.267	16812
834.406	16622
834.544	16641
834.682	16622
834.821	16584
834.959	16790
835.097	16649
835.235	16767
835.373	16630
835.511	16641
835.65	16546
835.788	16588
835.926	16394
836.064	16303
836.202	16443
836.34	16596
836.478	16577
836.615	16470
836.753	16527
836.891	16656
837.029	16497
837.167	16535
837.305	16478
837.443	16489
837.58	16466
837.718	16478
837.856	16470
837.993	16375
838.131	16363
838.269	16417
838.406	16314
838.544	16299
838.681	16101
838.819	16071
838.956	15956
839.094	16010
839.231	16074
839.369	16063
839.506	16375
839.643	16078
839.781	15911
839.918	15937
840.055	15945
840.193	15911
840.33	15838
840.467	15998
840.604	15876
840.742	16215
840.879	15789
841.016	15888
841.153	15842
841.29	15975
841.427	15937
841.564	15983
841.701	15972
841.838	15903
841.975	15778
842.112	15842
842.249	15785
842.385	15679
842.522	15888
842.659	15865
842.796	15644
842.933	15732
843.069	15633
843.206	15698
843.343	15690
843.479	15778
843.616	15743
843.752	15660
843.889	15580
844.025	15622
844.162	15542
844.298	15682
844.435	15477
844.571	15439
844.708	15595
844.844	15690
844.98	15682
845.117	15713
845.253	15500
845.389	15348
845.525	15416
845.661	15454
845.798	15393
845.934	15401
846.07	15313
846.206	15298
846.342	15515
846.478	15203
846.614	15169
846.75	15032
846.886	15009
847.022	15055
847.158	15062
847.294	15119
847.429	15150
847.565	14982
847.701	15203
847.837	14830
847.972	14731
848.108	14929
848.244	14918
848.379	14785
848.515	14678
848.65	14663
848.786	14682
848.921	14663
849.057	14788
849.192	14819
849.328	14796
849.463	14720
849.598	14632
849.734	14606
849.869	14629
850.004	14556
850.14	14446
850.275	14438
850.41	14370
850.545	14294
850.68	14442
850.815	14495
850.95	14393
851.085	14590
851.22	14613
851.355	14415
851.49	14434
851.625	14358
851.76	14381
851.895	14389
852.03	14313
852.165	14385
852.299	14526
852.434	14503
852.569	14537
852.703	14438
852.838	14594
852.973	14598
853.107	14644
853.242	14434
853.376	14328
853.511	14168
853.645	14305
853.78	14385
853.914	14393
854.048	14271
854.183	14271
854.317	14366
854.451	14457
854.585	14298
854.72	14240
854.854	14317
854.988	14142
855.122	14374
855.256	14252
855.39	14240
855.524	14377
855.658	14469
855.792	14275
855.926	14332
856.06	14355
856.194	14313
856.327	14214
856.461	14282
856.595	14199
856.729	14263
856.862	14408
856.996	14313
857.13	14457
857.263	14461
857.397	14454
857.53	14301
857.664	14393
857.797	14396
857.931	14400
858.064	14225
858.197	14343
858.331	14305
858.464	14286
858.597	14199
858.731	14263
858.864	14313
858.997	14305
859.13	14351
859.263	14271
859.396	14396
859.529	14225
859.662	14317
859.795	14320
859.928	14389
860.061	14385
860.194	14465
860.327	14366
860.46	14366
860.592	14457
860.725	14476
860.858	14393
860.99	14377
861.123	14294
861.256	14313
861.388	14313
861.521	14807
861.653	14187
861.786	14145
861.918	14164
862.05	14256
862.183	14256
862.315	14339
862.447	14332
862.58	14176
862.712	14119
862.844	14005
862.976	14180
863.108	14176
863.24	14560
863.372	13982
863.504	14119
863.636	14157
863.768	14054
863.9	14103
864.032	14035
864.164	14016
864.296	14119
864.428	14210
864.559	14210
864.691	14161
864.823	14126
864.954	14115
865.086	14119
865.217	14027
865.349	13940
865.48	14107
865.612	14088
865.743	14252
865.875	14153
866.006	14024
866.137	14008
866.269	14115
866.4	14016
866.531	14081
866.662	13989
866.793	13955
866.924	14012
867.055	14088
867.186	14244
867.317	14043
867.448	13967
867.579	14008
867.71	13997
867.841	13967
867.972	14024
868.103	14065
868.233	14145
868.364	14027
868.495	14161
868.625	14282
868.756	14408
868.886	14263
869.017	14305
869.147	14469
869.278	14488
869.408	14393
869.539	14320
869.669	14415
869.799	14404
869.929	14332
870.06	14389
870.19	14598
870.32	14625
870.45	14549
870.58	14777
870.71	14765
870.84	14857
870.97	14765
871.1	14686
871.23	14929
871.36	14887
871.489	14708
871.619	14857
871.749	14895
871.879	15013
872.008	14975
872.138	14948
872.267	14895
872.397	14769
872.526	14746
872.656	14708
872.785	14697
872.915	14944
873.044	15081
873.173	14960
873.303	14982
873.432	15047
873.561	14998
873.69	14918
873.819	14853
873.948	15150
874.077	14925
874.206	14975
874.335	14933
874.464	15104
874.593	15249
874.722	15332
874.851	15370
874.979	15298
875.108	15249
875.237	15321
875.365	15142
875.494	15272
875.623	15332
875.751	15214
875.88	15291
876.008	15511
876.136	15458
876.265	15724
876.393	15736
876.521	15812
876.65	15682
876.778	15713
876.906	15713
877.034	15679
877.162	15751
877.29	15595
877.418	15614
877.546	15641
877.674	15667
877.802	15728
877.93	15694
878.058	15713
878.185	15568
878.313	15580
878.441	15652
878.568	15519
878.696	15545
878.824	15713
878.951	15751
879.079	15888
879.206	16021
879.333	15857
879.461	15694
879.588	15789
879.715	15850
879.842	15865
879.97	15778
880.097	15416
880.224	15553
880.351	15568
880.478	15538
880.605	15523
880.732	15538
880.859	15800
880.986	15507
881.112	15580
881.239	15408
881.366	15367
881.493	15218
881.619	15211
881.746	15249
881.872	15203
881.999	15214
882.125	15089
882.252	15279
882.378	15165
882.505	15329
882.631	15089
882.757	14963
882.883	15001
883.01	14967
883.136	14891
883.262	14952
883.388	14815
883.514	15055
883.64	15062
883.766	14944
883.892	14887
884.018	14842
884.143	14937
884.269	15028
884.395	14632
884.52	14651
884.646	14739
884.772	14545
884.897	14667
885.023	14743
885.148	14838
885.274	14876
885.399	14804
885.524	14670
885.65	14853
885.775	14743
885.9	14800
886.025	14727
886.15	14785
886.275	14556
886.4	14621
886.525	14701
886.65	14655
886.775	14617
886.9	14826
887.025	14990
887.149	14777
887.274	14537
887.399	14541
887.523	14488
887.648	14480
887.773	14400
887.897	14629
888.021	14621
888.146	14476
888.27	14682
888.395	14629
888.519	14545
888.643	14648
888.767	14613
888.891	14419
889.015	14389
889.139	14488
889.263	14347
889.387	14480
889.511	14556
889.635	14564
889.759	14366
889.883	14317
890.006	14423
890.13	14461
890.254	14358
890.377	14374
890.501	14237
890.624	14187
890.748	14263
890.871	14096
890.995	14092
891.118	14115
891.241	14134
891.364	14088
891.488	14191
891.611	14142
891.734	14084
891.857	14218
891.98	14096
892.103	14126
892.226	14142
892.349	14149
892.471	13932
892.594	14088
892.717	14035
892.839	14119
892.962	14081
893.085	14130
893.207	14187
893.33	14024
893.452	14001
893.575	14138
893.697	14123
893.819	14199
893.941	14275
894.064	14259
894.186	14100
894.308	14054
894.43	14229
894.552	14389
894.674	14259
894.796	14081
894.918	14153
895.04	14149
895.161	14263
895.283	14187
895.405	14183
895.526	14103
895.648	14237
895.769	14282
895.891	14320
896.012	14309
896.134	14290
896.255	14313
896.376	14199
896.498	14271
896.619	14233
896.74	14286
896.861	14332
896.982	14549
897.103	14773
897.224	14606
897.345	14469
897.466	14507
897.587	14564
897.708	14617
897.828	14590
897.949	14476
898.07	14370
898.19	14533
898.311	14655
898.431	14533
898.552	14701
898.672	14674
898.792	14765
898.913	14720
899.033	14552
899.153	14518
899.273	14438
899.393	14492
899.513	14473
899.633	14541
899.753	14446
899.873	14393
899.993	14511
900.113	14377
900.232	14495
900.352	14522
900.472	14317
900.591	14358
900.711	14244
900.83	14336
900.95	14385
901.069	14438
901.189	14317
901.308	14069
901.427	14016
901.546	14024
901.665	14103
901.784	14077
901.904	13947
902.023	13856
902.141	13559
902.26	13662
902.379	13727
902.498	13590
902.617	13472
902.735	13597
902.854	13563
902.973	13441
903.091	13377
903.21	13339
903.328	13297
903.446	13251
903.565	13129
903.683	13133
903.801	13099
903.919	13263
904.038	13183
904.156	13038
904.274	13072
904.392	12920
904.51	12958
904.627	13050
904.745	13057
904.863	13050
904.981	12722
905.098	12654
905.216	12635
905.334	12730
905.451	12768
905.569	12700
905.686	12677
905.803	12639
905.921	12532
906.038	12620
906.155	12483
906.272	12380
906.389	12422
906.506	12197
906.623	12330
906.74	12228
906.857	12110
906.974	12121
907.091	12338
907.208	12403
907.324	12296
907.441	12125
907.557	12019
907.674	11904
907.79	11931
907.907	11942
908.023	12034
908.139	12041
908.256	11980
908.372	11958
908.488	11923
908.604	11783
908.72	11710
908.836	11764
908.952	11756
909.068	11695
909.184	11897
909.3	11790
909.415	11817
909.531	11790
909.647	11562
909.762	11619
909.878	11417
909.993	11547
910.108	11562
910.224	11501
910.339	11585
910.454	11452
910.57	11402
910.685	11284
910.8	11608
910.915	11509
911.03	11395
911.145	11227
911.259	11216
911.374	11216
911.489	11060
911.604	11064
911.718	10999
911.833	10987
911.947	10877
912.062	10816
912.176	11029
912.291	10968
912.405	10919
912.519	11193
912.633	11132
912.748	11094
912.862	10991
912.976	10839
913.09	10820
913.204	10786
913.318	10919
913.431	10999
913.545	10968
913.659	11029
913.772	10866
913.886	10752
914	10786
914.113	10820
914.226	10866
914.34	10786
914.453	10687
914.566	10839
914.68	10714
914.793	10733
914.906	10504
915.019	10417
915.132	10382
915.245	10447
915.358	10580
915.47	10481
915.583	10512
915.696	10565
915.809	10664
915.921	10637
916.034	10512
916.146	10432
916.259	10443
916.371	10569
916.483	10542
916.595	10398
916.708	10405
916.82	10428
916.932	10440
917.044	10382
917.156	10394
917.268	10295
917.38	10367
917.491	10314
917.603	10322
917.715	10409
917.826	10485
917.938	10329
918.049	10154
918.161	10314
918.272	10489
918.384	10413
918.495	10299
918.606	10238
918.717	10188
918.828	10291
918.939	10227
919.05	10185
919.161	10227
919.272	10044
919.383	10063
919.494	10257
919.604	10398
919.715	10200
919.826	10177
919.936	10215
920.047	10272
920.157	10265
920.267	10360
920.378	10306
920.488	10268
920.598	10341
920.708	10523
920.818	10394
920.928	10367
921.038	10664
921.148	10546
921.258	10204
921.368	10223
921.477	10082
921.587	10101
921.697	9911
921.806	10093
921.916	10013
922.025	9846
922.134	9812
922.244	9751
922.353	9789
922.462	9698
922.571	9580
922.68	9492
922.789	9424
922.898	9420
923.007	9386
923.116	9523
923.224	9363
923.333	9424
923.442	9370
923.55	9336
923.659	9363
923.767	9443
923.876	9306
923.984	9443
924.092	9253
924.201	9294
924.309	9344
924.417	9389
924.525	9344
924.633	9287
924.741	10227
924.849	9135
924.956	9268
925.064	9112
925.172	9039
925.279	9089
925.387	9154
925.494	9192
925.602	9226
925.709	9233
925.816	9119
925.924	9112
926.031	9287
926.138	9093
926.245	9218
926.352	8971
926.459	9222
926.566	9260
926.673	9108
926.779	9013
926.886	8948
926.993	8830
927.099	8891
927.206	8830
927.312	8800
927.419	8906
927.525	8823
927.631	8933
927.737	8750
927.843	8686
927.95	8659
928.056	8739
928.162	8716
928.267	8796
928.373	9393
928.479	8830
928.585	8629
928.69	8659
928.796	8811
928.901	8625
929.007	8545
929.112	8659
929.218	8598
929.323	8541
929.428	8549
929.533	8724
929.638	8518
929.743	8488
929.848	8568
929.953	8629
930.058	8438
930.163	8343
930.267	8328
930.372	8503
930.477	8244
930.581	8587
930.685	8427
930.79	8240
930.894	8320
930.998	8267
931.103	8396
931.207	8035
931.311	7974
931.415	7944
931.519	7769
931.623	7769
