Data from test_V78500241_3387.txt Node
Date: Fri Mar 25 14:57:17 CST 2022
User: usil
Spectrometer: V785-0024
Trigger mode: 0
Integration Time (sec): 4.000000E-1
Scans to average: 1
Nonlinearity correction enabled: false
Boxcar width: 0
Storing dark spectrum: false
XAxis mode: Wavelengths
Number of Pixels in Spectrum: 1024
>>>>>Begin Spectral Data<<<<<
801.071	21869
801.214	21743
801.356	21656
801.499	21504
801.641	21397
801.783	21264
801.926	21332
802.068	21100
802.211	21058
802.353	20990
802.496	20918
802.638	20765
802.78	20674
802.923	20739
803.065	20526
803.208	20469
803.35	20644
803.492	20689
803.635	20663
803.777	20659
803.919	20579
804.061	20861
804.204	20678
804.346	20488
804.488	20484
804.63	20621
804.773	20488
804.915	20552
805.057	20583
805.199	20514
805.341	20522
805.483	20640
805.626	20659
805.768	20450
805.91	20629
806.052	20651
806.194	20328
806.336	20560
806.478	20541
806.62	20533
806.762	20503
806.904	20815
807.046	20861
807.188	20826
807.33	20845
807.472	20891
807.614	20739
807.756	20777
807.898	20568
808.04	20564
808.182	20598
808.324	20632
808.465	20629
808.607	20769
808.749	20857
808.891	20963
809.033	21093
809.174	20937
809.316	20895
809.458	20899
809.6	20849
809.741	20872
809.883	20906
810.025	21100
810.166	21131
810.308	20963
810.45	20975
810.591	20815
810.733	20845
810.875	20549
811.016	20526
811.158	20492
811.299	20682
811.441	20773
811.582	20708
811.724	20579
811.865	20575
812.007	20613
812.148	20564
812.29	20788
812.431	20857
812.573	20982
812.714	20899
812.855	21154
812.997	21325
813.138	21310
813.279	21313
813.421	21214
813.562	21017
813.703	20887
813.845	20910
813.986	20568
814.127	20377
814.268	20301
814.41	20267
814.551	20142
814.692	20107
814.833	20069
814.974	20115
815.115	20157
815.256	19947
815.397	20043
815.539	20081
815.68	19906
815.821	19917
815.962	19978
816.103	19951
816.244	19795
816.385	19746
816.526	19594
816.666	19487
816.807	19339
816.948	19365
817.089	19460
817.23	19373
817.371	19304
817.512	19331
817.653	19320
817.793	19251
817.934	19244
818.075	19403
818.216	19301
818.356	19114
818.497	19183
818.638	18962
818.778	19015
818.919	18939
819.06	18977
819.2	19171
819.341	19221
819.481	19152
819.622	19331
819.762	19464
819.903	19354
820.043	19343
820.184	19304
820.324	19251
820.465	19346
820.605	19335
820.746	19270
820.886	19175
821.026	19255
821.167	19251
821.307	19225
821.447	19190
821.588	19213
821.728	18996
821.868	18837
822.008	18703
822.149	18726
822.289	18692
822.429	18418
822.569	18372
822.709	18399
822.849	18190
822.99	18159
823.13	18144
823.27	18216
823.41	17980
823.55	17942
823.69	18007
823.83	17893
823.97	17931
824.11	17794
824.25	17809
824.389	17703
824.529	17878
824.669	17813
824.809	17904
824.949	17817
825.089	17786
825.228	17813
825.368	17665
825.508	17646
825.648	17600
825.787	17619
825.927	17661
826.067	17482
826.206	17497
826.346	17554
826.485	17611
826.625	17562
826.765	17733
826.904	17528
827.044	17341
827.183	17296
827.323	17280
827.462	17303
827.601	17174
827.741	17235
827.88	17288
828.02	17105
828.159	17170
828.298	17216
828.437	17223
828.577	17124
828.716	17368
828.855	17239
828.994	17178
829.134	16995
829.273	17067
829.412	16980
829.551	16938
829.69	16957
829.829	17079
829.968	17075
830.107	17086
830.246	17029
830.385	16965
830.524	16896
830.663	16778
830.802	16687
830.941	16599
831.08	16660
831.219	16717
831.357	16710
831.496	16881
831.635	16660
831.774	16580
831.913	16451
832.051	16443
832.19	16417
832.329	16535
832.467	16382
832.606	16375
832.744	16318
832.883	16348
833.022	16360
833.16	16356
833.299	16402
833.437	16352
833.576	16322
833.714	16337
833.852	16519
833.991	16382
834.129	16413
834.267	16409
834.406	16348
834.544	16375
834.682	16436
834.821	16344
834.959	16478
835.097	16306
835.235	16413
835.373	16329
835.511	16428
835.65	16325
835.788	16329
835.926	16181
836.064	16128
836.202	16071
836.34	16265
836.478	16360
836.615	16299
836.753	16329
836.891	16447
837.029	16276
837.167	16280
837.305	16150
837.443	16223
837.58	16097
837.718	16215
837.856	16090
837.993	16147
838.131	16200
838.269	16097
838.406	16204
838.544	16002
838.681	15975
838.819	15934
838.956	15736
839.094	15781
839.231	15789
839.369	15899
839.506	16116
839.643	16002
839.781	15743
839.918	15644
840.055	15743
840.193	15690
840.33	15709
840.467	15739
840.604	15762
840.742	16040
840.879	15622
841.016	15576
841.153	15660
841.29	15895
841.427	15751
841.564	15732
841.701	15694
841.838	15690
841.975	15732
842.112	15720
842.249	15485
842.385	15549
842.522	15747
842.659	15526
842.796	15500
842.933	15553
843.069	15443
843.206	15488
843.343	15648
843.479	15526
843.616	15515
843.752	15233
843.889	15256
844.025	15397
844.162	15279
844.298	15393
844.435	15389
844.571	15256
844.708	15310
844.844	15462
844.98	15526
845.117	15291
845.253	15332
845.389	15154
845.525	15302
845.661	15241
845.798	15089
845.934	15161
846.07	15077
846.206	15161
846.342	15199
846.478	15116
846.614	14952
846.75	14872
846.886	14876
847.022	15039
847.158	14933
847.294	14872
847.429	14982
847.565	14842
847.701	15135
847.837	14571
847.972	14594
848.108	14705
848.244	14689
848.379	14454
848.515	14457
848.65	14461
848.786	14427
848.921	14469
849.057	14655
849.192	14594
849.328	14571
849.463	14457
849.598	14389
849.734	14415
849.869	14317
850.004	14294
850.14	14347
850.275	14339
850.41	14221
850.545	14191
850.68	14214
850.815	14187
850.95	14218
851.085	14549
851.22	14355
851.355	14275
851.49	14176
851.625	14157
851.76	14256
851.895	14187
852.03	14244
852.165	14275
852.299	14381
852.434	14298
852.569	14218
852.703	14343
852.838	14336
852.973	14419
853.107	14301
853.242	14282
853.376	14221
853.511	13944
853.645	14134
853.78	14267
853.914	14248
854.048	14180
854.183	14138
854.317	14123
854.451	14233
854.585	14168
854.72	14183
854.854	14176
854.988	14065
855.122	14145
855.256	13974
855.39	14164
855.524	14229
855.658	14149
855.792	14054
855.926	14229
856.06	14183
856.194	14126
856.327	14130
856.461	14027
856.595	14111
856.729	14157
856.862	14233
856.996	14180
857.13	14142
857.263	14324
857.397	14218
857.53	14145
857.664	14123
857.797	14225
857.931	14176
858.064	14206
858.197	14267
858.331	14020
858.464	14180
858.597	14062
858.731	14043
858.864	14191
858.997	14084
859.13	14191
859.263	14092
859.396	14263
859.529	14115
859.662	14008
859.795	13989
859.928	14084
860.061	14305
860.194	14313
860.327	14065
860.46	14081
860.592	14275
860.725	14286
860.858	14271
860.99	14237
861.123	14096
861.256	14081
861.388	14062
861.521	14830
861.653	14088
861.786	13890
861.918	13970
862.05	13989
862.183	14073
862.315	14176
862.447	14161
862.58	13997
862.712	13902
862.844	13837
862.976	13936
863.108	13967
863.24	14389
863.372	13761
863.504	13917
863.636	13909
863.768	13978
863.9	14001
864.032	13822
864.164	13849
864.296	13921
864.428	14031
864.559	13967
864.691	14039
864.823	14016
864.954	13940
865.086	13963
865.217	13818
865.349	13769
865.48	13887
865.612	13890
865.743	14012
865.875	13947
866.006	13791
866.137	13921
866.269	13898
866.4	13860
866.531	13849
866.662	13879
866.793	13902
866.924	13864
867.055	13871
867.186	13982
867.317	13894
867.448	13757
867.579	13993
867.71	13814
867.841	13841
867.972	13967
868.103	13978
868.233	13951
868.364	13989
868.495	14012
868.625	14043
868.756	14130
868.886	14050
869.017	14145
869.147	14317
869.278	14332
869.408	14180
869.539	14248
869.669	14271
869.799	14210
869.929	14309
870.06	14271
870.19	14492
870.32	14427
870.45	14476
870.58	14556
870.71	14621
870.84	14701
870.97	14587
871.1	14503
871.23	14663
871.36	14773
871.489	14716
871.619	14678
871.749	14743
871.879	14727
872.008	14785
872.138	14731
872.267	14731
872.397	14564
872.526	14632
872.656	14484
872.785	14678
872.915	14735
873.044	14842
873.173	14735
873.303	14921
873.432	14819
873.561	14864
873.69	14788
873.819	14762
873.948	14883
874.077	14861
874.206	14887
874.335	14804
874.464	14975
874.593	15112
874.722	15051
874.851	15161
874.979	15161
875.108	15131
875.237	15142
875.365	15165
875.494	15176
875.623	15230
875.751	15020
875.88	15157
876.008	15279
876.136	15344
876.265	15534
876.393	15660
876.521	15644
876.65	15652
876.778	15542
876.906	15507
877.034	15420
877.162	15519
877.29	15458
877.418	15538
877.546	15625
877.674	15603
877.802	15576
877.93	15542
878.058	15428
878.185	15466
878.313	15496
878.441	15584
878.568	15378
878.696	15428
878.824	15606
878.951	15644
879.079	15728
879.206	15838
879.333	15709
879.461	15622
879.588	15576
879.715	15652
879.842	15789
879.97	15557
880.097	15310
880.224	15351
880.351	15511
880.478	15397
880.605	15469
880.732	15412
880.859	15572
880.986	15450
881.112	15367
881.239	15291
881.366	15112
881.493	15089
881.619	15058
881.746	15116
881.872	15081
881.999	15112
882.125	14952
882.252	14994
882.378	15119
882.505	15214
882.631	14986
882.757	14792
882.883	14880
883.01	14952
883.136	14861
883.262	14746
883.388	14663
883.514	14842
883.64	14963
883.766	14815
883.892	14739
884.018	14773
884.143	14815
884.269	15032
884.395	14693
884.52	14575
884.646	14545
884.772	14518
884.897	14454
885.023	14598
885.148	14651
885.274	14811
885.399	14697
885.524	14610
885.65	14492
885.775	14530
885.9	14507
886.025	14701
886.15	14663
886.275	14533
886.4	14377
886.525	14518
886.65	14549
886.775	14568
886.9	14750
887.025	14769
887.149	14674
887.274	14408
887.399	14419
887.523	14393
887.648	14362
887.773	14294
887.897	14564
888.021	14488
888.146	14377
888.27	14476
888.395	14514
888.519	14541
888.643	14457
888.767	14442
888.891	14298
889.015	14275
889.139	14290
889.263	14278
889.387	14434
889.511	14431
889.635	14461
889.759	14309
889.883	14263
890.006	14305
890.13	14294
890.254	14202
890.377	14221
890.501	14012
890.624	14027
890.748	14138
890.871	13986
890.995	13951
891.118	13887
891.241	13993
891.364	14035
891.488	14081
891.611	13970
891.734	13913
891.857	14081
891.98	13963
892.103	13959
892.226	14046
892.349	13959
892.471	13769
892.594	13970
892.717	14005
892.839	13940
892.962	13978
893.085	14024
893.207	13967
893.33	13871
893.452	13849
893.575	13974
893.697	14043
893.819	14157
893.941	14195
894.064	14126
894.186	13944
894.308	13963
894.43	14107
894.552	14317
894.674	14069
894.796	13890
894.918	14016
895.04	13993
895.161	14126
895.283	14153
895.405	13974
895.526	14062
895.648	14096
895.769	14119
895.891	14115
896.012	14225
896.134	14237
896.255	14119
896.376	14233
896.498	14180
896.619	14088
896.74	14157
896.861	14237
896.982	14427
897.103	14651
897.224	14495
897.345	14431
897.466	14328
897.587	14377
897.708	14575
897.828	14526
897.949	14374
898.07	14400
898.19	14438
898.311	14579
898.431	14434
898.552	14476
898.672	14625
898.792	14629
898.913	14533
899.033	14408
899.153	14324
899.273	14252
899.393	14282
899.513	14442
899.633	14450
899.753	14385
899.873	14343
899.993	14377
900.113	14298
900.232	14351
900.352	14313
900.472	14237
900.591	14172
900.711	14252
900.83	14103
900.95	14286
901.069	14301
901.189	14263
901.308	13902
901.427	13925
901.546	13814
901.665	13902
901.784	13932
901.904	13814
902.023	13719
902.141	13571
902.26	13369
902.379	13525
902.498	13422
902.617	13350
902.735	13464
902.854	13449
902.973	13415
903.091	13282
903.21	13110
903.328	13259
903.446	13179
903.565	13019
903.683	13027
903.801	12970
903.919	13042
904.038	13057
904.156	12867
904.274	12924
904.392	12814
904.51	12848
904.627	12848
904.745	12897
904.863	12886
904.981	12688
905.098	12517
905.216	12509
905.334	12593
905.451	12627
905.569	12498
905.686	12521
905.803	12479
905.921	12372
906.038	12471
906.155	12327
906.272	12353
906.389	12300
906.506	12205
906.623	12140
906.74	12167
906.857	12057
906.974	12178
907.091	12270
907.208	12266
907.324	12152
907.441	12072
907.557	11885
907.674	11908
907.79	11786
907.907	11855
908.023	11958
908.139	11889
908.256	11851
908.372	11855
908.488	11775
908.604	11707
908.72	11573
908.836	11691
908.952	11745
909.068	11699
909.184	11790
909.3	11615
909.415	11733
909.531	11707
909.647	11395
909.762	11425
909.878	11383
909.993	11509
910.108	11429
910.224	11372
910.339	11448
910.454	11315
910.57	11250
910.685	11204
910.8	11433
910.915	11395
911.03	11231
911.145	11102
911.259	11170
911.374	11067
911.489	11079
911.604	10968
911.718	10930
911.833	10904
911.947	10828
912.062	10679
912.176	10847
912.291	10869
912.405	10843
912.519	11083
912.633	11170
912.748	10984
912.862	10904
912.976	10702
913.09	10637
913.204	10771
913.318	10767
913.431	10881
913.545	10797
913.659	10942
913.772	10778
913.886	10645
914	10538
914.113	10782
914.226	10774
914.34	10752
914.453	10573
914.566	10710
914.68	10634
914.793	10592
914.906	10402
915.019	10367
915.132	10318
915.245	10360
915.358	10390
915.47	10474
915.583	10409
915.696	10417
915.809	10531
915.921	10542
916.034	10375
916.146	10421
916.259	10287
916.371	10500
916.483	10413
916.595	10249
916.708	10322
916.82	10367
916.932	10337
917.044	10314
917.156	10215
917.268	10166
917.38	10284
917.491	10227
917.603	10333
917.715	10284
917.826	10409
917.938	10169
918.049	10067
918.161	10265
918.272	10356
918.384	10360
918.495	10242
918.606	10131
918.717	10044
918.828	10162
918.939	10173
919.05	10071
919.161	10059
919.272	9915
919.383	10017
919.494	10169
919.604	10348
919.715	10139
919.826	10074
919.936	10147
920.047	10192
920.157	10150
920.267	10329
920.378	10188
920.488	10185
920.598	10333
920.708	10489
920.818	10306
920.928	10314
921.038	10485
921.148	10421
921.258	10139
921.368	10147
921.477	10002
921.587	9915
921.697	9895
921.806	9975
921.916	9922
922.025	9713
922.134	9682
922.244	9667
922.353	9698
922.462	9572
922.571	9523
922.68	9405
922.789	9329
922.898	9332
923.007	9359
923.116	9450
923.224	9275
923.333	9374
923.442	9287
923.55	9222
923.659	9306
923.767	9389
923.876	9256
923.984	9268
924.092	9222
924.201	9268
924.309	9256
924.417	9298
924.525	9218
924.633	9275
924.741	10139
924.849	9051
924.956	9184
925.064	9100
925.172	8944
925.279	8952
925.387	9154
925.494	9032
925.602	9256
925.709	9176
925.816	9024
925.924	9081
926.031	9093
926.138	9085
926.245	9146
926.352	8925
926.459	9135
926.566	9131
926.673	8933
926.779	8952
926.886	8899
926.993	8762
927.099	8766
927.206	8746
927.312	8720
927.419	8804
927.525	8743
927.631	8769
927.737	8724
927.843	8670
927.95	8514
928.056	8693
928.162	8720
928.267	8667
928.373	9348
928.479	8819
928.585	8571
928.69	8606
928.796	8659
928.901	8674
929.007	8438
929.112	8587
929.218	8606
929.323	8480
929.428	8495
929.533	8602
929.638	8442
929.743	8427
929.848	8514
929.953	8469
930.058	8423
930.163	8210
930.267	8225
930.372	8347
930.477	8225
930.581	8499
930.685	8313
930.79	8210
930.894	8206
930.998	8119
931.103	8362
931.207	8020
931.311	7955
931.415	7856
931.519	7609
931.623	7666
