Data from test_V78500241_2668.txt Node
Date: Fri Mar 25 14:52:17 CST 2022
User: usil
Spectrometer: V785-0024
Trigger mode: 0
Integration Time (sec): 4.000000E-1
Scans to average: 1
Nonlinearity correction enabled: false
Boxcar width: 0
Storing dark spectrum: false
XAxis mode: Wavelengths
Number of Pixels in Spectrum: 1024
>>>>>Begin Spectral Data<<<<<
801.071	21972
801.214	21922
801.356	21663
801.499	21526
801.641	21374
801.783	21287
801.926	21393
802.068	21260
802.211	21165
802.353	21104
802.496	20998
802.638	20788
802.78	20872
802.923	20762
803.065	20724
803.208	20743
803.35	20693
803.492	20815
803.635	20834
803.777	20640
803.919	20674
804.061	20990
804.204	20785
804.346	20613
804.488	20560
804.63	20678
804.773	20454
804.915	20598
805.057	20727
805.199	20617
805.341	20705
805.483	20682
805.626	20731
805.768	20590
805.91	20617
806.052	20583
806.194	20629
806.336	20754
806.478	20476
806.62	20598
806.762	20552
806.904	20838
807.046	20982
807.188	20883
807.33	20834
807.472	21005
807.614	20853
807.756	20773
807.898	20587
808.04	20731
808.182	20670
808.324	20568
808.465	20545
808.607	20956
808.749	20914
808.891	21093
809.033	21108
809.174	21089
809.316	20929
809.458	20895
809.6	20982
809.741	21051
809.883	21077
810.025	21096
810.166	21211
810.308	21116
810.45	20990
810.591	21017
810.733	20845
810.875	20705
811.016	20609
811.158	20579
811.299	20834
811.441	20842
811.582	20857
811.724	20712
811.865	20625
812.007	20625
812.148	20682
812.29	20754
812.431	20941
812.573	20910
812.714	21096
812.855	21112
812.997	21256
813.138	21405
813.279	21367
813.421	21279
813.562	21161
813.703	20975
813.845	20902
813.986	20492
814.127	20374
814.268	20298
814.41	20187
814.551	20385
814.692	20457
814.833	20233
814.974	20233
815.115	20282
815.256	20111
815.397	20031
815.539	20183
815.68	20043
815.821	20031
815.962	20081
816.103	20134
816.244	19761
816.385	19807
816.526	19765
816.666	19518
816.807	19343
816.948	19529
817.089	19582
817.23	19388
817.371	19453
817.512	19510
817.653	19400
817.793	19407
817.934	19426
818.075	19445
818.216	19476
818.356	19411
818.497	19285
818.638	19213
818.778	18924
818.919	19107
819.06	19160
819.2	19255
819.341	19259
819.481	19213
819.622	19453
819.762	19715
819.903	19586
820.043	19457
820.184	19358
820.324	19419
820.465	19350
820.605	19381
820.746	19373
820.886	19289
821.026	19495
821.167	19346
821.307	19369
821.447	19369
821.588	19221
821.728	19156
821.868	18935
822.008	18814
822.149	18878
822.289	18688
822.429	18570
822.569	18551
822.709	18525
822.849	18258
822.99	18232
823.13	18315
823.27	18289
823.41	18060
823.55	18098
823.69	18091
823.83	18136
823.97	18095
824.11	17847
824.25	17824
824.389	17870
824.529	17889
824.669	17946
824.809	17916
824.949	17958
825.089	17878
825.228	17927
825.368	17676
825.508	17695
825.648	17687
825.787	17745
825.927	17634
826.067	17657
826.206	17505
826.346	17653
826.485	17482
826.625	17623
826.765	17783
826.904	17562
827.044	17433
827.183	17433
827.323	17288
827.462	17436
827.601	17303
827.741	17341
827.88	17376
828.02	17231
828.159	17356
828.298	17410
828.437	17379
828.577	17334
828.716	17452
828.855	17299
828.994	17220
829.134	17155
829.273	17174
829.412	17014
829.551	17071
829.69	17029
829.829	17045
829.968	17273
830.107	17128
830.246	17178
830.385	17060
830.524	17041
830.663	17045
830.802	16934
830.941	16755
831.08	16721
831.219	16831
831.357	16752
831.496	16965
831.635	16782
831.774	16622
831.913	16664
832.051	16493
832.19	16481
832.329	16508
832.467	16405
832.606	16470
832.744	16386
832.883	16436
833.022	16360
833.16	16424
833.299	16432
833.437	16512
833.576	16371
833.714	16493
833.852	16569
833.991	16466
834.129	16558
834.267	16519
834.406	16455
834.544	16531
834.682	16470
834.821	16470
834.959	16702
835.097	16409
835.235	16565
835.373	16493
835.511	16478
835.65	16367
835.788	16356
835.926	16215
836.064	16192
836.202	16207
836.34	16344
836.478	16493
836.615	16440
836.753	16417
836.891	16516
837.029	16379
837.167	16413
837.305	16314
837.443	16280
837.58	16234
837.718	16386
837.856	16207
837.993	16181
838.131	16291
838.269	16143
838.406	16230
838.544	16238
838.681	15941
838.819	15960
838.956	15873
839.094	15911
839.231	15835
839.369	15865
839.506	16185
839.643	16051
839.781	15892
839.918	15755
840.055	15785
840.193	15789
840.33	15812
840.467	15800
840.604	15956
840.742	16063
840.879	15736
841.016	15785
841.153	15698
841.29	15835
841.427	15903
841.564	15869
841.701	15892
841.838	15778
841.975	15789
842.112	15797
842.249	15587
842.385	15599
842.522	15899
842.659	15709
842.796	15603
842.933	15576
843.069	15557
843.206	15633
843.343	15682
843.479	15667
843.616	15629
843.752	15408
843.889	15466
844.025	15553
844.162	15203
844.298	15568
844.435	15431
844.571	15310
844.708	15485
844.844	15595
844.98	15561
845.117	15504
845.253	15355
845.389	15256
845.525	15355
845.661	15329
845.798	15138
845.934	15252
846.07	15214
846.206	15230
846.342	15279
846.478	15233
846.614	15036
846.75	15032
846.886	14910
847.022	15066
847.158	14986
847.294	15058
847.429	14979
847.565	14990
847.701	15214
847.837	14800
847.972	14636
848.108	14796
848.244	14781
848.379	14682
848.515	14545
848.65	14594
848.786	14648
848.921	14541
849.057	14697
849.192	14769
849.328	14530
849.463	14564
849.598	14587
849.734	14503
849.869	14377
850.004	14343
850.14	14355
850.275	14389
850.41	14271
850.545	14263
850.68	14328
850.815	14294
850.95	14290
851.085	14571
851.22	14385
851.355	14370
851.49	14294
851.625	14362
851.76	14320
851.895	14256
852.03	14195
852.165	14336
852.299	14320
852.434	14355
852.569	14332
852.703	14434
852.838	14362
852.973	14476
853.107	14438
853.242	14389
853.376	14202
853.511	14001
853.645	14176
853.78	14461
853.914	14180
854.048	14210
854.183	14126
854.317	14168
854.451	14320
854.585	14244
854.72	14271
854.854	14233
854.988	14092
855.122	14157
855.256	14039
855.39	14176
855.524	14256
855.658	14263
855.792	14339
855.926	14278
856.06	14191
856.194	14256
856.327	14275
856.461	14119
856.595	14115
856.729	14176
856.862	14351
856.996	14244
857.13	14290
857.263	14233
857.397	14320
857.53	14218
857.664	14229
857.797	14168
857.931	14282
858.064	14282
858.197	14336
858.331	14229
858.464	14199
858.597	14191
858.731	14199
858.864	14252
858.997	14149
859.13	14210
859.263	14221
859.396	14305
859.529	14259
859.662	14107
859.795	14168
859.928	14301
860.061	14351
860.194	14385
860.327	14317
860.46	14092
860.592	14267
860.725	14400
860.858	14229
860.99	14248
861.123	14081
861.256	14183
861.388	14107
861.521	14754
861.653	14058
861.786	13967
861.918	14130
862.05	14115
862.183	14115
862.315	14130
862.447	14210
862.58	14157
862.712	14050
862.844	13902
862.976	14046
863.108	13993
863.24	14320
863.372	13879
863.504	14016
863.636	13986
863.768	14024
863.9	13936
864.032	13871
864.164	13902
864.296	14020
864.428	14126
864.559	14069
864.691	14035
864.823	14031
864.954	14039
865.086	14020
865.217	13913
865.349	13982
865.48	14054
865.612	13989
865.743	14065
865.875	14039
866.006	14035
866.137	14035
866.269	14012
866.4	13921
866.531	13970
866.662	13887
866.793	13852
866.924	13989
867.055	13993
867.186	13921
867.317	13906
867.448	13909
867.579	13833
867.71	13849
867.841	13928
867.972	13967
868.103	13917
868.233	14016
868.364	13913
868.495	14123
868.625	14229
868.756	14351
868.886	14142
869.017	14119
869.147	14313
869.278	14396
869.408	14240
869.539	14237
869.669	14298
869.799	14286
869.929	14317
870.06	14339
870.19	14518
870.32	14442
870.45	14640
870.58	14579
870.71	14720
870.84	14655
870.97	14594
871.1	14564
871.23	14872
871.36	14777
871.489	14651
871.619	14864
871.749	14765
871.879	14906
872.008	14918
872.138	14895
872.267	14845
872.397	14667
872.526	14796
872.656	14689
872.785	14651
872.915	14925
873.044	14857
873.173	14826
873.303	14971
873.432	14921
873.561	14944
873.69	14944
873.819	14857
873.948	15005
874.077	14937
874.206	14845
874.335	15024
874.464	15077
874.593	15180
874.722	15161
874.851	15245
874.979	15184
875.108	15241
875.237	15123
875.365	15074
875.494	15116
875.623	15218
875.751	15245
875.88	15252
876.008	15355
876.136	15447
876.265	15591
876.393	15713
876.521	15606
876.65	15633
876.778	15637
876.906	15511
877.034	15580
877.162	15595
877.29	15526
877.418	15610
877.546	15652
877.674	15610
877.802	15561
877.93	15568
878.058	15591
878.185	15519
878.313	15549
878.441	15553
878.568	15340
878.696	15477
878.824	15618
878.951	15637
879.079	15766
879.206	15953
879.333	15873
879.461	15656
879.588	15694
879.715	15861
879.842	16044
879.97	15663
880.097	15389
880.224	15370
880.351	15534
880.478	15435
880.605	15294
880.732	15462
880.859	15663
880.986	15519
881.112	15477
881.239	15389
881.366	15116
881.493	15127
881.619	15058
881.746	15184
881.872	15119
881.999	15131
882.125	15066
882.252	15207
882.378	15093
882.505	15302
882.631	15077
882.757	14887
882.883	14979
883.01	14872
883.136	14918
883.262	14663
883.388	14754
883.514	14872
883.64	15013
883.766	14944
883.892	14735
884.018	14762
884.143	14887
884.269	15005
884.395	14689
884.52	14705
884.646	14640
884.772	14587
884.897	14442
885.023	14693
885.148	14697
885.274	14754
885.399	14743
885.524	14648
885.65	14629
885.775	14689
885.9	14629
886.025	14800
886.15	14705
886.275	14621
886.4	14526
886.525	14629
886.65	14549
886.775	14583
886.9	14769
887.025	14838
887.149	14610
887.274	14484
887.399	14457
887.523	14473
887.648	14366
887.773	14454
887.897	14511
888.021	14438
888.146	14450
888.27	14598
888.395	14636
888.519	14457
888.643	14549
888.767	14571
888.891	14385
889.015	14271
889.139	14290
889.263	14374
889.387	14336
889.511	14495
889.635	14549
889.759	14282
889.883	14278
890.006	14469
890.13	14503
890.254	14191
890.377	14267
890.501	14172
890.624	14065
890.748	14225
890.871	14119
890.995	14035
891.118	13940
891.241	14081
891.364	14020
891.488	14168
891.611	13997
891.734	14084
891.857	14100
891.98	14088
892.103	14115
892.226	14103
892.349	13921
892.471	13917
892.594	13944
892.717	14088
892.839	14039
892.962	14035
893.085	14065
893.207	14020
893.33	14008
893.452	13940
893.575	14107
893.697	14039
893.819	14138
893.941	14134
894.064	14183
894.186	14031
894.308	14107
894.43	14233
894.552	14218
894.674	14172
894.796	14050
894.918	14161
895.04	14031
895.161	14145
895.283	14164
895.405	14100
895.526	14100
895.648	14195
895.769	14130
895.891	14119
896.012	14252
896.134	14271
896.255	14282
896.376	14252
896.498	14187
896.619	14301
896.74	14202
896.861	14320
896.982	14568
897.103	14670
897.224	14507
897.345	14469
897.466	14457
897.587	14450
897.708	14530
897.828	14507
897.949	14526
898.07	14309
898.19	14427
898.311	14503
898.431	14518
898.552	14583
898.672	14663
898.792	14682
898.913	14617
899.033	14541
899.153	14370
899.273	14298
899.393	14412
899.513	14503
899.633	14362
899.753	14533
899.873	14419
899.993	14511
900.113	14358
900.232	14442
900.352	14427
900.472	14442
900.591	14183
900.711	14313
900.83	14298
900.95	14476
901.069	14233
901.189	14290
901.308	13959
901.427	13947
901.546	13906
901.665	13970
901.784	13932
901.904	13795
902.023	13811
902.141	13616
902.26	13537
902.379	13597
902.498	13533
902.617	13415
902.735	13525
902.854	13537
902.973	13426
903.091	13190
903.21	13244
903.328	13282
903.446	13206
903.565	13129
903.683	13141
903.801	13012
903.919	13004
904.038	13053
904.156	12951
904.274	12977
904.392	12825
904.51	12871
904.627	12905
904.745	12962
904.863	12989
904.981	12677
905.098	12528
905.216	12662
905.334	12700
905.451	12589
905.569	12570
905.686	12597
905.803	12604
905.921	12460
906.038	12578
906.155	12445
906.272	12304
906.389	12407
906.506	12167
906.623	12163
906.74	12148
906.857	12057
906.974	12129
907.091	12334
907.208	12254
907.324	12281
907.441	12213
907.557	11961
907.674	11969
907.79	11863
907.907	11920
908.023	11988
908.139	11946
908.256	11813
908.372	11885
908.488	11878
908.604	11714
908.72	11703
908.836	11695
908.952	11703
909.068	11745
909.184	11851
909.3	11668
909.415	11779
909.531	11756
909.647	11592
909.762	11444
909.878	11444
909.993	11535
910.108	11459
910.224	11478
910.339	11490
910.454	11452
910.57	11223
910.685	11250
910.8	11497
910.915	11562
911.03	11356
911.145	11197
911.259	11147
911.374	11170
911.489	11052
911.604	11056
911.718	10923
911.833	10934
911.947	10869
912.062	10767
912.176	10919
912.291	10984
912.405	10869
912.519	11208
912.633	11113
912.748	10942
912.862	10995
912.976	10824
913.09	10683
913.204	10793
913.318	10881
913.431	10835
913.545	10976
913.659	10847
913.772	10881
913.886	10706
914	10687
914.113	10790
914.226	10858
914.34	10793
914.453	10584
914.566	10694
914.68	10698
914.793	10630
914.906	10523
915.019	10314
915.132	10352
915.245	10470
915.358	10459
915.47	10459
915.583	10451
915.696	10508
915.809	10573
915.921	10569
916.034	10470
916.146	10398
916.259	10440
916.371	10550
916.483	10432
916.595	10367
916.708	10447
916.82	10421
916.932	10367
917.044	10344
917.156	10329
917.268	10204
917.38	10227
917.491	10287
917.603	10287
917.715	10432
917.826	10394
917.938	10253
918.049	10158
918.161	10276
918.272	10451
918.384	10322
918.495	10344
918.606	10105
918.717	10120
918.828	10147
918.939	10143
919.05	10063
919.161	10135
919.272	9998
919.383	10048
919.494	10253
919.604	10394
919.715	10143
919.826	10078
919.936	10116
920.047	10261
920.157	10188
920.267	10386
920.378	10268
920.488	10173
920.598	10356
920.708	10561
920.818	10363
920.928	10386
921.038	10519
921.148	10474
921.258	10120
921.368	10147
921.477	10105
921.587	9991
921.697	9934
921.806	10017
921.916	9880
922.025	9797
922.134	9736
922.244	9690
922.353	9785
922.462	9633
922.571	9557
922.68	9462
922.789	9462
922.898	9416
923.007	9412
923.116	9477
923.224	9389
923.333	9355
923.442	9268
923.55	9294
923.659	9355
923.767	9313
923.876	9344
923.984	9298
924.092	9291
924.201	9283
924.309	9233
924.417	9298
924.525	9214
924.633	9283
924.741	9956
924.849	9074
924.956	9253
925.064	9116
925.172	8948
925.279	9077
925.387	9089
925.494	9047
925.602	9207
925.709	9093
925.816	9024
925.924	9112
926.031	9203
926.138	9146
926.245	9161
926.352	8998
926.459	9135
926.566	9195
926.673	9070
926.779	8963
926.886	9005
926.993	8826
927.099	8739
927.206	8796
927.312	8792
927.419	8853
927.525	8766
927.631	8872
927.737	8754
927.843	8693
927.95	8541
928.056	8674
928.162	8720
928.267	8777
928.373	9408
928.479	8838
928.585	8594
928.69	8674
928.796	8674
928.901	8598
929.007	8484
929.112	8598
929.218	8560
929.323	8533
929.428	8522
929.533	8727
929.638	8495
929.743	8480
929.848	8560
929.953	8438
930.058	8465
930.163	8271
930.267	8320
930.372	8446
930.477	8221
930.581	8438
930.685	8332
930.79	8195
930.894	8259
930.998	8229
931.103	8328
931.207	7974
931.311	7974
931.415	7887
931.519	7715
931.623	7693
