Data from test_V78500241_185.txt Node
Date: Fri Mar 25 14:35:00 CST 2022
User: usil
Spectrometer: V785-0024
Trigger mode: 0
Integration Time (sec): 4.000000E-1
Scans to average: 1
Nonlinearity correction enabled: false
Boxcar width: 0
Storing dark spectrum: false
XAxis mode: Wavelengths
Number of Pixels in Spectrum: 1024
>>>>>Begin Spectral Data<<<<<
801.071	28584
801.214	28409
801.356	28158
801.499	28032
801.641	27937
801.783	27979
801.926	27865
802.068	27816
802.211	27846
802.353	27694
802.496	27637
802.638	27416
802.78	27462
802.923	27450
803.065	27260
803.208	27412
803.35	27462
803.492	27492
803.635	27606
803.777	27610
803.919	27454
804.061	27987
804.204	27523
804.346	27420
804.488	27397
804.63	27435
804.773	27378
804.915	27310
805.057	27663
805.199	27408
805.341	27530
805.483	27599
805.626	27557
805.768	27507
805.91	27561
806.052	27633
806.194	27580
806.336	27854
806.478	27553
806.62	27652
806.762	27728
806.904	27766
807.046	28006
807.188	28185
807.33	28169
807.472	28166
807.614	28154
807.756	28291
807.898	28257
808.04	28131
808.182	28413
808.324	28561
808.465	28881
808.607	29124
808.749	29410
808.891	29501
809.033	29672
809.174	29440
809.316	29075
809.458	29014
809.6	28683
809.741	28649
809.883	28516
810.025	28561
810.166	28596
810.308	28504
810.45	28535
810.591	28284
810.733	28318
810.875	28101
811.016	27838
811.158	27926
811.299	28090
811.441	28067
811.582	28143
811.724	27991
811.865	27949
812.007	27835
812.148	28025
812.29	27930
812.431	28181
812.573	28268
812.714	28226
812.855	28466
812.997	28588
813.138	28531
813.279	28470
813.421	28325
813.562	28268
813.703	28169
813.845	28059
813.986	27903
814.127	27637
814.268	27492
814.41	27519
814.551	27557
814.692	27572
814.833	27542
814.974	27458
815.115	27336
815.256	27401
815.397	27310
815.539	27348
815.68	27222
815.821	27188
815.962	27180
816.103	27180
816.244	27051
816.385	26929
816.526	26929
816.666	26720
816.807	26678
816.948	26777
817.089	26731
817.23	26568
817.371	26663
817.512	26541
817.653	26545
817.793	26533
817.934	26503
818.075	26541
818.216	26533
818.356	26457
818.497	26320
818.638	26389
818.778	26298
818.919	26278
819.06	26286
819.2	26450
819.341	26438
819.481	26374
819.622	26556
819.762	26693
819.903	26834
820.043	26712
820.184	26549
820.324	26476
820.465	26476
820.605	26541
820.746	26514
820.886	26404
821.026	26374
821.167	26408
821.307	26625
821.447	26362
821.588	26248
821.728	26229
821.868	26039
822.008	25906
822.149	25906
822.289	25917
822.429	25601
822.569	25586
822.709	25460
822.849	25297
822.99	25499
823.13	25270
823.27	25293
823.41	25187
823.55	25065
823.69	25145
823.83	25126
823.97	25114
824.11	24973
824.25	24856
824.389	24863
824.529	24928
824.669	25050
824.809	25053
824.949	24844
825.089	24989
825.228	24985
825.368	24738
825.508	24681
825.648	24711
825.787	24677
825.927	24787
826.067	24582
826.206	24817
826.346	24661
826.485	24798
826.625	24677
826.765	24856
826.904	24798
827.044	24403
827.183	24376
827.323	24292
827.462	24395
827.601	24372
827.741	24304
827.88	24361
828.02	24289
828.159	24365
828.298	24315
828.437	24464
828.577	24346
828.716	24517
828.855	24300
828.994	24102
829.134	24079
829.273	23992
829.412	23927
829.551	23935
829.69	24018
829.829	23866
829.968	24125
830.107	23973
830.246	24060
830.385	23824
830.524	23965
830.663	23821
830.802	23783
830.941	23592
831.08	23554
831.219	23668
831.357	23558
831.496	23859
831.635	23668
831.774	23482
831.913	23391
832.051	23433
832.19	23425
832.329	23356
832.467	23429
832.606	23098
832.744	23189
832.883	23296
833.022	23307
833.16	23307
833.299	23227
833.437	23322
833.576	23311
833.714	23292
833.852	23337
833.991	23311
834.129	23398
834.267	23520
834.406	23242
834.544	23296
834.682	23273
834.821	23197
834.959	23261
835.097	23273
835.235	23269
835.373	23208
835.511	23204
835.65	23041
835.788	23189
835.926	23010
836.064	22801
836.202	22869
836.34	23147
836.478	23086
836.615	22991
836.753	22908
836.891	23037
837.029	23098
837.167	22896
837.305	23025
837.443	22896
837.58	22767
837.718	22965
837.856	22866
837.993	22885
838.131	22892
838.269	22755
838.406	22767
838.544	22683
838.681	22596
838.819	22417
838.956	22230
839.094	22261
839.231	22329
839.369	22519
839.506	22649
839.643	22481
839.781	22303
839.918	22333
840.055	22280
840.193	22147
840.33	22082
840.467	22200
840.604	22333
840.742	22386
840.879	22055
841.016	22036
841.153	22116
841.29	22299
841.427	22166
841.564	22268
841.701	22139
841.838	22162
841.975	21972
842.112	22021
842.249	22006
842.385	21964
842.522	22158
842.659	21876
842.796	21876
842.933	21827
843.069	21869
843.206	21846
843.343	21937
843.479	21873
843.616	21934
843.752	21766
843.889	21663
844.025	21892
844.162	21610
844.298	21770
844.435	21724
844.571	21606
844.708	21667
844.844	21850
844.98	21827
845.117	21899
845.253	21728
845.389	21789
845.525	22051
845.661	22352
845.798	22645
845.934	23140
846.07	23170
846.206	23223
846.342	22919
846.478	22489
846.614	21899
846.75	21606
846.886	21420
847.022	21241
847.158	21199
847.294	21184
847.429	21070
847.565	21043
847.701	21393
847.837	20842
847.972	20823
848.108	20986
848.244	20864
848.379	20644
848.515	20598
848.65	20693
848.786	20731
848.921	20705
849.057	20739
849.192	20777
849.328	20746
849.463	20655
849.598	20609
849.734	20571
849.869	20457
850.004	20431
850.14	20434
850.275	20305
850.41	20370
850.545	20339
850.68	20294
850.815	20301
850.95	20351
851.085	20598
851.22	20480
851.355	20332
851.49	20347
851.625	20271
851.76	20206
851.895	20301
852.03	20320
852.165	20305
852.299	20370
852.434	20450
852.569	20347
852.703	20347
852.838	20423
852.973	20427
853.107	20434
853.242	20122
853.376	20191
853.511	20008
853.645	20168
853.78	20294
853.914	20138
854.048	20107
854.183	20172
854.317	20195
854.451	20362
854.585	20275
854.72	20309
854.854	20290
854.988	20039
855.122	20195
855.256	20100
855.39	20119
855.524	20191
855.658	20149
855.792	20183
855.926	20259
856.06	20214
856.194	20290
856.327	20210
856.461	20115
856.595	20077
856.729	20286
856.862	20339
856.996	20161
857.13	20237
857.263	20252
857.397	20202
857.53	20050
857.664	20271
857.797	20206
857.931	20286
858.064	20134
858.197	20244
858.331	20043
858.464	20126
858.597	19944
858.731	20225
858.864	20107
858.997	20115
859.13	20100
859.263	20202
859.396	20244
859.529	20092
859.662	20001
859.795	19989
859.928	20077
860.061	20214
860.194	20267
860.327	20142
860.46	20107
860.592	20161
860.725	20183
860.858	20187
860.99	20062
861.123	20016
861.256	19951
861.388	20115
861.521	20587
861.653	20084
861.786	19860
861.918	20096
862.05	19982
862.183	20096
862.315	20039
862.447	20043
862.58	20096
862.712	19871
862.844	19868
862.976	20024
863.108	19932
863.24	20111
863.372	19769
863.504	19799
863.636	19780
863.768	19814
863.9	19849
864.032	19704
864.164	19788
864.296	19788
864.428	19890
864.559	19818
864.691	19799
864.823	19788
864.954	19791
865.086	19681
865.217	19662
865.349	19765
865.48	19700
865.612	19727
865.743	19769
865.875	19727
866.006	19700
866.137	19723
866.269	19776
866.4	19727
866.531	19658
866.662	19578
866.793	19639
866.924	19601
867.055	19601
867.186	19738
867.317	19586
867.448	19571
867.579	19533
867.71	19571
867.841	19590
867.972	19685
868.103	19597
868.233	19590
868.364	19525
868.495	19769
868.625	19822
868.756	19963
868.886	19769
869.017	19731
869.147	19997
869.278	19890
869.408	19928
869.539	19913
869.669	19898
869.799	19822
869.929	20016
870.06	19864
870.19	20180
870.32	20100
870.45	20153
870.58	20252
870.71	20343
870.84	20343
870.97	20138
871.1	20221
871.23	20389
871.36	20366
871.489	20366
871.619	20381
871.749	20381
871.879	20480
872.008	20514
872.138	20518
872.267	20355
872.397	20263
872.526	20275
872.656	20301
872.785	20438
872.915	20419
873.044	20480
873.173	20518
873.303	20617
873.432	20594
873.561	20663
873.69	20457
873.819	20450
873.948	20632
874.077	20434
874.206	20480
874.335	20575
874.464	20590
874.593	20796
874.722	20739
874.851	20796
874.979	20678
875.108	20842
875.237	20819
875.365	20533
875.494	20697
875.623	20773
875.751	20823
875.88	20807
876.008	20842
876.136	20998
876.265	21135
876.393	21317
876.521	21393
876.65	21321
876.778	21119
876.906	21226
877.034	21184
877.162	21089
877.29	21074
877.418	21123
877.546	21214
877.674	21226
877.802	21211
877.93	21150
878.058	21173
878.185	21123
878.313	21252
878.441	21169
878.568	21180
878.696	21363
878.824	21367
878.951	21629
879.079	21736
879.206	21945
879.333	21907
879.461	21918
879.588	22078
879.715	22291
879.842	22325
879.97	21926
880.097	21496
880.224	21287
880.351	21443
880.478	21321
880.605	21340
880.732	21214
880.859	21462
880.986	21252
881.112	21150
881.239	21089
881.366	20998
881.493	20925
881.619	20883
881.746	20887
881.872	20792
881.999	20815
882.125	20727
882.252	20861
882.378	20899
882.505	20967
882.631	20819
882.757	20617
882.883	20739
883.01	20568
883.136	20583
883.262	20526
883.388	20473
883.514	20552
883.64	20533
883.766	20389
883.892	20370
884.018	20393
884.143	20514
884.269	20549
884.395	20301
884.52	20081
884.646	20210
884.772	20191
884.897	20168
885.023	20130
885.148	20286
885.274	20294
885.399	20389
885.524	20195
885.65	20290
885.775	20130
885.9	20168
886.025	20237
886.15	20138
886.275	20054
886.4	20058
886.525	20031
886.65	20008
886.775	20024
886.9	20240
887.025	20374
887.149	20069
887.274	19894
887.399	19776
887.523	19879
887.648	19811
887.773	19830
887.897	19845
888.021	19868
888.146	19757
888.27	19887
888.395	19849
888.519	19776
888.643	19670
888.767	19818
888.891	19712
889.015	19567
889.139	19578
889.263	19590
889.387	19685
889.511	19624
889.635	19780
889.759	19548
889.883	19605
890.006	19559
890.13	19548
890.254	19552
890.377	19518
890.501	19312
890.624	19289
890.748	19460
890.871	19126
890.995	19202
891.118	19137
891.241	19065
891.364	19240
891.488	19327
891.611	19168
891.734	19164
891.857	19183
891.98	19103
892.103	19320
892.226	19156
892.349	19015
892.471	18958
892.594	19091
892.717	19080
892.839	19084
892.962	19046
893.085	19137
893.207	19008
893.33	18871
893.452	18962
893.575	19050
893.697	19034
893.819	19095
893.941	19255
894.064	19133
894.186	18966
894.308	19012
894.43	19072
894.552	19221
894.674	19103
894.796	18897
894.918	19015
895.04	18901
895.161	19095
895.283	19042
895.405	19084
895.526	18909
895.648	19061
895.769	19015
895.891	19057
896.012	19042
896.134	19023
896.255	18973
896.376	18958
896.498	19133
896.619	19171
896.74	18939
896.861	19050
896.982	19343
897.103	19506
897.224	19320
897.345	19217
897.466	19190
897.587	19259
897.708	19430
897.828	19282
897.949	19190
898.07	18985
898.19	19362
898.311	19343
898.431	19339
898.552	19308
898.672	19308
898.792	19407
898.913	19362
899.033	19171
899.153	19126
899.273	18905
899.393	19012
899.513	19118
899.633	18973
899.753	19114
899.873	18886
899.993	19004
900.113	18935
900.232	18916
900.352	18924
900.472	18764
900.591	18798
900.711	18760
900.83	18833
900.95	18916
901.069	18958
901.189	18715
901.308	18471
901.427	18403
901.546	18506
901.665	18441
901.784	18521
901.904	18304
902.023	18125
902.141	18098
902.26	17954
902.379	18026
902.498	17961
902.617	17882
902.735	17912
902.854	17885
902.973	17882
903.091	17535
903.21	17611
903.328	17562
903.446	17497
903.565	17459
903.683	17486
903.801	17322
903.919	17254
904.038	17425
904.156	17113
904.274	17216
904.392	17200
904.51	17121
904.627	17083
904.745	17162
904.863	17147
904.981	16927
905.098	16816
905.216	16812
905.334	16858
905.451	16881
905.569	16694
905.686	16850
905.803	16843
905.921	16588
906.038	16672
906.155	16748
906.272	16478
906.389	16485
906.506	16352
906.623	16371
906.74	16352
906.857	16230
906.974	16234
907.091	16466
907.208	16417
907.324	16284
907.441	16246
907.557	16090
907.674	16169
907.79	15972
907.907	16036
908.023	16105
908.139	15983
908.256	16002
908.372	15930
908.488	15964
908.604	15781
908.72	15637
908.836	15747
908.952	15663
909.068	15762
909.184	15816
909.3	15606
909.415	15800
909.531	15656
909.647	15450
909.762	15496
909.878	15416
909.993	15412
910.108	15401
910.224	15443
910.339	15336
910.454	15329
910.57	15245
910.685	15146
910.8	15367
910.915	15359
911.03	15207
911.145	15108
911.259	15051
911.374	14910
911.489	15001
911.604	14842
911.718	14720
911.833	14739
911.947	14708
912.062	14629
912.176	14712
912.291	14617
912.405	14785
912.519	14929
912.633	14861
912.748	14796
912.862	14727
912.976	14537
913.09	14476
913.204	14552
913.318	14545
913.431	14613
913.545	14682
913.659	14682
913.772	14560
913.886	14431
914	14423
914.113	14492
914.226	14564
914.34	14518
914.453	14336
914.566	14377
914.68	14298
914.793	14271
914.906	14149
915.019	13951
915.132	13940
915.245	14001
915.358	14062
915.47	14100
915.583	14084
915.696	14111
915.809	14168
915.921	14161
916.034	14005
916.146	13902
916.259	13932
916.371	13989
916.483	13921
916.595	13887
916.708	13944
916.82	13890
916.932	13894
917.044	13902
917.156	13830
917.268	13738
917.38	13719
917.491	13780
917.603	13689
917.715	13742
917.826	13852
917.938	13662
918.049	13575
918.161	13563
918.272	13894
918.384	13822
918.495	13693
918.606	13613
918.717	13495
918.828	13563
918.939	13540
919.05	13464
919.161	13430
919.272	13274
919.383	13384
919.494	13407
919.604	13693
919.715	13483
919.826	13472
919.936	13362
920.047	13548
920.157	13521
920.267	13613
920.378	13377
920.488	13396
920.598	13601
920.708	13689
920.818	13529
920.928	13575
921.038	13723
921.148	13727
921.258	13396
921.368	13194
921.477	13137
921.587	13137
921.697	13129
921.806	13217
921.916	13004
922.025	12886
922.134	12859
922.244	12840
922.353	12905
922.462	12677
922.571	12688
922.68	12509
922.789	12540
922.898	12578
923.007	12441
923.116	12536
923.224	12429
923.333	12456
923.442	12311
923.55	12357
923.659	12380
923.767	12384
923.876	12346
923.984	12346
924.092	12258
924.201	12220
924.309	12273
924.417	12178
924.525	12186
924.633	12136
924.741	13110
924.849	12064
924.956	12140
925.064	11992
925.172	11927
925.279	11920
925.387	11977
925.494	11973
925.602	12114
925.709	11939
925.816	11874
925.924	11927
926.031	12053
926.138	11916
926.245	11950
926.352	11813
926.459	11999
926.566	11935
926.673	11824
926.779	11767
926.886	11695
926.993	11600
927.099	11554
927.206	11562
927.312	11448
927.419	11604
927.525	11566
927.631	11573
927.737	11539
927.843	11395
927.95	11334
928.056	11383
928.162	11391
928.267	11463
928.373	12072
928.479	11455
928.585	11307
928.69	11402
928.796	11402
928.901	11280
929.007	11079
929.112	11269
929.218	11261
929.323	11201
929.428	11189
929.533	11318
929.638	11067
929.743	11071
929.848	11151
929.953	11102
930.058	10984
930.163	10824
930.267	10881
930.372	11060
930.477	10797
930.581	11029
930.685	10866
930.79	10771
930.894	10721
930.998	10710
931.103	10850
931.207	10489
931.311	10390
931.415	10405
931.519	10173
931.623	10093
