Data from test_V78500241_427.txt Node
Date: Fri Mar 25 14:36:41 CST 2022
User: usil
Spectrometer: V785-0024
Trigger mode: 0
Integration Time (sec): 4.000000E-1
Scans to average: 1
Nonlinearity correction enabled: false
Boxcar width: 0
Storing dark spectrum: false
XAxis mode: Wavelengths
Number of Pixels in Spectrum: 1024
>>>>>Begin Spectral Data<<<<<
801.071	26644
801.214	26537
801.356	26240
801.499	26183
801.641	26058
801.783	25970
801.926	25940
802.068	26012
802.211	25860
802.353	25784
802.496	25624
802.638	25734
802.78	25632
802.923	25651
803.065	25453
803.208	25457
803.35	25620
803.492	25628
803.635	25712
803.777	25529
803.919	25693
804.061	25776
804.204	25670
804.346	25441
804.488	25518
804.63	25540
804.773	25396
804.915	25487
805.057	25616
805.199	25586
805.341	25776
805.483	25685
805.626	25696
805.768	25529
805.91	25575
806.052	25548
806.194	25632
806.336	25712
806.478	25457
806.62	25586
806.762	25639
806.904	25845
807.046	26065
807.188	25932
807.33	25993
807.472	25944
807.614	25871
807.756	25928
807.898	25715
808.04	25674
808.182	25628
808.324	25719
808.465	25696
808.607	25921
808.749	26005
808.891	26199
809.033	26278
809.174	26202
809.316	26062
809.458	26244
809.6	25986
809.741	26153
809.883	26157
810.025	26256
810.166	26229
810.308	26248
810.45	26111
810.591	26187
810.733	25963
810.875	25906
811.016	26020
811.158	25864
811.299	25974
811.441	26031
811.582	26024
811.724	25909
811.865	25849
812.007	25814
812.148	26054
812.29	25940
812.431	25974
812.573	26161
812.714	26225
812.855	26431
812.997	26533
813.138	26617
813.279	26549
813.421	26370
813.562	26278
813.703	26256
813.845	26081
813.986	25681
814.127	25670
814.268	25411
814.41	25434
814.551	25476
814.692	25548
814.833	25335
814.974	25293
815.115	25403
815.256	25266
815.397	25278
815.539	25316
815.68	25202
815.821	25168
815.962	25228
816.103	25175
816.244	25080
816.385	25046
816.526	24935
816.666	24661
816.807	24677
816.948	24673
817.089	24844
817.23	24688
817.371	24536
817.512	24551
817.653	24536
817.793	24597
817.934	24551
818.075	24719
818.216	24574
818.356	24555
818.497	24414
818.638	24323
818.778	24319
818.919	24372
819.06	24376
819.2	24346
819.341	24308
819.481	24441
819.622	24532
819.762	24802
819.903	24677
820.043	24684
820.184	24673
820.324	24604
820.465	24654
820.605	24563
820.746	24559
820.886	24448
821.026	24570
821.167	24547
821.307	24429
821.447	24471
821.588	24197
821.728	24072
821.868	24030
822.008	23946
822.149	23958
822.289	23779
822.429	23684
822.569	23623
822.709	23467
822.849	23448
822.99	23372
823.13	23356
823.27	23178
823.41	23307
823.55	22968
823.69	23124
823.83	23174
823.97	23056
824.11	22987
824.25	22820
824.389	22946
824.529	22919
824.669	22869
824.809	23048
824.949	23025
825.089	23044
825.228	22915
825.368	22797
825.508	22752
825.648	22793
825.787	22759
825.927	22717
826.067	22675
826.206	22702
826.346	22759
826.485	22748
826.625	22759
826.765	22862
826.904	22778
827.044	22527
827.183	22542
827.323	22417
827.462	22428
827.601	22375
827.741	22382
827.88	22413
828.02	22322
828.159	22417
828.298	22405
828.437	22485
828.577	22306
828.716	22466
828.855	22265
828.994	22120
829.134	22090
829.273	22090
829.412	22078
829.551	22063
829.69	22059
829.829	21975
829.968	22147
830.107	22112
830.246	21983
830.385	21994
830.524	22051
830.663	21857
830.802	21770
830.941	21583
831.08	21599
831.219	21637
831.357	21759
831.496	21915
831.635	21595
831.774	21431
831.913	21507
832.051	21572
832.19	21523
832.329	21466
832.467	21382
832.606	21302
832.744	21367
832.883	21275
833.022	21176
833.16	21340
833.299	21317
833.437	21416
833.576	21450
833.714	21264
833.852	21431
833.991	21287
834.129	21329
834.267	21416
834.406	21275
834.544	21424
834.682	21294
834.821	21313
834.959	21462
835.097	21279
835.235	21408
835.373	21203
835.511	21245
835.65	21096
835.788	21169
835.926	21055
836.064	21043
836.202	21005
836.34	21230
836.478	21256
836.615	21081
836.753	21214
836.891	21272
837.029	21211
837.167	21138
837.305	21058
837.443	21138
837.58	21005
837.718	21051
837.856	21005
837.993	21055
838.131	21066
838.269	20937
838.406	20883
838.544	20800
838.681	20800
838.819	20667
838.956	20518
839.094	20488
839.231	20488
839.369	20712
839.506	20952
839.643	20651
839.781	20427
839.918	20362
840.055	20438
840.193	20450
840.33	20389
840.467	20366
840.604	20400
840.742	20670
840.879	20237
841.016	20328
841.153	20256
841.29	20473
841.427	20385
841.564	20412
841.701	20454
841.838	20305
841.975	20278
842.112	20237
842.249	20126
842.385	20206
842.522	20206
842.659	20176
842.796	20092
842.933	20039
843.069	20081
843.206	19997
843.343	20195
843.479	20062
843.616	20191
843.752	19887
843.889	19791
844.025	20058
844.162	19830
844.298	19944
844.435	19772
844.571	19734
844.708	19868
844.844	20180
844.98	19974
845.117	19932
845.253	19811
845.389	19719
845.525	19791
845.661	19734
845.798	19639
845.934	19868
846.07	19544
846.206	19677
846.342	19822
846.478	19597
846.614	19518
846.75	19400
846.886	19354
847.022	19518
847.158	19396
847.294	19324
847.429	19373
847.565	19331
847.701	19521
847.837	19099
847.972	19088
848.108	19152
848.244	19244
848.379	18947
848.515	18970
848.65	18894
848.786	18852
848.921	18882
849.057	18954
849.192	18966
849.328	18943
849.463	18897
849.598	18890
849.734	18894
849.869	18738
850.004	18654
850.14	18734
850.275	18631
850.41	18593
850.545	18635
850.68	18582
850.815	18593
850.95	18635
851.085	18753
851.22	18726
851.355	18540
851.49	18597
851.625	18597
851.76	18646
851.895	18631
852.03	18525
852.165	18521
852.299	18566
852.434	18669
852.569	18669
852.703	18604
852.838	18684
852.973	18734
853.107	18684
853.242	18578
853.376	18448
853.511	18369
853.645	18452
853.78	18509
853.914	18517
854.048	18410
854.183	18426
854.317	18426
854.451	18604
854.585	18388
854.72	18426
854.854	18540
854.988	18361
855.122	18365
855.256	18407
855.39	18369
855.524	18532
855.658	18456
855.792	18395
855.926	18486
856.06	18486
856.194	18528
856.327	18357
856.461	18289
856.595	18426
856.729	18403
856.862	18467
856.996	18475
857.13	18445
857.263	18422
857.397	18475
857.53	18361
857.664	18414
857.797	18441
857.931	18498
858.064	18479
858.197	18445
858.331	18422
858.464	18388
858.597	18350
858.731	18357
858.864	18433
858.997	18376
859.13	18399
859.263	18330
859.396	18483
859.529	18426
859.662	18353
859.795	18410
859.928	18273
860.061	18582
860.194	18509
860.327	18486
860.46	18429
860.592	18399
860.725	18525
860.858	18460
860.99	18456
861.123	18194
861.256	18251
861.388	18315
861.521	19152
861.653	18235
861.786	18258
861.918	18292
862.05	18304
862.183	18445
862.315	18391
862.447	18467
862.58	18346
862.712	18220
862.844	18045
862.976	18209
863.108	18178
863.24	18479
863.372	18053
863.504	18076
863.636	18068
863.768	18232
863.9	18140
864.032	18136
864.164	18007
864.296	18057
864.428	18178
864.559	18129
864.691	18213
864.823	18178
864.954	18076
865.086	18133
865.217	18026
865.349	17969
865.48	18060
865.612	18026
865.743	18117
865.875	18072
866.006	17931
866.137	18091
866.269	17980
866.4	18053
866.531	18011
866.662	17984
866.793	17958
866.924	17996
867.055	17942
867.186	17935
867.317	17950
867.448	17923
867.579	17863
867.71	17946
867.841	17885
867.972	17984
868.103	17939
868.233	17942
868.364	17988
868.495	17931
868.625	18194
868.756	18380
868.886	18087
869.017	18247
869.147	18224
869.278	18342
869.408	18152
869.539	18201
869.669	18251
869.799	18232
869.929	18239
870.06	18342
870.19	18445
870.32	18456
870.45	18460
870.58	18536
870.71	18677
870.84	18661
870.97	18604
871.1	18616
871.23	18764
871.36	18734
871.489	18620
871.619	18768
871.749	18810
871.879	18814
872.008	18871
872.138	18753
872.267	18760
872.397	18639
872.526	18608
872.656	18498
872.785	18722
872.915	18772
873.044	18939
873.173	18764
873.303	18882
873.432	18886
873.561	18989
873.69	18779
873.819	18928
873.948	18871
874.077	18795
874.206	18783
874.335	18817
874.464	18977
874.593	19061
874.722	19019
874.851	19118
874.979	19152
875.108	19126
875.237	19057
875.365	18970
875.494	19187
875.623	19209
875.751	19027
875.88	19118
876.008	19240
876.136	19365
876.265	19422
876.393	19620
876.521	19597
876.65	19609
876.778	19616
876.906	19419
877.034	19430
877.162	19480
877.29	19445
877.418	19282
877.546	19426
877.674	19521
877.802	19537
877.93	19510
878.058	19495
878.185	19499
878.313	19415
878.441	19407
878.568	19343
878.696	19434
878.824	19373
878.951	19518
879.079	19811
879.206	19799
879.333	19704
879.461	19480
879.588	19609
879.715	19662
879.842	19753
879.97	19510
880.097	19384
880.224	19400
880.351	19343
880.478	19381
880.605	19240
880.732	19289
880.859	19575
880.986	19304
881.112	19445
881.239	19259
881.366	19072
881.493	18943
881.619	18951
881.746	18989
881.872	18993
881.999	18977
882.125	18958
882.252	18981
882.378	18932
882.505	19107
882.631	18840
882.757	18692
882.883	18829
883.01	18810
883.136	18688
883.262	18665
883.388	18525
883.514	18806
883.64	18654
883.766	18707
883.892	18517
884.018	18578
884.143	18703
884.269	18840
884.395	18528
884.52	18380
884.646	18403
884.772	18426
884.897	18228
885.023	18437
885.148	18422
885.274	18509
885.399	18448
885.524	18304
885.65	18441
885.775	18372
885.9	18361
886.025	18483
886.15	18471
886.275	18266
886.4	18266
886.525	18190
886.65	18243
886.775	18281
886.9	18456
887.025	18547
887.149	18365
887.274	18133
887.399	18129
887.523	18155
887.648	18015
887.773	18057
887.897	18213
888.021	18190
888.146	18171
888.27	18201
888.395	18243
888.519	18197
888.643	18121
888.767	18194
888.891	18159
889.015	17931
889.139	18064
889.263	17843
889.387	18022
889.511	18220
889.635	18171
889.759	17889
889.883	18068
890.006	18022
890.13	17988
890.254	17897
890.377	17870
890.501	17733
890.624	17752
890.748	17832
890.871	17661
890.995	17592
891.118	17501
891.241	17638
891.364	17547
891.488	17661
891.611	17562
891.734	17562
891.857	17611
891.98	17699
892.103	17577
892.226	17577
892.349	17577
892.471	17414
892.594	17566
892.717	17512
892.839	17509
892.962	17463
893.085	17615
893.207	17573
893.33	17436
893.452	17452
893.575	17577
893.697	17486
893.819	17703
893.941	17775
894.064	17619
894.186	17501
894.308	17425
894.43	17573
894.552	17710
894.674	17668
894.796	17520
894.918	17474
895.04	17452
895.161	17581
895.283	17566
895.405	17383
895.526	17505
895.648	17589
895.769	17596
895.891	17608
896.012	17615
896.134	17566
896.255	17691
896.376	17611
896.498	17570
896.619	17611
896.74	17566
896.861	17714
896.982	17954
897.103	18045
897.224	17901
897.345	17866
897.466	17771
897.587	17794
897.708	17931
897.828	17824
897.949	17764
898.07	17771
898.19	17805
898.311	17916
898.431	17809
898.552	17863
898.672	17942
898.792	17885
898.913	17946
899.033	17855
899.153	17726
899.273	17604
899.393	17592
899.513	17737
899.633	17649
899.753	17619
899.873	17672
899.993	17661
900.113	17543
900.232	17687
900.352	17486
900.472	17532
900.591	17448
900.711	17410
900.83	17353
900.95	17596
901.069	17482
901.189	17311
901.308	17181
901.427	17071
901.546	17083
901.665	17181
901.784	17064
901.904	16957
902.023	16866
902.141	16721
902.26	16641
902.379	16683
902.498	16645
902.617	16519
902.735	16664
902.854	16622
902.973	16500
903.091	16394
903.21	16272
903.328	16306
903.446	16211
903.565	16086
903.683	16162
903.801	16013
903.919	16097
904.038	16036
904.156	15846
904.274	15975
904.392	15892
904.51	15899
904.627	15850
904.745	15945
904.863	15876
904.981	15660
905.098	15595
905.216	15545
905.334	15557
905.451	15633
905.569	15538
905.686	15553
905.803	15523
905.921	15359
906.038	15408
906.155	15287
906.272	15272
906.389	15348
906.506	15131
906.623	15154
906.74	15154
906.857	15017
906.974	15047
907.091	15176
907.208	15233
907.324	15032
907.441	14944
907.557	14823
907.674	14792
907.79	14842
907.907	14811
908.023	14857
908.139	14815
908.256	14697
908.372	14697
908.488	14682
908.604	14511
908.72	14583
908.836	14488
908.952	14503
909.068	14507
909.184	14629
909.3	14526
909.415	14598
909.531	14492
909.647	14328
909.762	14221
909.878	14214
909.993	14320
910.108	14237
910.224	14301
910.339	14263
910.454	14130
910.57	13997
910.685	14008
910.8	14374
910.915	14275
911.03	14115
911.145	13982
911.259	13940
911.374	13921
911.489	13776
911.604	13769
911.718	13540
911.833	13643
911.947	13571
912.062	13438
912.176	13529
912.291	13677
912.405	13597
912.519	13780
912.633	13799
912.748	13556
912.862	13613
912.976	13537
913.09	13377
913.204	13422
913.318	13460
913.431	13567
913.545	13544
913.659	13597
913.772	13480
913.886	13282
914	13274
914.113	13350
914.226	13388
914.34	13343
914.453	13175
914.566	13457
914.68	13240
914.793	13213
914.906	13080
915.019	12924
915.132	12859
915.245	12958
915.358	13053
915.47	12981
915.583	12981
915.696	13122
915.809	13145
915.921	13095
916.034	12909
916.146	12848
916.259	12791
916.371	13061
916.483	12935
916.595	12833
916.708	12825
916.82	12856
916.932	12798
917.044	12810
917.156	12764
917.268	12707
917.38	12639
917.491	12711
917.603	12749
917.715	12776
917.826	12802
917.938	12688
918.049	12578
918.161	12692
918.272	12821
918.384	12741
918.495	12662
918.606	12464
918.717	12441
918.828	12551
918.939	12521
919.05	12388
919.161	12506
919.272	12296
919.383	12266
919.494	12471
919.604	12703
919.715	12460
919.826	12395
919.936	12525
920.047	12509
920.157	12498
920.267	12795
920.378	12502
920.488	12391
920.598	12639
920.708	12768
920.818	12654
920.928	12612
921.038	12859
921.148	12700
921.258	12437
921.368	12395
921.477	12232
921.587	12213
921.697	12098
921.806	12232
921.916	12144
922.025	12114
922.134	11916
922.244	11863
922.353	11817
922.462	11851
922.571	11775
922.68	11566
922.789	11577
922.898	11562
923.007	11512
923.116	11710
923.224	11505
923.333	11543
923.442	11478
923.55	11421
923.659	11516
923.767	11490
923.876	11391
923.984	11478
924.092	11326
924.201	11414
924.309	11360
924.417	11341
924.525	11288
924.633	11269
924.741	12205
924.849	11113
924.956	11280
925.064	11201
925.172	11010
925.279	11117
925.387	11102
925.494	11178
925.602	11235
925.709	11155
925.816	10999
925.924	11052
926.031	11181
926.138	11105
926.245	11223
926.352	11018
926.459	11124
926.566	11048
926.673	11025
926.779	10889
926.886	10938
926.993	10847
927.099	10774
927.206	10729
927.312	10740
927.419	10744
927.525	10710
927.631	10736
927.737	10702
927.843	10561
927.95	10451
928.056	10607
928.162	10546
928.267	10653
928.373	11178
928.479	10710
928.585	10542
928.69	10546
928.796	10580
928.901	10466
929.007	10348
929.112	10447
929.218	10356
929.323	10394
929.428	10325
929.533	10573
929.638	10227
929.743	10356
929.848	10333
929.953	10333
930.058	10223
930.163	10055
930.267	10105
930.372	10306
930.477	10006
930.581	10219
930.685	10143
930.79	9960
930.894	9983
930.998	9964
931.103	10067
931.207	9713
931.311	9675
931.415	9606
931.519	9462
931.623	9363
