Data from test_V78500241_2974.txt Node
Date: Fri Mar 25 14:54:25 CST 2022
User: usil
Spectrometer: V785-0024
Trigger mode: 0
Integration Time (sec): 4.000000E-1
Scans to average: 1
Nonlinearity correction enabled: false
Boxcar width: 0
Storing dark spectrum: false
XAxis mode: Wavelengths
Number of Pixels in Spectrum: 1024
>>>>>Begin Spectral Data<<<<<
801.071	21983
801.214	21979
801.356	21770
801.499	21751
801.641	21599
801.783	21504
801.926	21526
802.068	21397
802.211	21211
802.353	21306
802.496	21123
802.638	20937
802.78	20982
802.923	20834
803.065	20792
803.208	20743
803.35	20792
803.492	20925
803.635	20902
803.777	20845
803.919	20891
804.061	21077
804.204	20762
804.346	20758
804.488	20537
804.63	20674
804.773	20731
804.915	20689
805.057	20727
805.199	20758
805.341	20667
805.483	20910
805.626	20804
805.768	20735
805.91	20651
806.052	20762
806.194	20640
806.336	20948
806.478	20765
806.62	20541
806.762	20819
806.904	20842
807.046	21195
807.188	20948
807.33	21077
807.472	21142
807.614	20925
807.756	20933
807.898	20750
808.04	20781
808.182	20754
808.324	20785
808.465	20804
808.607	21036
808.749	21032
808.891	21176
809.033	21127
809.174	21119
809.316	20975
809.458	21131
809.6	20921
809.741	21058
809.883	21176
810.025	21264
810.166	21313
810.308	21192
810.45	21157
810.591	21043
810.733	20967
810.875	20849
811.016	20648
811.158	20750
811.299	20720
811.441	21013
811.582	20986
811.724	20918
811.865	20708
812.007	20781
812.148	20834
812.29	20914
812.431	21085
812.573	21165
812.714	21146
812.855	21355
812.997	21488
813.138	21545
813.279	21462
813.421	21416
813.562	21275
813.703	21237
813.845	21024
813.986	20701
814.127	20598
814.268	20518
814.41	20317
814.551	20495
814.692	20473
814.833	20339
814.974	20339
815.115	20393
815.256	20240
815.397	20252
815.539	20366
815.68	20134
815.821	20088
815.962	20202
816.103	20065
816.244	19936
816.385	19864
816.526	19936
816.666	19738
816.807	19510
816.948	19693
817.089	19666
817.23	19521
817.371	19597
817.512	19468
817.653	19483
817.793	19453
817.934	19464
818.075	19544
818.216	19575
818.356	19438
818.497	19365
818.638	19209
818.778	19133
818.919	19259
819.06	19236
819.2	19304
819.341	19396
819.481	19384
819.622	19457
819.762	19700
819.903	19628
820.043	19582
820.184	19483
820.324	19510
820.465	19559
820.605	19480
820.746	19434
820.886	19407
821.026	19468
821.167	19464
821.307	19582
821.447	19411
821.588	19270
821.728	19133
821.868	19038
822.008	18837
822.149	18840
822.289	18890
822.429	18661
822.569	18563
822.709	18479
822.849	18369
822.99	18300
823.13	18403
823.27	18330
823.41	18235
823.55	18072
823.69	18076
823.83	18186
823.97	18034
824.11	17916
824.25	17950
824.389	17999
824.529	17961
824.669	18060
824.809	18133
824.949	18015
825.089	18026
825.228	18003
825.368	17767
825.508	17790
825.648	17699
825.787	17775
825.927	17897
826.067	17710
826.206	17691
826.346	17805
826.485	17836
826.625	17687
826.765	17817
826.904	17878
827.044	17558
827.183	17482
827.323	17486
827.462	17322
827.601	17421
827.741	17436
827.88	17421
828.02	17334
828.159	17402
828.298	17414
828.437	17547
828.577	17273
828.716	17566
828.855	17277
828.994	17254
829.134	17231
829.273	17162
829.412	17162
829.551	17025
829.69	17174
829.829	17200
829.968	17421
830.107	17181
830.246	17193
830.385	17197
830.524	17102
830.663	17121
830.802	16847
830.941	16763
831.08	16702
831.219	16877
831.357	16915
831.496	16987
831.635	16687
831.774	16706
831.913	16630
832.051	16527
832.19	16679
832.329	16637
832.467	16417
832.606	16443
832.744	16375
832.883	16447
833.022	16485
833.16	16337
833.299	16440
833.437	16405
833.576	16512
833.714	16481
833.852	16577
833.991	16569
834.129	16519
834.267	16466
834.406	16470
834.544	16561
834.682	16538
834.821	16527
834.959	16660
835.097	16531
835.235	16561
835.373	16466
835.511	16542
835.65	16390
835.788	16363
835.926	16329
836.064	16253
836.202	16215
836.34	16455
836.478	16462
836.615	16386
836.753	16382
836.891	16497
837.029	16424
837.167	16344
837.305	16261
837.443	16356
837.58	16242
837.718	16348
837.856	16356
837.993	16242
838.131	16139
838.269	16147
838.406	16116
838.544	16143
838.681	16032
838.819	15994
838.956	15743
839.094	15804
839.231	15865
839.369	15964
839.506	16306
839.643	16029
839.781	15793
839.918	15781
840.055	15816
840.193	15732
840.33	15766
840.467	15903
840.604	15732
840.742	16048
840.879	15633
841.016	15728
841.153	15755
841.29	15827
841.427	15816
841.564	15857
841.701	15831
841.838	15762
841.975	15618
842.112	15793
842.249	15682
842.385	15591
842.522	15781
842.659	15675
842.796	15561
842.933	15641
843.069	15545
843.206	15485
843.343	15675
843.479	15625
843.616	15580
843.752	15386
843.889	15370
844.025	15431
844.162	15321
844.298	15538
844.435	15355
844.571	15348
844.708	15500
844.844	15523
844.98	15549
845.117	15469
845.253	15317
845.389	15340
845.525	15291
845.661	15264
845.798	15154
845.934	15294
846.07	15043
846.206	15165
846.342	15291
846.478	15184
846.614	15036
846.75	14918
846.886	14899
847.022	15081
847.158	15005
847.294	14956
847.429	14952
847.565	14937
847.701	15211
847.837	14754
847.972	14564
848.108	14902
848.244	14746
848.379	14579
848.515	14526
848.65	14484
848.786	14526
848.921	14579
849.057	14735
849.192	14598
849.328	14613
849.463	14621
849.598	14465
849.734	14442
849.869	14282
850.004	14358
850.14	14393
850.275	14328
850.41	14366
850.545	14301
850.68	14385
850.815	14389
850.95	14377
851.085	14522
851.22	14423
851.355	14309
851.49	14282
851.625	14286
851.76	14267
851.895	14271
852.03	14191
852.165	14336
852.299	14324
852.434	14370
852.569	14305
852.703	14393
852.838	14476
852.973	14381
853.107	14457
853.242	14374
853.376	14218
853.511	14088
853.645	14218
853.78	14336
853.914	14240
854.048	14134
854.183	14092
854.317	14176
854.451	14328
854.585	14164
854.72	14069
854.854	14248
854.988	14046
855.122	14103
855.256	14027
855.39	14195
855.524	14153
855.658	14248
855.792	14130
855.926	14199
856.06	14191
856.194	14225
856.327	14225
856.461	14145
856.595	14111
856.729	14168
856.862	14271
856.996	14138
857.13	14263
857.263	14313
857.397	14336
857.53	14195
857.664	14233
857.797	14221
857.931	14317
858.064	14214
858.197	14309
858.331	14145
858.464	14183
858.597	14077
858.731	14221
858.864	14115
858.997	14206
859.13	14286
859.263	14214
859.396	14214
859.529	14172
859.662	14263
859.795	14115
859.928	14126
860.061	14370
860.194	14377
860.327	14176
860.46	14237
860.592	14313
860.725	14305
860.858	14317
860.99	14218
861.123	14081
861.256	14172
861.388	14263
861.521	14792
861.653	14035
861.786	13947
861.918	14088
862.05	14180
862.183	14016
862.315	14187
862.447	14191
862.58	14054
862.712	13947
862.844	13917
862.976	14016
863.108	14039
863.24	14370
863.372	13936
863.504	13955
863.636	13921
863.768	14058
863.9	13967
864.032	13795
864.164	13887
864.296	14016
864.428	14065
864.559	14123
864.691	13997
864.823	14058
864.954	14005
865.086	14005
865.217	13826
865.349	13909
865.48	13986
865.612	13947
865.743	14084
865.875	13970
866.006	13951
866.137	13917
866.269	14065
866.4	14005
866.531	13894
866.662	13928
866.793	13765
866.924	13890
867.055	13959
867.186	13913
867.317	13959
867.448	13887
867.579	13887
867.71	13814
867.841	13841
867.972	13974
868.103	13909
868.233	13906
868.364	13959
868.495	14039
868.625	14187
868.756	14355
868.886	14199
869.017	14218
869.147	14366
869.278	14278
869.408	14320
869.539	14161
869.669	14305
869.799	14191
869.929	14339
870.06	14415
870.19	14461
870.32	14503
870.45	14454
870.58	14537
870.71	14708
870.84	14785
870.97	14526
871.1	14530
871.23	14659
871.36	14800
871.489	14746
871.619	14792
871.749	14849
871.879	14876
872.008	14902
872.138	14750
872.267	14887
872.397	14693
872.526	14606
872.656	14503
872.785	14640
872.915	14731
873.044	15013
873.173	14845
873.303	14880
873.432	14986
873.561	14971
873.69	14887
873.819	14773
873.948	14902
874.077	14853
874.206	14823
874.335	14853
874.464	15001
874.593	15116
874.722	15028
874.851	15138
874.979	15138
875.108	15199
875.237	15081
875.365	15157
875.494	15207
875.623	15211
875.751	15188
875.88	15226
876.008	15348
876.136	15268
876.265	15519
876.393	15652
876.521	15739
876.65	15561
876.778	15553
876.906	15507
877.034	15587
877.162	15553
877.29	15564
877.418	15557
877.546	15526
877.674	15549
877.802	15568
877.93	15504
878.058	15500
878.185	15473
878.313	15572
878.441	15584
878.568	15507
878.696	15428
878.824	15587
878.951	15553
879.079	15835
879.206	15823
879.333	15720
879.461	15713
879.588	15625
879.715	15724
879.842	15880
879.97	15622
880.097	15443
880.224	15431
880.351	15492
880.478	15408
880.605	15374
880.732	15370
880.859	15652
880.986	15462
881.112	15511
881.239	15344
881.366	15173
881.493	15169
881.619	15058
881.746	15146
881.872	15062
881.999	15028
882.125	15146
882.252	15157
882.378	15036
882.505	15351
882.631	15093
882.757	14883
882.883	15043
883.01	14887
883.136	14758
883.262	14773
883.388	14739
883.514	14914
883.64	14967
883.766	14891
883.892	14716
884.018	14731
884.143	14880
884.269	14967
884.395	14651
884.52	14648
884.646	14651
884.772	14629
884.897	14583
885.023	14625
885.148	14743
885.274	14682
885.399	14697
885.524	14587
885.65	14629
885.775	14682
885.9	14575
886.025	14693
886.15	14651
886.275	14602
886.4	14571
886.525	14568
886.65	14549
886.775	14571
886.9	14708
887.025	14754
887.149	14571
887.274	14469
887.399	14427
887.523	14442
887.648	14404
887.773	14355
887.897	14427
888.021	14431
888.146	14419
888.27	14533
888.395	14621
888.519	14488
888.643	14526
888.767	14499
888.891	14290
889.015	14301
889.139	14347
889.263	14237
889.387	14533
889.511	14473
889.635	14556
889.759	14332
889.883	14347
890.006	14377
890.13	14469
890.254	14271
890.377	14225
890.501	14123
890.624	14126
890.748	14168
890.871	14088
890.995	13978
891.118	14005
891.241	13951
891.364	13967
891.488	14073
891.611	13951
891.734	14024
891.857	14145
891.98	13959
892.103	14020
892.226	14123
892.349	13967
892.471	13944
892.594	13921
892.717	14008
892.839	14069
892.962	14031
893.085	14119
893.207	14046
893.33	13879
893.452	13925
893.575	14088
893.697	14050
893.819	14214
893.941	14157
894.064	14180
894.186	14001
894.308	13978
894.43	14172
894.552	14294
894.674	14142
894.796	14001
894.918	14043
895.04	14012
895.161	14164
895.283	14145
895.405	14050
895.526	14031
895.648	14157
895.769	14172
895.891	14244
896.012	14199
896.134	14259
896.255	14187
896.376	14191
896.498	14221
896.619	14237
896.74	14191
896.861	14259
896.982	14450
897.103	14697
897.224	14545
897.345	14374
897.466	14347
897.587	14438
897.708	14552
897.828	14511
897.949	14423
898.07	14374
898.19	14358
898.311	14648
898.431	14389
898.552	14556
898.672	14587
898.792	14678
898.913	14541
899.033	14465
899.153	14438
899.273	14370
899.393	14400
899.513	14408
899.633	14393
899.753	14480
899.873	14336
899.993	14423
900.113	14423
900.232	14450
900.352	14427
900.472	14389
900.591	14218
900.711	14313
900.83	14233
900.95	14332
901.069	14431
901.189	14119
901.308	13967
901.427	13989
901.546	13932
901.665	13902
901.784	14039
901.904	13803
902.023	13822
902.141	13521
902.26	13540
902.379	13632
902.498	13643
902.617	13403
902.735	13636
902.854	13491
902.973	13331
903.091	13263
903.21	13228
903.328	13221
903.446	13221
903.565	13069
903.683	13088
903.801	13008
903.919	13076
904.038	13012
904.156	12840
904.274	12954
904.392	12764
904.51	12878
904.627	12905
904.745	12954
904.863	13027
904.981	12662
905.098	12525
905.216	12601
905.334	12601
905.451	12494
905.569	12517
905.686	12612
905.803	12601
905.921	12441
906.038	12498
906.155	12452
906.272	12361
906.389	12323
906.506	12140
906.623	12163
906.74	12224
906.857	12049
906.974	12091
907.091	12262
907.208	12369
907.324	12175
907.441	12133
907.557	11969
907.674	11897
907.79	11805
907.907	11885
908.023	11988
908.139	11935
908.256	11870
908.372	11805
908.488	11802
908.604	11672
908.72	11551
908.836	11695
908.952	11608
909.068	11661
909.184	11764
909.3	11615
909.415	11657
909.531	11604
909.647	11547
909.762	11398
909.878	11387
909.993	11528
910.108	11455
910.224	11387
910.339	11493
910.454	11376
910.57	11239
910.685	11246
910.8	11551
910.915	11501
911.03	11387
911.145	11178
911.259	11079
911.374	11204
911.489	11033
911.604	11010
911.718	10919
911.833	10968
911.947	10812
912.062	10797
912.176	10877
912.291	10892
912.405	10934
912.519	11037
912.633	11109
912.748	10919
912.862	10915
912.976	10721
913.09	10691
913.204	10694
913.318	10820
913.431	10892
913.545	10908
913.659	10908
913.772	10809
913.886	10679
914	10752
914.113	10885
914.226	10835
914.34	10759
914.453	10561
914.566	10793
914.68	10626
914.793	10622
914.906	10398
915.019	10268
915.132	10276
915.245	10421
915.358	10447
915.47	10424
915.583	10413
915.696	10485
915.809	10550
915.921	10645
916.034	10432
916.146	10360
916.259	10344
916.371	10580
916.483	10462
916.595	10299
916.708	10394
916.82	10375
916.932	10371
917.044	10314
917.156	10322
917.268	10234
917.38	10333
917.491	10268
917.603	10325
917.715	10398
917.826	10329
917.938	10287
918.049	10090
918.161	10268
918.272	10352
918.384	10348
918.495	10246
918.606	10211
918.717	10105
918.828	10158
918.939	10181
919.05	10051
919.161	10059
919.272	9937
919.383	9941
919.494	10230
919.604	10386
919.715	10150
919.826	10097
919.936	10078
920.047	10261
920.157	10230
920.267	10371
920.378	10150
920.488	10139
920.598	10352
920.708	10497
920.818	10341
920.928	10310
921.038	10561
921.148	10500
921.258	10177
921.368	10158
921.477	9983
921.587	9975
921.697	9854
921.806	10055
921.916	9857
922.025	9785
922.134	9732
922.244	9667
922.353	9724
922.462	9553
922.571	9545
922.68	9443
922.789	9477
922.898	9462
923.007	9310
923.116	9359
923.224	9408
923.333	9416
923.442	9256
923.55	9321
923.659	9340
923.767	9348
923.876	9291
923.984	9370
924.092	9253
924.201	9310
924.309	9268
924.417	9275
924.525	9195
924.633	9256
924.741	10135
924.849	9039
924.956	9253
925.064	9081
925.172	9024
925.279	9028
925.387	9150
925.494	9112
925.602	9203
925.709	9157
925.816	9009
925.924	9119
926.031	9157
926.138	9077
926.245	9127
926.352	8994
926.459	9039
926.566	9142
926.673	9043
926.779	8967
926.886	9013
926.993	8804
927.099	8834
927.206	8693
927.312	8659
927.419	8880
927.525	8880
927.631	8815
927.737	8697
927.843	8644
927.95	8598
928.056	8682
928.162	8693
928.267	8663
928.373	9279
928.479	8762
928.585	8560
928.69	8697
928.796	8743
928.901	8594
929.007	8476
929.112	8678
929.218	8606
929.323	8514
929.428	8518
929.533	8674
929.638	8492
929.743	8518
929.848	8537
929.953	8533
930.058	8404
930.163	8286
930.267	8267
930.372	8434
930.477	8229
930.581	8408
930.685	8320
930.79	8256
930.894	8301
930.998	8157
931.103	8457
931.207	8016
931.311	7921
931.415	7936
931.519	7689
931.623	7685
