Data from test_V78500241_3508.txt Node
Date: Fri Mar 25 14:58:08 CST 2022
User: usil
Spectrometer: V785-0024
Trigger mode: 0
Integration Time (sec): 4.000000E-1
Scans to average: 1
Nonlinearity correction enabled: false
Boxcar width: 0
Storing dark spectrum: false
XAxis mode: Wavelengths
Number of Pixels in Spectrum: 1024
>>>>>Begin Spectral Data<<<<<
801.071	21960
801.214	21728
801.356	21629
801.499	21530
801.641	21367
801.783	21233
801.926	21443
802.068	21165
802.211	21203
802.353	21081
802.496	20864
802.638	20765
802.78	20670
802.923	20648
803.065	20518
803.208	20533
803.35	20659
803.492	20609
803.635	20773
803.777	20568
803.919	20716
804.061	20975
804.204	20697
804.346	20575
804.488	20541
804.63	20575
804.773	20518
804.915	20530
805.057	20621
805.199	20427
805.341	20663
805.483	20587
805.626	20602
805.768	20461
805.91	20503
806.052	20461
806.194	20419
806.336	20697
806.478	20541
806.62	20404
806.762	20621
806.904	20686
807.046	20963
807.188	20777
807.33	20788
807.472	20785
807.614	20777
807.756	20743
807.898	20651
808.04	20499
808.182	20609
808.324	20564
808.465	20511
808.607	20765
808.749	20845
808.891	20944
809.033	21055
809.174	21001
809.316	20876
809.458	20925
809.6	20788
809.741	20918
809.883	20883
810.025	21131
810.166	21047
810.308	20941
810.45	21017
810.591	20868
810.733	20716
810.875	20609
811.016	20617
811.158	20511
811.299	20708
811.441	20739
811.582	20746
811.724	20632
811.865	20533
812.007	20427
812.148	20530
812.29	20678
812.431	20773
812.573	20899
812.714	21100
812.855	21058
812.997	21294
813.138	21298
813.279	21355
813.421	21116
813.562	21017
813.703	20872
813.845	20758
813.986	20511
814.127	20214
814.268	20210
814.41	20240
814.551	20161
814.692	20286
814.833	20039
814.974	20180
815.115	20138
815.256	19967
815.397	20058
815.539	19909
815.68	19967
815.821	19951
815.962	19799
816.103	19951
816.244	19738
816.385	19655
816.526	19620
816.666	19537
816.807	19289
816.948	19362
817.089	19499
817.23	19316
817.371	19285
817.512	19232
817.653	19285
817.793	19232
817.934	19282
818.075	19270
818.216	19293
818.356	19251
818.497	19152
818.638	18985
818.778	19012
818.919	18916
819.06	19053
819.2	19080
819.341	19137
819.481	19126
819.622	19308
819.762	19586
819.903	19415
820.043	19316
820.184	19190
820.324	19266
820.465	19331
820.605	19312
820.746	19213
820.886	19129
821.026	19247
821.167	19152
821.307	19285
821.447	19168
821.588	19095
821.728	19065
821.868	18776
822.008	18825
822.149	18635
822.289	18703
822.429	18403
822.569	18342
822.709	18369
822.849	18121
822.99	18197
823.13	18216
823.27	18098
823.41	17942
823.55	17908
823.69	18022
823.83	18057
823.97	17942
824.11	17813
824.25	17703
824.389	17817
824.529	17767
824.669	17691
824.809	17863
824.949	17840
825.089	17756
825.228	17790
825.368	17501
825.508	17520
825.648	17577
825.787	17668
825.927	17577
826.067	17478
826.206	17520
826.346	17474
826.485	17608
826.625	17478
826.765	17676
826.904	17577
827.044	17452
827.183	17200
827.323	17090
827.462	17288
827.601	17246
827.741	17204
827.88	17376
828.02	17140
828.159	17204
828.298	17200
828.437	17372
828.577	17208
828.716	17349
828.855	17178
828.994	16976
829.134	17117
829.273	17098
829.412	17018
829.551	16892
829.69	16987
829.829	17025
829.968	17025
830.107	17037
830.246	16961
830.385	16900
830.524	16919
830.663	16881
830.802	16782
830.941	16683
831.08	16577
831.219	16702
831.357	16599
831.496	16923
831.635	16630
831.774	16626
831.913	16588
832.051	16367
832.19	16318
832.329	16489
832.467	16314
832.606	16215
832.744	16226
832.883	16276
833.022	16211
833.16	16390
833.299	16348
833.437	16402
833.576	16276
833.714	16352
833.852	16459
833.991	16409
834.129	16443
834.267	16470
834.406	16462
834.544	16424
834.682	16367
834.821	16371
834.959	16519
835.097	16276
835.235	16478
835.373	16333
835.511	16402
835.65	16246
835.788	16223
835.926	16226
836.064	16082
836.202	16181
836.34	16261
836.478	16443
836.615	16268
836.753	16314
836.891	16402
837.029	16337
837.167	16367
837.305	16234
837.443	16284
837.58	16246
837.718	16166
837.856	16169
837.993	16188
838.131	16166
838.269	16078
838.406	16139
838.544	16044
838.681	15960
838.819	15857
838.956	15778
839.094	15709
839.231	15842
839.369	15888
839.506	16101
839.643	16044
839.781	15759
839.918	15800
840.055	15606
840.193	15743
840.33	15762
840.467	15759
840.604	15755
840.742	15987
840.879	15671
841.016	15720
841.153	15591
841.29	15838
841.427	15831
841.564	15774
841.701	15762
841.838	15587
841.975	15641
842.112	15591
842.249	15587
842.385	15519
842.522	15622
842.659	15622
842.796	15553
842.933	15447
843.069	15511
843.206	15511
843.343	15591
843.479	15584
843.616	15553
843.752	15340
843.889	15275
844.025	15439
844.162	15245
844.298	15416
844.435	15310
844.571	15279
844.708	15420
844.844	15401
844.98	15485
845.117	15332
845.253	15211
845.389	15184
845.525	15199
845.661	15161
845.798	15097
845.934	15241
846.07	15036
846.206	15180
846.342	15119
846.478	15085
846.614	14902
846.75	14933
846.886	14800
847.022	14986
847.158	14937
847.294	14952
847.429	14902
847.565	14857
847.701	15013
847.837	14724
847.972	14530
848.108	14754
848.244	14750
848.379	14431
848.515	14374
848.65	14461
848.786	14556
848.921	14537
849.057	14545
849.192	14617
849.328	14594
849.463	14533
849.598	14461
849.734	14408
849.869	14347
850.004	14389
850.14	14358
850.275	14301
850.41	14256
850.545	14187
850.68	14168
850.815	14271
850.95	14176
851.085	14442
851.22	14362
851.355	14237
851.49	14320
851.625	14206
851.76	14267
851.895	14164
852.03	14134
852.165	14301
852.299	14298
852.434	14271
852.569	14214
852.703	14218
852.838	14256
852.973	14393
853.107	14374
853.242	14096
853.376	14138
853.511	14035
853.645	14035
853.78	14183
853.914	14172
854.048	14039
854.183	14081
854.317	14092
854.451	14275
854.585	14172
854.72	14142
854.854	14157
854.988	14103
855.122	14012
855.256	13989
855.39	14103
855.524	14195
855.658	14202
855.792	14142
855.926	14161
856.06	14153
856.194	14282
856.327	14115
856.461	14077
856.595	14058
856.729	14153
856.862	14256
856.996	14206
857.13	14237
857.263	14191
857.397	14271
857.53	14176
857.664	14119
857.797	14142
857.931	14214
858.064	14199
858.197	14233
858.331	14240
858.464	14126
858.597	13967
858.731	14100
858.864	14077
858.997	14020
859.13	14092
859.263	14199
859.396	14161
859.529	14069
859.662	14081
859.795	14084
859.928	14111
860.061	14286
860.194	14328
860.327	14164
860.46	14107
860.592	14282
860.725	14210
860.858	14225
860.99	14069
861.123	14088
861.256	13989
861.388	14115
861.521	14834
861.653	13997
861.786	13913
861.918	14008
862.05	13978
862.183	13970
862.315	14024
862.447	14271
862.58	14164
862.712	13856
862.844	13811
862.976	14008
863.108	13932
863.24	14282
863.372	13811
863.504	13826
863.636	13837
863.768	13909
863.9	13875
864.032	13811
864.164	13837
864.296	13944
864.428	14039
864.559	14054
864.691	13993
864.823	13963
864.954	14024
865.086	13986
865.217	13940
865.349	13845
865.48	13890
865.612	13913
865.743	14077
865.875	13951
866.006	13868
866.137	13951
866.269	13928
866.4	13951
866.531	13769
866.662	13833
866.793	13890
866.924	13917
867.055	13856
867.186	13894
867.317	13791
867.448	13814
867.579	13833
867.71	13814
867.841	13715
867.972	13947
868.103	13959
868.233	13887
868.364	13849
868.495	13894
868.625	14107
868.756	14199
868.886	14065
869.017	14081
869.147	14195
869.278	14355
869.408	14153
869.539	14138
869.669	14138
869.799	14237
869.929	14263
870.06	14240
870.19	14488
870.32	14461
870.45	14484
870.58	14438
870.71	14575
870.84	14629
870.97	14549
871.1	14488
871.23	14720
871.36	14682
871.489	14651
871.619	14667
871.749	14785
871.879	14807
872.008	14823
872.138	14716
872.267	14693
872.397	14579
872.526	14514
872.656	14530
872.785	14560
872.915	14750
873.044	14834
873.173	14746
873.303	14792
873.432	14876
873.561	14990
873.69	14861
873.819	14842
873.948	15017
874.077	14739
874.206	14788
874.335	14887
874.464	15009
874.593	15142
874.722	15081
874.851	15192
874.979	15176
875.108	15241
875.237	15036
875.365	15081
875.494	15058
875.623	15256
875.751	15108
875.88	15192
876.008	15184
876.136	15340
876.265	15526
876.393	15564
876.521	15599
876.65	15584
876.778	15599
876.906	15500
877.034	15595
877.162	15507
877.29	15447
877.418	15473
877.546	15530
877.674	15576
877.802	15473
877.93	15519
878.058	15447
878.185	15420
878.313	15534
878.441	15485
878.568	15469
878.696	15481
878.824	15584
878.951	15591
879.079	15584
879.206	15736
879.333	15736
879.461	15660
879.588	15663
879.715	15724
879.842	15861
879.97	15679
880.097	15344
880.224	15287
880.351	15355
880.478	15291
880.605	15317
880.732	15340
880.859	15614
880.986	15420
881.112	15473
881.239	15287
881.366	15233
881.493	15116
881.619	15036
881.746	15116
881.872	15051
881.999	15047
882.125	14994
882.252	15093
882.378	15081
882.505	15184
882.631	15017
882.757	14845
882.883	14891
883.01	14796
883.136	14788
883.262	14746
883.388	14674
883.514	14861
883.64	14887
883.766	14830
883.892	14663
884.018	14587
884.143	14933
884.269	14910
884.395	14606
884.52	14556
884.646	14522
884.772	14465
884.897	14511
885.023	14583
885.148	14583
885.274	14674
885.399	14746
885.524	14590
885.65	14552
885.775	14526
885.9	14476
886.025	14674
886.15	14575
886.275	14530
886.4	14427
886.525	14533
886.65	14552
886.775	14556
886.9	14701
887.025	14811
887.149	14651
887.274	14404
887.399	14396
887.523	14362
887.648	14324
887.773	14278
887.897	14404
888.021	14484
888.146	14358
888.27	14473
888.395	14465
888.519	14434
888.643	14366
888.767	14446
888.891	14282
889.015	14259
889.139	14278
889.263	14278
889.387	14362
889.511	14587
889.635	14294
889.759	14267
889.883	14256
890.006	14370
890.13	14396
890.254	14290
890.377	14176
890.501	14119
890.624	14008
890.748	14164
890.871	14020
890.995	14012
891.118	13871
891.241	13967
891.364	13993
891.488	14138
891.611	13909
891.734	14008
891.857	14043
891.98	14016
892.103	14103
892.226	14050
892.349	13928
892.471	13841
892.594	13917
892.717	14031
892.839	13856
892.962	13936
893.085	14043
893.207	14058
893.33	13795
893.452	13936
893.575	14027
893.697	13940
893.819	14142
893.941	14180
894.064	14237
894.186	13970
894.308	13917
894.43	14107
894.552	14301
894.674	14126
894.796	13932
894.918	14020
895.04	14012
895.161	14176
895.283	14225
895.405	14012
895.526	14081
895.648	14096
895.769	14176
895.891	14153
896.012	14233
896.134	14145
896.255	14130
896.376	14050
896.498	14115
896.619	14210
896.74	14161
896.861	14142
896.982	14583
897.103	14610
897.224	14408
897.345	14431
897.466	14370
897.587	14343
897.708	14461
897.828	14412
897.949	14469
898.07	14229
898.19	14465
898.311	14526
898.431	14488
898.552	14549
898.672	14488
898.792	14629
898.913	14476
899.033	14343
899.153	14294
899.273	14183
899.393	14305
899.513	14423
899.633	14347
899.753	14396
899.873	14328
899.993	14446
900.113	14412
900.232	14339
900.352	14317
900.472	14324
900.591	14142
900.711	14267
900.83	14237
900.95	14294
901.069	14351
901.189	14123
901.308	14001
901.427	13811
901.546	13944
901.665	13928
901.784	13993
901.904	13765
902.023	13693
902.141	13548
902.26	13441
902.379	13632
902.498	13392
902.617	13510
902.735	13518
902.854	13365
902.973	13426
903.091	13274
903.21	13156
903.328	13232
903.446	13099
903.565	13084
903.683	13053
903.801	13023
903.919	13129
904.038	13080
904.156	12859
904.274	12894
904.392	12886
904.51	12905
904.627	12905
904.745	12932
904.863	12821
904.981	12688
905.098	12566
905.216	12589
905.334	12669
905.451	12696
905.569	12536
905.686	12604
905.803	12635
905.921	12448
906.038	12498
906.155	12308
906.272	12346
906.389	12357
906.506	12205
906.623	12079
906.74	12102
906.857	12106
906.974	12194
907.091	12228
907.208	12281
907.324	12266
907.441	12140
907.557	11996
907.674	11904
907.79	11851
907.907	11904
908.023	11942
908.139	11958
908.256	11912
908.372	11870
908.488	11866
908.604	11737
908.72	11649
908.836	11680
908.952	11657
909.068	11680
909.184	11726
909.3	11649
909.415	11733
909.531	11680
909.647	11486
909.762	11356
909.878	11505
909.993	11482
910.108	11410
910.224	11391
910.339	11482
910.454	11402
910.57	11288
910.685	11220
910.8	11619
910.915	11478
911.03	11322
911.145	11128
911.259	11204
911.374	11208
911.489	11022
911.604	11010
911.718	10927
911.833	10972
911.947	10835
912.062	10793
912.176	10919
912.291	10923
912.405	10911
912.519	11075
912.633	11147
912.748	10987
912.862	10957
912.976	10816
913.09	10599
913.204	10748
913.318	10801
913.431	10881
913.545	10786
913.659	10812
913.772	10801
913.886	10626
914	10748
914.113	10759
914.226	10847
914.34	10744
914.453	10618
914.566	10786
914.68	10622
914.793	10653
914.906	10504
915.019	10478
915.132	10382
915.245	10341
915.358	10421
915.47	10432
915.583	10417
915.696	10424
915.809	10565
915.921	10603
916.034	10386
916.146	10344
916.259	10310
916.371	10512
916.483	10455
916.595	10314
916.708	10322
916.82	10424
916.932	10375
917.044	10310
917.156	10356
917.268	10234
917.38	10276
917.491	10257
917.603	10284
917.715	10405
917.826	10386
917.938	10257
918.049	10124
918.161	10295
918.272	10428
918.384	10455
918.495	10322
918.606	10109
918.717	10017
918.828	10139
918.939	10204
919.05	10067
919.161	10128
919.272	9911
919.383	9922
919.494	10154
919.604	10447
919.715	10147
919.826	10017
919.936	10162
920.047	10200
920.157	10223
920.267	10356
920.378	10223
920.488	10150
920.598	10367
920.708	10519
920.818	10402
920.928	10352
921.038	10538
921.148	10459
921.258	10219
921.368	10154
921.477	10013
921.587	9991
921.697	9876
921.806	10010
921.916	9964
922.025	9774
922.134	9728
922.244	9637
922.353	9751
922.462	9648
922.571	9641
922.68	9450
922.789	9370
922.898	9428
923.007	9408
923.116	9462
923.224	9443
923.333	9462
923.442	9268
923.55	9344
923.659	9386
923.767	9416
923.876	9287
923.984	9374
924.092	9241
924.201	9340
924.309	9283
924.417	9344
924.525	9203
924.633	9222
924.741	10002
924.849	9036
924.956	9176
925.064	9047
925.172	8956
925.279	9062
925.387	9074
925.494	9055
925.602	9180
925.709	9199
925.816	9047
925.924	9036
926.031	9127
926.138	9089
926.245	9165
926.352	9001
926.459	9070
926.566	9157
926.673	9043
926.779	8910
926.886	8899
926.993	8807
927.099	8815
927.206	8826
927.312	8766
927.419	8872
927.525	8800
927.631	8857
927.737	8800
927.843	8678
927.95	8533
928.056	8651
928.162	8746
928.267	8705
928.373	9355
928.479	8777
928.585	8503
928.69	8724
928.796	8727
928.901	8549
929.007	8492
929.112	8583
929.218	8560
929.323	8549
929.428	8514
929.533	8621
929.638	8427
929.743	8473
929.848	8507
929.953	8533
930.058	8465
930.163	8221
930.267	8252
930.372	8438
930.477	8240
930.581	8473
930.685	8336
930.79	8240
930.894	8294
930.998	8176
931.103	8305
931.207	8096
931.311	7986
931.415	7947
931.519	7681
931.623	7738
