Data from test_V78500241_2924.txt Node
Date: Fri Mar 25 14:54:04 CST 2022
User: usil
Spectrometer: V785-0024
Trigger mode: 0
Integration Time (sec): 4.000000E-1
Scans to average: 1
Nonlinearity correction enabled: false
Boxcar width: 0
Storing dark spectrum: false
XAxis mode: Wavelengths
Number of Pixels in Spectrum: 1024
>>>>>Begin Spectral Data<<<<<
801.071	21987
801.214	21956
801.356	21644
801.499	21572
801.641	21428
801.783	21408
801.926	21534
802.068	21317
802.211	21310
802.353	21195
802.496	20986
802.638	20849
802.78	20887
802.923	20750
803.065	20811
803.208	20762
803.35	20823
803.492	20883
803.635	20845
803.777	20762
803.919	20746
804.061	21096
804.204	20834
804.346	20621
804.488	20495
804.63	20883
804.773	20765
804.915	20568
805.057	20796
805.199	20674
805.341	20750
805.483	20800
805.626	20727
805.768	20583
805.91	20735
806.052	20701
806.194	20629
806.336	20731
806.478	20811
806.62	20674
806.762	20686
806.904	20864
807.046	21066
807.188	21131
807.33	21066
807.472	21119
807.614	20960
807.756	20929
807.898	20849
808.04	20769
808.182	20754
808.324	20819
808.465	20762
808.607	20998
808.749	21142
808.891	21329
809.033	21184
809.174	21165
809.316	21055
809.458	21192
809.6	21024
809.741	21043
809.883	21157
810.025	21188
810.166	21230
810.308	21336
810.45	21176
810.591	21055
810.733	20948
810.875	20925
811.016	20705
811.158	20731
811.299	20792
811.441	20982
811.582	20857
811.724	20952
811.865	20762
812.007	20811
812.148	20880
812.29	20933
812.431	20967
812.573	21096
812.714	21138
812.855	21367
812.997	21519
813.138	21542
813.279	21447
813.421	21306
813.562	21237
813.703	21096
813.845	20975
813.986	20663
814.127	20393
814.268	20317
814.41	20423
814.551	20320
814.692	20400
814.833	20195
814.974	20195
815.115	20446
815.256	20237
815.397	20320
815.539	20210
815.68	20138
815.821	20031
815.962	20111
816.103	20096
816.244	19772
816.385	19700
816.526	19769
816.666	19731
816.807	19548
816.948	19655
817.089	19734
817.23	19552
817.371	19491
817.512	19567
817.653	19495
817.793	19430
817.934	19460
818.075	19616
818.216	19594
818.356	19499
818.497	19335
818.638	19183
818.778	19198
818.919	19274
819.06	19126
819.2	19297
819.341	19308
819.481	19438
819.622	19476
819.762	19788
819.903	19712
820.043	19434
820.184	19434
820.324	19464
820.465	19502
820.605	19449
820.746	19430
820.886	19419
821.026	19331
821.167	19487
821.307	19518
821.447	19381
821.588	19327
821.728	19175
821.868	19084
822.008	18909
822.149	18890
822.289	18837
822.429	18620
822.569	18639
822.709	18631
822.849	18433
822.99	18323
823.13	18327
823.27	18357
823.41	18239
823.55	18140
823.69	18228
823.83	18178
823.97	18072
824.11	17901
824.25	17893
824.389	17988
824.529	17958
824.669	18041
824.809	18129
824.949	18045
825.089	18019
825.228	17999
825.368	17866
825.508	17680
825.648	17851
825.787	17775
825.927	17722
826.067	17741
826.206	17707
826.346	17790
826.485	17718
826.625	17718
826.765	17866
826.904	17764
827.044	17501
827.183	17455
827.323	17376
827.462	17459
827.601	17391
827.741	17440
827.88	17345
828.02	17273
828.159	17372
828.298	17395
828.437	17463
828.577	17349
828.716	17551
828.855	17341
828.994	17265
829.134	17121
829.273	17170
829.412	17124
829.551	17117
829.69	17136
829.829	17170
829.968	17197
830.107	17220
830.246	17174
830.385	17109
830.524	17056
830.663	17037
830.802	16892
830.941	16725
831.08	16771
831.219	16904
831.357	16854
831.496	17014
831.635	16767
831.774	16759
831.913	16691
832.051	16618
832.19	16523
832.329	16512
832.467	16603
832.606	16440
832.744	16424
832.883	16394
833.022	16432
833.16	16440
833.299	16489
833.437	16535
833.576	16516
833.714	16538
833.852	16497
833.991	16558
834.129	16577
834.267	16565
834.406	16493
834.544	16497
834.682	16573
834.821	16519
834.959	16725
835.097	16421
835.235	16508
835.373	16592
835.511	16584
835.65	16413
835.788	16440
835.926	16318
836.064	16257
836.202	16185
836.34	16379
836.478	16493
836.615	16409
836.753	16390
836.891	16440
837.029	16531
837.167	16367
837.305	16284
837.443	16367
837.58	16299
837.718	16284
837.856	16295
837.993	16162
838.131	16341
838.269	16204
838.406	16223
838.544	16185
838.681	16051
838.819	15934
838.956	15854
839.094	15869
839.231	15953
839.369	16021
839.506	16291
839.643	16204
839.781	15861
839.918	15789
840.055	15918
840.193	15705
840.33	15778
840.467	15797
840.604	15926
840.742	16051
840.879	15652
841.016	15747
841.153	15656
841.29	15941
841.427	15827
841.564	15907
841.701	15842
841.838	15884
841.975	15694
842.112	15622
842.249	15545
842.385	15671
842.522	15835
842.659	15622
842.796	15553
842.933	15584
843.069	15564
843.206	15488
843.343	15660
843.479	15698
843.616	15705
843.752	15317
843.889	15401
844.025	15561
844.162	15230
844.298	15466
844.435	15408
844.571	15435
844.708	15416
844.844	15473
844.98	15523
845.117	15447
845.253	15374
845.389	15222
845.525	15317
845.661	15252
845.798	15074
845.934	15291
846.07	15222
846.206	15180
846.342	15348
846.478	15214
846.614	15051
846.75	14830
846.886	14963
847.022	15070
847.158	14960
847.294	14998
847.429	14990
847.565	14963
847.701	15184
847.837	14667
847.972	14655
848.108	14826
848.244	14849
848.379	14686
848.515	14499
848.65	14533
848.786	14598
848.921	14518
849.057	14724
849.192	14632
849.328	14655
849.463	14655
849.598	14556
849.734	14488
849.869	14495
850.004	14336
850.14	14488
850.275	14328
850.41	14267
850.545	14233
850.68	14328
850.815	14324
850.95	14298
851.085	14602
851.22	14415
851.355	14370
851.49	14317
851.625	14317
851.76	14290
851.895	14229
852.03	14176
852.165	14324
852.299	14275
852.434	14366
852.569	14282
852.703	14290
852.838	14336
852.973	14412
853.107	14537
853.242	14275
853.376	14324
853.511	14111
853.645	14088
853.78	14294
853.914	14149
854.048	14145
854.183	14130
854.317	14199
854.451	14355
854.585	14157
854.72	14084
854.854	14157
854.988	14008
855.122	14103
855.256	14020
855.39	14202
855.524	14290
855.658	14210
855.792	14176
855.926	14240
856.06	14240
856.194	14336
856.327	14180
856.461	14149
856.595	14168
856.729	14153
856.862	14244
856.996	14218
857.13	14298
857.263	14332
857.397	14343
857.53	14149
857.664	14229
857.797	14278
857.931	14229
858.064	14305
858.197	14332
858.331	14199
858.464	14103
858.597	14164
858.731	14180
858.864	14164
858.997	14252
859.13	14210
859.263	14298
859.396	14271
859.529	14153
859.662	14221
859.795	14183
859.928	14259
860.061	14313
860.194	14374
860.327	14233
860.46	14119
860.592	14286
860.725	14278
860.858	14332
860.99	14229
861.123	14142
861.256	14123
861.388	14267
861.521	14765
861.653	14058
861.786	14043
861.918	14164
862.05	14130
862.183	14176
862.315	14176
862.447	14206
862.58	14164
862.712	13967
862.844	13856
862.976	14096
863.108	14073
863.24	14244
863.372	13925
863.504	14027
863.636	13917
863.768	14054
863.9	13887
864.032	13909
864.164	13932
864.296	13989
864.428	14043
864.559	14096
864.691	14081
864.823	13989
864.954	14081
865.086	14054
865.217	14005
865.349	13902
865.48	14005
865.612	13963
865.743	14088
865.875	14005
866.006	14001
866.137	14031
866.269	13898
866.4	13822
866.531	13944
866.662	13967
866.793	13830
866.924	13932
867.055	13974
867.186	13944
867.317	13944
867.448	13845
867.579	13879
867.71	13921
867.841	13909
867.972	14001
868.103	13974
868.233	14088
868.364	14046
868.495	13982
868.625	14206
868.756	14256
868.886	14126
869.017	14225
869.147	14320
869.278	14347
869.408	14248
869.539	14248
869.669	14221
869.799	14176
869.929	14301
870.06	14355
870.19	14526
870.32	14552
870.45	14545
870.58	14610
870.71	14648
870.84	14765
870.97	14583
871.1	14552
871.23	14746
871.36	14788
871.489	14613
871.619	14739
871.749	14708
871.879	14887
872.008	14929
872.138	14876
872.267	14686
872.397	14693
872.526	14667
872.656	14610
872.785	14629
872.915	14792
873.044	14880
873.173	14883
873.303	14895
873.432	14952
873.561	14918
873.69	14906
873.819	14895
873.948	14925
874.077	14876
874.206	14804
874.335	14842
874.464	15058
874.593	15108
874.722	15131
874.851	15188
874.979	15165
875.108	15336
875.237	15180
875.365	15100
875.494	15173
875.623	15279
875.751	15203
875.88	15260
876.008	15313
876.136	15405
876.265	15652
876.393	15663
876.521	15660
876.65	15610
876.778	15591
876.906	15492
877.034	15553
877.162	15477
877.29	15591
877.418	15644
877.546	15610
877.674	15603
877.802	15637
877.93	15610
878.058	15488
878.185	15397
878.313	15656
878.441	15538
878.568	15405
878.696	15523
878.824	15656
878.951	15530
879.079	15778
879.206	15949
879.333	15751
879.461	15701
879.588	15739
879.715	15838
879.842	15880
879.97	15648
880.097	15408
880.224	15466
880.351	15389
880.478	15397
880.605	15401
880.732	15435
880.859	15633
880.986	15519
881.112	15447
881.239	15382
881.366	15154
881.493	15142
881.619	15104
881.746	15199
881.872	15089
881.999	15089
882.125	15001
882.252	15161
882.378	15043
882.505	15256
882.631	15051
882.757	14948
882.883	14941
883.01	14918
883.136	14887
883.262	14678
883.388	14769
883.514	14937
883.64	14979
883.766	14899
883.892	14781
884.018	14788
884.143	14899
884.269	14971
884.395	14735
884.52	14659
884.646	14670
884.772	14564
884.897	14446
885.023	14621
885.148	14716
885.274	14781
885.399	14781
885.524	14674
885.65	14693
885.775	14590
885.9	14617
886.025	14636
886.15	14689
886.275	14537
886.4	14473
886.525	14511
886.65	14518
886.775	14564
886.9	14636
887.025	14823
887.149	14598
887.274	14556
887.399	14358
887.523	14450
887.648	14332
887.773	14438
887.897	14579
888.021	14457
888.146	14450
888.27	14511
888.395	14560
888.519	14427
888.643	14598
888.767	14492
888.891	14431
889.015	14218
889.139	14396
889.263	14244
889.387	14362
889.511	14560
889.635	14473
889.759	14351
889.883	14286
890.006	14336
890.13	14503
890.254	14244
890.377	14313
890.501	14054
890.624	14153
890.748	14191
890.871	14115
890.995	14008
891.118	13887
891.241	13947
891.364	14012
891.488	14119
891.611	13989
891.734	13986
891.857	14081
891.98	14054
892.103	14123
892.226	14096
892.349	13917
892.471	13890
892.594	14027
892.717	14031
892.839	14031
892.962	14012
893.085	14096
893.207	13951
893.33	13811
893.452	13955
893.575	14096
893.697	14043
893.819	14073
893.941	14278
894.064	14088
894.186	13955
894.308	13978
894.43	14084
894.552	14176
894.674	14130
894.796	14001
894.918	14081
895.04	14050
895.161	14119
895.283	14199
895.405	14123
895.526	14054
895.648	14073
895.769	14119
895.891	14195
896.012	14244
896.134	14286
896.255	14126
896.376	14172
896.498	14221
896.619	14168
896.74	14206
896.861	14214
896.982	14511
897.103	14720
897.224	14568
897.345	14415
897.466	14343
897.587	14408
897.708	14621
897.828	14518
897.949	14511
898.07	14317
898.19	14396
898.311	14617
898.431	14423
898.552	14415
898.672	14606
898.792	14617
898.913	14587
899.033	14495
899.153	14423
899.273	14225
899.393	14412
899.513	14419
899.633	14389
899.753	14511
899.873	14343
899.993	14404
900.113	14431
900.232	14450
900.352	14454
900.472	14328
900.591	14199
900.711	14275
900.83	14313
900.95	14389
901.069	14309
901.189	14275
901.308	13955
901.427	13909
901.546	13947
901.665	13970
901.784	14035
901.904	13913
902.023	13696
902.141	13487
902.26	13460
902.379	13651
902.498	13582
902.617	13544
902.735	13495
902.854	13495
902.973	13426
903.091	13232
903.21	13228
903.328	13312
903.446	13076
903.565	13042
903.683	13122
903.801	13012
903.919	12993
904.038	13031
904.156	12928
904.274	12932
904.392	12825
904.51	12844
904.627	12916
904.745	12973
904.863	12943
904.981	12715
905.098	12654
905.216	12578
905.334	12654
905.451	12589
905.569	12578
905.686	12620
905.803	12593
905.921	12410
906.038	12525
906.155	12346
906.272	12342
906.389	12330
906.506	12239
906.623	12190
906.74	12125
906.857	12026
906.974	12045
907.091	12270
907.208	12357
907.324	12258
907.441	12091
907.557	11923
907.674	11984
907.79	11882
907.907	11889
908.023	11958
908.139	11912
908.256	11942
908.372	11897
908.488	11805
908.604	11729
908.72	11707
908.836	11688
908.952	11714
909.068	11680
909.184	11745
909.3	11718
909.415	11741
909.531	11699
909.647	11505
909.762	11425
909.878	11505
909.993	11417
910.108	11444
910.224	11478
910.339	11471
910.454	11376
910.57	11383
910.685	11235
910.8	11493
910.915	11455
911.03	11417
911.145	11132
911.259	11189
911.374	11094
911.489	11166
911.604	11075
911.718	10930
911.833	10904
911.947	10839
912.062	10763
912.176	10995
912.291	10942
912.405	10919
912.519	11105
912.633	11136
912.748	11029
912.862	10957
912.976	10866
913.09	10618
913.204	10793
913.318	10782
913.431	10877
913.545	10923
913.659	10923
913.772	10790
913.886	10763
914	10694
914.113	10714
914.226	10843
914.34	10786
914.453	10634
914.566	10771
914.68	10630
914.793	10641
914.906	10447
915.019	10386
915.132	10329
915.245	10367
915.358	10451
915.47	10466
915.583	10470
915.696	10577
915.809	10596
915.921	10630
916.034	10512
916.146	10428
916.259	10299
916.371	10577
916.483	10413
916.595	10280
916.708	10375
916.82	10382
916.932	10325
917.044	10325
917.156	10310
917.268	10306
917.38	10276
917.491	10154
917.603	10333
917.715	10272
917.826	10379
917.938	10242
918.049	10071
918.161	10291
918.272	10481
918.384	10413
918.495	10265
918.606	10063
918.717	10150
918.828	10177
918.939	10139
919.05	10048
919.161	10124
919.272	9869
919.383	9975
919.494	10188
919.604	10356
919.715	10169
919.826	10131
919.936	10169
920.047	10249
920.157	10128
920.267	10348
920.378	10154
920.488	10143
920.598	10322
920.708	10519
920.818	10333
920.928	10379
921.038	10478
921.148	10508
921.258	10204
921.368	10093
921.477	10036
921.587	10063
921.697	9922
921.806	10067
921.916	9949
922.025	9740
922.134	9766
922.244	9705
922.353	9736
922.462	9576
922.571	9641
922.68	9386
922.789	9393
922.898	9439
923.007	9370
923.116	9500
923.224	9370
923.333	9485
923.442	9348
923.55	9283
923.659	9378
923.767	9420
923.876	9291
923.984	9424
924.092	9211
924.201	9306
924.309	9272
924.417	9302
924.525	9294
924.633	9226
924.741	10097
924.849	9032
924.956	9253
925.064	9070
925.172	8956
925.279	9097
925.387	9112
925.494	8994
925.602	9272
925.709	9119
925.816	9051
925.924	9089
926.031	9203
926.138	9142
926.245	9127
926.352	9089
926.459	9100
926.566	9207
926.673	8990
926.779	8960
926.886	8899
926.993	8853
927.099	8861
927.206	8716
927.312	8716
927.419	8857
927.525	8766
927.631	8842
927.737	8697
927.843	8686
927.95	8602
928.056	8674
928.162	8727
928.267	8739
928.373	9378
928.479	8769
928.585	8564
928.69	8655
928.796	8697
928.901	8571
929.007	8450
929.112	8537
929.218	8598
929.323	8461
929.428	8552
929.533	8636
929.638	8503
929.743	8400
929.848	8541
929.953	8537
930.058	8393
930.163	8221
930.267	8282
930.372	8427
930.477	8305
930.581	8499
930.685	8240
930.79	8237
930.894	8225
930.998	8221
931.103	8336
931.207	8008
931.311	8027
931.415	7913
931.519	7780
931.623	7685
