Data from test_V78500241_2681.txt Node
Date: Fri Mar 25 14:52:22 CST 2022
User: usil
Spectrometer: V785-0024
Trigger mode: 0
Integration Time (sec): 4.000000E-1
Scans to average: 1
Nonlinearity correction enabled: false
Boxcar width: 0
Storing dark spectrum: false
XAxis mode: Wavelengths
Number of Pixels in Spectrum: 1024
>>>>>Begin Spectral Data<<<<<
801.071	21991
801.214	21907
801.356	21698
801.499	21469
801.641	21420
801.783	21363
801.926	21378
802.068	21325
802.211	21249
802.353	21176
802.496	20986
802.638	20891
802.78	20781
802.923	20746
803.065	20693
803.208	20644
803.35	20720
803.492	20826
803.635	20861
803.777	20716
803.919	20632
804.061	21081
804.204	20682
804.346	20625
804.488	20530
804.63	20602
804.773	20609
804.915	20579
805.057	20674
805.199	20644
805.341	20644
805.483	20667
805.626	20629
805.768	20556
805.91	20583
806.052	20609
806.194	20530
806.336	20804
806.478	20560
806.62	20621
806.762	20731
806.904	20872
807.046	20914
807.188	21013
807.33	20910
807.472	20944
807.614	20925
807.756	20735
807.898	20663
808.04	20727
808.182	20606
808.324	20659
808.465	20667
808.607	20880
808.749	20929
808.891	20979
809.033	21119
809.174	21077
809.316	20845
809.458	20990
809.6	20883
809.741	20971
809.883	21062
810.025	21096
810.166	21051
810.308	21142
810.45	20971
810.591	20944
810.733	20785
810.875	20773
811.016	20739
811.158	20655
811.299	20777
811.441	20895
811.582	20902
811.724	20571
811.865	20693
812.007	20621
812.148	20720
812.29	20632
812.431	20937
812.573	21157
812.714	21157
812.855	21100
812.997	21363
813.138	21351
813.279	21302
813.421	21344
813.562	21199
813.703	20956
813.845	20910
813.986	20579
814.127	20473
814.268	20305
814.41	20324
814.551	20237
814.692	20499
814.833	20142
814.974	20259
815.115	20290
815.256	20259
815.397	20103
815.539	20043
815.68	19921
815.821	19925
815.962	19989
816.103	20016
816.244	19928
816.385	19727
816.526	19791
816.666	19586
816.807	19506
816.948	19544
817.089	19537
817.23	19495
817.371	19308
817.512	19400
817.653	19411
817.793	19297
817.934	19438
818.075	19411
818.216	19445
818.356	19430
818.497	19247
818.638	19099
818.778	19053
818.919	19027
819.06	19129
819.2	19259
819.341	19263
819.481	19236
819.622	19339
819.762	19518
819.903	19590
820.043	19400
820.184	19468
820.324	19293
820.465	19335
820.605	19369
820.746	19419
820.886	19350
821.026	19419
821.167	19354
821.307	19457
821.447	19411
821.588	19354
821.728	19126
821.868	18875
822.008	18757
822.149	18810
822.289	18772
822.429	18642
822.569	18498
822.709	18479
822.849	18266
822.99	18304
823.13	18270
823.27	18205
823.41	18125
823.55	17999
823.69	18015
823.83	18201
823.97	18041
824.11	17954
824.25	17817
824.389	17973
824.529	17954
824.669	17843
824.809	17980
824.949	18007
825.089	17904
825.228	17958
825.368	17741
825.508	17657
825.648	17600
825.787	17805
825.927	17786
826.067	17699
826.206	17558
826.346	17779
826.485	17638
826.625	17646
826.765	17745
826.904	17615
827.044	17493
827.183	17448
827.323	17326
827.462	17463
827.601	17391
827.741	17398
827.88	17360
828.02	17345
828.159	17368
828.298	17436
828.437	17512
828.577	17303
828.716	17448
828.855	17478
828.994	17151
829.134	17105
829.273	17292
829.412	17022
829.551	17094
829.69	17083
829.829	17212
829.968	17235
830.107	17162
830.246	17174
830.385	17052
830.524	17117
830.663	17018
830.802	16831
830.941	16752
831.08	16706
831.219	16793
831.357	16961
831.496	17113
831.635	16839
831.774	16611
831.913	16634
832.051	16554
832.19	16592
832.329	16599
832.467	16554
832.606	16417
832.744	16516
832.883	16436
833.022	16508
833.16	16432
833.299	16474
833.437	16493
833.576	16356
833.714	16466
833.852	16481
833.991	16554
834.129	16679
834.267	16531
834.406	16504
834.544	16577
834.682	16493
834.821	16470
834.959	16694
835.097	16459
835.235	16554
835.373	16584
835.511	16493
835.65	16329
835.788	16413
835.926	16185
836.064	16265
836.202	16284
836.34	16405
836.478	16390
836.615	16371
836.753	16409
836.891	16512
837.029	16474
837.167	16303
837.305	16329
837.443	16322
837.58	16200
837.718	16371
837.856	16341
837.993	16238
838.131	16234
838.269	16238
838.406	16112
838.544	16211
838.681	16036
838.819	16013
838.956	15911
839.094	15823
839.231	15865
839.369	16002
839.506	16436
839.643	16128
839.781	15842
839.918	15816
840.055	15861
840.193	15888
840.33	15751
840.467	15854
840.604	15880
840.742	16097
840.879	15747
841.016	15739
841.153	15778
841.29	16006
841.427	15778
841.564	16044
841.701	15880
841.838	15724
841.975	15831
842.112	15759
842.249	15755
842.385	15629
842.522	15907
842.659	15701
842.796	15523
842.933	15606
843.069	15595
843.206	15641
843.343	15759
843.479	15633
843.616	15778
843.752	15447
843.889	15401
844.025	15545
844.162	15374
844.298	15443
844.435	15485
844.571	15355
844.708	15515
844.844	15534
844.98	15675
845.117	15538
845.253	15355
845.389	15291
845.525	15450
845.661	15355
845.798	15199
845.934	15211
846.07	15226
846.206	15256
846.342	15279
846.478	15180
846.614	15074
846.75	14929
846.886	15009
847.022	15108
847.158	14956
847.294	14986
847.429	15020
847.565	15036
847.701	15245
847.837	14853
847.972	14720
848.108	14853
848.244	14853
848.379	14727
848.515	14617
848.65	14625
848.786	14507
848.921	14587
849.057	14667
849.192	14773
849.328	14617
849.463	14617
849.598	14545
849.734	14480
849.869	14499
850.004	14339
850.14	14347
850.275	14343
850.41	14351
850.545	14320
850.68	14347
850.815	14362
850.95	14381
851.085	14575
851.22	14473
851.355	14393
851.49	14366
851.625	14339
851.76	14317
851.895	14294
852.03	14244
852.165	14267
852.299	14347
852.434	14446
852.569	14381
852.703	14389
852.838	14511
852.973	14473
853.107	14526
853.242	14294
853.376	14278
853.511	14138
853.645	14298
853.78	14336
853.914	14221
854.048	14153
854.183	14199
854.317	14286
854.451	14328
854.585	14172
854.72	14240
854.854	14218
854.988	14180
855.122	14218
855.256	14073
855.39	14123
855.524	14358
855.658	14240
855.792	14225
855.926	14233
856.06	14290
856.194	14328
856.327	14278
856.461	14199
856.595	14191
856.729	14259
856.862	14370
856.996	14278
857.13	14267
857.263	14252
857.397	14374
857.53	14214
857.664	14400
857.797	14377
857.931	14374
858.064	14275
858.197	14427
858.331	14161
858.464	14168
858.597	14252
858.731	14142
858.864	14161
858.997	14202
859.13	14233
859.263	14214
859.396	14320
859.529	14187
859.662	14161
859.795	14202
859.928	14252
860.061	14412
860.194	14404
860.327	14298
860.46	14244
860.592	14393
860.725	14320
860.858	14366
860.99	14332
861.123	14210
861.256	14191
861.388	14218
861.521	14807
861.653	14088
861.786	14012
861.918	14138
862.05	14111
862.183	14183
862.315	14252
862.447	14271
862.58	14183
862.712	14088
862.844	13959
862.976	14062
863.108	13997
863.24	14366
863.372	13909
863.504	14031
863.636	13894
863.768	14111
863.9	14092
864.032	13936
864.164	13978
864.296	14081
864.428	14111
864.559	14180
864.691	13989
864.823	14126
864.954	14062
865.086	14058
865.217	14062
865.349	13955
865.48	13940
865.612	13951
865.743	14161
865.875	13970
866.006	13902
866.137	13951
866.269	13947
866.4	14043
866.531	14069
866.662	13906
866.793	13944
866.924	13959
867.055	14111
867.186	13993
867.317	13944
867.448	13913
867.579	13890
867.71	13875
867.841	13921
867.972	13974
868.103	14016
868.233	14069
868.364	13944
868.495	14039
868.625	14233
868.756	14347
868.886	14229
869.017	14180
869.147	14298
869.278	14377
869.408	14309
869.539	14271
869.669	14313
869.799	14313
869.929	14362
870.06	14339
870.19	14648
870.32	14511
870.45	14613
870.58	14648
870.71	14750
870.84	14712
870.97	14579
871.1	14613
871.23	14777
871.36	14842
871.489	14708
871.619	14762
871.749	14758
871.879	14937
872.008	14925
872.138	14781
872.267	14853
872.397	14777
872.526	14712
872.656	14629
872.785	14716
872.915	14902
873.044	14979
873.173	14914
873.303	14967
873.432	14929
873.561	14937
873.69	14773
873.819	14944
873.948	15005
874.077	14899
874.206	14864
874.335	14994
874.464	15081
874.593	15260
874.722	15119
874.851	15294
874.979	15180
875.108	15294
875.237	15195
875.365	15146
875.494	15066
875.623	15355
875.751	15192
875.88	15199
876.008	15348
876.136	15416
876.265	15652
876.393	15823
876.521	15724
876.65	15686
876.778	15606
876.906	15682
877.034	15568
877.162	15629
877.29	15557
877.418	15473
877.546	15671
877.674	15561
877.802	15614
877.93	15641
878.058	15561
878.185	15606
878.313	15580
878.441	15587
878.568	15454
878.696	15447
878.824	15675
878.951	15698
879.079	15789
879.206	15861
879.333	15846
879.461	15709
879.588	15793
879.715	15819
879.842	15953
879.97	15728
880.097	15408
880.224	15424
880.351	15481
880.478	15477
880.605	15462
880.732	15519
880.859	15644
880.986	15473
881.112	15428
881.239	15401
881.366	15268
881.493	15146
881.619	15161
881.746	15184
881.872	15188
881.999	15013
882.125	15028
882.252	15112
882.378	15165
882.505	15249
882.631	15017
882.757	15005
882.883	15058
883.01	15020
883.136	14914
883.262	14731
883.388	14739
883.514	14883
883.64	14849
883.766	14902
883.892	14727
884.018	14769
884.143	14902
884.269	15032
884.395	14712
884.52	14788
884.646	14667
884.772	14625
884.897	14507
885.023	14777
885.148	14712
885.274	14697
885.399	14720
885.524	14758
885.65	14613
885.775	14594
885.9	14598
886.025	14811
886.15	14842
886.275	14663
886.4	14560
886.525	14617
886.65	14579
886.775	14602
886.9	14724
887.025	14864
887.149	14667
887.274	14545
887.399	14526
887.523	14465
887.648	14446
887.773	14427
887.897	14522
888.021	14568
888.146	14465
888.27	14610
888.395	14602
888.519	14648
888.643	14575
888.767	14526
888.891	14396
889.015	14282
889.139	14457
889.263	14294
889.387	14446
889.511	14549
889.635	14473
889.759	14438
889.883	14332
890.006	14324
890.13	14492
890.254	14301
890.377	14263
890.501	14172
890.624	14088
890.748	14202
890.871	14206
890.995	13997
891.118	14035
891.241	14046
891.364	14081
891.488	14145
891.611	14077
891.734	14043
891.857	14050
891.98	14027
892.103	14123
892.226	14062
892.349	14043
892.471	13928
892.594	13955
892.717	14054
892.839	14065
892.962	14073
893.085	14111
893.207	14050
893.33	13902
893.452	13890
893.575	14168
893.697	14031
893.819	14229
893.941	14252
894.064	14225
894.186	14039
894.308	13967
894.43	14183
894.552	14290
894.674	14229
894.796	13978
894.918	14206
895.04	14096
895.161	14145
895.283	14199
895.405	14138
895.526	14107
895.648	14134
895.769	14275
895.891	14305
896.012	14278
896.134	14199
896.255	14172
896.376	14282
896.498	14199
896.619	14324
896.74	14298
896.861	14275
896.982	14549
897.103	14777
897.224	14552
897.345	14400
897.466	14434
897.587	14541
897.708	14617
897.828	14594
897.949	14488
898.07	14339
898.19	14492
898.311	14697
898.431	14495
898.552	14522
898.672	14750
898.792	14644
898.913	14613
899.033	14511
899.153	14396
899.273	14339
899.393	14427
899.513	14408
899.633	14484
899.753	14492
899.873	14396
899.993	14480
900.113	14362
900.232	14457
900.352	14476
900.472	14263
900.591	14233
900.711	14427
900.83	14301
900.95	14351
901.069	14381
901.189	14225
901.308	14084
901.427	13967
901.546	13879
901.665	13928
901.784	14062
901.904	13852
902.023	13719
902.141	13594
902.26	13464
902.379	13567
902.498	13658
902.617	13491
902.735	13586
902.854	13616
902.973	13480
903.091	13240
903.21	13270
903.328	13247
903.446	13126
903.565	13240
903.683	13141
903.801	13004
903.919	13160
904.038	12951
904.156	13031
904.274	12943
904.392	12951
904.51	12867
904.627	12954
904.745	12973
904.863	12962
904.981	12783
905.098	12646
905.216	12593
905.334	12677
905.451	12506
905.569	12635
905.686	12677
905.803	12559
905.921	12422
906.038	12593
906.155	12437
906.272	12213
906.389	12353
906.506	12175
906.623	12194
906.74	12258
906.857	12178
906.974	12129
907.091	12251
907.208	12296
907.324	12277
907.441	12114
907.557	11927
907.674	11984
907.79	11961
907.907	11870
908.023	11954
908.139	12007
908.256	11920
908.372	11885
908.488	11893
908.604	11718
908.72	11710
908.836	11718
908.952	11653
909.068	11718
909.184	11775
909.3	11840
909.415	11748
909.531	11733
909.647	11471
909.762	11516
909.878	11448
909.993	11547
910.108	11440
910.224	11440
910.339	11551
910.454	11360
910.57	11414
910.685	11303
910.8	11551
910.915	11497
911.03	11425
911.145	11201
911.259	11204
911.374	11223
911.489	11132
911.604	11045
911.718	10930
911.833	10972
911.947	10843
912.062	10736
912.176	10946
912.291	10972
912.405	10965
912.519	11105
912.633	11208
912.748	10919
912.862	10965
912.976	10877
913.09	10687
913.204	10824
913.318	10774
913.431	10934
913.545	10908
913.659	10934
913.772	10915
913.886	10683
914	10649
914.113	10740
914.226	10896
914.34	10839
914.453	10664
914.566	10790
914.68	10683
914.793	10618
914.906	10409
915.019	10428
915.132	10413
915.245	10451
915.358	10485
915.47	10523
915.583	10462
915.696	10512
915.809	10630
915.921	10565
916.034	10443
916.146	10398
916.259	10390
916.371	10561
916.483	10485
916.595	10394
916.708	10337
916.82	10405
916.932	10382
917.044	10474
917.156	10303
917.268	10253
917.38	10238
917.491	10265
917.603	10253
917.715	10284
917.826	10356
917.938	10196
918.049	10272
918.161	10306
918.272	10462
918.384	10421
918.495	10310
918.606	10131
918.717	10249
918.828	10200
918.939	10219
919.05	10055
919.161	10173
919.272	9960
919.383	10067
919.494	10257
919.604	10451
919.715	10166
919.826	10105
919.936	10215
920.047	10284
920.157	10219
920.267	10390
920.378	10211
920.488	10158
920.598	10333
920.708	10538
920.818	10382
920.928	10363
921.038	10573
921.148	10478
921.258	10303
921.368	10124
921.477	10044
921.587	9975
921.697	9873
921.806	10082
921.916	9922
922.025	9759
922.134	9690
922.244	9720
922.353	9762
922.462	9618
922.571	9618
922.68	9473
922.789	9462
922.898	9481
923.007	9367
923.116	9397
923.224	9408
923.333	9374
923.442	9340
923.55	9310
923.659	9405
923.767	9348
923.876	9275
923.984	9428
924.092	9195
924.201	9298
924.309	9348
924.417	9272
924.525	9275
924.633	9279
924.741	9998
924.849	9001
924.956	9237
925.064	9089
925.172	8975
925.279	9020
925.387	9039
925.494	9100
925.602	9230
925.709	9176
925.816	9074
925.924	9085
926.031	9169
926.138	9058
926.245	9123
926.352	9051
926.459	9150
926.566	9241
926.673	9039
926.779	8937
926.886	8933
926.993	8811
927.099	8842
927.206	8788
927.312	8788
927.419	8902
927.525	8781
927.631	8826
927.737	8724
927.843	8670
927.95	8621
928.056	8667
928.162	8678
928.267	8807
928.373	9382
928.479	8819
928.585	8526
928.69	8678
928.796	8701
928.901	8583
929.007	8556
929.112	8564
929.218	8514
929.323	8598
929.428	8556
929.533	8678
929.638	8465
929.743	8473
929.848	8556
929.953	8454
930.058	8366
930.163	8313
930.267	8240
930.372	8370
930.477	8301
930.581	8457
930.685	8377
930.79	8252
930.894	8294
930.998	8252
931.103	8446
931.207	8081
931.311	7928
931.415	7963
931.519	7734
931.623	7723
