Data from test_V78500241_3697.txt Node
Date: Fri Mar 25 14:59:27 CST 2022
User: usil
Spectrometer: V785-0024
Trigger mode: 0
Integration Time (sec): 4.000000E-1
Scans to average: 1
Nonlinearity correction enabled: false
Boxcar width: 0
Storing dark spectrum: false
XAxis mode: Wavelengths
Number of Pixels in Spectrum: 1024
>>>>>Begin Spectral Data<<<<<
801.071	21979
801.214	21907
801.356	21515
801.499	21405
801.641	21386
801.783	21249
801.926	21237
802.068	21256
802.211	21173
802.353	21085
802.496	20785
802.638	20785
802.78	20693
802.923	20754
803.065	20545
803.208	20522
803.35	20613
803.492	20697
803.635	20804
803.777	20514
803.919	20636
804.061	20883
804.204	20594
804.346	20541
804.488	20450
804.63	20617
804.773	20408
804.915	20480
805.057	20632
805.199	20415
805.341	20507
805.483	20518
805.626	20568
805.768	20389
805.91	20598
806.052	20518
806.194	20427
806.336	20598
806.478	20377
806.62	20400
806.762	20530
806.904	20663
807.046	20826
807.188	20819
807.33	20781
807.472	20872
807.614	20800
807.756	20857
807.898	20754
808.04	20488
808.182	20514
808.324	20663
808.465	20674
808.607	20735
808.749	20899
808.891	20842
809.033	21024
809.174	20895
809.316	20937
809.458	20880
809.6	20674
809.741	20902
809.883	20902
810.025	20937
810.166	20979
810.308	20963
810.45	20842
810.591	20876
810.733	20731
810.875	20678
811.016	20636
811.158	20370
811.299	20727
811.441	20735
811.582	20777
811.724	20568
811.865	20495
812.007	20651
812.148	20674
812.29	20617
812.431	20815
812.573	20925
812.714	20941
812.855	21211
812.997	21306
813.138	21245
813.279	21169
813.421	21188
813.562	21020
813.703	20906
813.845	20758
813.986	20571
814.127	20282
814.268	20206
814.41	20142
814.551	20130
814.692	20221
814.833	20050
814.974	20103
815.115	20020
815.256	19997
815.397	20027
815.539	19974
815.68	19967
815.821	19837
815.962	19982
816.103	19772
816.244	19746
816.385	19700
816.526	19495
816.666	19468
816.807	19308
816.948	19327
817.089	19373
817.23	19247
817.371	19324
817.512	19247
817.653	19331
817.793	19183
817.934	19400
818.075	19343
818.216	19232
818.356	19034
818.497	19061
818.638	18932
818.778	18985
818.919	18993
819.06	19008
819.2	19042
819.341	19183
819.481	19171
819.622	19274
819.762	19499
819.903	19331
820.043	19198
820.184	19259
820.324	19221
820.465	19274
820.605	19221
820.746	19206
820.886	19110
821.026	19187
821.167	19183
821.307	19274
821.447	19198
821.588	19012
821.728	18920
821.868	18852
822.008	18734
822.149	18681
822.289	18745
822.429	18407
822.569	18372
822.709	18388
822.849	18228
822.99	18125
823.13	18148
823.27	18136
823.41	18057
823.55	17817
823.69	18038
823.83	17958
823.97	17904
824.11	17649
824.25	17657
824.389	17764
824.529	17855
824.669	17729
824.809	17843
824.949	17874
825.089	17832
825.228	17764
825.368	17532
825.508	17512
825.648	17592
825.787	17638
825.927	17699
826.067	17452
826.206	17482
826.346	17646
826.485	17444
826.625	17482
826.765	17695
826.904	17520
827.044	17326
827.183	17235
827.323	17242
827.462	17372
827.601	17307
827.741	17204
827.88	17166
828.02	17102
828.159	17147
828.298	17231
828.437	17364
828.577	17197
828.716	17258
828.855	17075
828.994	16976
829.134	16900
829.273	17022
829.412	16938
829.551	16858
829.69	16965
829.829	16965
829.968	17052
830.107	17151
830.246	17056
830.385	16904
830.524	16793
830.663	16831
830.802	16683
830.941	16618
831.08	16527
831.219	16618
831.357	16656
831.496	16919
831.635	16573
831.774	16542
831.913	16500
832.051	16436
832.19	16352
832.329	16504
832.467	16310
832.606	16276
832.744	16211
832.883	16337
833.022	16181
833.16	16386
833.299	16390
833.437	16394
833.576	16318
833.714	16344
833.852	16443
833.991	16474
834.129	16466
834.267	16386
834.406	16371
834.544	16337
834.682	16310
834.821	16390
834.959	16489
835.097	16291
835.235	16485
835.373	16417
835.511	16390
835.65	16299
835.788	16325
835.926	16169
836.064	16196
836.202	16120
836.34	16371
836.478	16341
836.615	16276
836.753	16306
836.891	16344
837.029	16306
837.167	16200
837.305	16166
837.443	16207
837.58	16230
837.718	16128
837.856	16147
837.993	16124
838.131	16128
838.269	16112
838.406	16082
838.544	15964
838.681	15884
838.819	15755
838.956	15580
839.094	15641
839.231	15759
839.369	15884
839.506	16265
839.643	15953
839.781	15709
839.918	15641
840.055	15713
840.193	15652
840.33	15675
840.467	15720
840.604	15831
840.742	15956
840.879	15568
841.016	15629
841.153	15572
841.29	15743
841.427	15713
841.564	15736
841.701	15717
841.838	15652
841.975	15576
842.112	15660
842.249	15466
842.385	15458
842.522	15747
842.659	15488
842.796	15526
842.933	15538
843.069	15447
843.206	15519
843.343	15561
843.479	15469
843.616	15564
843.752	15348
843.889	15317
844.025	15431
844.162	15260
844.298	15382
844.435	15230
844.571	15351
844.708	15412
844.844	15382
844.98	15454
845.117	15389
845.253	15306
845.389	15146
845.525	15256
845.661	15157
845.798	15123
845.934	15074
846.07	15039
846.206	15093
846.342	15222
846.478	14952
846.614	14887
846.75	14743
846.886	14800
847.022	14941
847.158	14887
847.294	14906
847.429	14941
847.565	14857
847.701	15020
847.837	14606
847.972	14492
848.108	14617
848.244	14678
848.379	14526
848.515	14423
848.65	14366
848.786	14404
848.921	14442
849.057	14583
849.192	14473
849.328	14511
849.463	14393
849.598	14488
849.734	14339
849.869	14377
850.004	14252
850.14	14351
850.275	14176
850.41	14233
850.545	14267
850.68	14229
850.815	14278
850.95	14195
851.085	14415
851.22	14233
851.355	14176
851.49	14180
851.625	14153
851.76	14229
851.895	14123
852.03	14111
852.165	14168
852.299	14256
852.434	14351
852.569	14275
852.703	14267
852.838	14263
852.973	14339
853.107	14301
853.242	14092
853.376	14081
853.511	14043
853.645	13993
853.78	14233
853.914	14046
854.048	14073
854.183	14065
854.317	14107
854.451	14248
854.585	14123
854.72	14077
854.854	14164
854.988	14020
855.122	14149
855.256	13974
855.39	14020
855.524	14191
855.658	14157
855.792	14191
855.926	14107
856.06	14149
856.194	14263
856.327	14062
856.461	13993
856.595	14035
856.729	14008
856.862	14187
856.996	14210
857.13	14206
857.263	14202
857.397	14252
857.53	14069
857.664	14168
857.797	14157
857.931	14180
858.064	14103
858.197	14294
858.331	14100
858.464	14058
858.597	13993
858.731	14062
858.864	14111
858.997	14008
859.13	14119
859.263	14191
859.396	14221
859.529	14088
859.662	14069
859.795	14065
859.928	14073
860.061	14187
860.194	14336
860.327	14115
860.46	14119
860.592	14153
860.725	14237
860.858	14218
860.99	14081
861.123	14001
861.256	14058
861.388	14092
861.521	14686
861.653	14016
861.786	13864
861.918	13913
862.05	13993
862.183	14035
862.315	14077
862.447	14145
862.58	14130
862.712	13932
862.844	13906
862.976	13936
863.108	13909
863.24	14244
863.372	13830
863.504	13963
863.636	13879
863.768	13921
863.9	13845
864.032	13841
864.164	13791
864.296	13887
864.428	14008
864.559	13951
864.691	13955
864.823	13921
864.954	13940
865.086	13925
865.217	13753
865.349	13803
865.48	13928
865.612	13864
865.743	14123
865.875	13860
866.006	13791
866.137	13944
866.269	13906
866.4	13947
866.531	13845
866.662	13887
866.793	13879
866.924	13818
867.055	13822
867.186	13830
867.317	13849
867.448	13803
867.579	13902
867.71	13875
867.841	13780
867.972	13822
868.103	13814
868.233	13925
868.364	13784
868.495	13993
868.625	14073
868.756	14244
868.886	13993
869.017	14202
869.147	14218
869.278	14324
869.408	14176
869.539	14062
869.669	14187
869.799	14119
869.929	14218
870.06	14187
870.19	14343
870.32	14454
870.45	14404
870.58	14503
870.71	14621
870.84	14617
870.97	14522
871.1	14499
871.23	14712
871.36	14629
871.489	14594
871.619	14640
871.749	14571
871.879	14667
872.008	14727
872.138	14785
872.267	14663
872.397	14613
872.526	14617
872.656	14545
872.785	14693
872.915	14648
873.044	14857
873.173	14777
873.303	14853
873.432	14777
873.561	14845
873.69	14750
873.819	14739
873.948	14845
874.077	14811
874.206	14876
874.335	14758
874.464	14948
874.593	15116
874.722	15017
874.851	15104
874.979	15089
875.108	15055
875.237	15036
875.365	15009
875.494	15097
875.623	15188
875.751	15074
875.88	15157
876.008	15203
876.136	15329
876.265	15454
876.393	15663
876.521	15591
876.65	15507
876.778	15466
876.906	15450
877.034	15450
877.162	15443
877.29	15386
877.418	15511
877.546	15496
877.674	15477
877.802	15553
877.93	15500
878.058	15485
878.185	15382
878.313	15481
878.441	15397
878.568	15359
878.696	15450
878.824	15519
878.951	15538
879.079	15663
879.206	15793
879.333	15705
879.461	15603
879.588	15671
879.715	15682
879.842	15857
879.97	15568
880.097	15340
880.224	15203
880.351	15332
880.478	15329
880.605	15298
880.732	15408
880.859	15549
880.986	15374
881.112	15389
881.239	15298
881.366	15093
881.493	15100
881.619	15116
881.746	15081
881.872	15074
881.999	15005
882.125	14910
882.252	15070
882.378	14998
882.505	15123
882.631	15024
882.757	14910
882.883	14899
883.01	14796
883.136	14834
883.262	14705
883.388	14693
883.514	14861
883.64	14838
883.766	14834
883.892	14697
884.018	14648
884.143	14830
884.269	14868
884.395	14606
884.52	14469
884.646	14533
884.772	14499
884.897	14492
885.023	14484
885.148	14735
885.274	14610
885.399	14659
885.524	14564
885.65	14556
885.775	14564
885.9	14514
886.025	14598
886.15	14579
886.275	14503
886.4	14484
886.525	14507
886.65	14446
886.775	14495
886.9	14575
887.025	14777
887.149	14465
887.274	14305
887.399	14389
887.523	14290
887.648	14320
887.773	14294
887.897	14457
888.021	14404
888.146	14412
888.27	14442
888.395	14476
888.519	14469
888.643	14366
888.767	14427
888.891	14298
889.015	14256
889.139	14278
889.263	14218
889.387	14423
889.511	14514
889.635	14419
889.759	14210
889.883	14233
890.006	14187
890.13	14294
890.254	14218
890.377	14183
890.501	14077
890.624	14027
890.748	14096
890.871	13944
890.995	13890
891.118	13917
891.241	13913
891.364	13902
891.488	14050
891.611	13967
891.734	13974
891.857	14016
891.98	13921
892.103	14020
892.226	13917
892.349	14012
892.471	13788
892.594	13970
892.717	13959
892.839	13917
892.962	13925
893.085	14088
893.207	13955
893.33	13860
893.452	13890
893.575	14027
893.697	13898
893.819	14115
893.941	14145
894.064	14153
894.186	13902
894.308	13967
894.43	14123
894.552	14195
894.674	14062
894.796	13997
894.918	14035
895.04	13925
895.161	14027
895.283	14145
895.405	13982
895.526	13986
895.648	14103
895.769	14062
895.891	14191
896.012	14130
896.134	14134
896.255	14161
896.376	14027
896.498	14149
896.619	14263
896.74	14119
896.861	14142
896.982	14434
897.103	14640
897.224	14480
897.345	14328
897.466	14339
897.587	14427
897.708	14518
897.828	14385
897.949	14362
898.07	14347
898.19	14355
898.311	14560
898.431	14476
898.552	14431
898.672	14522
898.792	14545
898.913	14450
899.033	14400
899.153	14320
899.273	14218
899.393	14290
899.513	14305
899.633	14419
899.753	14336
899.873	14278
899.993	14381
900.113	14229
900.232	14320
900.352	14294
900.472	14248
900.591	14195
900.711	14161
900.83	14138
900.95	14309
901.069	14298
901.189	14126
901.308	13883
901.427	13833
901.546	13871
901.665	13928
901.784	13913
901.904	13780
902.023	13655
902.141	13464
902.26	13518
902.379	13487
902.498	13457
902.617	13365
902.735	13476
902.854	13426
902.973	13396
903.091	13255
903.21	13156
903.328	13255
903.446	13065
903.565	13000
903.683	13080
903.801	12867
903.919	12920
904.038	13031
904.156	12924
904.274	12924
904.392	12817
904.51	12795
904.627	12764
904.745	12886
904.863	12897
904.981	12642
905.098	12475
905.216	12513
905.334	12578
905.451	12555
905.569	12475
905.686	12540
905.803	12525
905.921	12254
906.038	12395
906.155	12273
906.272	12254
906.389	12285
906.506	12155
906.623	12083
906.74	12152
906.857	12026
906.974	12022
907.091	12186
907.208	12182
907.324	12197
907.441	12068
907.557	11859
907.674	11908
907.79	11863
907.907	11786
908.023	11973
908.139	11897
908.256	11843
908.372	11851
908.488	11805
908.604	11733
908.72	11585
908.836	11710
908.952	11623
909.068	11611
909.184	11779
909.3	11608
909.415	11710
909.531	11615
909.647	11429
909.762	11425
909.878	11299
909.993	11360
910.108	11334
910.224	11398
910.339	11341
910.454	11322
910.57	11277
910.685	11246
910.8	11414
910.915	11406
911.03	11143
911.145	11170
911.259	11113
911.374	11075
911.489	11094
911.604	10900
911.718	10938
911.833	10911
911.947	10786
912.062	10740
912.176	10805
912.291	10831
912.405	10797
912.519	11124
912.633	11140
912.748	10934
912.862	10877
912.976	10790
913.09	10618
913.204	10637
913.318	10755
913.431	10896
913.545	10816
913.659	10854
913.772	10660
913.886	10596
914	10634
914.113	10675
914.226	10816
914.34	10683
914.453	10546
914.566	10645
914.68	10573
914.793	10580
914.906	10367
915.019	10390
915.132	10303
915.245	10344
915.358	10398
915.47	10455
915.583	10432
915.696	10348
915.809	10504
915.921	10508
916.034	10375
916.146	10306
916.259	10318
916.371	10382
916.483	10459
916.595	10322
916.708	10432
916.82	10287
916.932	10333
917.044	10348
917.156	10284
917.268	10196
917.38	10234
917.491	10246
917.603	10200
917.715	10341
917.826	10310
917.938	10139
918.049	10131
918.161	10147
918.272	10322
918.384	10344
918.495	10200
918.606	9987
918.717	10006
918.828	10109
918.939	10128
919.05	10048
919.161	10093
919.272	9949
919.383	9956
919.494	10124
919.604	10284
919.715	10204
919.826	10021
919.936	10093
920.047	10120
920.157	10131
920.267	10287
920.378	10128
920.488	10086
920.598	10261
920.708	10500
920.818	10329
920.928	10341
921.038	10481
921.148	10459
921.258	10135
921.368	10036
921.477	9945
921.587	9937
921.697	9861
921.806	9972
921.916	9873
922.025	9743
922.134	9747
922.244	9633
922.353	9751
922.462	9614
922.571	9511
922.68	9370
922.789	9336
922.898	9382
923.007	9306
923.116	9515
923.224	9378
923.333	9386
923.442	9329
923.55	9203
923.659	9310
923.767	9275
923.876	9272
923.984	9287
924.092	9188
924.201	9272
924.309	9230
924.417	9363
924.525	9203
924.633	9214
924.741	9880
924.849	8998
924.956	9161
925.064	9005
925.172	8971
925.279	8979
925.387	9089
925.494	9055
925.602	9150
925.709	9127
925.816	9047
925.924	9009
926.031	9089
926.138	9020
926.245	9066
926.352	9013
926.459	9085
926.566	9138
926.673	8982
926.779	8929
926.886	8861
926.993	8739
927.099	8739
927.206	8746
927.312	8659
927.419	8804
927.525	8819
927.631	8842
927.737	8686
927.843	8743
927.95	8564
928.056	8587
928.162	8693
928.267	8724
928.373	9207
928.479	8716
928.585	8492
928.69	8621
928.796	8667
928.901	8560
929.007	8461
929.112	8568
929.218	8503
929.323	8503
929.428	8457
929.533	8606
929.638	8423
929.743	8457
929.848	8469
929.953	8473
930.058	8374
930.163	8180
930.267	8237
930.372	8290
930.477	8237
930.581	8404
930.685	8313
930.79	8191
930.894	8218
930.998	8126
931.103	8298
931.207	8012
931.311	7913
931.415	7906
931.519	7693
931.623	7670
