Data from test_V78500241_1834.txt Node
Date: Fri Mar 25 14:46:29 CST 2022
User: usil
Spectrometer: V785-0024
Trigger mode: 0
Integration Time (sec): 4.000000E-1
Scans to average: 1
Nonlinearity correction enabled: false
Boxcar width: 0
Storing dark spectrum: false
XAxis mode: Wavelengths
Number of Pixels in Spectrum: 1024
>>>>>Begin Spectral Data<<<<<
801.071	22143
801.214	22097
801.356	21857
801.499	21766
801.641	21580
801.783	21629
801.926	21542
802.068	21485
802.211	21504
802.353	21321
802.496	21173
802.638	20994
802.78	21009
802.923	20918
803.065	20758
803.208	20746
803.35	20849
803.492	20956
803.635	20921
803.777	20838
803.919	20868
804.061	21047
804.204	20929
804.346	20651
804.488	20746
804.63	20800
804.773	20724
804.915	20804
805.057	20834
805.199	20781
805.341	20864
805.483	20845
805.626	20758
805.768	20746
805.91	20804
806.052	20800
806.194	20754
806.336	20910
806.478	20731
806.62	20746
806.762	20929
806.904	20921
807.046	21116
807.188	21298
807.33	21123
807.472	21131
807.614	20929
807.756	21157
807.898	20948
808.04	20838
808.182	20815
808.324	20861
808.465	20807
808.607	21112
808.749	21020
808.891	21230
809.033	21340
809.174	21195
809.316	21180
809.458	21135
809.6	21032
809.741	21074
809.883	21249
810.025	21332
810.166	21313
810.308	21252
810.45	21245
810.591	21176
810.733	21039
810.875	20963
811.016	20845
811.158	20758
811.299	20868
811.441	21036
811.582	21039
811.724	20998
811.865	20948
812.007	20956
812.148	20921
812.29	20914
812.431	21180
812.573	21252
812.714	21321
812.855	21416
812.997	21542
813.138	21633
813.279	21500
813.421	21378
813.562	21348
813.703	21138
813.845	21028
813.986	20750
814.127	20659
814.268	20571
814.41	20632
814.551	20480
814.692	20552
814.833	20514
814.974	20434
815.115	20450
815.256	20324
815.397	20240
815.539	20358
815.68	20313
815.821	20157
815.962	20176
816.103	20119
816.244	20050
816.385	19959
816.526	19921
816.666	19875
816.807	19601
816.948	19689
817.089	19750
817.23	19696
817.371	19563
817.512	19624
817.653	19727
817.793	19552
817.934	19651
818.075	19529
818.216	19518
818.356	19575
818.497	19544
818.638	19293
818.778	19308
818.919	19335
819.06	19377
819.2	19396
819.341	19510
819.481	19537
819.622	19590
819.762	19845
819.903	19742
820.043	19689
820.184	19613
820.324	19556
820.465	19590
820.605	19666
820.746	19597
820.886	19449
821.026	19453
821.167	19419
821.307	19506
821.447	19567
821.588	19320
821.728	19316
821.868	19171
822.008	19023
822.149	19053
822.289	18916
822.429	18715
822.569	18738
822.709	18722
822.849	18486
822.99	18452
823.13	18471
823.27	18532
823.41	18300
823.55	18235
823.69	18262
823.83	18361
823.97	18209
824.11	18011
824.25	18068
824.389	18110
824.529	18102
824.669	18144
824.809	18285
824.949	18110
825.089	18167
825.228	18038
825.368	17874
825.508	17942
825.648	17805
825.787	17855
825.927	17904
826.067	17805
826.206	17882
826.346	17920
826.485	17882
826.625	17851
826.765	17931
826.904	17752
827.044	17554
827.183	17604
827.323	17566
827.462	17627
827.601	17570
827.741	17558
827.88	17505
828.02	17516
828.159	17566
828.298	17604
828.437	17585
828.577	17486
828.716	17657
828.855	17490
828.994	17341
829.134	17406
829.273	17277
829.412	17296
829.551	17250
829.69	17330
829.829	17318
829.968	17292
830.107	17452
830.246	17330
830.385	17151
830.524	17299
830.663	17098
830.802	17022
830.941	16862
831.08	16889
831.219	16949
831.357	16968
831.496	17094
831.635	16927
831.774	16816
831.913	16672
832.051	16664
832.19	16778
832.329	16805
832.467	16717
832.606	16443
832.744	16569
832.883	16599
833.022	16523
833.16	16592
833.299	16645
833.437	16656
833.576	16637
833.714	16622
833.852	16603
833.991	16763
834.129	16698
834.267	16710
834.406	16679
834.544	16679
834.682	16596
834.821	16668
834.959	16740
835.097	16577
835.235	16759
835.373	16782
835.511	16630
835.65	16554
835.788	16603
835.926	16413
836.064	16333
836.202	16325
836.34	16596
836.478	16596
836.615	16554
836.753	16618
836.891	16702
837.029	16664
837.167	16546
837.305	16424
837.443	16561
837.58	16424
837.718	16432
837.856	16462
837.993	16360
838.131	16352
838.269	16306
838.406	16375
838.544	16268
838.681	16147
838.819	16147
838.956	16074
839.094	15968
839.231	16116
839.369	16173
839.506	16299
839.643	16257
839.781	15956
839.918	15949
840.055	16063
840.193	15964
840.33	15975
840.467	15873
840.604	16029
840.742	16360
840.879	15937
841.016	15899
841.153	15964
841.29	16112
841.427	16071
841.564	16101
841.701	16048
841.838	15934
841.975	15956
842.112	16048
842.249	15793
842.385	15720
842.522	15895
842.659	15831
842.796	15751
842.933	15892
843.069	15766
843.206	15701
843.343	15781
843.479	15774
843.616	15838
843.752	15488
843.889	15728
844.025	15705
844.162	15477
844.298	15538
844.435	15580
844.571	15511
844.708	15584
844.844	15705
844.98	15717
845.117	15762
845.253	15526
845.389	15454
845.525	15431
845.661	15458
845.798	15386
845.934	15458
846.07	15382
846.206	15382
846.342	15466
846.478	15332
846.614	15154
846.75	15104
846.886	15058
847.022	15214
847.158	15131
847.294	15165
847.429	15150
847.565	15077
847.701	15306
847.837	14880
847.972	14815
848.108	15032
848.244	14819
848.379	14769
848.515	14750
848.65	14708
848.786	14743
848.921	14804
849.057	14804
849.192	14811
849.328	14891
849.463	14785
849.598	14716
849.734	14651
849.869	14594
850.004	14598
850.14	14530
850.275	14549
850.41	14461
850.545	14549
850.68	14537
850.815	14537
850.95	14522
851.085	14648
851.22	14518
851.355	14587
851.49	14495
851.625	14571
851.76	14446
851.895	14377
852.03	14377
852.165	14431
852.299	14587
852.434	14503
852.569	14511
852.703	14552
852.838	14457
852.973	14610
853.107	14655
853.242	14476
853.376	14454
853.511	14290
853.645	14324
853.78	14480
853.914	14415
854.048	14336
854.183	14278
854.317	14385
854.451	14625
854.585	14446
854.72	14347
854.854	14469
854.988	14271
855.122	14278
855.256	14168
855.39	14374
855.524	14415
855.658	14313
855.792	14317
855.926	14488
856.06	14461
856.194	14377
856.327	14343
856.461	14252
856.595	14343
856.729	14294
856.862	14457
856.996	14408
857.13	14408
857.263	14431
857.397	14465
857.53	14404
857.664	14503
857.797	14446
857.931	14507
858.064	14309
858.197	14461
858.331	14332
858.464	14377
858.597	14278
858.731	14355
858.864	14381
858.997	14377
859.13	14427
859.263	14476
859.396	14473
859.529	14355
859.662	14343
859.795	14252
859.928	14370
860.061	14537
860.194	14568
860.327	14408
860.46	14339
860.592	14450
860.725	14480
860.858	14537
860.99	14313
861.123	14294
861.256	14339
861.388	14423
861.521	15058
861.653	14210
861.786	14278
861.918	14214
862.05	14328
862.183	14336
862.315	14419
862.447	14336
862.58	14336
862.712	14092
862.844	14054
862.976	14153
863.108	14157
863.24	14495
863.372	14126
863.504	14153
863.636	14084
863.768	14107
863.9	14096
864.032	14103
864.164	14130
864.296	14134
864.428	14332
864.559	14206
864.691	14267
864.823	14233
864.954	14191
865.086	14195
865.217	14115
865.349	14084
865.48	14027
865.612	14240
865.743	14309
865.875	14153
866.006	14149
866.137	14107
866.269	14123
866.4	14119
866.531	14214
866.662	14012
866.793	14107
866.924	14142
867.055	14153
867.186	14001
867.317	14035
867.448	14119
867.579	14039
867.71	14062
867.841	14073
867.972	14237
868.103	14180
868.233	14183
868.364	14081
868.495	14240
868.625	14370
868.756	14347
868.886	14271
869.017	14412
869.147	14522
869.278	14473
869.408	14423
869.539	14358
869.669	14484
869.799	14473
869.929	14465
870.06	14549
870.19	14636
870.32	14781
870.45	14640
870.58	14777
870.71	14826
870.84	14830
870.97	14743
871.1	14705
871.23	14857
871.36	14956
871.489	14880
871.619	14887
871.749	14914
871.879	15051
872.008	15051
872.138	14979
872.267	14910
872.397	14910
872.526	14781
872.656	14746
872.785	14785
872.915	15142
873.044	15127
873.173	14956
873.303	15039
873.432	15066
873.561	15089
873.69	15036
873.819	15051
873.948	15039
874.077	14986
874.206	15017
874.335	15070
874.464	15203
874.593	15416
874.722	15233
874.851	15374
874.979	15325
875.108	15317
875.237	15283
875.365	15249
875.494	15329
875.623	15386
875.751	15355
875.88	15332
876.008	15481
876.136	15462
876.265	15732
876.393	15831
876.521	15850
876.65	15827
876.778	15808
876.906	15709
877.034	15701
877.162	15705
877.29	15614
877.418	15766
877.546	15759
877.674	15743
877.802	15743
877.93	15846
878.058	15739
878.185	15603
878.313	15720
878.441	15584
878.568	15549
878.696	15667
878.824	15698
878.951	15778
879.079	16029
879.206	16082
879.333	15930
879.461	15797
879.588	15793
879.715	15983
879.842	16055
879.97	15892
880.097	15652
880.224	15675
880.351	15694
880.478	15648
880.605	15545
880.732	15618
880.859	15739
880.986	15610
881.112	15618
881.239	15572
881.366	15431
881.493	15348
881.619	15233
881.746	15188
881.872	15291
881.999	15218
882.125	15233
882.252	15249
882.378	15199
882.505	15393
882.631	15165
882.757	15077
882.883	15123
883.01	15051
883.136	14933
883.262	14963
883.388	15039
883.514	15051
883.64	15097
883.766	15028
883.892	14750
884.018	14963
884.143	15104
884.269	15097
884.395	14819
884.52	14804
884.646	14758
884.772	14724
884.897	14674
885.023	14845
885.148	14921
885.274	14891
885.399	14902
885.524	14849
885.65	14750
885.775	14792
885.9	14815
886.025	14872
886.15	14842
886.275	14773
886.4	14731
886.525	14807
886.65	14743
886.775	14716
886.9	14883
887.025	14902
887.149	14785
887.274	14746
887.399	14541
887.523	14507
887.648	14514
887.773	14541
887.897	14686
888.021	14674
888.146	14568
888.27	14663
888.395	14693
888.519	14667
888.643	14648
888.767	14590
888.891	14511
889.015	14526
889.139	14446
889.263	14434
889.387	14564
889.511	14727
889.635	14571
889.759	14423
889.883	14396
890.006	14549
890.13	14625
890.254	14370
890.377	14431
890.501	14339
890.624	14206
890.748	14434
890.871	14233
890.995	14054
891.118	14100
891.241	14119
891.364	14088
891.488	14263
891.611	14168
891.734	14149
891.857	14282
891.98	14134
892.103	14282
892.226	14187
892.349	14172
892.471	13989
892.594	14183
892.717	14176
892.839	14024
892.962	14240
893.085	14157
893.207	14168
893.33	14103
893.452	14126
893.575	14161
893.697	14168
893.819	14294
893.941	14355
894.064	14328
894.186	14168
894.308	14191
894.43	14290
894.552	14351
894.674	14301
894.796	14103
894.918	14244
895.04	14206
895.161	14362
895.283	14259
895.405	14225
895.526	14271
895.648	14355
895.769	14248
895.891	14332
896.012	14446
896.134	14294
896.255	14393
896.376	14202
896.498	14301
896.619	14381
896.74	14305
896.861	14374
896.982	14632
897.103	14819
897.224	14610
897.345	14640
897.466	14499
897.587	14625
897.708	14625
897.828	14511
897.949	14556
898.07	14393
898.19	14541
898.311	14754
898.431	14648
898.552	14674
898.672	14880
898.792	14758
898.913	14655
899.033	14648
899.153	14454
899.273	14469
899.393	14533
899.513	14541
899.633	14461
899.753	14522
899.873	14549
899.993	14541
900.113	14552
900.232	14507
900.352	14469
900.472	14495
900.591	14389
900.711	14419
900.83	14385
900.95	14488
901.069	14556
901.189	14419
901.308	14149
901.427	13959
901.546	14096
901.665	14100
901.784	14115
901.904	13890
902.023	13940
902.141	13791
902.26	13597
902.379	13731
902.498	13643
902.617	13651
902.735	13719
902.854	13693
902.973	13582
903.091	13312
903.21	13346
903.328	13415
903.446	13198
903.565	13282
903.683	13175
903.801	13175
903.919	13171
904.038	13244
904.156	13038
904.274	13038
904.392	12989
904.51	13038
904.627	12867
904.745	13076
904.863	13126
904.981	12886
905.098	12654
905.216	12715
905.334	12749
905.451	12757
905.569	12726
905.686	12806
905.803	12776
905.921	12585
906.038	12642
906.155	12593
906.272	12407
906.389	12570
906.506	12315
906.623	12391
906.74	12311
906.857	12155
906.974	12152
907.091	12380
907.208	12486
907.324	12407
907.441	12194
907.557	11996
907.674	12144
907.79	11958
907.907	12076
908.023	12034
908.139	12038
908.256	11965
908.372	12022
908.488	11916
908.604	11889
908.72	11798
908.836	11775
908.952	11779
909.068	11901
909.184	11866
909.3	11832
909.415	11893
909.531	11798
909.647	11684
909.762	11619
909.878	11520
909.993	11608
910.108	11554
910.224	11455
910.339	11562
910.454	11471
910.57	11509
910.685	11334
910.8	11627
910.915	11661
911.03	11455
911.145	11269
911.259	11235
911.374	11315
911.489	11242
911.604	11189
911.718	11060
911.833	11094
911.947	10953
912.062	10816
912.176	10930
912.291	11029
912.405	11052
912.519	11258
912.633	11322
912.748	11064
912.862	11033
912.976	10889
913.09	10793
913.204	10835
913.318	10862
913.431	10957
913.545	10995
913.659	11075
913.772	10934
913.886	10824
914	10755
914.113	10885
914.226	10889
914.34	10831
914.453	10706
914.566	10938
914.68	10778
914.793	10763
914.906	10637
915.019	10474
915.132	10455
915.245	10424
915.358	10516
915.47	10512
915.583	10565
915.696	10573
915.809	10668
915.921	10733
916.034	10455
916.146	10481
916.259	10493
916.371	10607
916.483	10523
916.595	10466
916.708	10466
916.82	10474
916.932	10489
917.044	10462
917.156	10443
917.268	10314
917.38	10379
917.491	10325
917.603	10348
917.715	10500
917.826	10474
917.938	10394
918.049	10238
918.161	10394
918.272	10436
918.384	10504
918.495	10363
918.606	10276
918.717	10196
918.828	10337
918.939	10333
919.05	10177
919.161	10169
919.272	10071
919.383	10124
919.494	10234
919.604	10500
919.715	10310
919.826	10261
919.936	10154
920.047	10390
920.157	10360
920.267	10508
920.378	10371
920.488	10200
920.598	10447
920.708	10569
920.818	10478
920.928	10508
921.038	10691
921.148	10577
921.258	10276
921.368	10257
921.477	10116
921.587	10082
921.697	10013
921.806	10158
921.916	9964
922.025	9861
922.134	9888
922.244	9793
922.353	9880
922.462	9713
922.571	9641
922.68	9507
922.789	9458
922.898	9462
923.007	9420
923.116	9507
923.224	9469
923.333	9454
923.442	9412
923.55	9439
923.659	9378
923.767	9488
923.876	9355
923.984	9526
924.092	9348
924.201	9332
924.309	9500
924.417	9359
924.525	9348
924.633	9370
924.741	10261
924.849	9184
924.956	9325
925.064	9119
925.172	9116
925.279	9108
925.387	9154
925.494	9192
925.602	9321
925.709	9142
925.816	9123
925.924	9230
926.031	9233
926.138	9203
926.245	9169
926.352	9093
926.459	9241
926.566	9222
926.673	9085
926.779	9020
926.886	9009
926.993	8883
927.099	8861
927.206	8792
927.312	8910
927.419	8944
927.525	8868
927.631	8929
927.737	8773
927.843	8735
927.95	8587
928.056	8754
928.162	8796
928.267	8845
928.373	9329
928.479	8853
928.585	8621
928.69	8823
928.796	8766
928.901	8682
929.007	8579
929.112	8712
929.218	8621
929.323	8632
929.428	8610
929.533	8708
929.638	8552
929.743	8568
929.848	8606
929.953	8541
930.058	8511
930.163	8355
930.267	8423
930.372	8533
930.477	8282
930.581	8564
930.685	8431
930.79	8328
930.894	8320
930.998	8301
931.103	8374
931.207	8123
931.311	8020
931.415	7944
931.519	7822
931.623	7784
