Data from test_V78500241_1066.txt Node
Date: Fri Mar 25 14:41:08 CST 2022
User: usil
Spectrometer: V785-0024
Trigger mode: 0
Integration Time (sec): 4.000000E-1
Scans to average: 1
Nonlinearity correction enabled: false
Boxcar width: 0
Storing dark spectrum: false
XAxis mode: Wavelengths
Number of Pixels in Spectrum: 1024
>>>>>Begin Spectral Data<<<<<
801.071	22816
801.214	22653
801.356	22634
801.499	22219
801.641	22177
801.783	22097
801.926	22261
802.068	22013
802.211	21895
802.353	21953
802.496	21660
802.638	21675
802.78	21747
802.923	21595
803.065	21416
803.208	21477
803.35	21526
803.492	21572
803.635	21667
803.777	21405
803.919	21576
804.061	21812
804.204	21545
804.346	21469
804.488	21298
804.63	21382
804.773	21275
804.915	21625
805.057	21500
805.199	21405
805.341	21477
805.483	21504
805.626	21466
805.768	21412
805.91	21469
806.052	21496
806.194	21424
806.336	21603
806.478	21488
806.62	21359
806.762	21504
806.904	21728
807.046	21869
807.188	21797
807.33	21808
807.472	21998
807.614	21854
807.756	21922
807.898	21797
808.04	21743
808.182	21762
808.324	21899
808.465	21865
808.607	22265
808.749	22405
808.891	22466
809.033	22577
809.174	22375
809.316	22207
809.458	22261
809.6	22074
809.741	22169
809.883	22101
810.025	22082
810.166	22139
810.308	22173
810.45	22074
810.591	21998
810.733	21945
810.875	21739
811.016	21591
811.158	21610
811.299	21724
811.441	21835
811.582	21774
811.724	21751
811.865	21667
812.007	21663
812.148	21618
812.29	21618
812.431	21789
812.573	21975
812.714	21949
812.855	22135
812.997	22333
813.138	22344
813.279	22246
813.421	22162
813.562	22166
813.703	21873
813.845	21869
813.986	21557
814.127	21291
814.268	21230
814.41	21298
814.551	21176
814.692	21283
814.833	21104
814.974	21055
815.115	21116
815.256	21055
815.397	21024
815.539	20960
815.68	20933
815.821	20914
815.962	20963
816.103	20948
816.244	20731
816.385	20830
816.526	20625
816.666	20492
816.807	20347
816.948	20602
817.089	20503
817.23	20484
817.371	20317
817.512	20343
817.653	20317
817.793	20328
817.934	20305
818.075	20404
818.216	20377
818.356	20381
818.497	20187
818.638	20062
818.778	20088
818.919	20039
819.06	20145
819.2	20142
819.341	20218
819.481	20256
819.622	20355
819.762	20533
819.903	20461
820.043	20438
820.184	20282
820.324	20355
820.465	20400
820.605	20355
820.746	20313
820.886	20187
821.026	20339
821.167	20336
821.307	20343
821.447	20187
821.588	20073
821.728	20065
821.868	19803
822.008	19811
822.149	19742
822.289	19689
822.429	19434
822.569	19426
822.709	19384
822.849	19236
822.99	19179
823.13	19183
823.27	19148
823.41	19004
823.55	19084
823.69	19019
823.83	18932
823.97	18943
824.11	18905
824.25	18772
824.389	18817
824.529	18901
824.669	18810
824.809	18890
824.949	18932
825.089	18863
825.228	18703
825.368	18684
825.508	18715
825.648	18601
825.787	18673
825.927	18654
826.067	18563
826.206	18456
826.346	18559
826.485	18585
826.625	18578
826.765	18684
826.904	18578
827.044	18346
827.183	18437
827.323	18285
827.462	18258
827.601	18239
827.741	18114
827.88	18201
828.02	18114
828.159	18235
828.298	18186
828.437	18262
828.577	18319
828.716	18414
828.855	18342
828.994	17988
829.134	17996
829.273	18155
829.412	17984
829.551	17988
829.69	17897
829.829	17961
829.968	18064
830.107	18106
830.246	18087
830.385	18041
830.524	17843
830.663	17866
830.802	17676
830.941	17760
831.08	17630
831.219	17695
831.357	17646
831.496	17726
831.635	17684
831.774	17543
831.913	17630
832.051	17383
832.19	17425
832.329	17356
832.467	17322
832.606	17246
832.744	17296
832.883	17406
833.022	17326
833.16	17349
833.299	17364
833.437	17429
833.576	17261
833.714	17356
833.852	17376
833.991	17482
834.129	17551
834.267	17444
834.406	17547
834.544	17402
834.682	17376
834.821	17345
834.959	17551
835.097	17292
835.235	17383
835.373	17368
835.511	17414
835.65	17311
835.788	17273
835.926	17090
836.064	17060
836.202	17071
836.34	17273
836.478	17258
836.615	17250
836.753	17239
836.891	17356
837.029	17444
837.167	17284
837.305	17071
837.443	17117
837.58	17155
837.718	17181
837.856	17166
837.993	16991
838.131	17170
838.269	17140
838.406	17113
838.544	17018
838.681	16797
838.819	16797
838.956	16710
839.094	16694
839.231	16782
839.369	16805
839.506	17064
839.643	16915
839.781	16717
839.918	16630
840.055	16725
840.193	16702
840.33	16687
840.467	16759
840.604	16721
840.742	16889
840.879	16630
841.016	16664
841.153	16542
841.29	16763
841.427	16664
841.564	16809
841.701	16630
841.838	16645
841.975	16417
842.112	16493
842.249	16485
842.385	16428
842.522	16637
842.659	16500
842.796	16474
842.933	16325
843.069	16318
843.206	16272
843.343	16538
843.479	16337
843.616	16558
843.752	16299
843.889	16101
844.025	16382
844.162	16177
844.298	16310
844.435	16276
844.571	16265
844.708	16257
844.844	16428
844.98	16371
845.117	16386
845.253	16310
845.389	16215
845.525	16318
845.661	16436
845.798	16500
845.934	16603
846.07	16626
846.206	16706
846.342	16706
846.478	16417
846.614	16040
846.75	15915
846.886	15781
847.022	15899
847.158	15869
847.294	15926
847.429	15880
847.565	15793
847.701	16032
847.837	15416
847.972	15473
848.108	15625
848.244	15633
848.379	15500
848.515	15443
848.65	15397
848.786	15367
848.921	15408
849.057	15519
849.192	15538
849.328	15424
849.463	15420
849.598	15405
849.734	15241
849.869	15275
850.004	15108
850.14	15131
850.275	15058
850.41	15097
850.545	15036
850.68	15097
850.815	15211
850.95	15135
851.085	15340
851.22	15104
851.355	15116
851.49	15135
851.625	15123
851.76	15173
851.895	15047
852.03	15017
852.165	15055
852.299	15180
852.434	15237
852.569	15184
852.703	15146
852.838	15169
852.973	15237
853.107	15211
853.242	15116
853.376	15066
853.511	14933
853.645	14929
853.78	15108
853.914	15039
854.048	14998
854.183	15062
854.317	15058
854.451	15108
854.585	15017
854.72	14960
854.854	15032
854.988	14967
855.122	15009
855.256	14880
855.39	15028
855.524	15081
855.658	15036
855.792	15001
855.926	15055
856.06	15074
856.194	15176
856.327	15119
856.461	15001
856.595	14929
856.729	14971
856.862	15108
856.996	15131
857.13	15093
857.263	15165
857.397	15142
857.53	15074
857.664	15017
857.797	15146
857.931	15199
858.064	15085
858.197	15001
858.331	15032
858.464	15020
858.597	15009
858.731	15085
858.864	15028
858.997	15024
859.13	15154
859.263	15062
859.396	15138
859.529	14971
859.662	14975
859.795	14937
859.928	15085
860.061	15135
860.194	15268
860.327	15020
860.46	15093
860.592	15077
860.725	15165
860.858	15165
860.99	14986
861.123	14937
861.256	14975
861.388	15108
861.521	15587
861.653	14906
861.786	14849
861.918	14944
862.05	14902
862.183	14906
862.315	15036
862.447	15176
862.58	14956
862.712	14842
862.844	14758
862.976	14823
863.108	14864
863.24	15256
863.372	14705
863.504	14773
863.636	14853
863.768	14914
863.9	14819
864.032	14743
864.164	14765
864.296	14902
864.428	14929
864.559	14994
864.691	14925
864.823	14864
864.954	14819
865.086	14834
865.217	14834
865.349	14754
865.48	14792
865.612	14792
865.743	14906
865.875	14880
866.006	14735
866.137	14693
866.269	14739
866.4	14720
866.531	14670
866.662	14674
866.793	14693
866.924	14712
867.055	14849
867.186	14701
867.317	14758
867.448	14697
867.579	14746
867.71	14765
867.841	14670
867.972	14788
868.103	14788
868.233	14830
868.364	14796
868.495	14826
868.625	14933
868.756	15161
868.886	14941
869.017	14994
869.147	15294
869.278	15192
869.408	15028
869.539	15066
869.669	15093
869.799	15108
869.929	15165
870.06	15070
870.19	15332
870.32	15214
870.45	15370
870.58	15355
870.71	15515
870.84	15557
870.97	15389
871.1	15477
871.23	15610
871.36	15625
871.489	15523
871.619	15614
871.749	15686
871.879	15652
872.008	15747
872.138	15599
872.267	15644
872.397	15473
872.526	15435
872.656	15466
872.785	15473
872.915	15625
873.044	15736
873.173	15663
873.303	15747
873.432	15747
873.561	15732
873.69	15644
873.819	15633
873.948	15736
874.077	15625
874.206	15637
874.335	15709
874.464	15823
874.593	16017
874.722	15911
874.851	16078
874.979	15987
875.108	16029
875.237	15911
875.365	15907
875.494	16013
875.623	15994
875.751	15915
875.88	16013
876.008	16120
876.136	16120
876.265	16428
876.393	16527
876.521	16443
876.65	16535
876.778	16500
876.906	16291
877.034	16341
877.162	16417
877.29	16344
877.418	16455
877.546	16394
877.674	16402
877.802	16299
877.93	16394
878.058	16363
878.185	16371
878.313	16295
878.441	16299
878.568	16291
878.696	16367
878.824	16577
878.951	16584
879.079	16637
879.206	16980
879.333	16786
879.461	16683
879.588	16881
879.715	16984
879.842	16946
879.97	16687
880.097	16462
880.224	16379
880.351	16398
880.478	16402
880.605	16291
880.732	16276
880.859	16607
880.986	16314
881.112	16394
881.239	16192
881.366	16169
881.493	15987
881.619	15979
881.746	15987
881.872	15911
881.999	15876
882.125	15968
882.252	15979
882.378	16002
882.505	16196
882.631	16021
882.757	15816
882.883	15880
883.01	15831
883.136	15743
883.262	15701
883.388	15705
883.514	15743
883.64	15854
883.766	15762
883.892	15606
884.018	15641
884.143	15736
884.269	15819
884.395	15526
884.52	15507
884.646	15473
884.772	15424
884.897	15401
885.023	15584
885.148	15561
885.274	15561
885.399	15584
885.524	15477
885.65	15507
885.775	15454
885.9	15481
886.025	15603
886.15	15469
886.275	15397
886.4	15321
886.525	15462
886.65	15321
886.775	15458
886.9	15454
887.025	15625
887.149	15405
887.274	15260
887.399	15283
887.523	15272
887.648	15165
887.773	15150
887.897	15401
888.021	15332
888.146	15214
888.27	15302
888.395	15386
888.519	15313
888.643	15283
888.767	15218
888.891	15241
889.015	15032
889.139	15024
889.263	15104
889.387	15135
889.511	15310
889.635	15150
889.759	15089
889.883	15138
890.006	15036
890.13	15161
890.254	14990
890.377	15070
890.501	14891
890.624	14872
890.748	14986
890.871	14857
890.995	14686
891.118	14629
891.241	14686
891.364	14746
891.488	14857
891.611	14746
891.734	14842
891.857	14838
891.98	14720
892.103	14899
892.226	14826
892.349	14781
892.471	14610
892.594	14693
892.717	14655
892.839	14861
892.962	14823
893.085	14811
893.207	14800
893.33	14678
893.452	14659
893.575	14739
893.697	14716
893.819	14857
893.941	14967
894.064	14838
894.186	14727
894.308	14727
894.43	14937
894.552	14880
894.674	14952
894.796	14712
894.918	14777
895.04	14686
895.161	14899
895.283	14883
895.405	14769
895.526	14880
895.648	14754
895.769	14956
895.891	14895
896.012	14937
896.134	14921
896.255	14948
896.376	14883
896.498	14902
896.619	14895
896.74	14925
896.861	14937
896.982	15291
897.103	15374
897.224	15142
897.345	15146
897.466	15085
897.587	15222
897.708	15214
897.828	15245
897.949	15226
898.07	15100
898.19	15100
898.311	15161
898.431	15154
898.552	15214
898.672	15317
898.792	15173
898.913	15298
899.033	15161
899.153	15104
899.273	14941
899.393	15074
899.513	15085
899.633	15081
899.753	15127
899.873	15169
899.993	15077
900.113	15062
900.232	15051
900.352	15039
900.472	15020
900.591	14979
900.711	15058
900.83	14956
900.95	15070
901.069	15055
901.189	14864
901.308	14750
901.427	14560
901.546	14541
901.665	14670
901.784	14617
901.904	14537
902.023	14336
902.141	14176
902.26	14138
902.379	14103
902.498	14138
902.617	14176
902.735	14157
902.854	14123
902.973	14046
903.091	13917
903.21	13852
903.328	13841
903.446	13890
903.565	13677
903.683	13788
903.801	13628
903.919	13693
904.038	13674
904.156	13533
904.274	13571
904.392	13525
904.51	13575
904.627	13453
904.745	13506
904.863	13537
904.981	13362
905.098	13240
905.216	13160
905.334	13301
905.451	13209
905.569	13175
905.686	13301
905.803	13187
905.921	12981
906.038	13164
906.155	13069
906.272	12973
906.389	12939
906.506	12772
906.623	12840
906.74	12837
906.857	12658
906.974	12726
907.091	12840
907.208	12962
907.324	12821
907.441	12764
907.557	12574
907.674	12620
907.79	12471
907.907	12551
908.023	12612
908.139	12513
908.256	12475
908.372	12395
908.488	12388
908.604	12311
908.72	12235
908.836	12254
908.952	12178
909.068	12251
909.184	12391
909.3	12289
909.415	12289
909.531	12266
909.647	12064
909.762	12064
909.878	11988
909.993	11980
910.108	12026
910.224	12057
910.339	12045
910.454	11942
910.57	11923
910.685	11863
910.8	12171
910.915	12068
911.03	11931
911.145	11794
911.259	11653
911.374	11714
911.489	11638
911.604	11672
911.718	11543
911.833	11467
911.947	11379
912.062	11273
912.176	11433
912.291	11459
912.405	11535
912.519	11668
912.633	11577
912.748	11532
912.862	11482
912.976	11410
913.09	11261
913.204	11303
913.318	11440
913.431	11505
913.545	11414
913.659	11436
913.772	11368
913.886	11208
914	11178
914.113	11299
914.226	11322
914.34	11372
914.453	11128
914.566	11353
914.68	11204
914.793	11113
914.906	10946
915.019	10930
915.132	10919
915.245	10968
915.358	10995
915.47	11003
915.583	11003
915.696	11121
915.809	11079
915.921	11105
916.034	10984
916.146	10965
916.259	10816
916.371	10972
916.483	10927
916.595	10904
916.708	10938
916.82	10953
916.932	10824
917.044	10873
917.156	10839
917.268	10706
917.38	10714
917.491	10744
917.603	10729
917.715	10812
917.826	10869
917.938	10736
918.049	10687
918.161	10752
918.272	10972
918.384	10896
918.495	10714
918.606	10584
918.717	10538
918.828	10653
918.939	10618
919.05	10523
919.161	10679
919.272	10470
919.383	10531
919.494	10630
919.604	10847
919.715	10656
919.826	10584
919.936	10599
920.047	10744
920.157	10691
920.267	10797
920.378	10710
920.488	10637
920.598	10850
920.708	11003
920.818	10850
920.928	10763
921.038	11113
921.148	10949
921.258	10702
921.368	10656
921.477	10531
921.587	10432
921.697	10405
921.806	10561
921.916	10413
922.025	10150
922.134	10173
922.244	10173
922.353	10181
922.462	10078
922.571	10078
922.68	9903
922.789	9766
922.898	9892
923.007	9835
923.116	9895
923.224	9964
923.333	9850
923.442	9751
923.55	9732
923.659	9759
923.767	9835
923.876	9762
923.984	9884
924.092	9648
924.201	9804
924.309	9698
924.417	9720
924.525	9652
924.633	9698
924.741	10550
924.849	9545
924.956	9660
925.064	9603
925.172	9466
925.279	9538
925.387	9530
925.494	9511
925.602	9572
925.709	9694
925.816	9466
925.924	9557
926.031	9648
926.138	9580
926.245	9561
926.352	9462
926.459	9564
926.566	9610
926.673	9492
926.779	9420
926.886	9412
926.993	9279
927.099	9180
927.206	9245
927.312	9233
927.419	9325
927.525	9268
927.631	9310
927.737	9154
927.843	9127
927.95	9020
928.056	9169
928.162	9142
928.267	9150
928.373	9785
928.479	9351
928.585	8990
928.69	9108
928.796	9184
928.901	9047
929.007	8887
929.112	9005
929.218	9036
929.323	8914
929.428	8948
929.533	9051
929.638	8887
929.743	8960
929.848	8960
929.953	8902
930.058	8815
930.163	8708
930.267	8686
930.372	8845
930.477	8621
930.581	8883
930.685	8811
930.79	8667
930.894	8644
930.998	8678
931.103	8804
931.207	8454
931.311	8339
931.415	8332
931.519	8183
931.623	8157
