Data from test_V78500241_3230.txt Node
Date: Fri Mar 25 14:56:12 CST 2022
User: usil
Spectrometer: V785-0024
Trigger mode: 0
Integration Time (sec): 4.000000E-1
Scans to average: 1
Nonlinearity correction enabled: false
Boxcar width: 0
Storing dark spectrum: false
XAxis mode: Wavelengths
Number of Pixels in Spectrum: 1024
>>>>>Begin Spectral Data<<<<<
801.071	21915
801.214	21804
801.356	21637
801.499	21572
801.641	21412
801.783	21249
801.926	21370
802.068	21351
802.211	21203
802.353	21096
802.496	20941
802.638	20838
802.78	20792
802.923	20762
803.065	20693
803.208	20606
803.35	20819
803.492	20781
803.635	20758
803.777	20686
803.919	20838
804.061	21085
804.204	20651
804.346	20526
804.488	20541
804.63	20670
804.773	20526
804.915	20613
805.057	20731
805.199	20511
805.341	20731
805.483	20689
805.626	20617
805.768	20594
805.91	20674
806.052	20682
806.194	20503
806.336	20701
806.478	20590
806.62	20568
806.762	20674
806.904	20826
807.046	21001
807.188	20914
807.33	20834
807.472	21161
807.614	20826
807.756	20773
807.898	20564
808.04	20667
808.182	20613
808.324	20663
808.465	20735
808.607	20876
808.749	21009
808.891	21001
809.033	21203
809.174	21047
809.316	20967
809.458	20971
809.6	20864
809.741	20902
809.883	21043
810.025	21142
810.166	21074
810.308	21112
810.45	20956
810.591	20986
810.733	20804
810.875	20792
811.016	20708
811.158	20617
811.299	20739
811.441	20845
811.582	20845
811.724	20549
811.865	20663
812.007	20693
812.148	20716
812.29	20758
812.431	20941
812.573	21066
812.714	21161
812.855	21089
812.997	21367
813.138	21378
813.279	21154
813.421	21169
813.562	21081
813.703	20967
813.845	20925
813.986	20655
814.127	20423
814.268	20366
814.41	20347
814.551	20218
814.692	20374
814.833	20100
814.974	20202
815.115	20206
815.256	20100
815.397	20088
815.539	20024
815.68	19974
815.821	19970
815.962	19986
816.103	19989
816.244	19738
816.385	19651
816.526	19662
816.666	19464
816.807	19327
816.948	19415
817.089	19422
817.23	19441
817.371	19365
817.512	19499
817.653	19392
817.793	19278
817.934	19331
818.075	19434
818.216	19430
818.356	19358
818.497	19221
818.638	19069
818.778	19088
818.919	19187
819.06	19187
819.2	19198
819.341	19320
819.481	19274
819.622	19415
819.762	19609
819.903	19499
820.043	19483
820.184	19301
820.324	19354
820.465	19422
820.605	19419
820.746	19297
820.886	19213
821.026	19362
821.167	19312
821.307	19373
821.447	19213
821.588	19266
821.728	18935
821.868	18954
822.008	18669
822.149	18791
822.289	18688
822.429	18418
822.569	18426
822.709	18399
822.849	18262
822.99	18350
823.13	18266
823.27	18262
823.41	18140
823.55	17965
823.69	18038
823.83	18148
823.97	17969
824.11	17885
824.25	17828
824.389	17893
824.529	17802
824.669	17786
824.809	17942
824.949	17942
825.089	17904
825.228	17840
825.368	17604
825.508	17695
825.648	17703
825.787	17748
825.927	17649
826.067	17600
826.206	17516
826.346	17668
826.485	17771
826.625	17687
826.765	17627
826.904	17573
827.044	17299
827.183	17341
827.323	17296
827.462	17353
827.601	17345
827.741	17220
827.88	17330
828.02	17200
828.159	17383
828.298	17273
828.437	17387
828.577	17326
828.716	17376
828.855	17208
828.994	17037
829.134	17029
829.273	17170
829.412	17098
829.551	16923
829.69	16991
829.829	17090
829.968	17162
830.107	17079
830.246	17075
830.385	17025
830.524	16953
830.663	16793
830.802	16698
830.941	16744
831.08	16736
831.219	16736
831.357	16717
831.496	16900
831.635	16641
831.774	16634
831.913	16630
832.051	16588
832.19	16538
832.329	16436
832.467	16386
832.606	16295
832.744	16451
832.883	16329
833.022	16390
833.16	16447
833.299	16382
833.437	16352
833.576	16417
833.714	16405
833.852	16470
833.991	16409
834.129	16561
834.267	16588
834.406	16485
834.544	16546
834.682	16481
834.821	16451
834.959	16573
835.097	16405
835.235	16436
835.373	16455
835.511	16466
835.65	16375
835.788	16257
835.926	16162
836.064	16185
836.202	16177
836.34	16462
836.478	16440
836.615	16299
836.753	16405
836.891	16409
837.029	16318
837.167	16253
837.305	16272
837.443	16207
837.58	16143
837.718	16242
837.856	16169
837.993	16139
838.131	16185
838.269	16150
838.406	16253
838.544	16223
838.681	15911
838.819	15907
838.956	15804
839.094	15789
839.231	15842
839.369	15857
839.506	16166
839.643	15968
839.781	15747
839.918	15762
840.055	15667
840.193	15850
840.33	15743
840.467	15728
840.604	15774
840.742	16055
840.879	15599
841.016	15675
841.153	15648
841.29	15884
841.427	15717
841.564	15808
841.701	15720
841.838	15812
841.975	15625
842.112	15709
842.249	15629
842.385	15526
842.522	15698
842.659	15633
842.796	15557
842.933	15519
843.069	15492
843.206	15542
843.343	15557
843.479	15625
843.616	15500
843.752	15378
843.889	15264
844.025	15488
844.162	15329
844.298	15431
844.435	15256
844.571	15287
844.708	15420
844.844	15416
844.98	15431
845.117	15416
845.253	15351
845.389	15214
845.525	15252
845.661	15199
845.798	15146
845.934	15157
846.07	15070
846.206	15226
846.342	15226
846.478	15135
846.614	14956
846.75	14819
846.886	14876
847.022	15062
847.158	14895
847.294	14853
847.429	14944
847.565	14929
847.701	15195
847.837	14670
847.972	14598
848.108	14792
848.244	14739
848.379	14629
848.515	14537
848.65	14423
848.786	14552
848.921	14568
849.057	14590
849.192	14701
849.328	14511
849.463	14499
849.598	14434
849.734	14370
849.869	14267
850.004	14278
850.14	14282
850.275	14221
850.41	14157
850.545	14290
850.68	14176
850.815	14393
850.95	14233
851.085	14495
851.22	14419
851.355	14244
851.49	14206
851.625	14244
851.76	14290
851.895	14176
852.03	14164
852.165	14218
852.299	14256
852.434	14309
852.569	14423
852.703	14438
852.838	14343
852.973	14610
853.107	14355
853.242	14305
853.376	14153
853.511	13974
853.645	14134
853.78	14237
853.914	14138
854.048	14115
854.183	14130
854.317	14145
854.451	14374
854.585	14088
854.72	14161
854.854	14199
854.988	14012
855.122	14077
855.256	14046
855.39	14134
855.524	14214
855.658	14202
855.792	14107
855.926	14130
856.06	14221
856.194	14328
856.327	14058
856.461	14111
856.595	14096
856.729	14115
856.862	14183
856.996	14176
857.13	14138
857.263	14221
857.397	14275
857.53	14084
857.664	14199
857.797	14221
857.931	14324
858.064	14267
858.197	14233
858.331	14218
858.464	14176
858.597	14077
858.731	14172
858.864	14210
858.997	14126
859.13	14172
859.263	14221
859.396	14202
859.529	14164
859.662	14161
859.795	14024
859.928	14183
860.061	14309
860.194	14305
860.327	14202
860.46	14130
860.592	14252
860.725	14347
860.858	14282
860.99	14145
861.123	14035
861.256	14077
861.388	14077
861.521	14956
861.653	14005
861.786	14081
861.918	14005
862.05	14096
862.183	14088
862.315	14145
862.447	14145
862.58	14126
862.712	13917
862.844	13967
862.976	14001
863.108	14008
863.24	14442
863.372	13868
863.504	13963
863.636	13917
863.768	13993
863.9	14001
864.032	13944
864.164	13921
864.296	13944
864.428	14012
864.559	14100
864.691	13936
864.823	14005
864.954	13963
865.086	13928
865.217	13864
865.349	13833
865.48	13955
865.612	13894
865.743	14077
865.875	13986
866.006	13902
866.137	13841
866.269	13963
866.4	13902
866.531	13822
866.662	13849
866.793	13799
866.924	13811
867.055	13970
867.186	13967
867.317	13871
867.448	13803
867.579	13769
867.71	13898
867.841	13833
867.972	13917
868.103	13822
868.233	14039
868.364	13917
868.495	14001
868.625	14100
868.756	14202
868.886	14103
869.017	14172
869.147	14313
869.278	14427
869.408	14149
869.539	14168
869.669	14248
869.799	14256
869.929	14374
870.06	14187
870.19	14587
870.32	14480
870.45	14533
870.58	14518
870.71	14701
870.84	14640
870.97	14560
871.1	14549
871.23	14663
871.36	14682
871.489	14648
871.619	14735
871.749	14796
871.879	14750
872.008	14975
872.138	14746
872.267	14701
872.397	14701
872.526	14522
872.656	14640
872.785	14632
872.915	14788
873.044	14902
873.173	14826
873.303	14796
873.432	14864
873.561	14849
873.69	14845
873.819	14804
873.948	14918
874.077	14921
874.206	14792
874.335	14880
874.464	14948
874.593	15055
874.722	15047
874.851	15051
874.979	15093
875.108	15218
875.237	15119
875.365	15154
875.494	15142
875.623	15275
875.751	15119
875.88	15214
876.008	15332
876.136	15367
876.265	15504
876.393	15766
876.521	15694
876.65	15557
876.778	15610
876.906	15606
877.034	15644
877.162	15599
877.29	15542
877.418	15568
877.546	15568
877.674	15629
877.802	15538
877.93	15530
878.058	15606
878.185	15496
878.313	15591
878.441	15610
878.568	15351
878.696	15553
878.824	15500
878.951	15572
879.079	15728
879.206	15816
879.333	15717
879.461	15500
879.588	15599
879.715	15751
879.842	15911
879.97	15591
880.097	15393
880.224	15496
880.351	15435
880.478	15523
880.605	15428
880.732	15466
880.859	15671
880.986	15439
881.112	15462
881.239	15317
881.366	15119
881.493	15207
881.619	15135
881.746	15051
881.872	14998
881.999	14998
882.125	15077
882.252	15176
882.378	15203
882.505	15173
882.631	14944
882.757	14921
882.883	14921
883.01	14975
883.136	14853
883.262	14743
883.388	14750
883.514	14994
883.64	14914
883.766	14906
883.892	14632
884.018	14727
884.143	14868
884.269	14979
884.395	14636
884.52	14575
884.646	14507
884.772	14499
884.897	14404
885.023	14583
885.148	14735
885.274	14773
885.399	14667
885.524	14587
885.65	14518
885.775	14743
885.9	14598
886.025	14667
886.15	14724
886.275	14541
886.4	14541
886.525	14526
886.65	14552
886.775	14503
886.9	14674
887.025	14800
887.149	14594
887.274	14484
887.399	14438
887.523	14457
887.648	14294
887.773	14275
887.897	14473
888.021	14492
888.146	14366
888.27	14503
888.395	14556
888.519	14427
888.643	14427
888.767	14522
888.891	14442
889.015	14256
889.139	14423
889.263	14191
889.387	14419
889.511	14446
889.635	14446
889.759	14259
889.883	14317
890.006	14374
890.13	14404
890.254	14248
890.377	14256
890.501	14134
890.624	13997
890.748	14062
890.871	14092
890.995	13993
891.118	13890
891.241	13970
891.364	14016
891.488	14149
891.611	14008
891.734	13993
891.857	14020
891.98	13989
892.103	14054
892.226	14020
892.349	13963
892.471	13951
892.594	13887
892.717	14081
892.839	13913
892.962	14008
893.085	13989
893.207	14039
893.33	13902
893.452	13982
893.575	14100
893.697	13925
893.819	14119
893.941	14157
894.064	14161
894.186	13906
894.308	13963
894.43	14084
894.552	14218
894.674	14267
894.796	14046
894.918	14119
895.04	14027
895.161	14054
895.283	14111
895.405	14073
895.526	14054
895.648	14062
895.769	14142
895.891	14237
896.012	14301
896.134	14252
896.255	14161
896.376	14180
896.498	14153
896.619	14183
896.74	14142
896.861	14263
896.982	14541
897.103	14587
897.224	14415
897.345	14434
897.466	14366
897.587	14465
897.708	14575
897.828	14549
897.949	14362
898.07	14187
898.19	14412
898.311	14545
898.431	14374
898.552	14556
898.672	14503
898.792	14689
898.913	14575
899.033	14404
899.153	14343
899.273	14347
899.393	14328
899.513	14286
899.633	14423
899.753	14457
899.873	14298
899.993	14419
900.113	14415
900.232	14454
900.352	14271
900.472	14240
900.591	14225
900.711	14210
900.83	14248
900.95	14286
901.069	14324
901.189	14172
901.308	14088
901.427	13845
901.546	13913
901.665	14024
901.784	13883
901.904	13860
902.023	13727
902.141	13567
902.26	13559
902.379	13658
902.498	13422
902.617	13381
902.735	13476
902.854	13472
902.973	13502
903.091	13240
903.21	13164
903.328	13247
903.446	13122
903.565	13069
903.683	13080
903.801	12996
903.919	13000
904.038	12939
904.156	12859
904.274	12859
904.392	12977
904.51	12867
904.627	12817
904.745	12863
904.863	12924
904.981	12601
905.098	12585
905.216	12551
905.334	12601
905.451	12589
905.569	12578
905.686	12486
905.803	12654
905.921	12327
906.038	12490
906.155	12395
906.272	12285
906.389	12391
906.506	12232
906.623	12159
906.74	12197
906.857	12034
906.974	12152
907.091	12213
907.208	12319
907.324	12159
907.441	12102
907.557	11882
907.674	11931
907.79	11851
907.907	11802
908.023	11965
908.139	11912
908.256	11863
908.372	11821
908.488	11733
908.604	11741
908.72	11665
908.836	11623
908.952	11619
909.068	11657
909.184	11813
909.3	11638
909.415	11707
909.531	11596
909.647	11471
909.762	11459
909.878	11391
909.993	11520
910.108	11455
910.224	11436
910.339	11429
910.454	11383
910.57	11326
910.685	11174
910.8	11471
910.915	11520
911.03	11288
911.145	11155
911.259	11170
911.374	11166
911.489	11151
911.604	11083
911.718	10896
911.833	10904
911.947	10771
912.062	10717
912.176	10835
912.291	10900
912.405	10839
912.519	11098
912.633	11174
912.748	11037
912.862	10930
912.976	10729
913.09	10717
913.204	10801
913.318	10774
913.431	10889
913.545	10858
913.659	10805
913.772	10816
913.886	10714
914	10687
914.113	10778
914.226	10805
914.34	10736
914.453	10580
914.566	10774
914.68	10538
914.793	10641
914.906	10398
915.019	10386
915.132	10352
915.245	10379
915.358	10455
915.47	10432
915.583	10497
915.696	10413
915.809	10615
915.921	10622
916.034	10432
916.146	10348
916.259	10344
916.371	10474
916.483	10455
916.595	10234
916.708	10363
916.82	10322
916.932	10344
917.044	10284
917.156	10287
917.268	10249
917.38	10177
917.491	10211
917.603	10265
917.715	10306
917.826	10382
917.938	10120
918.049	10086
918.161	10287
918.272	10417
918.384	10394
918.495	10291
918.606	10112
918.717	10029
918.828	10147
918.939	10166
919.05	10055
919.161	10158
919.272	9884
919.383	10013
919.494	10211
919.604	10291
919.715	10124
919.826	10124
919.936	10135
920.047	10204
920.157	10101
920.267	10291
920.378	10166
920.488	10177
920.598	10371
920.708	10531
920.818	10352
920.928	10360
921.038	10519
921.148	10466
921.258	10139
921.368	10006
921.477	9956
921.587	9968
921.697	9895
921.806	9949
921.916	9899
922.025	9747
922.134	9770
922.244	9652
922.353	9720
922.462	9599
922.571	9576
922.68	9355
922.789	9370
922.898	9416
923.007	9332
923.116	9408
923.224	9466
923.333	9393
923.442	9264
923.55	9268
923.659	9249
923.767	9408
923.876	9256
923.984	9321
924.092	9195
924.201	9260
924.309	9317
924.417	9336
924.525	9157
924.633	9237
924.741	10112
924.849	9009
924.956	9173
925.064	9043
925.172	9005
925.279	9028
925.387	9089
925.494	9028
925.602	9211
925.709	9097
925.816	8963
925.924	9032
926.031	9150
926.138	9047
926.245	9150
926.352	8975
926.459	9119
926.566	9154
926.673	8960
926.779	8872
926.886	8941
926.993	8815
927.099	8769
927.206	8727
927.312	8640
927.419	8819
927.525	8788
927.631	8750
927.737	8678
927.843	8640
927.95	8564
928.056	8644
928.162	8769
928.267	8712
928.373	9222
928.479	8807
928.585	8499
928.69	8693
928.796	8689
928.901	8594
929.007	8434
929.112	8617
929.218	8625
929.323	8507
929.428	8476
929.533	8621
929.638	8412
929.743	8412
929.848	8541
929.953	8522
930.058	8427
930.163	8244
930.267	8233
930.372	8381
930.477	8244
930.581	8495
930.685	8332
930.79	8187
930.894	8248
930.998	8180
931.103	8362
931.207	7970
931.311	7898
931.415	7917
931.519	7719
931.623	7708
